# t [s], A [cm^2], U [cm/s], P [cPa], c [cm/s]
1.000000000000000021e-03 1.400560000000000138e-01 1.573847500000000177e-01 9.715460000000000207e+01 1.902019999999999982e+03
2.000000000000000042e-03 1.400399999999999978e-01 1.418256500000000031e+00 9.464215000000000089e+01 1.901835000000000036e+03
3.000000000000000062e-03 1.399670000000000081e-01 3.024677000000000060e+00 9.131004999999998972e+01 1.901069999999999936e+03
4.000000000000000083e-03 1.398524999999999907e-01 4.827323499999999434e+00 8.740115000000000123e+01 1.899900000000000091e+03
5.000000000000000104e-03 1.397164999999999935e-01 6.778661500000000117e+00 8.350274999999999181e+01 1.898514999999999873e+03
6.000000000000000125e-03 1.395735000000000170e-01 8.807254999999999612e+00 8.002144999999998731e+01 1.897070000000000164e+03
7.000000000000000146e-03 1.394330000000000014e-01 1.079200999999999944e+01 7.705355000000000132e+01 1.895675000000000182e+03
8.000000000000000167e-03 1.392995000000000205e-01 1.260910999999999937e+01 7.447135000000000105e+01 1.894360000000000127e+03
9.000000000000001055e-03 1.391744999999999788e-01 1.420141500000000079e+01 7.215100000000001046e+01 1.893150000000000091e+03
1.000000000000000194e-02 1.390605000000000036e-01 1.557635000000000147e+01 7.009010000000000673e+01 1.892065000000000055e+03
1.099999999999999936e-02 1.389600000000000002e-01 1.675580000000000069e+01 6.833185000000000286e+01 1.891115000000000009e+03
1.200000000000000025e-02 1.388734999999999831e-01 1.775254999999999939e+01 6.688540000000000418e+01 1.890304999999999836e+03
1.300000000000000114e-02 1.388014999999999943e-01 1.857404999999999973e+01 6.572350000000000136e+01 1.889634999999999991e+03
1.400000000000000203e-02 1.387415000000000176e-01 1.922340000000000160e+01 6.479474999999999341e+01 1.889090000000000146e+03
1.499999999999999944e-02 1.386914999999999953e-01 1.970179999999999865e+01 6.402930000000000632e+01 1.888644999999999982e+03
1.600000000000000033e-02 1.386499999999999955e-01 2.002104999999999890e+01 6.336680000000000490e+01 1.888275000000000091e+03
1.700000000000000122e-02 1.386155000000000026e-01 2.022015000000000029e+01 6.280644999999999811e+01 1.887974999999999909e+03
1.800000000000000211e-02 1.385894999999999766e-01 2.036735000000000184e+01 6.243595000000000539e+01 1.887755000000000109e+03
1.900000000000000300e-02 1.385750000000000037e-01 2.054189999999999827e+01 6.240630000000000166e+01 1.887634999999999991e+03
2.000000000000000042e-02 1.385744999999999894e-01 2.080640000000000001e+01 6.286220000000000141e+01 1.887650000000000091e+03
2.100000000000000130e-02 1.385914999999999786e-01 2.118404999999999916e+01 6.386844999999999573e+01 1.887815000000000055e+03
2.200000000000000219e-02 1.386249999999999982e-01 2.165279999999999916e+01 6.536960000000000548e+01 1.888134999999999991e+03
2.299999999999999961e-02 1.386720000000000175e-01 2.215480000000000160e+01 6.719759999999999422e+01 1.888590000000000146e+03
2.400000000000000050e-02 1.387275000000000036e-01 2.261710000000000065e+01 6.911795000000000755e+01 1.889119999999999891e+03
2.500000000000000139e-02 1.387849999999999917e-01 2.297285000000000110e+01 7.089244999999999663e+01 1.889670000000000073e+03
2.600000000000000228e-02 1.388389999999999902e-01 2.317790000000000106e+01 7.233619999999999095e+01 1.890195000000000164e+03
2.700000000000000316e-02 1.388840000000000074e-01 2.321829999999999927e+01 7.335275000000000034e+01 1.890644999999999982e+03
2.800000000000000058e-02 1.389195000000000013e-01 2.310840000000000316e+01 7.394114999999999327e+01 1.890994999999999891e+03
2.900000000000000147e-02 1.389440000000000119e-01 2.288139999999999930e+01 7.417664999999999509e+01 1.891250000000000000e+03
3.000000000000000236e-02 1.389600000000000002e-01 2.257679999999999865e+01 7.417574999999999363e+01 1.891414999999999964e+03
3.099999999999999978e-02 1.389704999999999968e-01 2.222820000000000107e+01 7.405570000000000164e+01 1.891519999999999982e+03
3.200000000000000067e-02 1.389759999999999884e-01 2.185539999999999949e+01 7.390264999999999418e+01 1.891579999999999927e+03
3.300000000000000155e-02 1.389790000000000192e-01 2.146199999999999974e+01 7.375414999999999566e+01 1.891615000000000009e+03
3.400000000000000244e-02 1.389799999999999924e-01 2.103804999999999836e+01 7.360005000000001019e+01 1.891634999999999991e+03
3.500000000000000333e-02 1.389785000000000048e-01 2.056719999999999970e+01 7.339669999999999561e+01 1.891625000000000000e+03
3.600000000000000422e-02 1.389734999999999998e-01 2.003470000000000084e+01 7.309019999999999584e+01 1.891585000000000036e+03
3.700000000000000511e-02 1.389644999999999908e-01 1.943475000000000108e+01 7.264109999999999445e+01 1.891505000000000109e+03
3.799999999999999906e-02 1.389504999999999768e-01 1.877554999999999907e+01 7.204279999999999973e+01 1.891375000000000000e+03
3.899999999999999994e-02 1.389325000000000143e-01 1.808014999999999972e+01 7.133135000000000048e+01 1.891210000000000036e+03
4.000000000000000083e-02 1.389114999999999933e-01 1.738374999999999915e+01 7.058240000000000691e+01 1.891014999999999873e+03
4.100000000000000172e-02 1.388900000000000134e-01 1.672775000000000034e+01 6.989815000000000111e+01 1.890820000000000164e+03
4.200000000000000261e-02 1.388714999999999811e-01 1.615220000000000056e+01 6.938685000000000969e+01 1.890639999999999873e+03
4.300000000000000350e-02 1.388580000000000092e-01 1.568844999999999956e+01 6.914034999999999798e+01 1.890509999999999991e+03
4.400000000000000439e-02 1.388524999999999898e-01 1.535360000000000014e+01 6.921559999999999491e+01 1.890450000000000045e+03
4.499999999999999833e-02 1.388564999999999938e-01 1.514819999999999922e+01 6.962350000000000705e+01 1.890474999999999909e+03
4.599999999999999922e-02 1.388690000000000202e-01 1.505649999999999977e+01 7.032714999999998895e+01 1.890585000000000036e+03
4.700000000000000011e-02 1.388900000000000134e-01 1.505010000000000048e+01 7.124899999999999523e+01 1.890775000000000091e+03
4.800000000000000100e-02 1.389170000000000127e-01 1.509244999999999948e+01 7.228440000000000509e+01 1.891025000000000091e+03
4.900000000000000189e-02 1.389469999999999872e-01 1.514470000000000027e+01 7.331815000000000282e+01 1.891304999999999836e+03
5.000000000000000278e-02 1.389770000000000172e-01 1.517040000000000077e+01 7.424070000000000391e+01 1.891585000000000036e+03
5.100000000000000366e-02 1.390045000000000031e-01 1.513919999999999888e+01 7.496094999999999686e+01 1.891845000000000027e+03
5.200000000000000455e-02 1.390259999999999829e-01 1.502925000000000111e+01 7.541470000000001050e+01 1.892055000000000064e+03
5.300000000000000544e-02 1.390405000000000113e-01 1.482730000000000103e+01 7.556720000000001392e+01 1.892190000000000055e+03
5.399999999999999939e-02 1.390465000000000173e-01 1.452820000000000000e+01 7.541129999999999711e+01 1.892255000000000109e+03
5.500000000000000028e-02 1.390434999999999865e-01 1.413325000000000031e+01 7.496215000000000828e+01 1.892230000000000018e+03
5.600000000000000117e-02 1.390310000000000157e-01 1.364804999999999957e+01 7.425010000000000332e+01 1.892119999999999891e+03
5.700000000000000205e-02 1.390109999999999957e-01 1.308084999999999987e+01 7.331329999999999814e+01 1.891934999999999945e+03
5.800000000000000294e-02 1.389829999999999954e-01 1.244130000000000003e+01 7.219235000000000468e+01 1.891675000000000182e+03
5.900000000000000383e-02 1.389489999999999892e-01 1.173957000000000050e+01 7.092615000000000691e+01 1.891355000000000018e+03
6.000000000000000472e-02 1.389095000000000191e-01 1.098615999999999993e+01 6.955029999999999291e+01 1.890980000000000018e+03
6.099999999999999867e-02 1.388650000000000162e-01 1.019239999999999924e+01 6.809744999999999493e+01 1.890565000000000055e+03
6.199999999999999956e-02 1.388179999999999970e-01 9.370855000000000601e+00 6.659890000000000043e+01 1.890119999999999891e+03
6.300000000000000044e-02 1.387685000000000168e-01 8.536084999999999923e+00 6.508705000000000496e+01 1.889650000000000091e+03
6.400000000000000133e-02 1.387180000000000080e-01 7.704814999999999969e+00 6.359714999999999918e+01 1.889174999999999955e+03
6.500000000000000222e-02 1.386680000000000135e-01 6.896194999999999631e+00 6.216870000000000118e+01 1.888700000000000045e+03
6.600000000000000311e-02 1.386189999999999922e-01 6.131499999999999950e+00 6.084595000000000198e+01 1.888235000000000127e+03
6.700000000000000400e-02 1.385735000000000161e-01 5.433469999999999800e+00 5.967680000000000007e+01 1.887799999999999955e+03
6.800000000000000488e-02 1.385330000000000172e-01 4.825400000000000134e+00 5.871129999999999427e+01 1.887409999999999854e+03
6.900000000000000577e-02 1.384985000000000244e-01 4.330035000000000522e+00 5.799864999999999782e+01 1.887079999999999927e+03
7.000000000000000666e-02 1.384724999999999984e-01 3.968354999999999855e+00 5.758474999999999966e+01 1.886820000000000164e+03
7.100000000000000755e-02 1.384555000000000091e-01 3.758484999999999854e+00 5.750884999999999536e+01 1.886654999999999973e+03
7.200000000000000844e-02 1.384499999999999897e-01 3.714710000000000178e+00 5.780119999999999436e+01 1.886585000000000036e+03
7.300000000000000933e-02 1.384559999999999957e-01 3.846804999999999808e+00 5.848125000000000284e+01 1.886634999999999991e+03
7.399999999999999634e-02 1.384750000000000147e-01 4.159625000000000128e+00 5.955644999999999811e+01 1.886799999999999955e+03
7.499999999999999722e-02 1.385065000000000046e-01 4.652994999999999770e+00 6.102219999999999800e+01 1.887085000000000036e+03
7.599999999999999811e-02 1.385514999999999941e-01 5.321919999999999540e+00 6.286234999999999928e+01 1.887494999999999891e+03
7.699999999999999900e-02 1.386089999999999822e-01 6.157024999999999082e+00 6.505065000000000452e+01 1.888025000000000091e+03
7.799999999999999989e-02 1.386775000000000091e-01 7.145215000000000316e+00 6.755270000000000152e+01 1.888664999999999964e+03
7.900000000000000078e-02 1.387579999999999925e-01 8.270474999999999355e+00 7.032804999999999040e+01 1.889414999999999964e+03
8.000000000000000167e-02 1.388479999999999992e-01 9.514665000000000816e+00 7.333299999999999841e+01 1.890255000000000109e+03
8.100000000000000255e-02 1.389460000000000139e-01 1.085859999999999914e+01 7.652250000000000796e+01 1.891184999999999945e+03
8.200000000000000344e-02 1.390520000000000089e-01 1.228274499999999847e+01 7.985299999999999443e+01 1.892180000000000064e+03
8.300000000000000433e-02 1.391629999999999812e-01 1.376804999999999879e+01 8.328409999999999513e+01 1.893230000000000018e+03
8.400000000000000522e-02 1.392784999999999995e-01 1.529664999999999964e+01 8.678010000000000446e+01 1.894329999999999927e+03
8.500000000000000611e-02 1.393975000000000075e-01 1.685210000000000008e+01 9.031104999999999450e+01 1.895465000000000146e+03
8.600000000000000699e-02 1.395184999999999897e-01 1.842024999999999935e+01 9.385349999999999682e+01 1.896619999999999891e+03
8.700000000000000788e-02 1.396410000000000151e-01 1.998864999999999981e+01 9.738960000000000150e+01 1.897795000000000073e+03
8.800000000000000877e-02 1.397645000000000137e-01 2.154695000000000249e+01 1.009074499999999972e+02 1.898974999999999909e+03
8.899999999999999578e-02 1.398880000000000123e-01 2.308664999999999878e+01 1.044001999999999981e+02 1.900164999999999964e+03
8.999999999999999667e-02 1.400115000000000109e-01 2.460070000000000334e+01 1.078635000000000019e+02 1.901355000000000018e+03
9.099999999999999756e-02 1.401344999999999952e-01 2.608330000000000126e+01 1.112964999999999947e+02 1.902549999999999955e+03
9.199999999999999845e-02 1.402575000000000072e-01 2.752945000000000064e+01 1.146974999999999909e+02 1.903735000000000127e+03
9.299999999999999933e-02 1.403790000000000038e-01 2.893469999999999942e+01 1.180660000000000025e+02 1.904920000000000073e+03
9.400000000000000022e-02 1.405000000000000138e-01 3.029500000000000171e+01 1.214010000000000105e+02 1.906095000000000027e+03
9.500000000000000111e-02 1.406209999999999960e-01 3.160634999999999906e+01 1.246984999999999957e+02 1.907264999999999873e+03
9.600000000000000200e-02 1.407400000000000040e-01 3.286469999999999914e+01 1.279530000000000030e+02 1.908425000000000182e+03
9.700000000000000289e-02 1.408579999999999832e-01 3.406609999999999872e+01 1.311585000000000036e+02 1.909579999999999927e+03
9.800000000000000377e-02 1.409739999999999882e-01 3.520664999999999623e+01 1.343059999999999832e+02 1.910719999999999800e+03
9.900000000000000466e-02 1.410890000000000200e-01 3.628225000000000477e+01 1.373865000000000123e+02 1.911844999999999800e+03
1.000000000000000056e-01 1.412014999999999798e-01 3.728914999999999935e+01 1.403890000000000100e+02 1.912944999999999936e+03
1.010000000000000064e-01 1.413114999999999788e-01 3.822360000000000468e+01 1.433034999999999854e+02 1.914025000000000091e+03
1.020000000000000073e-01 1.414185000000000025e-01 3.908220000000000027e+01 1.461189999999999998e+02 1.915079999999999927e+03
1.030000000000000082e-01 1.415224999999999955e-01 3.986155000000000115e+01 1.488255000000000052e+02 1.916099999999999909e+03
1.040000000000000091e-01 1.416229999999999989e-01 4.055870000000000175e+01 1.514114999999999895e+02 1.917095000000000027e+03
1.050000000000000100e-01 1.417189999999999839e-01 4.117085000000000150e+01 1.538679999999999950e+02 1.918045000000000073e+03
1.059999999999999970e-01 1.418110000000000204e-01 4.169549999999999557e+01 1.561860000000000070e+02 1.918954999999999927e+03
1.069999999999999979e-01 1.418979999999999964e-01 4.213040000000000163e+01 1.583564999999999827e+02 1.919824999999999818e+03
1.079999999999999988e-01 1.419805000000000095e-01 4.247374999999999545e+01 1.603710000000000093e+02 1.920639999999999873e+03
1.089999999999999997e-01 1.420575000000000032e-01 4.272395000000000209e+01 1.622225000000000250e+02 1.921405000000000200e+03
1.100000000000000006e-01 1.421290000000000053e-01 4.288015000000000043e+01 1.639050000000000011e+02 1.922115000000000009e+03
1.110000000000000014e-01 1.421945000000000014e-01 4.294190000000000396e+01 1.654134999999999991e+02 1.922775000000000091e+03
1.120000000000000023e-01 1.422539999999999916e-01 4.290959999999999752e+01 1.667445000000000164e+02 1.923369999999999891e+03
1.130000000000000032e-01 1.423074999999999757e-01 4.278449999999999420e+01 1.678969999999999914e+02 1.923900000000000091e+03
1.140000000000000041e-01 1.423544999999999949e-01 4.256874999999999432e+01 1.688720000000000141e+02 1.924380000000000109e+03
1.150000000000000050e-01 1.423955000000000082e-01 4.226560000000000628e+01 1.696719999999999970e+02 1.924795000000000073e+03
1.160000000000000059e-01 1.424305000000000154e-01 4.187919999999999732e+01 1.703034999999999854e+02 1.925150000000000091e+03
1.170000000000000068e-01 1.424594999999999889e-01 4.141490000000000293e+01 1.707744999999999891e+02 1.925449999999999818e+03
1.180000000000000077e-01 1.424829999999999985e-01 4.087870000000000203e+01 1.710949999999999989e+02 1.925684999999999945e+03
1.190000000000000085e-01 1.425009999999999888e-01 4.027774999999999750e+01 1.712775000000000034e+02 1.925875000000000000e+03
1.200000000000000094e-01 1.425140000000000018e-01 3.961939999999999884e+01 1.713360000000000127e+02 1.926005000000000109e+03
1.209999999999999964e-01 1.425220000000000098e-01 3.891190000000000282e+01 1.712845000000000084e+02 1.926095000000000027e+03
1.219999999999999973e-01 1.425265000000000004e-01 3.816334999999999411e+01 1.711399999999999864e+02 1.926144999999999982e+03
1.229999999999999982e-01 1.425265000000000004e-01 3.738204999999999956e+01 1.709164999999999850e+02 1.926160000000000082e+03
1.239999999999999991e-01 1.425239999999999840e-01 3.657594999999999885e+01 1.706289999999999907e+02 1.926134999999999991e+03
1.250000000000000000e-01 1.425184999999999924e-01 3.575265000000000271e+01 1.702909999999999968e+02 1.926085000000000036e+03
1.260000000000000009e-01 1.425109999999999988e-01 3.491910000000000025e+01 1.699144999999999754e+02 1.926014999999999873e+03
1.270000000000000018e-01 1.425015000000000032e-01 3.408165000000000333e+01 1.695104999999999791e+02 1.925929999999999836e+03
1.280000000000000027e-01 1.424909999999999788e-01 3.324575000000000102e+01 1.690865000000000009e+02 1.925824999999999818e+03
1.290000000000000036e-01 1.424790000000000223e-01 3.241590000000000060e+01 1.686499999999999773e+02 1.925704999999999927e+03
1.300000000000000044e-01 1.424659999999999815e-01 3.159559999999999746e+01 1.682049999999999841e+02 1.925579999999999927e+03
1.310000000000000053e-01 1.424524999999999819e-01 3.078750000000000142e+01 1.677539999999999907e+02 1.925450000000000045e+03
1.320000000000000062e-01 1.424380000000000090e-01 2.999324999999999619e+01 1.672975000000000136e+02 1.925309999999999945e+03
1.330000000000000071e-01 1.424235000000000084e-01 2.921359999999999957e+01 1.668344999999999914e+02 1.925159999999999854e+03
1.340000000000000080e-01 1.424084999999999934e-01 2.844845000000000113e+01 1.663625000000000114e+02 1.925009999999999991e+03
1.350000000000000089e-01 1.423929999999999918e-01 2.769705000000000084e+01 1.658779999999999859e+02 1.924855000000000018e+03
1.360000000000000098e-01 1.423764999999999892e-01 2.695799999999999841e+01 1.653754999999999882e+02 1.924690000000000055e+03
1.370000000000000107e-01 1.423594999999999999e-01 2.622935000000000016e+01 1.648494999999999777e+02 1.924515000000000100e+03
1.380000000000000115e-01 1.423409999999999953e-01 2.550885000000000247e+01 1.642944999999999993e+02 1.924340000000000146e+03
1.390000000000000124e-01 1.423214999999999897e-01 2.479415000000000191e+01 1.637044999999999959e+02 1.924144999999999982e+03
1.400000000000000133e-01 1.423010000000000108e-01 2.408259999999999934e+01 1.630740000000000123e+02 1.923940000000000055e+03
1.410000000000000142e-01 1.422795000000000032e-01 2.337184999999999846e+01 1.623985000000000127e+02 1.923724999999999909e+03
1.420000000000000151e-01 1.422555000000000069e-01 2.265964999999999918e+01 1.616725000000000136e+02 1.923490000000000009e+03
1.430000000000000160e-01 1.422305000000000097e-01 2.194409999999999883e+01 1.608940000000000055e+02 1.923244999999999891e+03
1.440000000000000169e-01 1.422035000000000105e-01 2.122384999999999877e+01 1.600609999999999786e+02 1.922980000000000018e+03
1.450000000000000178e-01 1.421745000000000092e-01 2.049810000000000088e+01 1.591719999999999970e+02 1.922690000000000055e+03
1.459999999999999909e-01 1.421435000000000060e-01 1.976655000000000229e+01 1.582300000000000182e+02 1.922389999999999873e+03
1.469999999999999918e-01 1.421109999999999873e-01 1.902974999999999994e+01 1.572364999999999782e+02 1.922065000000000055e+03
1.479999999999999927e-01 1.420764999999999945e-01 1.828885000000000005e+01 1.561965000000000146e+02 1.921724999999999909e+03
1.489999999999999936e-01 1.420405000000000140e-01 1.754589999999999961e+01 1.551159999999999854e+02 1.921369999999999891e+03
1.499999999999999944e-01 1.420029999999999903e-01 1.680335000000000178e+01 1.540040000000000191e+02 1.921005000000000109e+03
1.509999999999999953e-01 1.419640000000000069e-01 1.606445000000000078e+01 1.528675000000000068e+02 1.920625000000000000e+03
1.519999999999999962e-01 1.419245000000000090e-01 1.533295000000000030e+01 1.517169999999999845e+02 1.920235000000000127e+03
1.529999999999999971e-01 1.418845000000000245e-01 1.461299999999999955e+01 1.505639999999999930e+02 1.919840000000000146e+03
1.539999999999999980e-01 1.418439999999999979e-01 1.390874999999999950e+01 1.494184999999999945e+02 1.919440000000000055e+03
1.549999999999999989e-01 1.418034999999999990e-01 1.322484999999999999e+01 1.482920000000000016e+02 1.919039999999999964e+03
1.559999999999999998e-01 1.417634999999999867e-01 1.256550000000000011e+01 1.471954999999999814e+02 1.918654999999999973e+03
1.570000000000000007e-01 1.417245000000000033e-01 1.193499999999999872e+01 1.461390000000000100e+02 1.918269999999999982e+03
1.580000000000000016e-01 1.416864999999999930e-01 1.133711999999999875e+01 1.451305000000000121e+02 1.917894999999999982e+03
1.590000000000000024e-01 1.416499999999999981e-01 1.077515999999999963e+01 1.441784999999999854e+02 1.917534999999999854e+03
