# t [s], A [cm^2], U [cm/s], P [cPa], c [cm/s]
1.000000000000000021e-03 5.272529999999999717e-01 3.953200000000003933e-03 1.013725000000000023e+02 1.510735000000000127e+03
2.000000000000000042e-03 5.272464999999999513e-01 -4.518844999999999524e-04 1.013559999999999945e+02 1.510730000000000018e+03
3.000000000000000062e-03 5.272669999999999302e-01 3.685610000000000275e-02 1.013924999999999983e+02 1.510739999999999782e+03
4.000000000000000083e-03 5.273105000000000153e-01 1.174153000000000002e-01 1.014919999999999902e+02 1.510764999999999873e+03
5.000000000000000104e-03 5.273250000000000437e-01 1.515874500000000125e-01 1.015384999999999991e+02 1.510779999999999973e+03
6.000000000000000125e-03 5.273004999999999498e-01 1.126562499999999994e-01 1.014724999999999966e+02 1.510769999999999982e+03
7.000000000000000146e-03 5.272649999999999837e-01 5.139350000000000862e-02 1.013359999999999985e+02 1.510735000000000127e+03
8.000000000000000167e-03 5.272345000000000503e-01 -3.796499999999980446e-03 1.011684999999999945e+02 1.510694999999999936e+03
9.000000000000001055e-03 5.271890000000000187e-01 -9.367100000000000426e-02 1.009329999999999927e+02 1.510644999999999982e+03
1.000000000000000194e-02 5.271129999999999427e-01 -2.529575000000000018e-01 1.005786999999999978e+02 1.510555000000000064e+03
1.099999999999999936e-02 5.270000000000000240e-01 -4.925549999999999651e-01 1.000742999999999938e+02 1.510440000000000055e+03
1.200000000000000025e-02 5.268414999999999626e-01 -8.251649999999999263e-01 9.938110000000000355e+01 1.510275000000000091e+03
1.300000000000000114e-02 5.266294999999999726e-01 -1.257994999999999974e+00 9.846375000000000455e+01 1.510045000000000073e+03
1.400000000000000203e-02 5.263710000000000333e-01 -1.765795000000000003e+00 9.732390000000000896e+01 1.509759999999999991e+03
1.499999999999999944e-02 5.260884999999999589e-01 -2.284745000000000026e+00 9.601814999999999145e+01 1.509424999999999955e+03
1.600000000000000033e-02 5.258125000000000160e-01 -2.734875000000000167e+00 9.463720000000000709e+01 1.509059999999999945e+03
1.700000000000000122e-02 5.255650000000000599e-01 -3.050234000000000112e+00 9.327469999999999573e+01 1.508684999999999945e+03
1.800000000000000211e-02 5.253539999999999877e-01 -3.197270999999999752e+00 9.199365000000000236e+01 1.508309999999999945e+03
1.900000000000000300e-02 5.251734999999999598e-01 -3.176802499999999974e+00 9.081674999999999898e+01 1.507954999999999927e+03
2.000000000000000042e-02 5.250090000000000590e-01 -3.014799000000000007e+00 8.972984999999999900e+01 1.507615000000000009e+03
2.100000000000000130e-02 5.248439999999999772e-01 -2.748789499999999997e+00 8.869499999999999318e+01 1.507280000000000200e+03
2.200000000000000219e-02 5.246640000000000192e-01 -2.415103000000000222e+00 8.766715000000000657e+01 1.506940000000000055e+03
2.299999999999999961e-02 5.244615000000000249e-01 -2.039639999999999898e+00 8.660880000000000223e+01 1.506590000000000146e+03
2.400000000000000050e-02 5.242359999999999243e-01 -1.633674999999999988e+00 8.549954999999999927e+01 1.506235000000000127e+03
2.500000000000000139e-02 5.239925000000000832e-01 -1.195015000000000160e+00 8.433944999999999936e+01 1.505855000000000018e+03
2.600000000000000228e-02 5.237395000000000245e-01 -7.135849999999999138e-01 8.314459999999999695e+01 1.505470000000000027e+03
2.700000000000000316e-02 5.234855000000000480e-01 -1.792349999999998111e-01 8.193874999999999886e+01 1.505079999999999927e+03
2.800000000000000058e-02 5.232360000000000344e-01 4.109700000000002795e-01 8.074295000000000755e+01 1.504684999999999945e+03
2.900000000000000147e-02 5.229909999999999837e-01 1.048165000000000235e+00 7.956690000000000396e+01 1.504299999999999955e+03
3.000000000000000236e-02 5.227444999999999453e-01 1.710700000000000109e+00 7.840494999999999948e+01 1.503910000000000082e+03
3.099999999999999978e-02 5.224889999999999812e-01 2.366699999999999804e+00 7.723539999999999850e+01 1.503525000000000091e+03
3.200000000000000067e-02 5.222134999999999971e-01 2.979024999999999590e+00 7.602559999999999718e+01 1.503125000000000000e+03
3.300000000000000155e-02 5.219089999999999563e-01 3.511524999999999785e+00 7.473865000000000691e+01 1.502714999999999918e+03
3.400000000000000244e-02 5.215690000000000603e-01 3.935290000000000177e+00 7.334205000000000041e+01 1.502280000000000200e+03
3.500000000000000333e-02 5.211915000000000298e-01 4.233419999999999739e+00 7.181559999999998922e+01 1.501809999999999945e+03
3.600000000000000422e-02 5.207805000000000906e-01 4.403659999999999464e+00 7.015739999999999554e+01 1.501309999999999945e+03
3.700000000000000511e-02 5.203444999999999876e-01 4.458014999999999617e+00 6.838569999999999993e+01 1.500784999999999854e+03
3.799999999999999906e-02 5.198970000000000535e-01 4.420004999999999740e+00 6.653745000000000687e+01 1.500240000000000009e+03
3.899999999999999994e-02 5.194520000000000248e-01 4.319799999999999862e+00 6.466360000000000241e+01 1.499690000000000055e+03
4.000000000000000083e-02 5.190240000000000409e-01 4.189689999999999692e+00 6.282240000000000180e+01 1.499144999999999982e+03
4.100000000000000172e-02 5.186260000000000314e-01 4.059565000000000090e+00 6.107245000000000346e+01 1.498619999999999891e+03
4.200000000000000261e-02 5.182690000000000907e-01 3.954164999999999708e+00 5.946739999999999782e+01 1.498125000000000000e+03
4.300000000000000350e-02 5.179590000000000583e-01 3.892025000000000290e+00 5.805205000000000126e+01 1.497684999999999945e+03
4.400000000000000439e-02 5.177015000000000366e-01 3.885564999999999714e+00 5.686045000000000016e+01 1.497299999999999955e+03
4.499999999999999833e-02 5.174995000000000012e-01 3.942656999999999634e+00 5.591635000000000133e+01 1.496984999999999900e+03
4.599999999999999922e-02 5.173535000000000217e-01 4.068210500000000174e+00 5.523449999999999704e+01 1.496735000000000127e+03
4.700000000000000011e-02 5.172645000000000159e-01 4.266060000000000407e+00 5.482294999999999874e+01 1.496565000000000055e+03
4.800000000000000100e-02 5.172324999999999839e-01 4.540320000000000356e+00 5.468550000000000466e+01 1.496474999999999909e+03
4.900000000000000189e-02 5.172590000000000243e-01 4.896114999999999995e+00 5.482354999999999734e+01 1.496460000000000036e+03
5.000000000000000278e-02 5.173440000000000261e-01 5.339565000000000339e+00 5.523725000000000307e+01 1.496534999999999854e+03
5.100000000000000366e-02 5.174879999999999480e-01 5.877155000000000129e+00 5.592605000000000359e+01 1.496684999999999945e+03
5.200000000000000455e-02 5.176914999999999711e-01 6.514685000000000059e+00 5.688800000000000523e+01 1.496914999999999964e+03
5.300000000000000544e-02 5.179540000000000255e-01 7.256025000000000169e+00 5.811889999999999645e+01 1.497224999999999909e+03
5.399999999999999939e-02 5.182735000000000536e-01 8.102199999999999847e+00 5.961139999999999617e+01 1.497619999999999891e+03
5.500000000000000028e-02 5.186465000000000103e-01 9.050464999999999094e+00 6.135350000000000392e+01 1.498079999999999927e+03
5.600000000000000117e-02 5.190695000000000725e-01 1.009438000000000102e+01 6.332855000000000700e+01 1.498614999999999782e+03
5.700000000000000205e-02 5.195359999999999978e-01 1.122372500000000173e+01 6.551484999999999559e+01 1.499215000000000146e+03
5.800000000000000294e-02 5.200409999999999755e-01 1.242523500000000070e+01 6.788639999999999475e+01 1.499880000000000109e+03
5.900000000000000383e-02 5.205759999999999277e-01 1.368369500000000016e+01 7.041374999999999318e+01 1.500590000000000146e+03
6.000000000000000472e-02 5.211350000000000149e-01 1.498264999999999958e+01 7.306560000000000343e+01 1.501345000000000027e+03
6.099999999999999867e-02 5.217110000000000358e-01 1.630557999999999907e+01 7.581010000000000559e+01 1.502134999999999991e+03
6.199999999999999956e-02 5.222965000000000524e-01 1.763691000000000031e+01 7.861655000000000371e+01 1.502950000000000045e+03
6.300000000000000044e-02 5.228885000000000893e-01 1.896255000000000024e+01 8.145674999999999955e+01 1.503779999999999973e+03
6.400000000000000133e-02 5.234794999999999865e-01 2.027040000000000219e+01 8.430594999999999573e+01 1.504625000000000000e+03
6.500000000000000222e-02 5.240679999999999783e-01 2.155069999999999908e+01 8.714364999999999384e+01 1.505474999999999909e+03
6.600000000000000311e-02 5.246499999999999497e-01 2.279590000000000316e+01 8.995390000000000441e+01 1.506320000000000164e+03
6.700000000000000400e-02 5.252250000000000529e-01 2.400029999999999930e+01 9.272480000000000189e+01 1.507164999999999964e+03
6.800000000000000488e-02 5.257910000000000084e-01 2.516015000000000157e+01 9.544839999999999236e+01 1.508000000000000000e+03
6.900000000000000577e-02 5.263480000000000381e-01 2.627295000000000158e+01 9.812170000000000414e+01 1.508820000000000164e+03
7.000000000000000666e-02 5.268964999999999899e-01 2.733715000000000117e+01 1.007419500000000028e+02 1.509630000000000109e+03
7.100000000000000755e-02 5.274360000000000159e-01 2.835190000000000055e+01 1.033102000000000089e+02 1.510429999999999836e+03
7.200000000000000844e-02 5.279675000000000340e-01 2.931654999999999944e+01 1.058277999999999963e+02 1.511220000000000027e+03
7.300000000000000933e-02 5.284900000000000153e-01 3.023049999999999926e+01 1.082959999999999923e+02 1.511990000000000009e+03
7.399999999999999634e-02 5.290044999999999886e-01 3.109290000000000020e+01 1.107169999999999987e+02 1.512750000000000000e+03
7.499999999999999722e-02 5.295110000000000650e-01 3.190259999999999962e+01 1.130905000000000058e+02 1.513505000000000109e+03
7.599999999999999811e-02 5.300080000000000346e-01 3.265810000000000457e+01 1.154164999999999992e+02 1.514240000000000009e+03
7.699999999999999900e-02 5.304950000000000498e-01 3.335730000000000217e+01 1.176914999999999907e+02 1.514960000000000036e+03
7.799999999999999989e-02 5.309714999999999296e-01 3.399795000000000300e+01 1.199124999999999943e+02 1.515670000000000073e+03
7.900000000000000078e-02 5.314355000000000606e-01 3.457735000000000269e+01 1.220739999999999981e+02 1.516360000000000127e+03
8.000000000000000167e-02 5.318849999999999412e-01 3.509290000000000020e+01 1.241694999999999993e+02 1.517029999999999973e+03
8.100000000000000255e-02 5.323195000000000565e-01 3.554200000000000159e+01 1.261920000000000073e+02 1.517684999999999945e+03
8.200000000000000344e-02 5.327364999999999462e-01 3.592240000000000322e+01 1.281329999999999814e+02 1.518309999999999945e+03
8.300000000000000433e-02 5.331345000000000667e-01 3.623215000000000430e+01 1.299859999999999900e+02 1.518920000000000073e+03
8.400000000000000522e-02 5.335119999999999862e-01 3.646990000000000265e+01 1.317435000000000116e+02 1.519494999999999891e+03
8.500000000000000611e-02 5.338680000000000092e-01 3.663495000000000346e+01 1.333979999999999961e+02 1.520039999999999964e+03
8.600000000000000699e-02 5.342010000000000369e-01 3.672710000000000008e+01 1.349449999999999932e+02 1.520559999999999945e+03
8.700000000000000788e-02 5.345104999999999995e-01 3.674699999999999989e+01 1.363790000000000191e+02 1.521039999999999964e+03
8.800000000000000877e-02 5.347965000000000080e-01 3.669580000000000553e+01 1.376974999999999909e+02 1.521490000000000009e+03
8.899999999999999578e-02 5.350574999999999637e-01 3.657515000000000072e+01 1.388979999999999961e+02 1.521904999999999973e+03
8.999999999999999667e-02 5.352939999999999365e-01 3.638724999999999454e+01 1.399800000000000182e+02 1.522279999999999973e+03
9.099999999999999756e-02 5.355060000000000375e-01 3.613474999999999682e+01 1.409435000000000002e+02 1.522619999999999891e+03
9.199999999999999845e-02 5.356940000000000035e-01 3.582079999999999842e+01 1.417900000000000205e+02 1.522925000000000182e+03
9.299999999999999933e-02 5.358579999999999455e-01 3.544889999999999475e+01 1.425219999999999914e+02 1.523194999999999936e+03
9.400000000000000022e-02 5.359990000000000032e-01 3.502299999999999613e+01 1.431424999999999841e+02 1.523429999999999836e+03
9.500000000000000111e-02 5.361185000000000533e-01 3.454749999999999943e+01 1.436564999999999941e+02 1.523630000000000109e+03
9.600000000000000200e-02 5.362164999999999848e-01 3.402724999999999511e+01 1.440695000000000050e+02 1.523800000000000182e+03
9.700000000000000289e-02 5.362955000000000361e-01 3.346730000000000160e+01 1.443870000000000005e+02 1.523934999999999945e+03
9.800000000000000377e-02 5.363554999999999851e-01 3.287340000000000373e+01 1.446169999999999902e+02 1.524045000000000073e+03
9.900000000000000466e-02 5.363995000000000291e-01 3.225130000000000052e+01 1.447665000000000077e+02 1.524119999999999891e+03
1.000000000000000056e-01 5.364290000000000447e-01 3.160699999999999932e+01 1.448449999999999989e+02 1.524180000000000064e+03
1.010000000000000064e-01 5.364455000000000195e-01 3.094660000000000366e+01 1.448614999999999782e+02 1.524215000000000146e+03
1.020000000000000073e-01 5.364510000000000112e-01 3.027590000000000003e+01 1.448240000000000123e+02 1.524224999999999909e+03
1.030000000000000082e-01 5.364474999999999660e-01 2.960065000000000168e+01 1.447420000000000186e+02 1.524230000000000018e+03
1.040000000000000091e-01 5.364370000000000527e-01 2.892585000000000051e+01 1.446240000000000236e+02 1.524210000000000036e+03
1.050000000000000100e-01 5.364200000000000079e-01 2.825625000000000142e+01 1.444780000000000086e+02 1.524184999999999945e+03
1.059999999999999970e-01 5.363985000000000003e-01 2.759539999999999793e+01 1.443109999999999786e+02 1.524150000000000091e+03
1.069999999999999979e-01 5.363740000000000174e-01 2.694634999999999891e+01 1.441284999999999741e+02 1.524105000000000018e+03
1.079999999999999988e-01 5.363459999999999894e-01 2.631114999999999782e+01 1.439350000000000023e+02 1.524049999999999955e+03
1.089999999999999997e-01 5.363154999999999450e-01 2.569095000000000084e+01 1.437344999999999970e+02 1.523994999999999891e+03
1.100000000000000006e-01 5.362830000000000652e-01 2.508599999999999852e+01 1.435274999999999750e+02 1.523940000000000055e+03
1.110000000000000014e-01 5.362480000000000580e-01 2.449579999999999913e+01 1.433160000000000025e+02 1.523875000000000000e+03
1.120000000000000023e-01 5.362109999999999932e-01 2.391920000000000002e+01 1.430980000000000132e+02 1.523809999999999945e+03
1.130000000000000032e-01 5.361715000000000231e-01 2.335439999999999827e+01 1.428735000000000070e+02 1.523740000000000009e+03
1.140000000000000041e-01 5.361274999999999791e-01 2.279919999999999902e+01 1.426385000000000218e+02 1.523670000000000073e+03
1.150000000000000050e-01 5.360800000000000010e-01 2.225124999999999886e+01 1.423915000000000077e+02 1.523590000000000146e+03
1.160000000000000059e-01 5.360274999999999901e-01 2.170795000000000030e+01 1.421295000000000073e+02 1.523514999999999873e+03
1.170000000000000068e-01 5.359700000000000575e-01 2.116669999999999874e+01 1.418489999999999895e+02 1.523425000000000182e+03
1.180000000000000077e-01 5.359070000000000222e-01 2.062494999999999834e+01 1.415475000000000136e+02 1.523329999999999927e+03
1.190000000000000085e-01 5.358370000000000077e-01 2.008044999999999902e+01 1.412219999999999800e+02 1.523235000000000127e+03
1.200000000000000094e-01 5.357619999999999605e-01 1.953140000000000143e+01 1.408714999999999975e+02 1.523130000000000109e+03
1.209999999999999964e-01 5.356794999999999751e-01 1.897615000000000052e+01 1.404945000000000164e+02 1.523014999999999873e+03
1.219999999999999973e-01 5.355909999999999282e-01 1.841365000000000052e+01 1.400904999999999916e+02 1.522889999999999873e+03
1.229999999999999982e-01 5.354965000000000419e-01 1.784329999999999927e+01 1.396605000000000132e+02 1.522759999999999991e+03
1.239999999999999991e-01 5.353964999999999419e-01 1.726510000000000034e+01 1.392055000000000007e+02 1.522625000000000000e+03
1.250000000000000000e-01 5.352915000000000312e-01 1.667965000000000231e+01 1.387289999999999850e+02 1.522480000000000018e+03
1.260000000000000009e-01 5.351825000000000054e-01 1.608794999999999931e+01 1.382330000000000041e+02 1.522329999999999927e+03
1.270000000000000018e-01 5.350714999999999222e-01 1.549164999999999992e+01 1.377225000000000250e+02 1.522174999999999955e+03
1.280000000000000027e-01 5.349580000000000446e-01 1.489295000000000080e+01 1.372030000000000030e+02 1.522025000000000091e+03
1.290000000000000036e-01 5.348439999999999861e-01 1.429424999999999990e+01 1.366790000000000020e+02 1.521860000000000127e+03
1.300000000000000044e-01 5.347310000000000674e-01 1.369860000000000078e+01 1.361570000000000107e+02 1.521704999999999927e+03
1.310000000000000053e-01 5.346204999999999430e-01 1.310909499999999994e+01 1.356434999999999889e+02 1.521545000000000073e+03
1.320000000000000062e-01 5.345139999999999336e-01 1.252913000000000210e+01 1.351450000000000102e+02 1.521389999999999873e+03
1.330000000000000071e-01 5.344124999999999570e-01 1.196207000000000065e+01 1.346680000000000064e+02 1.521244999999999891e+03
1.340000000000000080e-01 5.343175000000000008e-01 1.141129499999999908e+01 1.342185000000000059e+02 1.521105000000000018e+03
1.350000000000000089e-01 5.342305000000000526e-01 1.088005000000000067e+01 1.338029999999999973e+02 1.520970000000000027e+03
1.360000000000000098e-01 5.341519999999999602e-01 1.037122000000000099e+01 1.334259999999999877e+02 1.520849999999999909e+03
1.370000000000000107e-01 5.340835000000000443e-01 9.887464999999998838e+00 1.330929999999999893e+02 1.520735000000000127e+03
1.380000000000000115e-01 5.340249999999999719e-01 9.430945000000001244e+00 1.328059999999999832e+02 1.520639999999999873e+03
1.390000000000000124e-01 5.339774999999999938e-01 9.003289999999999793e+00 1.325685000000000002e+02 1.520559999999999945e+03
1.400000000000000133e-01 5.339414999999999578e-01 8.605610000000000426e+00 1.323815000000000168e+02 1.520490000000000009e+03
1.410000000000000142e-01 5.339160000000000572e-01 8.238474999999999326e+00 1.322454999999999927e+02 1.520434999999999945e+03
1.420000000000000151e-01 5.339009999999999589e-01 7.901899999999999480e+00 1.321600000000000250e+02 1.520394999999999982e+03
1.430000000000000160e-01 5.338964999999999961e-01 7.595324999999999882e+00 1.321229999999999905e+02 1.520369999999999891e+03
1.440000000000000169e-01 5.339015000000000288e-01 7.317729999999999180e+00 1.321315000000000168e+02 1.520360000000000127e+03
1.450000000000000178e-01 5.339150000000000285e-01 7.067664999999999864e+00 1.321820000000000164e+02 1.520365000000000009e+03
1.459999999999999909e-01 5.339359999999999662e-01 6.843329999999999913e+00 1.322704999999999984e+02 1.520375000000000000e+03
1.469999999999999918e-01 5.339639999999999942e-01 6.642665000000000042e+00 1.323919999999999959e+02 1.520400000000000091e+03
1.479999999999999927e-01 5.339975000000000138e-01 6.463424999999999976e+00 1.325414999999999850e+02 1.520434999999999945e+03
1.489999999999999936e-01 5.340350000000000374e-01 6.303300000000000125e+00 1.327139999999999986e+02 1.520474999999999909e+03
1.499999999999999944e-01 5.340765000000000651e-01 6.159945000000000448e+00 1.329044999999999845e+02 1.520525000000000091e+03
1.509999999999999953e-01 5.341200000000000392e-01 6.031069999999999709e+00 1.331080000000000041e+02 1.520579999999999927e+03
1.519999999999999962e-01 5.341654999999999598e-01 5.914514999999999745e+00 1.333199999999999932e+02 1.520639999999999873e+03
1.529999999999999971e-01 5.342114999999999503e-01 5.808260000000000645e+00 1.335364999999999895e+02 1.520694999999999936e+03
1.539999999999999980e-01 5.342574999999999408e-01 5.710480000000000445e+00 1.337535000000000025e+02 1.520755000000000109e+03
1.549999999999999989e-01 5.343029999999999724e-01 5.619550000000000267e+00 1.339685000000000059e+02 1.520819999999999936e+03
1.559999999999999998e-01 5.343479999999999341e-01 5.534060000000000201e+00 1.341790000000000020e+02 1.520884999999999991e+03
1.570000000000000007e-01 5.343904999999999905e-01 5.452785000000000437e+00 1.343820000000000050e+02 1.520940000000000055e+03
1.580000000000000016e-01 5.344320000000000181e-01 5.374724999999999753e+00 1.345774999999999864e+02 1.521005000000000109e+03
1.590000000000000024e-01 5.344720000000000582e-01 5.299039999999999750e+00 1.347629999999999768e+02 1.521054999999999836e+03
