# t [s], A [cm^2], U [cm/s], P [cPa], c [cm/s]
1.000000000000000021e-03 6.642234999999999667e-01 4.694499999999997286e-03 9.221690000000000964e+01 1.811204999999999927e+03
2.000000000000000042e-03 6.642239999999999256e-01 2.300129999999999883e-02 9.219675000000000864e+01 1.811200000000000045e+03
3.000000000000000062e-03 6.643099999999999561e-01 2.050848499999999852e-01 9.241325000000000500e+01 1.811239999999999782e+03
4.000000000000000083e-03 6.643084999999999685e-01 2.428310000000000191e-01 9.242704999999999416e+01 1.811250000000000000e+03
5.000000000000000104e-03 6.642064999999999220e-01 8.447949999999998516e-02 9.205514999999999759e+01 1.811174999999999955e+03
6.000000000000000125e-03 6.641125000000001055e-01 -7.935999999999998611e-02 9.154214999999999236e+01 1.811069999999999936e+03
7.000000000000000146e-03 6.639539999999999331e-01 -3.882699999999998930e-01 9.073865000000000691e+01 1.810900000000000091e+03
8.000000000000000167e-03 6.636929999999999774e-01 -9.272799999999998821e-01 8.946620000000000061e+01 1.810639999999999873e+03
9.000000000000001055e-03 6.633339999999999792e-01 -1.672489999999999810e+00 8.768404999999999916e+01 1.810275000000000091e+03
1.000000000000000194e-02 6.628389999999999560e-01 -2.673160000000000203e+00 8.525810000000001310e+01 1.809769999999999982e+03
1.099999999999999936e-02 6.622175000000000145e-01 -3.879090000000000149e+00 8.217640000000000100e+01 1.809109999999999900e+03
1.200000000000000025e-02 6.615880000000000649e-01 -5.011696000000000595e+00 7.880275000000000318e+01 1.808365000000000009e+03
1.300000000000000114e-02 6.610960000000000170e-01 -5.725675500000000362e+00 7.572069999999999368e+01 1.807650000000000091e+03
1.400000000000000203e-02 6.608070000000000332e-01 -5.837340000000000195e+00 7.336854999999999905e+01 1.807054999999999836e+03
1.499999999999999944e-02 6.606810000000000738e-01 -5.401225000000000165e+00 7.182484999999999786e+01 1.806599999999999909e+03
1.600000000000000033e-02 6.606104999999999894e-01 -4.642669999999999852e+00 7.082630000000000337e+01 1.806269999999999982e+03
1.700000000000000122e-02 6.604849999999999888e-01 -3.829930000000000057e+00 6.993684999999999263e+01 1.805970000000000027e+03
1.800000000000000211e-02 6.602354999999999752e-01 -3.149175000000000058e+00 6.876709999999999923e+01 1.805630000000000109e+03
1.900000000000000300e-02 6.598664999999999115e-01 -2.635518999999999945e+00 6.714470000000000027e+01 1.805214999999999918e+03
2.000000000000000042e-02 6.594345000000000345e-01 -2.194919999999999760e+00 6.514724999999999966e+01 1.804720000000000027e+03
2.100000000000000130e-02 6.590080000000000382e-01 -1.695799999999999752e+00 6.299564999999999770e+01 1.804195000000000164e+03
2.200000000000000219e-02 6.586244999999999461e-01 -1.065494999999999859e+00 6.089180000000000348e+01 1.803664999999999964e+03
2.299999999999999961e-02 6.582744999999999846e-01 -3.410050000000000026e-01 5.889619999999999322e+01 1.803144999999999982e+03
2.400000000000000050e-02 6.579049999999999621e-01 3.358849999999997671e-01 5.688665000000000305e+01 1.802615000000000009e+03
2.500000000000000139e-02 6.574409999999999421e-01 7.644649999999999501e-01 5.459635000000000105e+01 1.802039999999999964e+03
2.600000000000000228e-02 6.568154999999999966e-01 7.519249999999999545e-01 5.170859999999999701e+01 1.801349999999999909e+03
2.700000000000000316e-02 6.559900000000000730e-01 1.803200000000000358e-01 4.797710000000000008e+01 1.800494999999999891e+03
2.800000000000000058e-02 6.549764999999999615e-01 -9.492150000000005861e-01 4.332925000000000182e+01 1.799450000000000045e+03
2.900000000000000147e-02 6.538344999999999851e-01 -2.513399999999999856e+00 3.791169999999999618e+01 1.798230000000000018e+03
3.000000000000000236e-02 6.526534999999999975e-01 -4.304365000000000663e+00 3.206215000000000259e+01 1.796904999999999973e+03
3.099999999999999978e-02 6.515314999999999301e-01 -6.087220000000000297e+00 2.622605999999999682e+01 1.795559999999999945e+03
3.200000000000000067e-02 6.505495000000000028e-01 -7.652459999999999596e+00 2.085869500000000087e+01 1.794284999999999854e+03
3.300000000000000155e-02 6.497664999999999136e-01 -8.848383000000000109e+00 1.634356499999999812e+01 1.793164999999999964e+03
3.400000000000000244e-02 6.492124999999999702e-01 -9.590899999999999537e+00 1.294330000000000069e+01 1.792264999999999873e+03
3.500000000000000333e-02 6.488924999999999832e-01 -9.855779999999999319e+00 1.078572999999999915e+01 1.791634999999999991e+03
3.600000000000000422e-02 6.487950000000000106e-01 -9.660465000000000302e+00 9.879025000000000389e+00 1.791280000000000200e+03
3.700000000000000511e-02 6.488979999999999748e-01 -9.042595000000000383e+00 1.014595500000000072e+01 1.791204999999999927e+03
3.799999999999999906e-02 6.491774999999999629e-01 -8.042764999999999276e+00 1.146354499999999987e+01 1.791375000000000000e+03
3.899999999999999994e-02 6.496129999999999960e-01 -6.695360499999999604e+00 1.369615499999999919e+01 1.791779999999999973e+03
4.000000000000000083e-02 6.501850000000000129e-01 -5.029185000000000016e+00 1.671343999999999852e+01 1.792380000000000109e+03
4.100000000000000172e-02 6.508745000000000225e-01 -3.074754999999999683e+00 2.039258499999999685e+01 1.793150000000000091e+03
4.200000000000000261e-02 6.516600000000000170e-01 -8.735200000000000742e-01 2.461014999999999731e+01 1.794059999999999945e+03
4.300000000000000350e-02 6.525164999999999438e-01 1.516560000000000130e+00 2.923241499999999959e+01 1.795090000000000146e+03
4.400000000000000439e-02 6.534130000000000216e-01 4.020669999999999966e+00 3.411045000000000016e+01 1.796184999999999945e+03
4.499999999999999833e-02 6.543170000000000375e-01 6.552784999999999194e+00 3.908315000000000339e+01 1.797329999999999927e+03
4.599999999999999922e-02 6.551974999999999882e-01 9.024725000000000108e+00 4.398780000000000001e+01 1.798480000000000018e+03
4.700000000000000011e-02 6.560265000000000679e-01 1.135594000000000037e+01 4.867435000000000400e+01 1.799605000000000018e+03
4.800000000000000100e-02 6.567844999999999933e-01 1.348213499999999954e+01 5.302039999999999509e+01 1.800670000000000073e+03
4.900000000000000189e-02 6.574594999999999745e-01 1.536017500000000169e+01 5.694214999999999804e+01 1.801650000000000091e+03
5.000000000000000278e-02 6.580494999999999539e-01 1.696969999999999956e+01 6.040024999999999977e+01 1.802535000000000082e+03
5.100000000000000366e-02 6.585600000000000342e-01 1.831114999999999782e+01 6.339860000000000184e+01 1.803319999999999936e+03
5.200000000000000455e-02 6.590019999999999767e-01 1.940200000000000102e+01 6.597890000000001010e+01 1.804019999999999982e+03
5.300000000000000544e-02 6.593899999999999206e-01 2.027230000000000132e+01 6.821174999999999500e+01 1.804635000000000218e+03
5.399999999999999939e-02 6.597420000000000506e-01 2.096054999999999779e+01 7.018719999999999004e+01 1.805180000000000064e+03
5.500000000000000028e-02 6.600764999999999549e-01 2.151050000000000040e+01 7.200600000000000023e+01 1.805684999999999945e+03
5.600000000000000117e-02 6.604114999999999291e-01 2.196849999999999881e+01 7.377209999999999468e+01 1.806170000000000073e+03
5.700000000000000205e-02 6.607650000000000468e-01 2.238129999999999953e+01 7.558609999999998763e+01 1.806655000000000200e+03
5.800000000000000294e-02 6.611519999999999619e-01 2.279325000000000045e+01 7.753919999999999391e+01 1.807159999999999854e+03
5.900000000000000383e-02 6.615854999999999375e-01 2.324324999999999974e+01 7.970695000000000618e+01 1.807704999999999927e+03
6.000000000000000472e-02 6.620734999999999815e-01 2.376129999999999853e+01 8.214320000000000732e+01 1.808309999999999945e+03
6.099999999999999867e-02 6.626189999999999580e-01 2.436550000000000082e+01 8.487444999999999595e+01 1.808969999999999800e+03
6.199999999999999956e-02 6.632184999999999331e-01 2.506009999999999849e+01 8.789674999999999727e+01 1.809699999999999818e+03
6.300000000000000044e-02 6.638629999999999809e-01 2.583510000000000062e+01 9.117454999999999643e+01 1.810485000000000127e+03
6.400000000000000133e-02 6.645375000000000032e-01 2.666714999999999947e+01 9.464334999999999809e+01 1.811319999999999936e+03
6.500000000000000222e-02 6.652240000000000375e-01 2.752284999999999826e+01 9.821574999999999989e+01 1.812179999999999836e+03
6.600000000000000311e-02 6.659034999999999815e-01 2.836175000000000068e+01 1.017879499999999950e+02 1.813055000000000064e+03
6.700000000000000400e-02 6.665540000000000909e-01 2.914110000000000156e+01 1.052513000000000005e+02 1.813904999999999973e+03
6.800000000000000488e-02 6.671570000000000000e-01 2.981909999999999883e+01 1.084985000000000070e+02 1.814720000000000027e+03
6.900000000000000577e-02 6.676954999999999973e-01 3.035875000000000057e+01 1.114350000000000023e+02 1.815470000000000027e+03
7.000000000000000666e-02 6.681580000000000297e-01 3.073015000000000185e+01 1.139830000000000041e+02 1.816139999999999873e+03
7.100000000000000755e-02 6.685360000000000191e-01 3.091250000000000142e+01 1.160884999999999962e+02 1.816700000000000045e+03
7.200000000000000844e-02 6.688254999999999617e-01 3.089509999999999934e+01 1.177214999999999918e+02 1.817164999999999964e+03
7.300000000000000933e-02 6.690274999999999972e-01 3.067730000000000246e+01 1.188780000000000001e+02 1.817514999999999873e+03
7.399999999999999634e-02 6.691480000000000761e-01 3.026829999999999998e+01 1.195769999999999982e+02 1.817755000000000109e+03
7.499999999999999722e-02 6.691944999999999144e-01 2.968609999999999616e+01 1.198605000000000018e+02 1.817894999999999982e+03
7.599999999999999811e-02 6.691795000000000382e-01 2.895625000000000071e+01 1.197870000000000061e+02 1.817940000000000055e+03
7.699999999999999900e-02 6.691169999999999618e-01 2.811005000000000109e+01 1.194274999999999949e+02 1.817914999999999964e+03
7.799999999999999989e-02 6.690209999999999768e-01 2.718234999999999957e+01 1.188609999999999900e+02 1.817829999999999927e+03
7.900000000000000078e-02 6.689064999999999594e-01 2.620980000000000132e+01 1.181694999999999993e+02 1.817704999999999927e+03
8.000000000000000167e-02 6.687879999999999381e-01 2.522824999999999918e+01 1.174329999999999927e+02 1.817554999999999836e+03
8.100000000000000255e-02 6.686784999999999535e-01 2.427120000000000033e+01 1.167229999999999990e+02 1.817404999999999973e+03
8.200000000000000344e-02 6.685875000000000012e-01 2.336744999999999806e+01 1.161020000000000039e+02 1.817264999999999873e+03
8.300000000000000433e-02 6.685235000000000483e-01 2.254015000000000057e+01 1.156184999999999974e+02 1.817144999999999982e+03
8.400000000000000522e-02 6.684909999999999464e-01 2.180539999999999878e+01 1.153044999999999902e+02 1.817065000000000055e+03
8.500000000000000611e-02 6.684920000000000861e-01 2.117215000000000202e+01 1.151760000000000019e+02 1.817019999999999982e+03
8.600000000000000699e-02 6.685259999999999536e-01 2.064175000000000182e+01 1.152319999999999993e+02 1.817014999999999873e+03
8.700000000000000788e-02 6.685885000000000300e-01 2.020855000000000246e+01 1.154579999999999984e+02 1.817045000000000073e+03
8.800000000000000877e-02 6.686734999999999207e-01 1.986064999999999969e+01 1.158245000000000005e+02 1.817114999999999782e+03
8.899999999999999578e-02 6.687724999999999920e-01 1.958054999999999879e+01 1.162914999999999992e+02 1.817210000000000036e+03
8.999999999999999667e-02 6.688765000000000960e-01 1.934709999999999752e+01 1.168114999999999952e+02 1.817315000000000055e+03
9.099999999999999756e-02 6.689769999999999328e-01 1.913629999999999853e+01 1.173315000000000055e+02 1.817429999999999836e+03
9.199999999999999845e-02 6.690625000000000044e-01 1.892324999999999946e+01 1.177980000000000018e+02 1.817534999999999854e+03
9.299999999999999933e-02 6.691245000000000109e-01 1.868374999999999986e+01 1.181589999999999918e+02 1.817625000000000000e+03
9.400000000000000022e-02 6.691544999999999854e-01 1.839590000000000103e+01 1.183695000000000022e+02 1.817680000000000064e+03
9.500000000000000111e-02 6.691469999999999363e-01 1.804159999999999897e+01 1.183915000000000077e+02 1.817694999999999936e+03
9.600000000000000200e-02 6.690979999999999706e-01 1.760784999999999911e+01 1.181989999999999981e+02 1.817664999999999964e+03
9.700000000000000289e-02 6.690059999999999896e-01 1.708765000000000001e+01 1.177789999999999964e+02 1.817585000000000036e+03
9.800000000000000377e-02 6.688719999999999111e-01 1.648029999999999973e+01 1.171324999999999932e+02 1.817449999999999818e+03
9.900000000000000466e-02 6.687004999999999200e-01 1.579159999999999897e+01 1.162734999999999985e+02 1.817264999999999873e+03
1.000000000000000056e-01 6.684970000000000079e-01 1.503344999999999843e+01 1.152305000000000064e+02 1.817039999999999964e+03
1.010000000000000064e-01 6.682695000000000718e-01 1.422303000000000139e+01 1.140424999999999898e+02 1.816769999999999982e+03
1.020000000000000073e-01 6.680274999999999963e-01 1.338180499999999995e+01 1.127580000000000098e+02 1.816474999999999909e+03
1.030000000000000082e-01 6.677815000000000278e-01 1.253383000000000003e+01 1.114300000000000068e+02 1.816164999999999964e+03
1.040000000000000091e-01 6.675419999999999687e-01 1.170467000000000013e+01 1.101154999999999973e+02 1.815855000000000018e+03
1.050000000000000100e-01 6.673189999999999955e-01 1.091939499999999974e+01 1.088689999999999998e+02 1.815554999999999836e+03
1.059999999999999970e-01 6.671210000000000750e-01 1.020119000000000042e+01 1.077409999999999997e+02 1.815269999999999982e+03
1.069999999999999979e-01 6.669555000000000344e-01 9.569869999999999877e+00 1.067750000000000057e+02 1.815029999999999973e+03
1.079999999999999988e-01 6.668275000000000174e-01 9.040960000000000107e+00 1.060030000000000001e+02 1.814819999999999936e+03
1.089999999999999997e-01 6.667404999999999582e-01 8.624605000000000743e+00 1.054470000000000027e+02 1.814660000000000082e+03
1.100000000000000006e-01 6.666950000000000376e-01 8.325520000000000920e+00 1.051165000000000020e+02 1.814549999999999955e+03
1.110000000000000014e-01 6.666895000000000460e-01 8.142625000000000668e+00 1.050070000000000050e+02 1.814494999999999891e+03
1.120000000000000023e-01 6.667205000000000492e-01 8.069699999999999207e+00 1.051055000000000064e+02 1.814485000000000127e+03
1.130000000000000032e-01 6.667829999999999036e-01 8.095864999999999867e+00 1.053859999999999957e+02 1.814519999999999982e+03
1.140000000000000041e-01 6.668704999999999217e-01 8.206484999999998919e+00 1.058174999999999955e+02 1.814599999999999909e+03
1.150000000000000050e-01 6.669760000000000133e-01 8.384199999999999875e+00 1.063625000000000114e+02 1.814699999999999818e+03
1.160000000000000059e-01 6.670920000000000183e-01 8.609970000000000567e+00 1.069805000000000064e+02 1.814835000000000036e+03
1.170000000000000068e-01 6.672104999999999286e-01 8.864135000000000986e+00 1.076320000000000050e+02 1.814974999999999909e+03
1.180000000000000077e-01 6.673255000000000159e-01 9.127430000000000376e+00 1.082775000000000034e+02 1.815119999999999891e+03
1.190000000000000085e-01 6.674309999999999965e-01 9.381899999999999906e+00 1.088830000000000098e+02 1.815255000000000109e+03
1.200000000000000094e-01 6.675210000000000310e-01 9.611644999999999328e+00 1.094180000000000064e+02 1.815380000000000109e+03
1.209999999999999964e-01 6.675929999999999920e-01 9.803539999999999921e+00 1.098599999999999994e+02 1.815494999999999891e+03
1.219999999999999973e-01 6.676435000000000564e-01 9.947385000000000588e+00 1.101920000000000073e+02 1.815579999999999927e+03
1.229999999999999982e-01 6.676729999999999610e-01 1.003664999999999985e+01 1.104060000000000059e+02 1.815639999999999873e+03
1.239999999999999991e-01 6.676794999999999813e-01 1.006803999999999988e+01 1.104994999999999976e+02 1.815675000000000182e+03
1.250000000000000000e-01 6.676659999999999817e-01 1.004190499999999986e+01 1.104784999999999968e+02 1.815690000000000055e+03
1.260000000000000009e-01 6.676349999999999785e-01 9.961565000000000225e+00 1.103530000000000086e+02 1.815670000000000073e+03
1.270000000000000018e-01 6.675889999999999880e-01 9.833285000000000053e+00 1.101405000000000030e+02 1.815634999999999991e+03
1.280000000000000027e-01 6.675324999999999731e-01 9.665659999999999030e+00 1.098599999999999994e+02 1.815585000000000036e+03
1.290000000000000036e-01 6.674694999999999379e-01 9.468849999999999767e+00 1.095349999999999966e+02 1.815509999999999991e+03
1.300000000000000044e-01 6.674050000000000260e-01 9.254100000000001103e+00 1.091889999999999930e+02 1.815440000000000055e+03
1.310000000000000053e-01 6.673424999999999496e-01 9.033049999999999358e+00 1.088464999999999918e+02 1.815365000000000009e+03
1.320000000000000062e-01 6.672869999999999635e-01 8.816864999999999952e+00 1.085279999999999916e+02 1.815289999999999964e+03
1.330000000000000071e-01 6.672409999999999730e-01 8.615579999999999572e+00 1.082540000000000049e+02 1.815224999999999909e+03
1.340000000000000080e-01 6.672069999999999945e-01 8.437744999999999607e+00 1.080395000000000039e+02 1.815175000000000182e+03
1.350000000000000089e-01 6.671869999999999745e-01 8.289780000000000371e+00 1.078944999999999936e+02 1.815134999999999991e+03
1.360000000000000098e-01 6.671804999999999541e-01 8.175699999999999079e+00 1.078250000000000028e+02 1.815115000000000009e+03
1.370000000000000107e-01 6.671884999999999621e-01 8.097125000000000128e+00 1.078309999999999889e+02 1.815105000000000018e+03
1.380000000000000115e-01 6.672084999999999821e-01 8.053314999999999557e+00 1.079069999999999965e+02 1.815115000000000009e+03
1.390000000000000124e-01 6.672394999999999854e-01 8.041339999999999932e+00 1.080444999999999993e+02 1.815139999999999873e+03
1.400000000000000133e-01 6.672780000000000378e-01 8.056505000000001360e+00 1.082305000000000064e+02 1.815174999999999955e+03
1.410000000000000142e-01 6.673219999999999708e-01 8.092755000000000365e+00 1.084499999999999886e+02 1.815224999999999909e+03
1.420000000000000151e-01 6.673675000000000024e-01 8.143169999999999575e+00 1.086860000000000070e+02 1.815275000000000091e+03
1.430000000000000160e-01 6.674109999999999765e-01 8.200475000000000847e+00 1.089234999999999900e+02 1.815324999999999818e+03
1.440000000000000169e-01 6.674515000000000864e-01 8.257505000000000095e+00 1.091450000000000102e+02 1.815380000000000109e+03
1.450000000000000178e-01 6.674849999999999950e-01 8.307650000000000645e+00 1.093385000000000105e+02 1.815420000000000073e+03
1.459999999999999909e-01 6.675109999999999655e-01 8.345204999999999984e+00 1.094915000000000020e+02 1.815465000000000146e+03
1.469999999999999918e-01 6.675265000000000226e-01 8.365685000000000926e+00 1.095970000000000084e+02 1.815490000000000009e+03
1.479999999999999927e-01 6.675324999999999731e-01 8.366009999999999280e+00 1.096495000000000033e+02 1.815509999999999991e+03
1.489999999999999936e-01 6.675284999999999691e-01 8.344630000000000436e+00 1.096490000000000009e+02 1.815509999999999991e+03
1.499999999999999944e-01 6.675155000000000394e-01 8.301614999999999966e+00 1.095970000000000084e+02 1.815505000000000109e+03
1.509999999999999953e-01 6.674940000000000317e-01 8.238559999999999661e+00 1.095000000000000000e+02 1.815490000000000009e+03
1.519999999999999962e-01 6.674664999999999626e-01 8.158519999999999328e+00 1.093665000000000020e+02 1.815460000000000036e+03
1.529999999999999971e-01 6.674350000000000005e-01 8.065784999999999982e+00 1.092079999999999984e+02 1.815429999999999836e+03
1.539999999999999980e-01 6.674025000000000096e-01 7.965625000000001066e+00 1.090374999999999943e+02 1.815389999999999873e+03
1.549999999999999989e-01 6.673709999999999365e-01 7.864004999999999690e+00 1.088679999999999950e+02 1.815349999999999909e+03
1.559999999999999998e-01 6.673435000000000894e-01 7.767205000000000581e+00 1.087150000000000034e+02 1.815315000000000055e+03
1.570000000000000007e-01 6.673225000000000406e-01 7.681469999999999132e+00 1.085920000000000130e+02 1.815285000000000082e+03
1.580000000000000016e-01 6.673100000000000698e-01 7.612655000000000172e+00 1.085114999999999981e+02 1.815264999999999873e+03
1.590000000000000024e-01 6.673085000000000822e-01 7.565884999999999749e+00 1.084849999999999994e+02 1.815255000000000109e+03
