# t [s], A [cm^2], U [cm/s], P [cPa], c [cm/s]
1.000000000000000021e-03 1.796705000000000108e-01 2.392374999999999918e-01 8.899240000000000350e+01 2.023250000000000000e+03
2.000000000000000042e-03 1.796384999999999788e-01 1.528686500000000059e+00 8.625219999999998777e+01 2.022985000000000127e+03
3.000000000000000062e-03 1.795350000000000001e-01 3.128823000000000132e+00 8.252580000000000382e+01 2.022160000000000082e+03
4.000000000000000083e-03 1.793865000000000043e-01 4.922819650000000102e+00 7.836785000000000423e+01 2.020990000000000009e+03
5.000000000000000104e-03 1.792199999999999904e-01 6.861844999999999750e+00 7.450499999999999545e+01 2.019694999999999936e+03
6.000000000000000125e-03 1.790539999999999909e-01 8.829214999999999591e+00 7.127625000000000455e+01 2.018414999999999964e+03
7.000000000000000146e-03 1.788965000000000138e-01 1.065396499999999946e+01 6.857115000000000293e+01 2.017214999999999918e+03
8.000000000000000167e-03 1.787489999999999912e-01 1.223049499999999945e+01 6.616015000000000157e+01 2.016115000000000009e+03
9.000000000000001055e-03 1.786159999999999970e-01 1.356334000000000017e+01 6.401040000000000418e+01 2.015134999999999991e+03
1.000000000000000194e-02 1.784995000000000054e-01 1.468599999999999994e+01 6.219624999999999915e+01 2.014284999999999854e+03
1.099999999999999936e-02 1.784020000000000050e-01 1.561374999999999957e+01 6.073320000000000363e+01 2.013579999999999927e+03
1.200000000000000025e-02 1.783215000000000217e-01 1.635314999999999941e+01 5.957739999999999725e+01 2.013005000000000109e+03
1.300000000000000114e-02 1.782559999999999978e-01 1.690599999999999881e+01 5.865409999999999968e+01 2.012545000000000073e+03
1.400000000000000203e-02 1.782015000000000127e-01 1.727309999999999945e+01 5.786679999999999779e+01 2.012175000000000182e+03
1.499999999999999944e-02 1.781559999999999810e-01 1.747854999999999848e+01 5.715449999999999875e+01 2.011865000000000009e+03
1.600000000000000033e-02 1.781185000000000129e-01 1.759469999999999956e+01 5.658230000000000359e+01 2.011619999999999891e+03
1.700000000000000122e-02 1.780944999999999889e-01 1.773290000000000077e+01 5.636109999999999332e+01 2.011460000000000036e+03
1.800000000000000211e-02 1.780899999999999983e-01 1.799849999999999994e+01 5.675204999999999700e+01 2.011444999999999936e+03
1.900000000000000300e-02 1.781119999999999925e-01 1.844275000000000020e+01 5.791535000000000366e+01 2.011610000000000127e+03
2.000000000000000042e-02 1.781599999999999850e-01 1.903885000000000005e+01 5.980235000000000412e+01 2.011960000000000036e+03
2.100000000000000130e-02 1.782294999999999852e-01 1.969384999999999764e+01 6.214740000000000464e+01 2.012469999999999800e+03
2.200000000000000219e-02 1.783104999999999829e-01 2.028524999999999778e+01 6.455225000000000080e+01 2.013059999999999945e+03
2.299999999999999961e-02 1.783895000000000064e-01 2.070270000000000010e+01 6.661469999999999914e+01 2.013650000000000091e+03
2.400000000000000050e-02 1.784574999999999911e-01 2.088009999999999877e+01 6.804609999999999559e+01 2.014159999999999854e+03
2.500000000000000139e-02 1.785059999999999980e-01 2.080829999999999913e+01 6.873750000000001137e+01 2.014539999999999964e+03
2.600000000000000228e-02 1.785339999999999983e-01 2.052734999999999843e+01 6.876059999999999661e+01 2.014759999999999991e+03
2.700000000000000316e-02 1.785435000000000216e-01 2.010480000000000089e+01 6.831255000000000166e+01 2.014845000000000027e+03
2.800000000000000058e-02 1.785395000000000176e-01 1.960909999999999798e+01 6.763124999999999432e+01 2.014829999999999927e+03
2.900000000000000147e-02 1.785280000000000200e-01 1.908830000000000027e+01 6.691419999999999391e+01 2.014755000000000109e+03
3.000000000000000236e-02 1.785134999999999916e-01 1.856009999999999849e+01 6.626709999999999923e+01 2.014650000000000091e+03
3.099999999999999978e-02 1.784969999999999890e-01 1.801425000000000054e+01 6.569274999999998954e+01 2.014535000000000082e+03
3.200000000000000067e-02 1.784795000000000131e-01 1.742414999999999736e+01 6.511754999999999427e+01 2.014409999999999854e+03
3.300000000000000155e-02 1.784574999999999911e-01 1.676364999999999839e+01 6.443975000000000364e+01 2.014255000000000109e+03
3.400000000000000244e-02 1.784304999999999919e-01 1.602185000000000059e+01 6.358254999999999768e+01 2.014059999999999945e+03
3.500000000000000333e-02 1.783965000000000134e-01 1.521279999999999966e+01 6.253464999999999918e+01 2.013820000000000164e+03
3.600000000000000422e-02 1.783575000000000021e-01 1.437700000000000067e+01 6.136754999999999427e+01 2.013539999999999964e+03
3.700000000000000511e-02 1.783155000000000157e-01 1.357450000000000045e+01 6.022509999999999764e+01 2.013240000000000009e+03
3.799999999999999906e-02 1.782774999999999777e-01 1.287185000000000024e+01 5.928979999999999961e+01 2.012960000000000036e+03
3.899999999999999994e-02 1.782479999999999898e-01 1.232690000000000019e+01 5.873649999999999949e+01 2.012740000000000009e+03
4.000000000000000083e-02 1.782320000000000015e-01 1.197569999999999979e+01 5.868765000000000498e+01 2.012615000000000009e+03
4.100000000000000172e-02 1.782330000000000025e-01 1.182460000000000022e+01 5.918164999999999765e+01 2.012610000000000127e+03
4.200000000000000261e-02 1.782509999999999928e-01 1.184929999999999950e+01 6.016264999999999930e+01 2.012730000000000018e+03
4.300000000000000350e-02 1.782845000000000124e-01 1.200019999999999953e+01 6.149139999999999873e+01 2.012960000000000036e+03
4.400000000000000439e-02 1.783285000000000009e-01 1.221185000000000009e+01 6.297259999999999991e+01 2.013269999999999982e+03
4.499999999999999833e-02 1.783764999999999934e-01 1.241440000000000055e+01 6.439064999999999372e+01 2.013615000000000009e+03
4.599999999999999922e-02 1.784215000000000106e-01 1.254344999999999999e+01 6.554464999999999009e+01 2.013944999999999936e+03
4.700000000000000011e-02 1.784584999999999921e-01 1.254800000000000004e+01 6.627629999999999200e+01 2.014214999999999918e+03
4.800000000000000100e-02 1.784810000000000008e-01 1.239440000000000097e+01 6.648580000000001178e+01 2.014380000000000109e+03
4.900000000000000189e-02 1.784870000000000068e-01 1.206670000000000087e+01 6.613579999999998904e+01 2.014434999999999945e+03
5.000000000000000278e-02 1.784739999999999938e-01 1.156499999999999950e+01 6.524420000000000641e+01 2.014349999999999909e+03
5.100000000000000366e-02 1.784430000000000183e-01 1.090113500000000002e+01 6.387024999999999864e+01 2.014130000000000109e+03
5.200000000000000455e-02 1.783949999999999980e-01 1.009482500000000016e+01 6.209805000000000064e+01 2.013780000000000200e+03
5.300000000000000544e-02 1.783325000000000049e-01 9.169775000000001342e+00 6.002115000000000578e+01 2.013335000000000036e+03
5.399999999999999939e-02 1.782579999999999998e-01 8.151334999999999553e+00 5.773144999999999527e+01 2.012795000000000073e+03
5.500000000000000028e-02 1.781750000000000000e-01 7.065224999999999866e+00 5.531279999999999575e+01 2.012190000000000055e+03
5.600000000000000117e-02 1.780855000000000077e-01 5.937409999999999854e+00 5.283960000000000434e+01 2.011539999999999964e+03
5.700000000000000205e-02 1.779924999999999979e-01 4.794674999999999798e+00 5.037924999999999898e+01 2.010865000000000009e+03
5.800000000000000294e-02 1.778990000000000016e-01 3.665332000000000257e+00 4.799575000000000102e+01 2.010184999999999945e+03
5.900000000000000383e-02 1.778069999999999928e-01 2.579767499999999991e+00 4.575339999999999918e+01 2.009509999999999991e+03
6.000000000000000472e-02 1.777205000000000035e-01 1.570360000000000200e+00 4.371940000000000026e+01 2.008875000000000000e+03
6.099999999999999867e-02 1.776405000000000067e-01 6.708100000000001284e-01 4.196415000000000362e+01 2.008284999999999854e+03
6.199999999999999956e-02 1.775709999999999789e-01 -8.514500000000002622e-02 4.055915000000000248e+01 2.007769999999999982e+03
6.300000000000000044e-02 1.775140000000000051e-01 -6.654605000000000103e-01 3.957365000000000066e+01 2.007345000000000027e+03
6.400000000000000133e-02 1.774725000000000052e-01 -1.041741999999999946e+00 3.906964999999999577e+01 2.007034999999999854e+03
6.500000000000000222e-02 1.774494999999999822e-01 -1.191059000000000090e+00 3.909664999999999679e+01 2.006849999999999909e+03
6.600000000000000311e-02 1.774459999999999926e-01 -1.097512000000000043e+00 3.968795000000000073e+01 2.006809999999999945e+03
6.700000000000000400e-02 1.774634999999999962e-01 -7.532666000000000084e-01 4.085670000000000357e+01 2.006920000000000073e+03
6.800000000000000488e-02 1.775025000000000075e-01 -1.590300000000000047e-01 4.259529999999999461e+01 2.007184999999999945e+03
6.900000000000000577e-02 1.775634999999999852e-01 6.760599999999999943e-01 4.487510000000000332e+01 2.007610000000000127e+03
7.000000000000000666e-02 1.776444999999999830e-01 1.735114000000000267e+00 4.764880000000000138e+01 2.008190000000000055e+03
7.100000000000000755e-02 1.777444999999999997e-01 2.994611550000000122e+00 5.085330000000000439e+01 2.008904999999999973e+03
7.200000000000000844e-02 1.778625000000000067e-01 4.425829999999999487e+00 5.441440000000000055e+01 2.009750000000000000e+03
7.300000000000000933e-02 1.779939999999999856e-01 5.996520000000000294e+00 5.825124999999999886e+01 2.010700000000000045e+03
7.399999999999999634e-02 1.781369999999999898e-01 7.672665000000000290e+00 6.228125000000000000e+01 2.011740000000000009e+03
7.499999999999999722e-02 1.782884999999999887e-01 9.420200000000001239e+00 6.642494999999999550e+01 2.012840000000000146e+03
7.599999999999999811e-02 1.784465000000000079e-01 1.120657500000000084e+01 7.060999999999999943e+01 2.013994999999999891e+03
7.699999999999999900e-02 1.786065000000000014e-01 1.300228999999999857e+01 7.477459999999999241e+01 2.015170000000000073e+03
7.799999999999999989e-02 1.787690000000000112e-01 1.478170000000000073e+01 7.886969999999999459e+01 2.016359999999999900e+03
7.900000000000000078e-02 1.789295000000000191e-01 1.652390000000000114e+01 8.286035000000001105e+01 2.017545000000000073e+03
8.000000000000000167e-02 1.790875000000000106e-01 1.821284999999999954e+01 8.672565000000000168e+01 2.018720000000000027e+03
8.100000000000000255e-02 1.792424999999999990e-01 1.983744999999999692e+01 9.045754999999999768e+01 2.019864999999999782e+03
8.200000000000000344e-02 1.793934999999999835e-01 2.139090000000000202e+01 9.405885000000000673e+01 2.020985000000000127e+03
8.300000000000000433e-02 1.795404999999999918e-01 2.287010000000000076e+01 9.754069999999998686e+01 2.022085000000000036e+03
8.400000000000000522e-02 1.796840000000000104e-01 2.427495000000000047e+01 1.009187000000000012e+02 2.023154999999999973e+03
8.500000000000000611e-02 1.798235000000000250e-01 2.560699999999999932e+01 1.042112999999999943e+02 2.024200000000000045e+03
8.600000000000000699e-02 1.799610000000000098e-01 2.686925000000000097e+01 1.074354999999999905e+02 2.025224999999999909e+03
8.700000000000000788e-02 1.800955000000000195e-01 2.806470000000000198e+01 1.106069999999999993e+02 2.026235000000000127e+03
8.800000000000000877e-02 1.802279999999999993e-01 2.919604999999999961e+01 1.137355000000000018e+02 2.027230000000000018e+03
8.899999999999999578e-02 1.803585000000000049e-01 3.026539999999999964e+01 1.168269999999999982e+02 2.028210000000000036e+03
8.999999999999999667e-02 1.804879999999999818e-01 3.127374999999999972e+01 1.198799999999999955e+02 2.029180000000000064e+03
9.099999999999999756e-02 1.806155000000000121e-01 3.222070000000000078e+01 1.228894999999999982e+02 2.030144999999999982e+03
9.199999999999999845e-02 1.807409999999999850e-01 3.310484999999999900e+01 1.258449999999999989e+02 2.031090000000000146e+03
9.299999999999999933e-02 1.808649999999999980e-01 3.392364999999999498e+01 1.287330000000000041e+02 2.032019999999999982e+03
9.400000000000000022e-02 1.809855000000000214e-01 3.467334999999999923e+01 1.315354999999999848e+02 2.032924999999999955e+03
9.500000000000000111e-02 1.811024999999999996e-01 3.534959999999999525e+01 1.342330000000000041e+02 2.033815000000000055e+03
9.600000000000000200e-02 1.812159999999999882e-01 3.594745000000000346e+01 1.368059999999999832e+02 2.034664999999999964e+03
9.700000000000000289e-02 1.813239999999999852e-01 3.646130000000000138e+01 1.392334999999999923e+02 2.035490000000000009e+03
9.800000000000000377e-02 1.814264999999999906e-01 3.688575000000000159e+01 1.414939999999999998e+02 2.036264999999999873e+03
9.900000000000000466e-02 1.815229999999999899e-01 3.721550000000000580e+01 1.435699999999999932e+02 2.036994999999999891e+03
1.000000000000000056e-01 1.816119999999999957e-01 3.744579999999999842e+01 1.454440000000000168e+02 2.037670000000000073e+03
1.010000000000000064e-01 1.816925000000000068e-01 3.757245000000000346e+01 1.471000000000000227e+02 2.038289999999999964e+03
1.020000000000000073e-01 1.817654999999999965e-01 3.759260000000000446e+01 1.485280000000000200e+02 2.038839999999999918e+03
1.030000000000000082e-01 1.818290000000000184e-01 3.750480000000000302e+01 1.497194999999999823e+02 2.039335000000000036e+03
1.040000000000000091e-01 1.818835000000000035e-01 3.730910000000000082e+01 1.506725000000000136e+02 2.039750000000000000e+03
1.050000000000000100e-01 1.819290000000000074e-01 3.700759999999999650e+01 1.513880000000000052e+02 2.040099999999999909e+03
1.059999999999999970e-01 1.819649999999999879e-01 3.660405000000000086e+01 1.518729999999999905e+02 2.040385000000000218e+03
1.069999999999999979e-01 1.819915000000000005e-01 3.610439999999999827e+01 1.521380000000000052e+02 2.040590000000000146e+03
1.079999999999999988e-01 1.820094999999999907e-01 3.551630000000000109e+01 1.522015000000000100e+02 2.040740000000000009e+03
1.089999999999999997e-01 1.820195000000000007e-01 3.484905000000000541e+01 1.520815000000000055e+02 2.040824999999999818e+03
1.100000000000000006e-01 1.820220000000000171e-01 3.411329999999999529e+01 1.518015000000000043e+02 2.040849999999999909e+03
1.110000000000000014e-01 1.820174999999999987e-01 3.332059999999999889e+01 1.513865000000000123e+02 2.040825000000000045e+03
1.120000000000000023e-01 1.820074999999999887e-01 3.248290000000000077e+01 1.508640000000000043e+02 2.040759999999999991e+03
1.130000000000000032e-01 1.819929999999999881e-01 3.161249999999999716e+01 1.502579999999999814e+02 2.040654999999999973e+03
1.140000000000000041e-01 1.819744999999999835e-01 3.072119999999999962e+01 1.495939999999999941e+02 2.040514999999999873e+03
1.150000000000000050e-01 1.819534999999999902e-01 2.982014999999999816e+01 1.488944999999999936e+02 2.040359999999999900e+03
1.160000000000000059e-01 1.819295000000000218e-01 2.891949999999999932e+01 1.481800000000000068e+02 2.040190000000000055e+03
1.170000000000000068e-01 1.819050000000000111e-01 2.802795000000000059e+01 1.474654999999999916e+02 2.040000000000000000e+03
1.180000000000000077e-01 1.818799999999999861e-01 2.715285000000000082e+01 1.467644999999999982e+02 2.039809999999999945e+03
1.190000000000000085e-01 1.818540000000000156e-01 2.629979999999999762e+01 1.460844999999999914e+02 2.039619999999999891e+03
1.200000000000000094e-01 1.818285000000000040e-01 2.547269999999999968e+01 1.454314999999999998e+02 2.039429999999999836e+03
1.209999999999999964e-01 1.818039999999999934e-01 2.467370000000000019e+01 1.448045000000000186e+02 2.039240000000000009e+03
1.219999999999999973e-01 1.817794999999999828e-01 2.390334999999999965e+01 1.442024999999999864e+02 2.039054999999999836e+03
1.229999999999999982e-01 1.817560000000000009e-01 2.316069999999999851e+01 1.436195000000000164e+02 2.038875000000000000e+03
1.239999999999999991e-01 1.817320000000000046e-01 2.244340000000000046e+01 1.430459999999999923e+02 2.038695000000000164e+03
1.250000000000000000e-01 1.817090000000000094e-01 2.174815000000000254e+01 1.424725000000000250e+02 2.038519999999999982e+03
1.260000000000000009e-01 1.816854999999999998e-01 2.107065000000000055e+01 1.418874999999999886e+02 2.038335000000000036e+03
1.270000000000000018e-01 1.816610000000000169e-01 2.040605000000000047e+01 1.412789999999999964e+02 2.038150000000000091e+03
1.280000000000000027e-01 1.816360000000000197e-01 1.974924999999999997e+01 1.406340000000000146e+02 2.037960000000000036e+03
1.290000000000000036e-01 1.816095000000000070e-01 1.909505000000000052e+01 1.399410000000000025e+02 2.037759999999999991e+03
1.300000000000000044e-01 1.815809999999999924e-01 1.843860000000000099e+01 1.391904999999999859e+02 2.037539999999999964e+03
1.310000000000000053e-01 1.815499999999999892e-01 1.777554999999999907e+01 1.383729999999999905e+02 2.037309999999999945e+03
1.320000000000000062e-01 1.815169999999999839e-01 1.710219999999999985e+01 1.374825000000000159e+02 2.037059999999999945e+03
1.330000000000000071e-01 1.814810000000000034e-01 1.641604999999999848e+01 1.365149999999999864e+02 2.036789999999999964e+03
1.340000000000000080e-01 1.814425000000000066e-01 1.571555000000000035e+01 1.354694999999999823e+02 2.036500000000000000e+03
1.350000000000000089e-01 1.814005000000000201e-01 1.500044999999999895e+01 1.343489999999999895e+02 2.036184999999999945e+03
1.360000000000000098e-01 1.813555000000000028e-01 1.427189999999999870e+01 1.331585000000000036e+02 2.035849999999999909e+03
1.370000000000000107e-01 1.813084999999999836e-01 1.353214999999999968e+01 1.319064999999999941e+02 2.035494999999999891e+03
1.380000000000000115e-01 1.812590000000000034e-01 1.278490000000000038e+01 1.306050000000000182e+02 2.035125000000000000e+03
1.390000000000000124e-01 1.812074999999999936e-01 1.203487000000000151e+01 1.292675000000000125e+02 2.034740000000000009e+03
1.400000000000000133e-01 1.811544999999999961e-01 1.128778999999999932e+01 1.279090000000000060e+02 2.034339999999999918e+03
1.410000000000000142e-01 1.810999999999999832e-01 1.054994999999999905e+01 1.265480000000000018e+02 2.033934999999999945e+03
1.420000000000000151e-01 1.810459999999999847e-01 9.828195000000000903e+00 1.252014999999999958e+02 2.033529999999999973e+03
1.430000000000000160e-01 1.809919999999999862e-01 9.129450000000000287e+00 1.238870000000000005e+02 2.033125000000000000e+03
1.440000000000000169e-01 1.809389999999999887e-01 8.460515000000000896e+00 1.226219999999999999e+02 2.032724999999999909e+03
1.450000000000000178e-01 1.808879999999999932e-01 7.827780000000000626e+00 1.214210000000000065e+02 2.032345000000000027e+03
1.459999999999999909e-01 1.808389999999999997e-01 7.236925000000000274e+00 1.202980000000000018e+02 2.031974999999999909e+03
1.469999999999999918e-01 1.807929999999999815e-01 6.692730000000000068e+00 1.192639999999999958e+02 2.031630000000000109e+03
1.479999999999999927e-01 1.807500000000000218e-01 6.198920000000000208e+00 1.183264999999999958e+02 2.031299999999999955e+03
1.489999999999999936e-01 1.807110000000000105e-01 5.758049999999999891e+00 1.174900000000000091e+02 2.031005000000000109e+03
1.499999999999999944e-01 1.806750000000000023e-01 5.371439999999999770e+00 1.167574999999999932e+02 2.030730000000000018e+03
1.509999999999999953e-01 1.806435000000000124e-01 5.039204999999999934e+00 1.161274999999999977e+02 2.030490000000000009e+03
1.519999999999999962e-01 1.806149999999999978e-01 4.760265000000000413e+00 1.155960000000000036e+02 2.030275000000000091e+03
1.529999999999999971e-01 1.805910000000000015e-01 4.532484999999999431e+00 1.151574999999999989e+02 2.030089999999999918e+03
1.539999999999999980e-01 1.805704999999999949e-01 4.352769999999999584e+00 1.148044999999999902e+02 2.029934999999999945e+03
1.549999999999999989e-01 1.805535000000000057e-01 4.217240000000000322e+00 1.145264999999999986e+02 2.029800000000000182e+03
1.559999999999999998e-01 1.805390000000000050e-01 4.121389999999999887e+00 1.143145000000000095e+02 2.029690000000000055e+03
1.570000000000000007e-01 1.805275000000000074e-01 4.060274999999999856e+00 1.141560000000000059e+02 2.029594999999999800e+03
1.580000000000000016e-01 1.805180000000000118e-01 4.028705000000000425e+00 1.140409999999999968e+02 2.029519999999999982e+03
1.590000000000000024e-01 1.805105000000000182e-01 4.021385000000000431e+00 1.139585000000000008e+02 2.029465000000000146e+03
