# t [s], A [cm^2], U [cm/s], P [cPa], c [cm/s]
1.000000000000000021e-03 4.698880000000000279e-01 4.951850000000000696e-03 1.100084999999999980e+02 1.508365000000000009e+03
2.000000000000000042e-03 4.698805000000000343e-01 -7.644165000000000291e-04 1.099904999999999973e+02 1.508360000000000127e+03
3.000000000000000062e-03 4.699004999999999432e-01 3.778984999999999983e-02 1.100289999999999964e+02 1.508375000000000000e+03
4.000000000000000083e-03 4.699410000000000531e-01 1.222469999999999946e-01 1.101350000000000051e+02 1.508404999999999973e+03
5.000000000000000104e-03 4.699539999999999829e-01 1.570510499999999976e-01 1.101800000000000068e+02 1.508420000000000073e+03
6.000000000000000125e-03 4.699270000000000391e-01 1.103272500000000156e-01 1.100979999999999990e+02 1.508404999999999973e+03
7.000000000000000146e-03 4.698910000000000031e-01 4.184849999999998293e-02 1.099414999999999907e+02 1.508360000000000127e+03
8.000000000000000167e-03 4.698599999999999999e-01 -1.902300000000001212e-02 1.097535000000000025e+02 1.508309999999999945e+03
9.000000000000001055e-03 4.698125000000000218e-01 -1.225400000000000378e-01 1.094869999999999948e+02 1.508240000000000009e+03
1.000000000000000194e-02 4.697354999999999725e-01 -3.027965000000000240e-01 1.090910000000000082e+02 1.508139999999999873e+03
1.099999999999999936e-02 4.696245000000000003e-01 -5.656049999999999134e-01 1.085354999999999990e+02 1.507989999999999782e+03
1.200000000000000025e-02 4.694709999999999717e-01 -9.241049999999999542e-01 1.077800000000000011e+02 1.507795000000000073e+03
1.300000000000000114e-02 4.692660000000000164e-01 -1.388039999999999718e+00 1.067830000000000013e+02 1.507519999999999982e+03
1.400000000000000203e-02 4.690149999999999597e-01 -1.928569999999999673e+00 1.055459999999999923e+02 1.507179999999999836e+03
1.499999999999999944e-02 4.687439999999999940e-01 -2.470054999999999890e+00 1.041342999999999961e+02 1.506775000000000091e+03
1.600000000000000033e-02 4.684834999999999972e-01 -2.918224999999999625e+00 1.026574499999999972e+02 1.506339999999999918e+03
1.700000000000000122e-02 4.682565000000000199e-01 -3.197854499999999600e+00 1.012203499999999963e+02 1.505900000000000091e+03
1.800000000000000211e-02 4.680690000000000128e-01 -3.274861499999999648e+00 9.989074999999999704e+01 1.505470000000000027e+03
1.900000000000000300e-02 4.679115000000000357e-01 -3.157624000000000208e+00 9.868295000000000528e+01 1.505059999999999945e+03
2.000000000000000042e-02 4.677655000000000562e-01 -2.884255500000000083e+00 9.756794999999999618e+01 1.504664999999999964e+03
2.100000000000000130e-02 4.676120000000000276e-01 -2.504718500000000070e+00 9.648994999999999322e+01 1.504279999999999973e+03
2.200000000000000219e-02 4.674359999999999626e-01 -2.064294999999999991e+00 9.538875000000000171e+01 1.503880000000000109e+03
2.299999999999999961e-02 4.672294999999999643e-01 -1.592139999999999889e+00 9.421920000000000073e+01 1.503460000000000036e+03
2.400000000000000050e-02 4.669940000000000202e-01 -1.096910000000000052e+00 9.296210000000000662e+01 1.503014999999999873e+03
2.500000000000000139e-02 4.667390000000000150e-01 -5.696200000000000152e-01 9.162669999999999959e+01 1.502545000000000073e+03
2.600000000000000228e-02 4.664749999999999730e-01 7.794999999999774332e-03 9.024295000000000755e+01 1.502059999999999945e+03
2.700000000000000316e-02 4.662125000000000297e-01 6.517149999999998222e-01 8.884879999999999711e+01 1.501565000000000055e+03
2.800000000000000058e-02 4.659575000000000244e-01 1.367455000000000087e+00 8.747605000000000075e+01 1.501075000000000045e+03
2.900000000000000147e-02 4.657109999999999861e-01 2.143839999999999968e+00 8.613974999999999227e+01 1.500590000000000146e+03
3.000000000000000236e-02 4.654655000000000320e-01 2.952695000000000292e+00 8.483259999999999934e+01 1.500115000000000009e+03
3.099999999999999978e-02 4.652115000000000000e-01 3.752580000000000027e+00 8.352625000000000455e+01 1.499639999999999873e+03
3.200000000000000067e-02 4.649365000000000303e-01 4.495659999999999989e+00 8.217734999999998990e+01 1.499154999999999973e+03
3.300000000000000155e-02 4.646299999999999875e-01 5.136060000000000514e+00 8.073720000000000141e+01 1.498650000000000091e+03
3.400000000000000244e-02 4.642839999999999745e-01 5.638255000000000017e+00 7.916384999999999650e+01 1.498109999999999900e+03
3.500000000000000333e-02 4.638974999999999627e-01 5.983105000000000118e+00 7.743234999999999957e+01 1.497534999999999854e+03
3.600000000000000422e-02 4.634755000000000402e-01 6.171314999999999884e+00 7.554245000000000232e+01 1.496914999999999964e+03
3.700000000000000511e-02 4.630289999999999684e-01 6.222265000000000157e+00 7.352084999999999582e+01 1.496264999999999873e+03
3.799999999999999906e-02 4.625724999999999421e-01 6.169260000000000410e+00 7.141779999999999973e+01 1.495585000000000036e+03
3.899999999999999994e-02 4.621239999999999792e-01 6.053390000000000271e+00 6.930010000000000048e+01 1.494905000000000200e+03
4.000000000000000083e-02 4.616995000000000404e-01 5.916335000000000122e+00 6.724174999999999613e+01 1.494235000000000127e+03
4.100000000000000172e-02 4.613119999999999998e-01 5.795069999999999943e+00 6.531470000000000198e+01 1.493599999999999909e+03
4.200000000000000261e-02 4.609719999999999929e-01 5.718765000000000320e+00 6.358209999999999695e+01 1.493014999999999873e+03
4.300000000000000350e-02 4.606860000000000399e-01 5.707469999999999821e+00 6.209405000000000285e+01 1.492500000000000000e+03
4.400000000000000439e-02 4.604579999999999784e-01 5.773122599999999771e+00 6.088559999999999661e+01 1.492065000000000055e+03
4.499999999999999833e-02 4.602890000000000037e-01 5.921445000000000292e+00 5.997804999999999609e+01 1.491720000000000027e+03
4.599999999999999922e-02 4.601779999999999760e-01 6.154659999999999798e+00 5.938115000000000521e+01 1.491470000000000027e+03
4.700000000000000011e-02 4.601260000000000350e-01 6.473784999999999457e+00 5.909655000000000058e+01 1.491315000000000055e+03
4.800000000000000100e-02 4.601299999999999835e-01 6.880675000000000097e+00 5.912115000000000009e+01 1.491260000000000218e+03
4.900000000000000189e-02 4.601915000000000311e-01 7.378960000000000186e+00 5.945005000000000450e+01 1.491304999999999836e+03
5.000000000000000278e-02 4.603090000000000237e-01 7.974035000000000650e+00 6.007805000000000462e+01 1.491450000000000045e+03
5.100000000000000366e-02 4.604834999999999900e-01 8.672164999999999679e+00 6.100029999999999575e+01 1.491684999999999945e+03
5.200000000000000455e-02 4.607139999999999569e-01 9.478994999999999393e+00 6.221144999999999925e+01 1.492019999999999982e+03
5.300000000000000544e-02 4.610000000000000209e-01 1.039798500000000026e+01 6.370434999999999803e+01 1.492445000000000164e+03
5.399999999999999939e-02 4.613385000000000402e-01 1.142912000000000106e+01 6.546840000000000259e+01 1.492965000000000146e+03
5.500000000000000028e-02 4.617274999999999574e-01 1.256788500000000042e+01 6.748845000000000027e+01 1.493565000000000055e+03
5.600000000000000117e-02 4.621609999999999885e-01 1.380511499999999891e+01 6.974365000000000236e+01 1.494244999999999891e+03
5.700000000000000205e-02 4.626325000000000021e-01 1.512757500000000022e+01 7.220794999999999675e+01 1.495000000000000000e+03
5.800000000000000294e-02 4.631359999999999921e-01 1.651843500000000020e+01 7.485044999999999504e+01 1.495815000000000055e+03
5.900000000000000383e-02 4.636645000000000350e-01 1.795905000000000129e+01 7.763705000000000211e+01 1.496684999999999945e+03
6.000000000000000472e-02 4.642100000000000115e-01 1.942989999999999995e+01 8.053204999999999814e+01 1.497599999999999909e+03
6.099999999999999867e-02 4.647665000000000268e-01 2.091195000000000093e+01 8.350014999999999077e+01 1.498545000000000073e+03
6.199999999999999956e-02 4.653285000000000338e-01 2.238795000000000002e+01 8.650854999999999961e+01 1.499514999999999873e+03
6.300000000000000044e-02 4.658889999999999976e-01 2.384295000000000186e+01 8.952745000000000175e+01 1.500500000000000000e+03
6.400000000000000133e-02 4.664464999999999861e-01 2.526484999999999914e+01 9.253305000000000291e+01 1.501485000000000127e+03
6.500000000000000222e-02 4.669969999999999954e-01 2.664440000000000097e+01 9.550600000000000023e+01 1.502469999999999800e+03
6.600000000000000311e-02 4.675390000000000379e-01 2.797520000000000095e+01 9.843335000000000434e+01 1.503449999999999818e+03
6.700000000000000400e-02 4.680714999999999737e-01 2.925304999999999822e+01 1.013059499999999957e+02 1.504414999999999964e+03
6.800000000000000488e-02 4.685949999999999838e-01 3.047579999999999956e+01 1.041201999999999970e+02 1.505369999999999891e+03
6.900000000000000577e-02 4.691095000000000126e-01 3.164239999999999853e+01 1.068758499999999998e+02 1.506309999999999945e+03
7.000000000000000666e-02 4.696155000000000190e-01 3.275284999999999513e+01 1.095744499999999988e+02 1.507230000000000018e+03
7.100000000000000755e-02 4.701135000000000175e-01 3.380769999999999698e+01 1.122199999999999989e+02 1.508139999999999873e+03
7.200000000000000844e-02 4.706049999999999955e-01 3.480725000000000335e+01 1.148160000000000025e+02 1.509034999999999854e+03
7.300000000000000933e-02 4.710889999999999800e-01 3.575185000000000457e+01 1.173665000000000020e+02 1.509914999999999964e+03
7.399999999999999634e-02 4.715669999999999584e-01 3.664114999999999611e+01 1.198739999999999952e+02 1.510784999999999854e+03
7.499999999999999722e-02 4.720384999999999720e-01 3.747435000000000116e+01 1.223384999999999962e+02 1.511639999999999873e+03
7.599999999999999811e-02 4.725019999999999776e-01 3.824980000000000047e+01 1.247599999999999909e+02 1.512480000000000018e+03
7.699999999999999900e-02 4.729574999999999751e-01 3.896535000000000082e+01 1.271349999999999909e+02 1.513309999999999945e+03
7.799999999999999989e-02 4.734029999999999627e-01 3.961809999999999832e+01 1.294575000000000102e+02 1.514119999999999891e+03
7.900000000000000078e-02 4.738369999999999527e-01 4.020484999999999332e+01 1.317199999999999989e+02 1.514914999999999964e+03
8.000000000000000167e-02 4.742579999999999574e-01 4.072220000000000084e+01 1.339134999999999991e+02 1.515684999999999945e+03
8.100000000000000255e-02 4.746630000000000016e-01 4.116649999999999920e+01 1.360285000000000082e+02 1.516434999999999945e+03
8.200000000000000344e-02 4.750504999999999867e-01 4.153475000000000250e+01 1.380540000000000020e+02 1.517159999999999854e+03
8.300000000000000433e-02 4.754190000000000360e-01 4.182420000000000471e+01 1.399795000000000016e+02 1.517849999999999909e+03
8.400000000000000522e-02 4.757665000000000366e-01 4.203265000000000384e+01 1.417964999999999804e+02 1.518505000000000109e+03
8.500000000000000611e-02 4.760915000000000008e-01 4.215894999999999726e+01 1.434950000000000045e+02 1.519125000000000000e+03
8.600000000000000699e-02 4.763920000000000377e-01 4.220255000000000223e+01 1.450685000000000002e+02 1.519704999999999927e+03
8.700000000000000788e-02 4.766690000000000094e-01 4.216379999999999484e+01 1.465109999999999957e+02 1.520244999999999891e+03
8.800000000000000877e-02 4.769200000000000106e-01 4.204394999999999527e+01 1.478195000000000050e+02 1.520734999999999900e+03
8.899999999999999578e-02 4.771459999999999591e-01 4.184490000000000265e+01 1.489909999999999854e+02 1.521184999999999945e+03
8.999999999999999667e-02 4.773465000000000069e-01 4.156935000000000002e+01 1.500249999999999773e+02 1.521579999999999927e+03
9.099999999999999756e-02 4.775220000000000020e-01 4.122079999999999700e+01 1.509239999999999782e+02 1.521934999999999945e+03
9.199999999999999845e-02 4.776730000000000143e-01 4.080315000000000225e+01 1.516895000000000095e+02 1.522250000000000000e+03
9.299999999999999933e-02 4.778004999999999614e-01 4.032110000000000127e+01 1.523265000000000100e+02 1.522514999999999873e+03
9.400000000000000022e-02 4.779054999999999831e-01 3.978000000000000114e+01 1.528410000000000082e+02 1.522735000000000127e+03
9.500000000000000111e-02 4.779889999999999972e-01 3.918560000000000088e+01 1.532390000000000043e+02 1.522920000000000073e+03
9.600000000000000200e-02 4.780524999999999913e-01 3.854425000000000523e+01 1.535305000000000177e+02 1.523065000000000055e+03
9.700000000000000289e-02 4.780984999999999818e-01 3.786265000000000214e+01 1.537220000000000084e+02 1.523175000000000182e+03
9.800000000000000377e-02 4.781279999999999974e-01 3.714804999999999779e+01 1.538249999999999886e+02 1.523250000000000000e+03
9.900000000000000466e-02 4.781440000000000135e-01 3.640760000000000218e+01 1.538499999999999943e+02 1.523295000000000073e+03
1.000000000000000056e-01 4.781469999999999887e-01 3.564874999999999972e+01 1.538070000000000164e+02 1.523309999999999945e+03
1.010000000000000064e-01 4.781410000000000382e-01 3.487850000000000250e+01 1.537084999999999866e+02 1.523309999999999945e+03
1.020000000000000073e-01 4.781259999999999954e-01 3.410375000000000512e+01 1.535629999999999882e+02 1.523285000000000082e+03
1.030000000000000082e-01 4.781050000000000022e-01 3.333059999999999690e+01 1.533815000000000168e+02 1.523250000000000000e+03
1.040000000000000091e-01 4.780780000000000030e-01 3.256439999999999912e+01 1.531734999999999900e+02 1.523195000000000164e+03
1.050000000000000100e-01 4.780484999999999873e-01 3.180965000000000131e+01 1.529455000000000098e+02 1.523134999999999991e+03
1.059999999999999970e-01 4.780155000000000376e-01 3.106964999999999932e+01 1.527044999999999959e+02 1.523065000000000055e+03
1.069999999999999979e-01 4.779804999999999748e-01 3.034660000000000224e+01 1.524544999999999959e+02 1.522989999999999782e+03
1.079999999999999988e-01 4.779440000000000355e-01 2.964164999999999850e+01 1.521974999999999909e+02 1.522909999999999854e+03
1.089999999999999997e-01 4.779054999999999831e-01 2.895479999999999876e+01 1.519354999999999905e+02 1.522824999999999818e+03
1.100000000000000006e-01 4.778639999999999555e-01 2.828515000000000157e+01 1.516675000000000182e+02 1.522734999999999900e+03
1.110000000000000014e-01 4.778204999999999814e-01 2.763074999999999903e+01 1.513910000000000196e+02 1.522644999999999982e+03
1.120000000000000023e-01 4.777725000000000444e-01 2.698920000000000030e+01 1.511020000000000039e+02 1.522545000000000073e+03
1.130000000000000032e-01 4.777209999999999512e-01 2.635759999999999792e+01 1.507975000000000136e+02 1.522444999999999936e+03
1.140000000000000041e-01 4.776635000000000186e-01 2.573264999999999958e+01 1.504719999999999800e+02 1.522335000000000036e+03
1.150000000000000050e-01 4.776000000000000245e-01 2.511100000000000065e+01 1.501209999999999809e+02 1.522214999999999918e+03
1.160000000000000059e-01 4.775295000000000512e-01 2.448935000000000173e+01 1.497390000000000043e+02 1.522085000000000036e+03
1.170000000000000068e-01 4.774510000000000143e-01 2.386459999999999937e+01 1.493224999999999909e+02 1.521945000000000164e+03
1.180000000000000077e-01 4.773640000000000105e-01 2.323404999999999987e+01 1.488670000000000186e+02 1.521799999999999955e+03
1.190000000000000085e-01 4.772689999999999988e-01 2.259550000000000125e+01 1.483704999999999927e+02 1.521634999999999991e+03
1.200000000000000094e-01 4.771644999999999914e-01 2.194725000000000037e+01 1.478309999999999889e+02 1.521454999999999927e+03
1.209999999999999964e-01 4.770514999999999617e-01 2.128829999999999956e+01 1.472475000000000023e+02 1.521264999999999873e+03
1.219999999999999973e-01 4.769300000000000206e-01 2.061824999999999974e+01 1.466204999999999927e+02 1.521059999999999945e+03
1.229999999999999982e-01 4.768000000000000016e-01 1.993755000000000166e+01 1.459524999999999864e+02 1.520844999999999800e+03
1.239999999999999991e-01 4.766635000000000177e-01 1.924735000000000085e+01 1.452470000000000141e+02 1.520609999999999900e+03
1.250000000000000000e-01 4.765200000000000546e-01 1.854964999999999975e+01 1.445079999999999814e+02 1.520369999999999891e+03
1.260000000000000009e-01 4.763724999999999765e-01 1.784684999999999988e+01 1.437415000000000020e+02 1.520115000000000009e+03
1.270000000000000018e-01 4.762210000000000054e-01 1.714229999999999876e+01 1.429540000000000077e+02 1.519855000000000018e+03
1.280000000000000027e-01 4.760675000000000323e-01 1.643959999999999866e+01 1.421524999999999750e+02 1.519590000000000146e+03
1.290000000000000036e-01 4.759140000000000037e-01 1.574299999999999855e+01 1.413464999999999918e+02 1.519320000000000164e+03
1.300000000000000044e-01 4.757615000000000038e-01 1.505686000000000035e+01 1.405434999999999945e+02 1.519050000000000182e+03
1.310000000000000053e-01 4.756124999999999936e-01 1.438580500000000129e+01 1.397520000000000095e+02 1.518779999999999973e+03
1.320000000000000062e-01 4.754675000000000429e-01 1.373446000000000033e+01 1.389820000000000277e+02 1.518519999999999982e+03
1.330000000000000071e-01 4.753290000000000015e-01 1.310728499999999919e+01 1.382404999999999973e+02 1.518269999999999982e+03
1.340000000000000080e-01 4.751980000000000093e-01 1.250841499999999940e+01 1.375360000000000014e+02 1.518025000000000091e+03
1.350000000000000089e-01 4.750765000000000127e-01 1.194165999999999883e+01 1.368750000000000000e+02 1.517795000000000073e+03
1.360000000000000098e-01 4.749645000000000117e-01 1.141018000000000043e+01 1.362630000000000052e+02 1.517575000000000045e+03
1.370000000000000107e-01 4.748625000000000207e-01 1.091657999999999973e+01 1.357044999999999959e+02 1.517375000000000000e+03
1.380000000000000115e-01 4.747719999999999718e-01 1.046274000000000015e+01 1.352040000000000077e+02 1.517190000000000055e+03
1.390000000000000124e-01 4.746924999999999617e-01 1.004978000000000016e+01 1.347624999999999886e+02 1.517025000000000091e+03
1.400000000000000133e-01 4.746245000000000047e-01 9.677979999999999805e+00 1.343799999999999955e+02 1.516880000000000109e+03
1.410000000000000142e-01 4.745675000000000310e-01 9.346899999999999764e+00 1.340560000000000116e+02 1.516750000000000000e+03
1.420000000000000151e-01 4.745205000000000117e-01 9.055460000000000065e+00 1.337884999999999991e+02 1.516644999999999982e+03
1.430000000000000160e-01 4.744835000000000025e-01 8.801885000000000403e+00 1.335734999999999957e+02 1.516549999999999955e+03
1.440000000000000169e-01 4.744539999999999869e-01 8.583825000000000927e+00 1.334074999999999989e+02 1.516480000000000018e+03
1.450000000000000178e-01 4.744335000000000635e-01 8.398554999999999993e+00 1.332844999999999800e+02 1.516414999999999964e+03
1.459999999999999909e-01 4.744185000000000207e-01 8.243075000000001040e+00 1.331995000000000005e+02 1.516369999999999891e+03
1.469999999999999918e-01 4.744095000000000395e-01 8.114105000000000345e+00 1.331460000000000150e+02 1.516340000000000146e+03
1.479999999999999927e-01 4.744039999999999924e-01 8.008380000000000720e+00 1.331184999999999832e+02 1.516315000000000055e+03
1.489999999999999936e-01 4.744019999999999904e-01 7.922645000000000159e+00 1.331109999999999900e+02 1.516300000000000182e+03
1.499999999999999944e-01 4.744030000000000191e-01 7.853794999999999860e+00 1.331189999999999998e+02 1.516285000000000082e+03
1.509999999999999953e-01 4.744050000000000211e-01 7.798930000000000362e+00 1.331365000000000123e+02 1.516279999999999973e+03
1.519999999999999962e-01 4.744074999999999820e-01 7.755425000000000679e+00 1.331605000000000132e+02 1.516279999999999973e+03
1.529999999999999971e-01 4.744104999999999572e-01 7.720955000000000013e+00 1.331859999999999786e+02 1.516284999999999854e+03
1.539999999999999980e-01 4.744134999999999880e-01 7.693509999999999849e+00 1.332110000000000127e+02 1.516279999999999973e+03
1.549999999999999989e-01 4.744160000000000044e-01 7.671405000000000030e+00 1.332344999999999970e+02 1.516279999999999973e+03
1.559999999999999998e-01 4.744170000000000331e-01 7.653280000000000527e+00 1.332540000000000191e+02 1.516284999999999854e+03
1.570000000000000007e-01 4.744180000000000064e-01 7.638044999999999973e+00 1.332685000000000173e+02 1.516284999999999854e+03
1.580000000000000016e-01 4.744180000000000064e-01 7.624900000000000233e+00 1.332785000000000082e+02 1.516289999999999964e+03
1.590000000000000024e-01 4.744180000000000064e-01 7.613269999999999982e+00 1.332845000000000084e+02 1.516289999999999964e+03
