# t [s], A [cm^2], U [cm/s], P [cPa], c [cm/s]
1.000000000000000021e-03 7.889580000000000481e-01 4.861500000000004706e-03 9.803125000000000000e+01 1.586255000000000109e+03
2.000000000000000042e-03 7.889450000000000074e-01 -8.894250000000001113e-04 9.800260000000000105e+01 1.586244999999999891e+03
3.000000000000000062e-03 7.890235000000000998e-01 1.104884999999999895e-01 9.811754999999999427e+01 1.586275000000000091e+03
4.000000000000000083e-03 7.890814999999999912e-01 2.070641000000000009e-01 9.823044999999999050e+01 1.586299999999999955e+03
5.000000000000000104e-03 7.890319999999999556e-01 1.637194500000000164e-01 9.813785000000000025e+01 1.586279999999999973e+03
6.000000000000000125e-03 7.889349999999999419e-01 4.822650000000000547e-02 9.787549999999998818e+01 1.586224999999999909e+03
7.000000000000000146e-03 7.888454999999999773e-01 -6.683499999999997776e-02 9.754259999999999309e+01 1.586150000000000091e+03
8.000000000000000167e-03 7.886975000000000513e-01 -2.793299999999999672e-01 9.703800000000001091e+01 1.586045000000000073e+03
9.000000000000001055e-03 7.884590000000000209e-01 -6.372849999999998793e-01 9.627055000000000007e+01 1.585875000000000000e+03
1.000000000000000194e-02 7.881324999999999026e-01 -1.130739999999999856e+00 9.520824999999999250e+01 1.585644999999999982e+03
1.099999999999999936e-02 7.876920000000000588e-01 -1.779685000000000183e+00 9.378584999999999638e+01 1.585324999999999818e+03
1.200000000000000025e-02 7.871219999999999883e-01 -2.585685000000000233e+00 9.195265000000000555e+01 1.584909999999999854e+03
1.300000000000000114e-02 7.864705000000000723e-01 -3.452835000000000321e+00 8.978450000000000841e+01 1.584405000000000200e+03
1.400000000000000203e-02 7.858384999999999954e-01 -4.202608999999999817e+00 8.750000000000000000e+01 1.583855000000000018e+03
1.499999999999999944e-02 7.853170000000000428e-01 -4.664282000000000039e+00 8.536020000000000607e+01 1.583315000000000055e+03
1.600000000000000033e-02 7.849435000000000162e-01 -4.751898500000000247e+00 8.355065000000000452e+01 1.582829999999999927e+03
1.700000000000000122e-02 7.846954999999999902e-01 -4.484194999999999709e+00 8.212055000000000859e+01 1.582414999999999964e+03
1.800000000000000211e-02 7.845075000000000243e-01 -3.958744999999999958e+00 8.098810000000000286e+01 1.582059999999999945e+03
1.900000000000000300e-02 7.843044999999999600e-01 -3.305344999999999978e+00 7.999064999999998804e+01 1.581735000000000127e+03
2.000000000000000042e-02 7.840285000000000171e-01 -2.637814499999999729e+00 7.895340000000000202e+01 1.581404999999999973e+03
2.100000000000000130e-02 7.836570000000000480e-01 -2.018753499999999867e+00 7.775284999999999513e+01 1.581049999999999955e+03
2.200000000000000219e-02 7.832049999999999290e-01 -1.449134999999999840e+00 7.635259999999999536e+01 1.580650000000000091e+03
2.299999999999999961e-02 7.827120000000000744e-01 -8.857999999999999208e-01 7.479850000000000421e+01 1.580219999999999800e+03
2.400000000000000050e-02 7.822200000000000264e-01 -2.758899999999999686e-01 7.318019999999999925e+01 1.579769999999999982e+03
2.500000000000000139e-02 7.817560000000000064e-01 4.094700000000002227e-01 7.158084999999999809e+01 1.579315000000000055e+03
2.600000000000000228e-02 7.813179999999999570e-01 1.155459999999999932e+00 7.003735000000000355e+01 1.578880000000000109e+03
2.700000000000000316e-02 7.808809999999999363e-01 1.901500000000000190e+00 6.852139999999999986e+01 1.578440000000000055e+03
2.800000000000000058e-02 7.804005000000000525e-01 2.553944999999999688e+00 6.694405000000000427e+01 1.577994999999999891e+03
2.900000000000000147e-02 7.798285000000000355e-01 3.008104999999999585e+00 6.517865000000000464e+01 1.577505000000000109e+03
3.000000000000000236e-02 7.791244999999999976e-01 3.173825000000000340e+00 6.309619999999999607e+01 1.576954999999999927e+03
3.099999999999999978e-02 7.782715000000000050e-01 2.998524999999999441e+00 6.060305000000000319e+01 1.576315000000000055e+03
3.200000000000000067e-02 7.772769999999999957e-01 2.481370000000000520e+00 5.767220000000000368e+01 1.575579999999999927e+03
3.300000000000000155e-02 7.761784999999999934e-01 1.674249999999999794e+00 5.435745000000000005e+01 1.574755000000000109e+03
3.400000000000000244e-02 7.750325000000000131e-01 6.702300000000001035e-01 5.078770000000000095e+01 1.573869999999999891e+03
3.500000000000000333e-02 7.739044999999999952e-01 -4.168000000000002814e-01 4.714424999999999955e+01 1.572954999999999927e+03
3.600000000000000422e-02 7.728580000000000449e-01 -1.472389999999999866e+00 4.362995000000000090e+01 1.572055000000000064e+03
3.700000000000000511e-02 7.719450000000001033e-01 -2.398619999999999752e+00 4.043919999999999959e+01 1.571214999999999918e+03
3.799999999999999906e-02 7.712030000000000829e-01 -3.122894999999999754e+00 3.773449999999999704e+01 1.570480000000000018e+03
3.899999999999999994e-02 7.706524999999999626e-01 -3.600590000000000401e+00 3.563264999999999816e+01 1.569880000000000109e+03
4.000000000000000083e-02 7.703014999999999723e-01 -3.812149000000000232e+00 3.420074999999999932e+01 1.569434999999999945e+03
4.100000000000000172e-02 7.701459999999999972e-01 -3.756425000000000125e+00 3.346025000000000205e+01 1.569154999999999973e+03
4.200000000000000261e-02 7.701750000000000540e-01 -3.443130000000000024e+00 3.339699999999999847e+01 1.569045000000000073e+03
4.300000000000000350e-02 7.703759999999999497e-01 -2.885984500000000175e+00 3.397325000000000017e+01 1.569094999999999800e+03
4.400000000000000439e-02 7.707355000000000178e-01 -2.098184999999999967e+00 3.513940000000000197e+01 1.569305000000000064e+03
4.499999999999999833e-02 7.712404999999999955e-01 -1.090909999999999602e+00 3.684210000000000207e+01 1.569659999999999854e+03
4.599999999999999922e-02 7.718795000000000517e-01 1.253899999999998904e-01 3.902819999999999823e+01 1.570134999999999991e+03
4.700000000000000011e-02 7.726385000000000058e-01 1.537929999999999797e+00 4.164459999999999695e+01 1.570740000000000009e+03
4.800000000000000100e-02 7.735039999999999694e-01 3.128300000000000303e+00 4.463575000000000159e+01 1.571445000000000164e+03
4.900000000000000189e-02 7.744569999999999510e-01 4.870274999999999466e+00 4.794089999999999918e+01 1.572244999999999891e+03
5.000000000000000278e-02 7.754760000000000542e-01 6.729185000000001082e+00 5.149214999999999520e+01 1.573115000000000009e+03
5.100000000000000366e-02 7.765379999999999505e-01 8.663357000000001307e+00 5.521455000000000268e+01 1.574039999999999964e+03
5.200000000000000455e-02 7.776184999999999903e-01 1.062688999999999950e+01 5.902884999999999849e+01 1.575000000000000000e+03
5.300000000000000544e-02 7.786939999999999973e-01 1.257323000000000057e+01 6.285540000000000305e+01 1.575980000000000018e+03
5.399999999999999939e-02 7.797420000000000462e-01 1.445889500000000005e+01 6.661920000000000641e+01 1.576954999999999927e+03
5.500000000000000028e-02 7.807469999999999688e-01 1.624669000000000096e+01 7.025499999999999545e+01 1.577914999999999964e+03
5.600000000000000117e-02 7.816959999999999464e-01 1.790755000000000052e+01 7.371115000000000350e+01 1.578839999999999918e+03
5.700000000000000205e-02 7.825809999999999711e-01 1.942194999999999894e+01 7.695194999999999652e+01 1.579720000000000027e+03
5.800000000000000294e-02 7.834014999999999729e-01 2.077959999999999852e+01 7.995894999999998731e+01 1.580550000000000182e+03
5.900000000000000383e-02 7.841590000000000504e-01 2.197860000000000014e+01 8.272974999999999568e+01 1.581329999999999927e+03
6.000000000000000472e-02 7.848585000000000145e-01 2.302414999999999878e+01 8.527620000000000289e+01 1.582049999999999955e+03
6.099999999999999867e-02 7.855090000000000128e-01 2.392709999999999937e+01 8.762180000000000746e+01 1.582724999999999909e+03
6.199999999999999956e-02 7.861194999999999711e-01 2.470244999999999891e+01 8.979855000000000587e+01 1.583355000000000018e+03
6.300000000000000044e-02 7.867020000000000124e-01 2.536784999999999712e+01 9.184380000000000166e+01 1.583949999999999818e+03
6.400000000000000133e-02 7.872664999999999802e-01 2.594279999999999831e+01 9.379789999999999850e+01 1.584515000000000100e+03
6.500000000000000222e-02 7.878245000000000386e-01 2.644729999999999848e+01 9.570085000000000264e+01 1.585065000000000055e+03
6.600000000000000311e-02 7.883864999999999901e-01 2.690099999999999980e+01 9.759055000000000746e+01 1.585605000000000018e+03
6.700000000000000400e-02 7.889589999999999659e-01 2.732160000000000011e+01 9.949954999999999927e+01 1.586150000000000091e+03
6.800000000000000488e-02 7.895499999999999741e-01 2.772445000000000093e+01 1.014547499999999900e+02 1.586694999999999936e+03
6.900000000000000577e-02 7.901624999999999899e-01 2.812069999999999936e+01 1.034720000000000084e+02 1.587255000000000109e+03
7.000000000000000666e-02 7.907969999999999722e-01 2.851699999999999946e+01 1.055589999999999975e+02 1.587829999999999927e+03
7.100000000000000755e-02 7.914499999999999869e-01 2.891490000000000293e+01 1.077125000000000057e+02 1.588420000000000073e+03
7.200000000000000844e-02 7.921165000000000012e-01 2.931090000000000018e+01 1.099164999999999992e+02 1.589019999999999982e+03
7.300000000000000933e-02 7.927880000000000482e-01 2.969675000000000153e+01 1.121469999999999914e+02 1.589630000000000109e+03
7.399999999999999634e-02 7.934529999999999639e-01 3.006065000000000254e+01 1.143714999999999975e+02 1.590240000000000009e+03
7.499999999999999722e-02 7.941004999999999869e-01 3.038795000000000002e+01 1.165515000000000043e+02 1.590840000000000146e+03
7.599999999999999811e-02 7.947189999999999532e-01 3.066279999999999717e+01 1.186450000000000102e+02 1.591420000000000073e+03
7.699999999999999900e-02 7.952949999999999742e-01 3.086930000000000263e+01 1.206109999999999900e+02 1.591965000000000146e+03
7.799999999999999989e-02 7.958190000000000541e-01 3.099264999999999759e+01 1.224105000000000132e+02 1.592480000000000018e+03
7.900000000000000078e-02 7.962814999999999754e-01 3.102020000000000266e+01 1.240084999999999980e+02 1.592944999999999936e+03
8.000000000000000167e-02 7.966755000000000919e-01 3.094225000000000136e+01 1.253780000000000001e+02 1.593345000000000027e+03
8.100000000000000255e-02 7.969964999999999966e-01 3.075240000000000151e+01 1.264985000000000070e+02 1.593690000000000055e+03
8.200000000000000344e-02 7.972420000000000062e-01 3.044800000000000040e+01 1.273584999999999923e+02 1.593969999999999800e+03
8.300000000000000433e-02 7.974129999999999274e-01 3.003024999999999878e+01 1.279569999999999936e+02 1.594179999999999836e+03
8.400000000000000522e-02 7.975114999999999288e-01 2.950384999999999991e+01 1.282990000000000066e+02 1.594320000000000164e+03
8.500000000000000611e-02 7.975425000000000431e-01 2.887710000000000221e+01 1.283990000000000009e+02 1.594394999999999982e+03
8.600000000000000699e-02 7.975130000000000274e-01 2.816120000000000090e+01 1.282794999999999845e+02 1.594414999999999964e+03
8.700000000000000788e-02 7.974305000000000421e-01 2.736995000000000289e+01 1.279655000000000058e+02 1.594375000000000000e+03
8.800000000000000877e-02 7.973034999999999428e-01 2.651899999999999835e+01 1.274900000000000091e+02 1.594289999999999964e+03
8.899999999999999578e-02 7.971435000000000048e-01 2.562539999999999907e+01 1.268865000000000123e+02 1.594170000000000073e+03
8.999999999999999667e-02 7.969600000000000017e-01 2.470664999999999978e+01 1.261905000000000001e+02 1.594009999999999991e+03
9.099999999999999756e-02 7.967619999999999703e-01 2.378009999999999735e+01 1.254379999999999882e+02 1.593840000000000146e+03
9.199999999999999845e-02 7.965599999999999348e-01 2.286230000000000118e+01 1.246619999999999919e+02 1.593654999999999973e+03
9.299999999999999933e-02 7.963614999999999444e-01 2.196824999999999761e+01 1.238944999999999936e+02 1.593460000000000036e+03
9.400000000000000022e-02 7.961735000000000895e-01 2.111080000000000112e+01 1.231614999999999895e+02 1.593264999999999873e+03
9.500000000000000111e-02 7.960024999999999462e-01 2.030024999999999835e+01 1.224860000000000042e+02 1.593085000000000036e+03
9.600000000000000200e-02 7.958515000000000450e-01 1.954384999999999906e+01 1.218830000000000098e+02 1.592925000000000182e+03
9.700000000000000289e-02 7.957235000000000280e-01 1.884575000000000244e+01 1.213624999999999972e+02 1.592775000000000091e+03
9.800000000000000377e-02 7.956179999999999364e-01 1.820710000000000051e+01 1.209290000000000020e+02 1.592650000000000091e+03
9.900000000000000466e-02 7.955345000000000333e-01 1.762584999999999980e+01 1.205805000000000007e+02 1.592539999999999964e+03
1.000000000000000056e-01 7.954704999999999693e-01 1.709730000000000061e+01 1.203094999999999999e+02 1.592449999999999818e+03
1.010000000000000064e-01 7.954215000000000035e-01 1.661430000000000007e+01 1.201039999999999992e+02 1.592380000000000109e+03
1.020000000000000073e-01 7.953829999999999512e-01 1.616784999999999783e+01 1.199480000000000075e+02 1.592325000000000045e+03
1.030000000000000082e-01 7.953500000000000014e-01 1.574755000000000038e+01 1.198230000000000075e+02 1.592275000000000091e+03
1.040000000000000091e-01 7.953159999999999119e-01 1.534229999999999983e+01 1.197090000000000032e+02 1.592230000000000018e+03
1.050000000000000100e-01 7.952760000000000939e-01 1.494054999999999822e+01 1.195854999999999961e+02 1.592184999999999945e+03
1.059999999999999970e-01 7.952245000000000008e-01 1.453125000000000000e+01 1.194329999999999927e+02 1.592139999999999873e+03
1.069999999999999979e-01 7.951559999999999739e-01 1.410429999999999851e+01 1.192325000000000017e+02 1.592079999999999927e+03
1.079999999999999988e-01 7.950679999999999970e-01 1.365095000000000169e+01 1.189685000000000059e+02 1.592009999999999991e+03
1.089999999999999997e-01 7.949555000000000371e-01 1.316430000000000078e+01 1.186285000000000025e+02 1.591924999999999955e+03
1.100000000000000006e-01 7.948184999999999834e-01 1.263961499999999916e+01 1.182055000000000007e+02 1.591819999999999936e+03
1.110000000000000014e-01 7.946564999999999879e-01 1.207482500000000059e+01 1.176945000000000050e+02 1.591684999999999945e+03
1.120000000000000023e-01 7.944700000000000095e-01 1.147015999999999991e+01 1.170979999999999990e+02 1.591539999999999964e+03
1.130000000000000032e-01 7.942614999999999537e-01 1.082869499999999974e+01 1.164225000000000136e+02 1.591369999999999891e+03
1.140000000000000041e-01 7.940355000000000052e-01 1.015577500000000022e+01 1.156775000000000091e+02 1.591184999999999945e+03
1.150000000000000050e-01 7.937959999999999461e-01 9.458999999999999631e+00 1.148785000000000025e+02 1.590980000000000018e+03
1.160000000000000059e-01 7.935490000000000599e-01 8.747885000000000133e+00 1.140430000000000064e+02 1.590764999999999873e+03
1.170000000000000068e-01 7.933004999999999640e-01 8.033249999999998892e+00 1.131924999999999955e+02 1.590549999999999955e+03
1.180000000000000077e-01 7.930565000000000531e-01 7.326804999999999346e+00 1.123489999999999895e+02 1.590325000000000045e+03
1.190000000000000085e-01 7.928250000000000020e-01 6.640699999999999825e+00 1.115349999999999966e+02 1.590110000000000127e+03
1.200000000000000094e-01 7.926109999999999545e-01 5.986704999999999721e+00 1.107725000000000080e+02 1.589900000000000091e+03
1.209999999999999964e-01 7.924204999999999721e-01 5.375880000000000436e+00 1.100824999999999960e+02 1.589714999999999918e+03
1.219999999999999973e-01 7.922580000000000178e-01 4.817949999999999733e+00 1.094825000000000017e+02 1.589545000000000073e+03
1.229999999999999982e-01 7.921274999999999844e-01 4.320930000000000604e+00 1.089865000000000066e+02 1.589400000000000091e+03
1.239999999999999991e-01 7.920314999999999994e-01 3.890730000000000022e+00 1.086059999999999945e+02 1.589279999999999973e+03
1.250000000000000000e-01 7.919700000000000628e-01 3.531010000000000204e+00 1.083460000000000036e+02 1.589194999999999936e+03
1.260000000000000009e-01 7.919445000000000512e-01 3.243009999999999948e+00 1.082090000000000032e+02 1.589134999999999991e+03
1.270000000000000018e-01 7.919519999999999893e-01 3.025619999999999976e+00 1.081899999999999977e+02 1.589110000000000127e+03
1.280000000000000027e-01 7.919899999999999718e-01 2.875504999999999978e+00 1.082824999999999989e+02 1.589110000000000127e+03
1.290000000000000036e-01 7.920555000000000234e-01 2.787339999999999929e+00 1.084749999999999943e+02 1.589144999999999982e+03
1.300000000000000044e-01 7.921435000000000004e-01 2.754129999999999967e+00 1.087530000000000001e+02 1.589195000000000164e+03
1.310000000000000053e-01 7.922485000000000221e-01 2.767610000000000348e+00 1.091005000000000109e+02 1.589269999999999982e+03
1.320000000000000062e-01 7.923664999999999736e-01 2.818595000000000184e+00 1.094979999999999905e+02 1.589355000000000018e+03
1.330000000000000071e-01 7.924914999999999043e-01 2.897434999999999761e+00 1.099284999999999997e+02 1.589460000000000036e+03
1.340000000000000080e-01 7.926180000000000447e-01 2.994404999999999983e+00 1.103725000000000023e+02 1.589565000000000055e+03
1.350000000000000089e-01 7.927414999999999878e-01 3.100050000000000416e+00 1.108119999999999976e+02 1.589670000000000073e+03
1.360000000000000098e-01 7.928574999999999928e-01 3.205524999999999736e+00 1.112314999999999969e+02 1.589775000000000091e+03
1.370000000000000107e-01 7.929619999999999447e-01 3.302875000000000227e+00 1.116165000000000020e+02 1.589875000000000000e+03
1.380000000000000115e-01 7.930530000000000079e-01 3.385250000000000092e+00 1.119565000000000055e+02 1.589965000000000146e+03
1.390000000000000124e-01 7.931280000000000552e-01 3.447049999999999947e+00 1.122419999999999902e+02 1.590049999999999955e+03
1.400000000000000133e-01 7.931844999999999590e-01 3.484015000000000306e+00 1.124664999999999964e+02 1.590115000000000009e+03
1.410000000000000142e-01 7.932235000000000813e-01 3.493294999999999817e+00 1.126270000000000095e+02 1.590159999999999854e+03
1.420000000000000151e-01 7.932440000000000602e-01 3.473404999999999632e+00 1.127224999999999966e+02 1.590195000000000164e+03
1.430000000000000160e-01 7.932470000000000354e-01 3.424170000000000158e+00 1.127555000000000121e+02 1.590214999999999918e+03
1.440000000000000169e-01 7.932339999999999947e-01 3.346639999999999837e+00 1.127289999999999992e+02 1.590220000000000027e+03
1.450000000000000178e-01 7.932069999999999954e-01 3.242920000000000247e+00 1.126490000000000009e+02 1.590204999999999927e+03
1.459999999999999909e-01 7.931679999999999842e-01 3.116030000000000300e+00 1.125215000000000032e+02 1.590184999999999945e+03
1.469999999999999918e-01 7.931185000000000596e-01 2.969685000000000130e+00 1.123555000000000064e+02 1.590150000000000091e+03
1.479999999999999927e-01 7.930619999999999337e-01 2.808124999999999982e+00 1.121590000000000060e+02 1.590105000000000018e+03
1.489999999999999936e-01 7.930004999999999971e-01 2.635864999999999903e+00 1.119405000000000001e+02 1.590054999999999836e+03
1.499999999999999944e-01 7.929359999999999742e-01 2.457505000000000273e+00 1.117090000000000032e+02 1.590000000000000000e+03
1.509999999999999953e-01 7.928714999999999513e-01 2.277505000000000113e+00 1.114720000000000084e+02 1.589945000000000164e+03
1.519999999999999962e-01 7.928079999999999572e-01 2.100010000000000154e+00 1.112365000000000066e+02 1.589884999999999991e+03
1.529999999999999971e-01 7.927474999999999383e-01 1.928679499999999880e+00 1.110090000000000003e+02 1.589825000000000045e+03
1.539999999999999980e-01 7.926910000000000345e-01 1.766546500000000020e+00 1.107925000000000040e+02 1.589769999999999982e+03
1.549999999999999989e-01 7.926390000000000935e-01 1.615917500000000118e+00 1.105904999999999916e+02 1.589714999999999918e+03
1.559999999999999998e-01 7.925915000000000044e-01 1.478346500000000008e+00 1.104050000000000011e+02 1.589664999999999964e+03
1.570000000000000007e-01 7.925484999999999891e-01 1.354581500000000105e+00 1.102355000000000018e+02 1.589619999999999891e+03
1.580000000000000016e-01 7.925094999999999779e-01 1.244639000000000051e+00 1.100805000000000007e+02 1.589574999999999818e+03
1.590000000000000024e-01 7.924729999999999830e-01 1.147854500000000000e+00 1.099369999999999976e+02 1.589534999999999854e+03
