# t [s], A [cm^2], U [cm/s], P [cPa], c [cm/s]
1.000000000000000021e-03 1.649845000000000061e-01 3.833388000000000351e-01 9.082329999999998904e+01 1.979900000000000091e+03
2.000000000000000042e-03 1.649390000000000023e-01 1.944602500000000012e+00 8.752745000000000175e+01 1.979485000000000127e+03
3.000000000000000062e-03 1.648149999999999893e-01 3.822493000000000141e+00 8.311305000000000121e+01 1.978414999999999964e+03
4.000000000000000083e-03 1.646469999999999878e-01 5.909550499999999928e+00 7.848324999999999818e+01 1.976980000000000018e+03
5.000000000000000104e-03 1.644680000000000031e-01 8.131479999999999819e+00 7.449245000000000516e+01 1.975470000000000027e+03
6.000000000000000125e-03 1.642965000000000120e-01 1.029890999999999934e+01 7.133095000000000141e+01 1.974034999999999854e+03
7.000000000000000146e-03 1.641374999999999917e-01 1.220135000000000147e+01 6.867680000000000007e+01 1.972724999999999909e+03
8.000000000000000167e-03 1.639919999999999989e-01 1.377802000000000149e+01 6.629999999999999716e+01 1.971555000000000064e+03
9.000000000000001055e-03 1.638649999999999829e-01 1.507999999999999829e+01 6.427065000000000339e+01 1.970545000000000073e+03
1.000000000000000194e-02 1.637585000000000013e-01 1.614199999999999946e+01 6.265335000000000321e+01 1.969704999999999927e+03
1.099999999999999936e-02 1.636724999999999985e-01 1.697755000000000081e+01 6.140570000000000306e+01 1.969034999999999854e+03
1.200000000000000025e-02 1.636039999999999994e-01 1.760409999999999897e+01 6.046549999999999869e+01 1.968509999999999991e+03
1.300000000000000114e-02 1.635504999999999876e-01 1.803134999999999977e+01 5.975010000000000332e+01 1.968114999999999782e+03
1.400000000000000203e-02 1.635085000000000011e-01 1.827125000000000199e+01 5.915775000000000006e+01 1.967809999999999945e+03
1.499999999999999944e-02 1.634754999999999958e-01 1.838490000000000180e+01 5.868675000000000352e+01 1.967569999999999936e+03
1.600000000000000033e-02 1.634539999999999882e-01 1.850184999999999746e+01 5.854404999999999859e+01 1.967424999999999955e+03
1.700000000000000122e-02 1.634539999999999882e-01 1.877309999999999945e+01 5.907874999999999943e+01 1.967440000000000055e+03
1.800000000000000211e-02 1.634825000000000028e-01 1.928914999999999935e+01 6.056049999999999756e+01 1.967674999999999955e+03
1.900000000000000300e-02 1.635435000000000083e-01 2.002445000000000164e+01 6.296989999999999554e+01 1.968155000000000200e+03
2.000000000000000042e-02 1.636299999999999977e-01 2.084159999999999968e+01 6.594060000000000343e+01 1.968840000000000146e+03
2.100000000000000130e-02 1.637275000000000258e-01 2.154554999999999865e+01 6.887469999999999004e+01 1.969625000000000000e+03
2.200000000000000219e-02 1.638189999999999924e-01 2.195779999999999887e+01 7.115779999999999461e+01 1.970360000000000127e+03
2.299999999999999961e-02 1.638875000000000193e-01 2.197644999999999982e+01 7.236840000000000828e+01 1.970934999999999945e+03
2.400000000000000050e-02 1.639255000000000018e-01 2.160239999999999938e+01 7.240165000000000362e+01 1.971259999999999991e+03
2.500000000000000139e-02 1.639305000000000068e-01 2.092575000000000074e+01 7.146779999999999688e+01 1.971325000000000045e+03
2.600000000000000228e-02 1.639110000000000011e-01 2.008339999999999748e+01 6.998170000000000357e+01 1.971190000000000055e+03
2.700000000000000316e-02 1.638764999999999805e-01 1.920755000000000123e+01 6.839689999999998804e+01 1.970930000000000064e+03
2.800000000000000058e-02 1.638390000000000124e-01 1.838515000000000299e+01 6.705504999999999427e+01 1.970639999999999873e+03
2.900000000000000147e-02 1.638050000000000062e-01 1.764139999999999731e+01 6.610049999999999670e+01 1.970369999999999891e+03
3.000000000000000236e-02 1.637784999999999935e-01 1.694754999999999967e+01 6.547844999999999516e+01 1.970154999999999973e+03
3.099999999999999978e-02 1.637560000000000127e-01 1.624600000000000222e+01 6.500029999999999575e+01 1.969980000000000018e+03
3.200000000000000067e-02 1.637345000000000050e-01 1.548120000000000118e+01 6.444329999999999359e+01 1.969804999999999836e+03
3.300000000000000155e-02 1.637080000000000202e-01 1.462675000000000125e+01 6.364734999999999587e+01 1.969595000000000027e+03
3.400000000000000244e-02 1.636739999999999862e-01 1.370045000000000002e+01 6.258129999999999882e+01 1.969335000000000036e+03
3.500000000000000333e-02 1.636345000000000161e-01 1.276445000000000007e+01 6.136169999999999902e+01 1.969025000000000091e+03
3.600000000000000422e-02 1.635935000000000028e-01 1.191049999999999898e+01 6.022180000000000177e+01 1.968700000000000045e+03
3.700000000000000511e-02 1.635584999999999956e-01 1.123555999999999955e+01 5.944205000000000183e+01 1.968420000000000073e+03
3.799999999999999906e-02 1.635375000000000023e-01 1.081515500000000074e+01 5.926594999999999658e+01 1.968240000000000009e+03
3.899999999999999994e-02 1.635369999999999879e-01 1.068254999999999910e+01 5.982699999999999818e+01 1.968220000000000027e+03
4.000000000000000083e-02 1.635594999999999966e-01 1.081930000000000014e+01 6.110689999999999600e+01 1.968385000000000218e+03
4.100000000000000172e-02 1.636029999999999984e-01 1.115800000000000125e+01 6.293449999999999989e+01 1.968715000000000146e+03
4.200000000000000261e-02 1.636624999999999885e-01 1.159609999999999985e+01 6.502065000000000339e+01 1.969175000000000182e+03
4.300000000000000350e-02 1.637274999999999980e-01 1.201449999999999996e+01 6.701679999999998927e+01 1.969684999999999945e+03
4.400000000000000439e-02 1.637885000000000035e-01 1.229775000000000063e+01 6.857959999999999923e+01 1.970164999999999964e+03
4.499999999999999833e-02 1.638350000000000084e-01 1.235060000000000002e+01 6.942764999999999986e+01 1.970539999999999964e+03
4.599999999999999922e-02 1.638580000000000036e-01 1.210875000000000057e+01 6.937879999999999825e+01 1.970730000000000018e+03
4.700000000000000011e-02 1.638529999999999986e-01 1.154250000000000043e+01 6.836504999999999654e+01 1.970700000000000045e+03
4.800000000000000100e-02 1.638165000000000038e-01 1.065495999999999910e+01 6.642544999999999789e+01 1.970425000000000182e+03
4.900000000000000189e-02 1.637500000000000067e-01 9.476020000000000110e+00 6.368345000000000056e+01 1.969910000000000082e+03
5.000000000000000278e-02 1.636569999999999969e-01 8.053829999999999600e+00 6.031555000000000177e+01 1.969180000000000064e+03
5.100000000000000366e-02 1.635415000000000063e-01 6.446794999999999831e+00 5.652085000000000292e+01 1.968269999999999982e+03
5.200000000000000455e-02 1.634105000000000141e-01 4.717199499999999546e+00 5.249535000000000196e+01 1.967235000000000127e+03
5.300000000000000544e-02 1.632695000000000118e-01 2.926825000000000010e+00 4.841665000000000418e+01 1.966115000000000009e+03
5.399999999999999939e-02 1.631239999999999912e-01 1.134984999999999911e+00 4.443739999999999668e+01 1.964965000000000146e+03
5.500000000000000028e-02 1.629794999999999994e-01 -6.019300000000000761e-01 4.068599999999999994e+01 1.963824999999999818e+03
5.600000000000000117e-02 1.628419999999999868e-01 -2.230075000000000252e+00 3.727174999999999727e+01 1.962724999999999909e+03
5.700000000000000205e-02 1.627139999999999975e-01 -3.697829500000000102e+00 3.429139999999999588e+01 1.961700000000000045e+03
5.800000000000000294e-02 1.626009999999999955e-01 -4.956030000000000157e+00 3.183279999999999887e+01 1.960789999999999964e+03
5.900000000000000383e-02 1.625054999999999972e-01 -5.959054999999999325e+00 2.997664999999999935e+01 1.960025000000000091e+03
6.000000000000000472e-02 1.624309999999999921e-01 -6.666685000000000194e+00 2.879440000000000310e+01 1.959414999999999964e+03
6.099999999999999867e-02 1.623809999999999976e-01 -7.046495000000000175e+00 2.834335000000000093e+01 1.959005000000000109e+03
6.199999999999999956e-02 1.623565000000000147e-01 -7.076275000000000759e+00 2.866084999999999994e+01 1.958795000000000073e+03
6.300000000000000044e-02 1.623600000000000043e-01 -6.746074999999999378e+00 2.975854999999999961e+01 1.958795000000000073e+03
6.400000000000000133e-02 1.623919999999999808e-01 -6.059345000000000425e+00 3.161850000000000094e+01 1.959025000000000091e+03
6.500000000000000222e-02 1.624514999999999987e-01 -5.033100000000000129e+00 3.419235000000000468e+01 1.959470000000000027e+03
6.600000000000000311e-02 1.625369999999999870e-01 -3.696962500000000151e+00 3.740310000000000201e+01 1.960125000000000000e+03
6.700000000000000400e-02 1.626460000000000128e-01 -2.091285000000000061e+00 4.114995000000000402e+01 1.960969999999999800e+03
6.800000000000000488e-02 1.627755000000000174e-01 -2.646299999999999208e-01 4.531539999999999679e+01 1.961974999999999909e+03
6.900000000000000577e-02 1.629209999999999825e-01 1.729095000000000271e+00 4.977244999999999919e+01 1.963115000000000009e+03
7.000000000000000666e-02 1.630790000000000017e-01 3.833503999999999579e+00 5.439280000000000115e+01 1.964360000000000127e+03
7.100000000000000755e-02 1.632445000000000146e-01 5.992435000000000400e+00 5.905364999999999753e+01 1.965670000000000073e+03
7.200000000000000844e-02 1.634134999999999893e-01 8.152425000000000921e+00 6.364360000000000639e+01 1.967009999999999991e+03
7.300000000000000933e-02 1.635820000000000052e-01 1.026479499999999945e+01 6.806709999999999638e+01 1.968355000000000018e+03
7.399999999999999634e-02 1.637460000000000027e-01 1.228739500000000007e+01 7.224800000000000466e+01 1.969670000000000073e+03
7.499999999999999722e-02 1.639035000000000075e-01 1.418619999999999948e+01 7.613165000000000759e+01 1.970934999999999945e+03
7.599999999999999811e-02 1.640519999999999756e-01 1.593615000000000137e+01 7.968619999999999948e+01 1.972134999999999991e+03
7.699999999999999900e-02 1.641900000000000026e-01 1.752185000000000059e+01 8.290274999999999750e+01 1.973250000000000000e+03
7.799999999999999989e-02 1.643169999999999908e-01 1.893750000000000000e+01 8.579410000000000025e+01 1.974284999999999854e+03
7.900000000000000078e-02 1.644335000000000102e-01 2.018670000000000186e+01 8.839260000000000161e+01 1.975240000000000009e+03
8.000000000000000167e-02 1.645405000000000062e-01 2.128099999999999881e+01 9.074654999999999916e+01 1.976115000000000009e+03
8.100000000000000255e-02 1.646390000000000076e-01 2.223864999999999981e+01 9.291585000000000605e+01 1.976924999999999955e+03
8.200000000000000344e-02 1.647310000000000163e-01 2.308249999999999957e+01 9.496684999999999377e+01 1.977680000000000064e+03
8.300000000000000433e-02 1.648189999999999933e-01 2.383814999999999884e+01 9.696675000000000466e+01 1.978400000000000091e+03
8.400000000000000522e-02 1.649045000000000094e-01 2.453150000000000119e+01 9.897845000000000937e+01 1.979105000000000018e+03
8.500000000000000611e-02 1.649895000000000111e-01 2.518694999999999951e+01 1.010564499999999981e+02 1.979805000000000064e+03
8.600000000000000699e-02 1.650770000000000015e-01 2.582564999999999955e+01 1.032420000000000044e+02 1.980525000000000091e+03
8.700000000000000788e-02 1.651675000000000226e-01 2.646395000000000053e+01 1.055614999999999952e+02 1.981259999999999991e+03
8.800000000000000877e-02 1.652619999999999922e-01 2.711265000000000214e+01 1.080250000000000057e+02 1.982029999999999973e+03
8.899999999999999578e-02 1.653605000000000214e-01 2.777640000000000242e+01 1.106255000000000024e+02 1.982839999999999918e+03
8.999999999999999667e-02 1.654640000000000000e-01 2.845385000000000275e+01 1.133414999999999964e+02 1.983680000000000064e+03
9.099999999999999756e-02 1.655705000000000093e-01 2.913799999999999812e+01 1.161374999999999886e+02 1.984549999999999955e+03
9.199999999999999845e-02 1.656799999999999939e-01 2.981685000000000230e+01 1.189685000000000059e+02 1.985440000000000055e+03
9.299999999999999933e-02 1.657905000000000073e-01 3.047475000000000023e+01 1.217814999999999941e+02 1.986340000000000146e+03
9.400000000000000022e-02 1.658994999999999775e-01 3.109320000000000306e+01 1.245199999999999960e+02 1.987230000000000018e+03
9.500000000000000111e-02 1.660065000000000013e-01 3.165225000000000222e+01 1.271270000000000095e+02 1.988105000000000018e+03
9.600000000000000200e-02 1.661084999999999923e-01 3.213204999999999956e+01 1.295480000000000018e+02 1.988940000000000055e+03
9.700000000000000289e-02 1.662039999999999906e-01 3.251350000000000051e+01 1.317350000000000136e+02 1.989720000000000027e+03
9.800000000000000377e-02 1.662909999999999944e-01 3.277965000000000373e+01 1.336469999999999914e+02 1.990440000000000055e+03
9.900000000000000466e-02 1.663685000000000025e-01 3.291665000000000418e+01 1.352515000000000214e+02 1.991079999999999927e+03
1.000000000000000056e-01 1.664349999999999996e-01 3.291424999999999557e+01 1.365280000000000200e+02 1.991630000000000109e+03
1.010000000000000064e-01 1.664895000000000125e-01 3.276644999999999897e+01 1.374650000000000034e+02 1.992085000000000036e+03
1.020000000000000073e-01 1.665314999999999990e-01 3.247160000000000224e+01 1.380640000000000214e+02 1.992440000000000055e+03
1.030000000000000082e-01 1.665614999999999735e-01 3.203275000000000006e+01 1.383354999999999961e+02 1.992700000000000045e+03
1.040000000000000091e-01 1.665794999999999915e-01 3.145715000000000217e+01 1.383004999999999995e+02 1.992855000000000018e+03
1.050000000000000100e-01 1.665860000000000118e-01 3.075619999999999976e+01 1.379884999999999877e+02 1.992920000000000073e+03
1.059999999999999970e-01 1.665820000000000078e-01 2.994480000000000075e+01 1.374350000000000023e+02 1.992900000000000091e+03
1.069999999999999979e-01 1.665685000000000082e-01 2.904044999999999987e+01 1.366814999999999998e+02 1.992799999999999955e+03
1.079999999999999988e-01 1.665475000000000150e-01 2.806284999999999741e+01 1.357730000000000246e+02 1.992634999999999991e+03
1.089999999999999997e-01 1.665200000000000014e-01 2.703289999999999793e+01 1.347539999999999907e+02 1.992420000000000073e+03
1.100000000000000006e-01 1.664879999999999971e-01 2.597184999999999988e+01 1.336694999999999993e+02 1.992164999999999964e+03
1.110000000000000014e-01 1.664525000000000032e-01 2.490050000000000097e+01 1.325629999999999882e+02 1.991880000000000109e+03
1.120000000000000023e-01 1.664154999999999940e-01 2.383840000000000003e+01 1.314719999999999800e+02 1.991585000000000036e+03
1.130000000000000032e-01 1.663779999999999981e-01 2.280320000000000036e+01 1.304300000000000068e+02 1.991279999999999973e+03
1.140000000000000041e-01 1.663414999999999755e-01 2.181005000000000038e+01 1.294655000000000200e+02 1.990980000000000018e+03
1.150000000000000050e-01 1.663070000000000104e-01 2.087115000000000009e+01 1.285964999999999918e+02 1.990700000000000045e+03
1.160000000000000059e-01 1.662755000000000205e-01 1.999535000000000196e+01 1.278365000000000009e+02 1.990434999999999945e+03
1.170000000000000068e-01 1.662470000000000059e-01 1.918800000000000239e+01 1.271910000000000025e+02 1.990199999999999818e+03
1.180000000000000077e-01 1.662219999999999809e-01 1.845085000000000264e+01 1.266560000000000059e+02 1.989994999999999891e+03
1.190000000000000085e-01 1.662009999999999876e-01 1.778235000000000099e+01 1.262219999999999942e+02 1.989815000000000055e+03
1.200000000000000094e-01 1.661829999999999974e-01 1.717780000000000129e+01 1.258734999999999928e+02 1.989659999999999854e+03
1.209999999999999964e-01 1.661675000000000235e-01 1.662950000000000017e+01 1.255889999999999986e+02 1.989535000000000082e+03
1.219999999999999973e-01 1.661544999999999828e-01 1.612774999999999892e+01 1.253419999999999987e+02 1.989420000000000073e+03
1.229999999999999982e-01 1.661424999999999985e-01 1.566100000000000136e+01 1.251064999999999969e+02 1.989315000000000055e+03
1.239999999999999991e-01 1.661310000000000009e-01 1.521685000000000088e+01 1.248520000000000039e+02 1.989214999999999918e+03
1.250000000000000000e-01 1.661189999999999889e-01 1.478245000000000076e+01 1.245510000000000019e+02 1.989115000000000009e+03
1.260000000000000009e-01 1.661055000000000170e-01 1.434515000000000029e+01 1.241769999999999925e+02 1.989000000000000000e+03
1.270000000000000018e-01 1.660889999999999866e-01 1.389369999999999905e+01 1.237065000000000055e+02 1.988869999999999891e+03
1.280000000000000027e-01 1.660694999999999810e-01 1.341805000000000092e+01 1.231204999999999927e+02 1.988710000000000036e+03
1.290000000000000036e-01 1.660464999999999858e-01 1.291055000000000064e+01 1.224074999999999989e+02 1.988514999999999873e+03
1.300000000000000044e-01 1.660189999999999999e-01 1.236599999999999966e+01 1.215610000000000070e+02 1.988289999999999964e+03
1.310000000000000053e-01 1.659859999999999947e-01 1.178209999999999980e+01 1.205805000000000007e+02 1.988025000000000091e+03
1.320000000000000062e-01 1.659494999999999998e-01 1.115934999999999988e+01 1.194745000000000061e+02 1.987724999999999909e+03
1.330000000000000071e-01 1.659074999999999855e-01 1.050137000000000143e+01 1.182564999999999884e+02 1.987389999999999873e+03
1.340000000000000080e-01 1.658620000000000094e-01 9.814379999999999882e+00 1.169470000000000027e+02 1.987019999999999982e+03
1.350000000000000089e-01 1.658129999999999882e-01 9.107095000000001050e+00 1.155699999999999932e+02 1.986625000000000000e+03
1.360000000000000098e-01 1.657615000000000061e-01 8.390209999999999724e+00 1.141544999999999987e+02 1.986204999999999927e+03
1.370000000000000107e-01 1.657085000000000086e-01 7.675864999999999938e+00 1.127325000000000017e+02 1.985780000000000200e+03
1.380000000000000115e-01 1.656549999999999967e-01 6.977050000000000196e+00 1.113354999999999961e+02 1.985345000000000027e+03
1.390000000000000124e-01 1.656024999999999858e-01 6.306969999999999743e+00 1.099945000000000022e+02 1.984909999999999854e+03
1.400000000000000133e-01 1.655515000000000181e-01 5.678424999999999834e+00 1.087394999999999925e+02 1.984494999999999891e+03
1.410000000000000142e-01 1.655030000000000112e-01 5.103209999999999802e+00 1.075970000000000084e+02 1.984105000000000018e+03
1.420000000000000151e-01 1.654590000000000227e-01 4.591619999999999813e+00 1.065889999999999986e+02 1.983740000000000009e+03
1.430000000000000160e-01 1.654194999999999971e-01 4.152004999999999946e+00 1.057309999999999945e+02 1.983414999999999964e+03
1.440000000000000169e-01 1.653850000000000042e-01 3.790470000000000006e+00 1.050354999999999990e+02 1.983130000000000109e+03
1.450000000000000178e-01 1.653554999999999886e-01 3.510659999999999670e+00 1.045070000000000050e+02 1.982889999999999873e+03
1.459999999999999909e-01 1.653330000000000077e-01 3.313679999999999737e+00 1.041449999999999960e+02 1.982700000000000045e+03
1.469999999999999918e-01 1.653160000000000185e-01 3.198135000000000172e+00 1.039435000000000002e+02 1.982554999999999836e+03
1.479999999999999927e-01 1.653045000000000209e-01 3.160280000000000200e+00 1.038915000000000077e+02 1.982460000000000036e+03
1.489999999999999936e-01 1.652994999999999881e-01 3.194234999999999935e+00 1.039729999999999990e+02 1.982404999999999973e+03
1.499999999999999944e-01 1.652984999999999871e-01 3.292310000000000070e+00 1.041699999999999875e+02 1.982394999999999982e+03
1.509999999999999953e-01 1.653025000000000189e-01 3.445355000000000167e+00 1.044604999999999961e+02 1.982414999999999964e+03
1.519999999999999962e-01 1.653100000000000125e-01 3.643180000000000085e+00 1.048220000000000027e+02 1.982470000000000027e+03
1.529999999999999971e-01 1.653200000000000225e-01 3.874934999999999796e+00 1.052319999999999993e+02 1.982549999999999955e+03
1.539999999999999980e-01 1.653324999999999934e-01 4.129545000000000243e+00 1.056664999999999992e+02 1.982650000000000091e+03
1.549999999999999989e-01 1.653465000000000074e-01 4.396084999999999354e+00 1.061039999999999992e+02 1.982755000000000109e+03
1.559999999999999998e-01 1.653604999999999936e-01 4.664130000000000109e+00 1.065245000000000033e+02 1.982865000000000009e+03
1.570000000000000007e-01 1.653740000000000210e-01 4.924089999999999634e+00 1.069099999999999966e+02 1.982974999999999909e+03
1.580000000000000016e-01 1.653874999999999929e-01 5.167460000000000164e+00 1.072454999999999927e+02 1.983079999999999927e+03
1.590000000000000024e-01 1.653990000000000182e-01 5.387035000000000018e+00 1.075200000000000102e+02 1.983174999999999955e+03
