# t [s], A [cm^2], U [cm/s], P [cPa], c [cm/s]
1.000000000000000021e-03 2.050609999999999933e-01 2.851835499999999524e-01 9.585370000000000346e+01 2.299434999999999945e+03
2.000000000000000042e-03 2.050044999999999784e-01 1.724158500000000149e+00 9.237075000000000102e+01 2.299015000000000327e+03
3.000000000000000062e-03 2.048635000000000039e-01 3.532646000000000175e+00 8.743290000000000362e+01 2.298005000000000109e+03
4.000000000000000083e-03 2.046775000000000122e-01 5.597991000000000383e+00 8.213920000000000243e+01 2.296695000000000164e+03
5.000000000000000104e-03 2.044850000000000001e-01 7.826629999999999754e+00 7.752394999999999925e+01 2.295349999999999909e+03
6.000000000000000125e-03 2.043039999999999856e-01 9.978545000000000442e+00 7.377689999999999770e+01 2.294100000000000364e+03
7.000000000000000146e-03 2.041355000000000253e-01 1.181614000000000075e+01 7.048924999999999841e+01 2.292970000000000255e+03
8.000000000000000167e-03 2.039845000000000130e-01 1.331432000000000038e+01 6.753030000000001110e+01 2.291970000000000255e+03
9.000000000000001055e-03 2.038560000000000094e-01 1.453310000000000102e+01 6.505940000000001078e+01 2.291135000000000218e+03
1.000000000000000194e-02 2.037519999999999887e-01 1.549970000000000070e+01 6.311999999999999744e+01 2.290465000000000146e+03
1.099999999999999936e-02 2.036705000000000043e-01 1.623024999999999807e+01 6.164724999999999966e+01 2.289944999999999709e+03
1.200000000000000025e-02 2.036064999999999958e-01 1.672674999999999912e+01 6.050714999999999577e+01 2.289545000000000073e+03
1.300000000000000114e-02 2.035544999999999993e-01 1.699000000000000199e+01 5.951200000000000045e+01 2.289230000000000018e+03
1.400000000000000203e-02 2.035109999999999975e-01 1.709349999999999881e+01 5.863169999999999504e+01 2.288970000000000255e+03
1.499999999999999944e-02 2.034829999999999972e-01 1.721539999999999893e+01 5.819004999999999939e+01 2.288800000000000182e+03
1.600000000000000033e-02 2.034845000000000126e-01 1.755745000000000289e+01 5.872809999999999775e+01 2.288815000000000055e+03
1.700000000000000122e-02 2.035250000000000115e-01 1.821799999999999997e+01 6.060599999999999454e+01 2.289079999999999927e+03
1.800000000000000211e-02 2.036050000000000082e-01 1.912434999999999974e+01 6.368215000000000003e+01 2.289595000000000255e+03
1.900000000000000300e-02 2.037094999999999878e-01 2.006660000000000110e+01 6.730270000000000152e+01 2.290284999999999854e+03
2.000000000000000042e-02 2.038174999999999848e-01 2.079925000000000068e+01 7.057630000000000337e+01 2.291005000000000109e+03
2.100000000000000130e-02 2.039050000000000029e-01 2.114639999999999986e+01 7.274809999999999377e+01 2.291600000000000364e+03
2.200000000000000219e-02 2.039569999999999994e-01 2.106285000000000096e+01 7.347870000000000346e+01 2.291970000000000255e+03
2.299999999999999961e-02 2.039715000000000000e-01 2.063050000000000139e+01 7.291425000000000978e+01 2.292094999999999800e+03
2.400000000000000050e-02 2.039559999999999984e-01 2.000260000000000105e+01 7.154749999999999943e+01 2.292014999999999873e+03
2.500000000000000139e-02 2.039239999999999942e-01 1.932824999999999704e+01 6.995955000000000723e+01 2.291809999999999945e+03
2.600000000000000228e-02 2.038885000000000003e-01 1.869334999999999880e+01 6.857195000000000107e+01 2.291579999999999927e+03
2.700000000000000316e-02 2.038554999999999950e-01 1.809959999999999880e+01 6.751304999999999268e+01 2.291359999999999673e+03
2.800000000000000058e-02 2.038244999999999918e-01 1.748359999999999914e+01 6.663110000000000355e+01 2.291155000000000200e+03
2.900000000000000147e-02 2.037909999999999999e-01 1.676174999999999926e+01 6.562405000000001110e+01 2.290935000000000400e+03
3.000000000000000236e-02 2.037479999999999847e-01 1.587984999999999935e+01 6.421890000000000498e+01 2.290654999999999745e+03
3.099999999999999978e-02 2.036904999999999966e-01 1.484929999999999950e+01 6.232625000000000171e+01 2.290289999999999964e+03
3.200000000000000067e-02 2.036219999999999974e-01 1.375635000000000119e+01 6.011360000000000525e+01 2.289840000000000146e+03
3.300000000000000155e-02 2.035504999999999953e-01 1.274070000000000036e+01 5.797064999999999912e+01 2.289375000000000000e+03
3.400000000000000244e-02 2.034894999999999898e-01 1.195299999999999940e+01 5.638394999999999868e+01 2.288965000000000146e+03
3.500000000000000333e-02 2.034520000000000217e-01 1.150694999999999979e+01 5.577049999999999841e+01 2.288704999999999927e+03
3.600000000000000422e-02 2.034465000000000023e-01 1.144470000000000098e+01 5.633705000000000496e+01 2.288644999999999982e+03
3.700000000000000511e-02 2.034755000000000036e-01 1.172564999999999991e+01 5.801214999999999833e+01 2.288815000000000055e+03
3.799999999999999906e-02 2.035345000000000071e-01 1.223910000000000053e+01 6.046519999999999584e+01 2.289184999999999945e+03
3.899999999999999994e-02 2.036100000000000132e-01 1.283370000000000033e+01 6.319695000000000107e+01 2.289670000000000073e+03
4.000000000000000083e-02 2.036884999999999946e-01 1.335190000000000055e+01 6.566230000000000189e+01 2.290180000000000291e+03
4.100000000000000172e-02 2.037545000000000051e-01 1.366069999999999851e+01 6.738810000000000855e+01 2.290619999999999891e+03
4.200000000000000261e-02 2.037950000000000039e-01 1.367115000000000080e+01 6.805649999999999977e+01 2.290900000000000091e+03
4.300000000000000350e-02 2.038034999999999985e-01 1.334459999999999980e+01 6.753880000000000905e+01 2.290970000000000255e+03
4.400000000000000439e-02 2.037760000000000127e-01 1.268759999999999977e+01 6.588235000000000241e+01 2.290805000000000291e+03
4.499999999999999833e-02 2.037154999999999938e-01 1.173900000000000077e+01 6.326309999999999434e+01 2.290420000000000073e+03
4.599999999999999922e-02 2.036260000000000014e-01 1.055494999999999983e+01 5.992369999999999663e+01 2.289840000000000146e+03
4.700000000000000011e-02 2.035150000000000015e-01 9.196184999999999832e+00 5.611655000000000371e+01 2.289114999999999782e+03
4.800000000000000100e-02 2.033880000000000132e-01 7.719809999999999839e+00 5.206484999999999985e+01 2.288284999999999854e+03
4.900000000000000189e-02 2.032530000000000170e-01 6.177310000000000301e+00 4.794669999999999987e+01 2.287399999999999636e+03
5.000000000000000278e-02 2.031145000000000034e-01 4.615559500000000703e+00 4.389874999999999972e+01 2.286489999999999782e+03
5.100000000000000366e-02 2.029770000000000185e-01 3.080808999999999909e+00 4.003235000000000099e+01 2.285579999999999927e+03
5.200000000000000455e-02 2.028455000000000119e-01 1.621950000000000003e+00 3.645185000000000031e+01 2.284704999999999927e+03
5.300000000000000544e-02 2.027229999999999865e-01 2.922249999999999570e-01 3.326950000000000074e+01 2.283890000000000327e+03
5.399999999999999939e-02 2.026145000000000029e-01 -8.515300000000000091e-01 3.061019999999999897e+01 2.283170000000000073e+03
5.500000000000000028e-02 2.025254999999999972e-01 -1.752053000000000083e+00 2.860745000000000005e+01 2.282565000000000055e+03
5.600000000000000117e-02 2.024590000000000001e-01 -2.356360000000000010e+00 2.739140000000000086e+01 2.282114999999999782e+03
5.700000000000000205e-02 2.024205000000000032e-01 -2.620935000000000237e+00 2.707260000000000133e+01 2.281840000000000146e+03
5.800000000000000294e-02 2.024124999999999952e-01 -2.516270000000000007e+00 2.772684999999999889e+01 2.281769999999999982e+03
5.900000000000000383e-02 2.024380000000000068e-01 -2.029957500000000081e+00 2.938374999999999915e+01 2.281909999999999854e+03
6.000000000000000472e-02 2.024964999999999959e-01 -1.167890000000000095e+00 3.202125000000000199e+01 2.282275000000000091e+03
6.099999999999999867e-02 2.025879999999999903e-01 4.639999999999999680e-02 3.556689999999999685e+01 2.282854999999999563e+03
6.199999999999999956e-02 2.027100000000000013e-01 1.573925000000000241e+00 3.990460000000000207e+01 2.283635000000000218e+03
6.300000000000000044e-02 2.028579999999999828e-01 3.363507500000000316e+00 4.488499999999999801e+01 2.284599999999999909e+03
6.400000000000000133e-02 2.030270000000000130e-01 5.355730000000000324e+00 5.033854999999999791e+01 2.285699999999999818e+03
6.500000000000000222e-02 2.032125000000000181e-01 7.487154999999999561e+00 5.608879999999999910e+01 2.286914999999999964e+03
6.600000000000000311e-02 2.034079999999999777e-01 9.694559999999999178e+00 6.196550000000000580e+01 2.288204999999999927e+03
6.700000000000000400e-02 2.036089999999999844e-01 1.191906499999999980e+01 6.781674999999999898e+01 2.289529999999999745e+03
6.800000000000000488e-02 2.038095000000000045e-01 1.410962999999999923e+01 7.351820000000000732e+01 2.290859999999999673e+03
6.900000000000000577e-02 2.040065000000000073e-01 1.622560000000000002e+01 7.898069999999999879e+01 2.292175000000000182e+03
7.000000000000000666e-02 2.041970000000000174e-01 1.823835000000000051e+01 8.415299999999999159e+01 2.293449999999999818e+03
7.100000000000000755e-02 2.043794999999999917e-01 2.013170000000000215e+01 8.902150000000000318e+01 2.294670000000000073e+03
7.200000000000000844e-02 2.045529999999999848e-01 2.190079999999999671e+01 9.360524999999999807e+01 2.295840000000000146e+03
7.300000000000000933e-02 2.047184999999999977e-01 2.355035000000000167e+01 9.794884999999999309e+01 2.296949999999999818e+03
7.399999999999999634e-02 2.048774999999999902e-01 2.509179999999999922e+01 1.021108499999999992e+02 2.298025000000000091e+03
7.499999999999999722e-02 2.050310000000000188e-01 2.654035000000000011e+01 1.061562500000000000e+02 2.299065000000000055e+03
7.599999999999999811e-02 2.051815000000000166e-01 2.791230000000000189e+01 1.101454999999999984e+02 2.300074999999999818e+03
7.699999999999999900e-02 2.053300000000000125e-01 2.922285000000000110e+01 1.141270000000000095e+02 2.301085000000000036e+03
7.799999999999999989e-02 2.054789999999999950e-01 3.048395000000000010e+01 1.181324999999999932e+02 2.302085000000000036e+03
7.900000000000000078e-02 2.056275000000000186e-01 3.170369999999999777e+01 1.221769999999999925e+02 2.303090000000000146e+03
8.000000000000000167e-02 2.057775000000000021e-01 3.288559999999999661e+01 1.262574999999999932e+02 2.304105000000000018e+03
8.100000000000000255e-02 2.059279999999999999e-01 3.402884999999999849e+01 1.303545000000000016e+02 2.305119999999999891e+03
8.200000000000000344e-02 2.060780000000000112e-01 3.512859999999999872e+01 1.344370000000000118e+02 2.306135000000000218e+03
8.300000000000000433e-02 2.062269999999999937e-01 3.617634999999999934e+01 1.384625000000000057e+02 2.307140000000000327e+03
8.400000000000000522e-02 2.063734999999999875e-01 3.716089999999999804e+01 1.423849999999999909e+02 2.308135000000000218e+03
8.500000000000000611e-02 2.065160000000000051e-01 3.806905000000000427e+01 1.461535000000000082e+02 2.309099999999999909e+03
8.600000000000000699e-02 2.066525000000000167e-01 3.888609999999999900e+01 1.497154999999999916e+02 2.310019999999999982e+03
8.700000000000000788e-02 2.067815000000000070e-01 3.959714999999999918e+01 1.530215000000000032e+02 2.310900000000000091e+03
8.800000000000000877e-02 2.069010000000000016e-01 4.018784999999999741e+01 1.560244999999999891e+02 2.311715000000000146e+03
8.899999999999999578e-02 2.070099999999999996e-01 4.064509999999999934e+01 1.586854999999999905e+02 2.312454999999999927e+03
8.999999999999999667e-02 2.071069999999999856e-01 4.095844999999999914e+01 1.609710000000000036e+02 2.313119999999999891e+03
9.099999999999999756e-02 2.071904999999999997e-01 4.112069999999999936e+01 1.628600000000000136e+02 2.313699999999999818e+03
9.199999999999999845e-02 2.072605000000000142e-01 4.112869999999999493e+01 1.643435000000000059e+02 2.314180000000000291e+03
9.299999999999999933e-02 2.073160000000000003e-01 4.098390000000000555e+01 1.654245000000000232e+02 2.314569999999999709e+03
9.400000000000000022e-02 2.073585000000000012e-01 4.069245000000000090e+01 1.661200000000000045e+02 2.314864999999999782e+03
9.500000000000000111e-02 2.073875000000000024e-01 4.026505000000000223e+01 1.664585000000000150e+02 2.315069999999999709e+03
9.600000000000000200e-02 2.074039999999999773e-01 3.971634999999999849e+01 1.664805000000000064e+02 2.315194999999999709e+03
9.700000000000000289e-02 2.074094999999999966e-01 3.906430000000000291e+01 1.662345000000000255e+02 2.315239999999999782e+03
9.800000000000000377e-02 2.074054999999999926e-01 3.832890000000000441e+01 1.657730000000000246e+02 2.315224999999999909e+03
9.900000000000000466e-02 2.073944999999999816e-01 3.753154999999999575e+01 1.651514999999999986e+02 2.315154999999999745e+03
1.000000000000000056e-01 2.073774999999999924e-01 3.669365000000000521e+01 1.644245000000000232e+02 2.315050000000000182e+03
1.010000000000000064e-01 2.073564999999999992e-01 3.583559999999999945e+01 1.636419999999999959e+02 2.314909999999999854e+03
1.020000000000000073e-01 2.073335000000000039e-01 3.497610000000000241e+01 1.628485000000000014e+02 2.314755000000000109e+03
1.030000000000000082e-01 2.073090000000000210e-01 3.413100000000000023e+01 1.620794999999999959e+02 2.314590000000000146e+03
1.040000000000000091e-01 2.072849999999999970e-01 3.331325000000000358e+01 1.613629999999999995e+02 2.314430000000000291e+03
1.050000000000000100e-01 2.072620000000000018e-01 3.253215000000000146e+01 1.607160000000000082e+02 2.314279999999999745e+03
1.059999999999999970e-01 2.072410000000000085e-01 3.179295000000000115e+01 1.601454999999999984e+02 2.314135000000000218e+03
1.069999999999999979e-01 2.072225000000000039e-01 3.109725000000000250e+01 1.596490000000000009e+02 2.314000000000000000e+03
1.079999999999999988e-01 2.072050000000000003e-01 3.044280000000000186e+01 1.592150000000000034e+02 2.313885000000000218e+03
1.089999999999999997e-01 2.071895000000000264e-01 2.982394999999999996e+01 1.588220000000000027e+02 2.313774999999999636e+03
1.100000000000000006e-01 2.071749999999999980e-01 2.923225000000000051e+01 1.584439999999999884e+02 2.313675000000000182e+03
1.110000000000000014e-01 2.071600000000000108e-01 2.865729999999999933e+01 1.580504999999999995e+02 2.313569999999999709e+03
1.120000000000000023e-01 2.071450000000000236e-01 2.808709999999999951e+01 1.576080000000000041e+02 2.313460000000000036e+03
1.130000000000000032e-01 2.071270000000000056e-01 2.750939999999999941e+01 1.570829999999999984e+02 2.313340000000000146e+03
1.140000000000000041e-01 2.071064999999999989e-01 2.691234999999999999e+01 1.564445000000000050e+02 2.313199999999999818e+03
1.150000000000000050e-01 2.070815000000000017e-01 2.628545000000000087e+01 1.556664999999999850e+02 2.313034999999999854e+03
1.160000000000000059e-01 2.070520000000000138e-01 2.562024999999999864e+01 1.547305000000000064e+02 2.312835000000000036e+03
1.170000000000000068e-01 2.070170000000000066e-01 2.491114999999999924e+01 1.536250000000000000e+02 2.312605000000000018e+03
1.180000000000000077e-01 2.069765000000000077e-01 2.415575000000000117e+01 1.523480000000000132e+02 2.312329999999999927e+03
1.190000000000000085e-01 2.069304999999999894e-01 2.335500000000000043e+01 1.509085000000000036e+02 2.312019999999999982e+03
1.200000000000000094e-01 2.068785000000000207e-01 2.251360000000000028e+01 1.493234999999999957e+02 2.311675000000000182e+03
1.209999999999999964e-01 2.068225000000000202e-01 2.163925000000000054e+01 1.476195000000000164e+02 2.311295000000000073e+03
1.219999999999999973e-01 2.067620000000000013e-01 2.074289999999999878e+01 1.458305000000000007e+02 2.310894999999999982e+03
1.229999999999999982e-01 2.066989999999999938e-01 1.983755000000000024e+01 1.439954999999999927e+02 2.310470000000000255e+03
1.239999999999999991e-01 2.066344999999999987e-01 1.893780000000000285e+01 1.421574999999999989e+02 2.310039999999999964e+03
1.250000000000000000e-01 2.065704999999999902e-01 1.805884999999999962e+01 1.403600000000000136e+02 2.309605000000000018e+03
1.260000000000000009e-01 2.065075000000000105e-01 1.721580000000000155e+01 1.386440000000000055e+02 2.309180000000000291e+03
1.270000000000000018e-01 2.064480000000000204e-01 1.642265000000000086e+01 1.370464999999999804e+02 2.308774999999999636e+03
1.280000000000000027e-01 2.063920000000000199e-01 1.569139999999999979e+01 1.355994999999999777e+02 2.308394999999999982e+03
1.290000000000000036e-01 2.063409999999999966e-01 1.503184999999999860e+01 1.343269999999999982e+02 2.308050000000000182e+03
1.300000000000000044e-01 2.062960000000000071e-01 1.445110000000000028e+01 1.332450000000000045e+02 2.307739999999999782e+03
1.310000000000000053e-01 2.062574999999999825e-01 1.395304999999999929e+01 1.323600000000000136e+02 2.307474999999999909e+03
1.320000000000000062e-01 2.062249999999999917e-01 1.353875000000000028e+01 1.316725000000000136e+02 2.307255000000000109e+03
1.330000000000000071e-01 2.061994999999999800e-01 1.320640000000000036e+01 1.311730000000000018e+02 2.307074999999999818e+03
1.340000000000000080e-01 2.061800000000000022e-01 1.295159999999999911e+01 1.308485000000000014e+02 2.306939999999999600e+03
1.350000000000000089e-01 2.061665000000000025e-01 1.276794999999999902e+01 1.306790000000000020e+02 2.306840000000000146e+03
1.360000000000000098e-01 2.061585000000000223e-01 1.264729999999999954e+01 1.306415000000000077e+02 2.306784999999999854e+03
1.370000000000000107e-01 2.061549999999999772e-01 1.258034999999999926e+01 1.307119999999999891e+02 2.306750000000000000e+03
1.380000000000000115e-01 2.061550000000000049e-01 1.255705000000000027e+01 1.308644999999999925e+02 2.306750000000000000e+03
1.390000000000000124e-01 2.061580000000000079e-01 1.256724999999999959e+01 1.310745000000000005e+02 2.306765000000000327e+03
1.400000000000000133e-01 2.061629999999999852e-01 1.260079999999999956e+01 1.313174999999999955e+02 2.306795000000000073e+03
1.410000000000000142e-01 2.061695000000000055e-01 1.264829999999999899e+01 1.315724999999999909e+02 2.306835000000000036e+03
1.420000000000000151e-01 2.061764999999999848e-01 1.270105000000000040e+01 1.318215000000000146e+02 2.306885000000000218e+03
1.430000000000000160e-01 2.061835000000000195e-01 1.275159999999999982e+01 1.320480000000000018e+02 2.306929999999999836e+03
1.440000000000000169e-01 2.061899999999999844e-01 1.279390000000000072e+01 1.322404999999999973e+02 2.306970000000000255e+03
1.450000000000000178e-01 2.061955000000000038e-01 1.282319999999999993e+01 1.323910000000000196e+02 2.307010000000000218e+03
1.459999999999999909e-01 2.061999999999999944e-01 1.283640000000000114e+01 1.324960000000000093e+02 2.307034999999999854e+03
1.469999999999999918e-01 2.062029999999999974e-01 1.283184999999999931e+01 1.325545000000000186e+02 2.307059999999999945e+03
1.479999999999999927e-01 2.062049999999999994e-01 1.280940000000000012e+01 1.325695000000000050e+02 2.307069999999999709e+03
1.489999999999999936e-01 2.062049999999999994e-01 1.277005000000000123e+01 1.325455000000000041e+02 2.307074999999999818e+03
1.499999999999999944e-01 2.062045000000000128e-01 1.271600000000000108e+01 1.324920000000000186e+02 2.307069999999999709e+03
1.509999999999999953e-01 2.062030000000000252e-01 1.265015000000000001e+01 1.324164999999999850e+02 2.307059999999999945e+03
1.519999999999999962e-01 2.062005000000000088e-01 1.257580000000000098e+01 1.323300000000000125e+02 2.307045000000000073e+03
1.529999999999999971e-01 2.061985000000000068e-01 1.249650000000000105e+01 1.322409999999999854e+02 2.307034999999999854e+03
1.539999999999999980e-01 2.061955000000000038e-01 1.241564999999999941e+01 1.321585000000000036e+02 2.307015000000000327e+03
1.549999999999999989e-01 2.061930000000000152e-01 1.233624999999999972e+01 1.320894999999999868e+02 2.307000000000000000e+03
1.559999999999999998e-01 2.061914999999999998e-01 1.226069999999999993e+01 1.320384999999999991e+02 2.306985000000000127e+03
1.570000000000000007e-01 2.061899999999999844e-01 1.219064999999999976e+01 1.320084999999999980e+02 2.306980000000000018e+03
1.580000000000000016e-01 2.061890000000000112e-01 1.212705000000000055e+01 1.319995000000000118e+02 2.306970000000000255e+03
1.590000000000000024e-01 2.061890000000000112e-01 1.206990000000000052e+01 1.320095000000000027e+02 2.306975000000000364e+03
