# t [s], A [cm^2], U [cm/s], P [cPa], c [cm/s]
1.000000000000000021e-03 2.072424999999999962e-01 2.317035000000000067e-01 9.146574999999999989e+01 2.040409999999999854e+03
2.000000000000000042e-03 2.072025000000000117e-01 1.553761000000000170e+00 8.866059999999998809e+01 2.040115000000000009e+03
3.000000000000000062e-03 2.070780000000000121e-01 3.206000999999999657e+00 8.479374999999998863e+01 2.039240000000000009e+03
4.000000000000000083e-03 2.068995000000000140e-01 5.065568350000000386e+00 8.045150000000001000e+01 2.038005000000000109e+03
5.000000000000000104e-03 2.066994999999999805e-01 7.079954999999999998e+00 7.640344999999999231e+01 2.036634999999999991e+03
6.000000000000000125e-03 2.065024999999999777e-01 9.123585000000000278e+00 7.300934999999999775e+01 2.035295000000000073e+03
7.000000000000000146e-03 2.063154999999999850e-01 1.101385000000000147e+01 7.015359999999999729e+01 2.034045000000000073e+03
8.000000000000000167e-03 2.061409999999999909e-01 1.264061000000000057e+01 6.760195000000000221e+01 2.032900000000000091e+03
9.000000000000001055e-03 2.059840000000000004e-01 1.401067000000000107e+01 6.533044999999999902e+01 2.031880000000000109e+03
1.000000000000000194e-02 2.058479999999999754e-01 1.515899999999999892e+01 6.341864999999999952e+01 2.031009999999999991e+03
1.099999999999999936e-02 2.057340000000000002e-01 1.610235000000000127e+01 6.188125000000000142e+01 2.030289999999999964e+03
1.200000000000000025e-02 2.056405000000000038e-01 1.684939999999999927e+01 6.067394999999999783e+01 2.029704999999999927e+03
1.300000000000000114e-02 2.055655000000000121e-01 1.740334999999999965e+01 5.971864999999999668e+01 2.029250000000000000e+03
1.400000000000000203e-02 2.055039999999999922e-01 1.776514999999999844e+01 5.891049999999999898e+01 2.028875000000000000e+03
1.499999999999999944e-02 2.054524999999999824e-01 1.796269999999999811e+01 5.818675000000000352e+01 2.028569999999999936e+03
1.600000000000000033e-02 2.054114999999999969e-01 1.807730000000000103e+01 5.762650000000000006e+01 2.028335000000000036e+03
1.700000000000000122e-02 2.053869999999999862e-01 1.823000000000000043e+01 5.746460000000000434e+01 2.028194999999999936e+03
1.800000000000000211e-02 2.053875000000000006e-01 1.853059999999999974e+01 5.797735000000000127e+01 2.028210000000000036e+03
1.900000000000000300e-02 2.054205000000000059e-01 1.902474999999999739e+01 5.931575000000000131e+01 2.028420000000000073e+03
2.000000000000000042e-02 2.054840000000000000e-01 1.967235000000000156e+01 6.139549999999999841e+01 2.028829999999999927e+03
2.100000000000000130e-02 2.055715000000000181e-01 2.036489999999999867e+01 6.390129999999999200e+01 2.029389999999999873e+03
2.200000000000000219e-02 2.056695000000000051e-01 2.096759999999999735e+01 6.639055000000000462e+01 2.030025000000000091e+03
2.299999999999999961e-02 2.057625000000000148e-01 2.136650000000000205e+01 6.843864999999999554e+01 2.030639999999999873e+03
2.400000000000000050e-02 2.058384999999999798e-01 2.150065000000000026e+01 6.976345000000000596e+01 2.031139999999999873e+03
2.500000000000000139e-02 2.058885000000000021e-01 2.137290000000000134e+01 7.028790000000000759e+01 2.031484999999999900e+03
2.600000000000000228e-02 2.059134999999999993e-01 2.103710000000000235e+01 7.012869999999999493e+01 2.031670000000000073e+03
2.700000000000000316e-02 2.059170000000000167e-01 2.057180000000000319e+01 6.952455000000000496e+01 2.031710000000000036e+03
2.800000000000000058e-02 2.059064999999999923e-01 2.005060000000000286e+01 6.873875000000001023e+01 2.031655000000000200e+03
2.900000000000000147e-02 2.058889999999999887e-01 1.951980000000000004e+01 6.797209999999999752e+01 2.031545000000000073e+03
3.000000000000000236e-02 2.058690000000000242e-01 1.899044999999999916e+01 6.731395000000000550e+01 2.031424999999999955e+03
3.099999999999999978e-02 2.058490000000000042e-01 1.844354999999999833e+01 6.673975000000000080e+01 2.031295000000000073e+03
3.200000000000000067e-02 2.058265000000000233e-01 1.784560000000000102e+01 6.614860000000000184e+01 2.031155000000000200e+03
3.300000000000000155e-02 2.057994999999999963e-01 1.716745000000000232e+01 6.542144999999999300e+01 2.030985000000000127e+03
3.400000000000000244e-02 2.057650000000000035e-01 1.640030000000000143e+01 6.448024999999999807e+01 2.030764999999999873e+03
3.500000000000000333e-02 2.057220000000000160e-01 1.556565000000000154e+01 6.332965000000000089e+01 2.030494999999999891e+03
3.600000000000000422e-02 2.056729999999999947e-01 1.471385000000000076e+01 6.206925000000000381e+01 2.030184999999999945e+03
3.700000000000000511e-02 2.056224999999999858e-01 1.391479999999999961e+01 6.087474999999999881e+01 2.029865000000000009e+03
3.799999999999999906e-02 2.055774999999999963e-01 1.324174999999999969e+01 5.995439999999999969e+01 2.029575000000000045e+03
3.899999999999999994e-02 2.055460000000000065e-01 1.275399999999999956e+01 5.949434999999999718e+01 2.029365000000000009e+03
4.000000000000000083e-02 2.055325000000000069e-01 1.248280000000000101e+01 5.960989999999999611e+01 2.029264999999999873e+03
4.100000000000000172e-02 2.055414999999999881e-01 1.242525000000000013e+01 6.031564999999999799e+01 2.029309999999999945e+03
4.200000000000000261e-02 2.055715000000000181e-01 1.254485000000000028e+01 6.152074999999999960e+01 2.029490000000000009e+03
4.300000000000000350e-02 2.056184999999999818e-01 1.277960000000000029e+01 6.304770000000000607e+01 2.029775000000000091e+03
4.400000000000000439e-02 2.056759999999999977e-01 1.305375000000000085e+01 6.466755000000000564e+01 2.030134999999999991e+03
4.499999999999999833e-02 2.057355000000000156e-01 1.329054999999999964e+01 6.614159999999999684e+01 2.030515000000000100e+03
4.599999999999999922e-02 2.057895000000000141e-01 1.342314999999999969e+01 6.725939999999999941e+01 2.030860000000000127e+03
4.700000000000000011e-02 2.058284999999999976e-01 1.340184999999999960e+01 6.786655000000000371e+01 2.031119999999999891e+03
4.800000000000000100e-02 2.058490000000000042e-01 1.319735000000000014e+01 6.787819999999999254e+01 2.031250000000000000e+03
4.900000000000000189e-02 2.058464999999999878e-01 1.280010000000000048e+01 6.727840000000000487e+01 2.031250000000000000e+03
5.000000000000000278e-02 2.058214999999999906e-01 1.221700000000000053e+01 6.610904999999999632e+01 2.031095000000000027e+03
5.100000000000000366e-02 2.057734999999999981e-01 1.146641999999999939e+01 6.445159999999999911e+01 2.030800000000000182e+03
5.200000000000000455e-02 2.057065000000000143e-01 1.057349999999999923e+01 6.240805000000000291e+01 2.030375000000000000e+03
5.300000000000000544e-02 2.056224999999999858e-01 9.566330000000000666e+00 6.008485000000000298e+01 2.029840000000000146e+03
5.399999999999999939e-02 2.055265000000000009e-01 8.473650000000001015e+00 5.758185000000000286e+01 2.029230000000000018e+03
5.500000000000000028e-02 2.054219999999999935e-01 7.323999999999999844e+00 5.498749999999999716e+01 2.028555000000000064e+03
5.600000000000000117e-02 2.053115000000000079e-01 6.145849999999999369e+00 5.237914999999999566e+01 2.027849999999999909e+03
5.700000000000000205e-02 2.051994999999999791e-01 4.968594999999999651e+00 4.982689999999999486e+01 2.027130000000000109e+03
5.800000000000000294e-02 2.050885000000000069e-01 3.823285999999999962e+00 4.739799999999999613e+01 2.026414999999999964e+03
5.900000000000000383e-02 2.049819999999999975e-01 2.743057174999999681e+00 4.516114999999999924e+01 2.025730000000000018e+03
6.000000000000000472e-02 2.048829999999999818e-01 1.762838499999999975e+00 4.318840000000000146e+01 2.025090000000000146e+03
6.099999999999999867e-02 2.047950000000000048e-01 9.182749999999999524e-01 4.155429999999999779e+01 2.024514999999999873e+03
6.199999999999999956e-02 2.047215000000000007e-01 2.440749999999999309e-01 4.033320000000000505e+01 2.024029999999999973e+03
6.300000000000000044e-02 2.046660000000000146e-01 -2.280374999999999486e-01 3.959420000000000073e+01 2.023664999999999964e+03
6.400000000000000133e-02 2.046304999999999930e-01 -4.714685000000000126e-01 3.939580000000000126e+01 2.023420000000000073e+03
6.500000000000000222e-02 2.046185000000000087e-01 -4.665875000000000439e-01 3.978029999999999688e+01 2.023329999999999927e+03
6.600000000000000311e-02 2.046310000000000073e-01 -2.021479999999999944e-01 4.076980000000000359e+01 2.023389999999999873e+03
6.700000000000000400e-02 2.046695000000000042e-01 3.239749999999999575e-01 4.236384999999999934e+01 2.023619999999999891e+03
6.800000000000000488e-02 2.047339999999999993e-01 1.104703499999999838e+00 4.453914999999999935e+01 2.024014999999999873e+03
6.900000000000000577e-02 2.048229999999999773e-01 2.124338999999999977e+00 4.725095000000000312e+01 2.024569999999999936e+03
7.000000000000000666e-02 2.049360000000000070e-01 3.359671499999999700e+00 5.043639999999999901e+01 2.025279999999999973e+03
7.100000000000000755e-02 2.050695000000000157e-01 4.781520000000000437e+00 5.401910000000000167e+01 2.026125000000000000e+03
7.200000000000000844e-02 2.052209999999999868e-01 6.356514999999999915e+00 5.791405000000000314e+01 2.027085000000000036e+03
7.300000000000000933e-02 2.053864999999999996e-01 8.049050000000001148e+00 6.203340000000000032e+01 2.028144999999999982e+03
7.399999999999999634e-02 2.055629999999999957e-01 9.823245000000000005e+00 6.629155000000000086e+01 2.029279999999999973e+03
7.499999999999999722e-02 2.057474999999999998e-01 1.164461000000000013e+01 7.061010000000000275e+01 2.030465000000000146e+03
7.599999999999999811e-02 2.059364999999999946e-01 1.348186500000000088e+01 7.492169999999998709e+01 2.031679999999999836e+03
7.699999999999999900e-02 2.061259999999999759e-01 1.530795000000000172e+01 7.917295000000000016e+01 2.032910000000000082e+03
7.799999999999999989e-02 2.063154999999999850e-01 1.710090000000000288e+01 8.332599999999999341e+01 2.034139999999999873e+03
7.900000000000000078e-02 2.065019999999999911e-01 1.884430000000000049e+01 8.735869999999999891e+01 2.035355000000000018e+03
8.000000000000000167e-02 2.066854999999999942e-01 2.052720000000000056e+01 9.126370000000000005e+01 2.036554999999999836e+03
8.100000000000000255e-02 2.068645000000000067e-01 2.214349999999999952e+01 9.504585000000000150e+01 2.037724999999999909e+03
8.200000000000000344e-02 2.070394999999999874e-01 2.369129999999999825e+01 9.872024999999999295e+01 2.038875000000000000e+03
8.300000000000000433e-02 2.072110000000000063e-01 2.517179999999999751e+01 1.023068999999999988e+02 2.040000000000000000e+03
8.400000000000000522e-02 2.073794999999999944e-01 2.658840000000000003e+01 1.058284999999999911e+02 2.041105000000000018e+03
8.500000000000000611e-02 2.075450000000000073e-01 2.794530000000000314e+01 1.093079999999999927e+02 2.042200000000000273e+03
8.600000000000000699e-02 2.077090000000000047e-01 2.924694999999999823e+01 1.127624999999999886e+02 2.043284999999999854e+03
8.700000000000000788e-02 2.078720000000000012e-01 3.049699999999999989e+01 1.162059999999999889e+02 2.044359999999999900e+03
8.800000000000000877e-02 2.080345000000000111e-01 3.169794999999999874e+01 1.196440000000000055e+02 2.045434999999999945e+03
8.899999999999999578e-02 2.081970000000000209e-01 3.285054999999999836e+01 1.230764999999999958e+02 2.046509999999999991e+03
8.999999999999999667e-02 2.083590000000000164e-01 3.395409999999999684e+01 1.264955000000000069e+02 2.047575000000000045e+03
9.099999999999999756e-02 2.085194999999999965e-01 3.500600000000000023e+01 1.298874999999999886e+02 2.048639999999999873e+03
9.199999999999999845e-02 2.086790000000000034e-01 3.600209999999999866e+01 1.332334999999999923e+02 2.049699999999999818e+03
9.299999999999999933e-02 2.088360000000000216e-01 3.693694999999999595e+01 1.365124999999999886e+02 2.050739999999999782e+03
9.400000000000000022e-02 2.089900000000000091e-01 3.780400000000000205e+01 1.396980000000000075e+02 2.051765000000000327e+03
9.500000000000000111e-02 2.091399999999999926e-01 3.859605000000000530e+01 1.427649999999999864e+02 2.052764999999999873e+03
9.600000000000000200e-02 2.092844999999999844e-01 3.930530000000000257e+01 1.456859999999999786e+02 2.053725000000000364e+03
9.700000000000000289e-02 2.094225000000000114e-01 3.992399999999999949e+01 1.484370000000000118e+02 2.054644999999999982e+03
9.800000000000000377e-02 2.095529999999999893e-01 4.044474999999999909e+01 1.509919999999999902e+02 2.055515000000000327e+03
9.900000000000000466e-02 2.096750000000000003e-01 4.086070000000000135e+01 1.533305000000000007e+02 2.056335000000000036e+03
1.000000000000000056e-01 2.097875000000000156e-01 4.116604999999999848e+01 1.554339999999999975e+02 2.057085000000000036e+03
1.010000000000000064e-01 2.098895000000000066e-01 4.135654999999999859e+01 1.572895000000000039e+02 2.057774999999999636e+03
1.020000000000000073e-01 2.099810000000000010e-01 4.142940000000000111e+01 1.588854999999999791e+02 2.058389999999999873e+03
1.030000000000000082e-01 2.100604999999999833e-01 4.138414999999999822e+01 1.602189999999999941e+02 2.058935000000000400e+03
1.040000000000000091e-01 2.101284999999999958e-01 4.122220000000000084e+01 1.612914999999999850e+02 2.059394999999999982e+03
1.050000000000000100e-01 2.101854999999999973e-01 4.094760000000000133e+01 1.621094999999999970e+02 2.059779999999999745e+03
1.059999999999999970e-01 2.102304999999999868e-01 4.056634999999999991e+01 1.626870000000000118e+02 2.060090000000000146e+03
1.069999999999999979e-01 2.102649999999999797e-01 4.008684999999999832e+01 1.630414999999999850e+02 2.060329999999999927e+03
1.079999999999999988e-01 2.102895000000000181e-01 3.951914999999999623e+01 1.631949999999999932e+02 2.060500000000000000e+03
1.089999999999999997e-01 2.103045000000000053e-01 3.887485000000000213e+01 1.631734999999999900e+02 2.060609999999999673e+03
1.100000000000000006e-01 2.103114999999999846e-01 3.816664999999999708e+01 1.630054999999999836e+02 2.060670000000000073e+03
1.110000000000000014e-01 2.103114999999999846e-01 3.740780000000000172e+01 1.627189999999999941e+02 2.060675000000000182e+03
1.120000000000000023e-01 2.103054999999999786e-01 3.661145000000000493e+01 1.623430000000000177e+02 2.060644999999999982e+03
1.130000000000000032e-01 2.102954999999999963e-01 3.579054999999999609e+01 1.619044999999999845e+02 2.060579999999999927e+03
1.140000000000000041e-01 2.102815000000000101e-01 3.495714999999999861e+01 1.614279999999999973e+02 2.060494999999999891e+03
1.150000000000000050e-01 2.102650000000000075e-01 3.412190000000000367e+01 1.609334999999999809e+02 2.060390000000000327e+03
1.160000000000000059e-01 2.102475000000000038e-01 3.329399999999999693e+01 1.604390000000000214e+02 2.060275000000000091e+03
1.170000000000000068e-01 2.102284999999999848e-01 3.248100000000000165e+01 1.599565000000000055e+02 2.060144999999999982e+03
1.180000000000000077e-01 2.102100000000000080e-01 3.168840000000000146e+01 1.594939999999999998e+02 2.060024999999999636e+03
1.190000000000000085e-01 2.101915000000000033e-01 3.091979999999999862e+01 1.590554999999999950e+02 2.059900000000000091e+03
1.200000000000000094e-01 2.101729999999999987e-01 3.017685000000000173e+01 1.586394999999999982e+02 2.059775000000000091e+03
1.209999999999999964e-01 2.101554999999999951e-01 2.945945000000000036e+01 1.582420000000000186e+02 2.059654999999999745e+03
1.219999999999999973e-01 2.101379999999999915e-01 2.876575000000000060e+01 1.578539999999999850e+02 2.059539999999999964e+03
1.229999999999999982e-01 2.101204999999999878e-01 2.809255000000000280e+01 1.574660000000000082e+02 2.059420000000000073e+03
1.239999999999999991e-01 2.101030000000000120e-01 2.743540000000000134e+01 1.570645000000000095e+02 2.059300000000000182e+03
1.250000000000000000e-01 2.100839999999999930e-01 2.678925000000000267e+01 1.566359999999999957e+02 2.059175000000000182e+03
1.260000000000000009e-01 2.100640000000000007e-01 2.614829999999999899e+01 1.561659999999999968e+02 2.059039999999999964e+03
1.270000000000000018e-01 2.100420000000000065e-01 2.550679999999999836e+01 1.556404999999999745e+02 2.058890000000000327e+03
1.280000000000000027e-01 2.100174999999999959e-01 2.485914999999999964e+01 1.550469999999999970e+02 2.058730000000000018e+03
1.290000000000000036e-01 2.099900000000000100e-01 2.420035000000000025e+01 1.543750000000000000e+02 2.058545000000000073e+03
1.300000000000000044e-01 2.099590000000000067e-01 2.352620000000000289e+01 1.536165000000000020e+02 2.058340000000000146e+03
1.310000000000000053e-01 2.099245000000000139e-01 2.283370000000000033e+01 1.527665000000000077e+02 2.058109999999999673e+03
1.320000000000000062e-01 2.098859999999999892e-01 2.212105000000000032e+01 1.518234999999999957e+02 2.057855000000000018e+03
1.330000000000000071e-01 2.098435000000000161e-01 2.138804999999999978e+01 1.507895000000000039e+02 2.057569999999999709e+03
1.340000000000000080e-01 2.097970000000000113e-01 2.063600000000000279e+01 1.496714999999999804e+02 2.057260000000000218e+03
1.350000000000000089e-01 2.097465000000000024e-01 1.986760000000000304e+01 1.484795000000000016e+02 2.056930000000000291e+03
1.360000000000000098e-01 2.096935000000000049e-01 1.908729999999999905e+01 1.472255000000000109e+02 2.056579999999999927e+03
1.370000000000000107e-01 2.096369999999999900e-01 1.830055000000000121e+01 1.459269999999999925e+02 2.056210000000000036e+03
1.380000000000000115e-01 2.095790000000000153e-01 1.751405000000000101e+01 1.446014999999999873e+02 2.055824999999999818e+03
1.390000000000000124e-01 2.095199999999999840e-01 1.673519999999999897e+01 1.432694999999999936e+02 2.055434999999999945e+03
1.400000000000000133e-01 2.094599999999999795e-01 1.597194999999999965e+01 1.419515000000000100e+02 2.055034999999999854e+03
1.410000000000000142e-01 2.094004999999999894e-01 1.523235000000000028e+01 1.406680000000000064e+02 2.054644999999999982e+03
1.420000000000000151e-01 2.093424999999999869e-01 1.452400000000000091e+01 1.394375000000000000e+02 2.054255000000000109e+03
1.430000000000000160e-01 2.092864999999999864e-01 1.385425000000000040e+01 1.382785000000000082e+02 2.053885000000000218e+03
1.440000000000000169e-01 2.092334999999999889e-01 1.322939999999999827e+01 1.372049999999999841e+02 2.053529999999999745e+03
1.450000000000000178e-01 2.091834999999999944e-01 1.265465000000000018e+01 1.362289999999999850e+02 2.053194999999999709e+03
1.459999999999999909e-01 2.091379999999999906e-01 1.213394999999999868e+01 1.353590000000000089e+02 2.052890000000000327e+03
1.469999999999999918e-01 2.090970000000000051e-01 1.166980000000000040e+01 1.345995000000000061e+02 2.052615000000000236e+03
1.479999999999999927e-01 2.090599999999999958e-01 1.126341999999999999e+01 1.339515000000000100e+02 2.052369999999999891e+03
1.489999999999999936e-01 2.090285000000000060e-01 1.091451500000000152e+01 1.334134999999999991e+02 2.052154999999999745e+03
1.499999999999999944e-01 2.090015000000000067e-01 1.062142000000000053e+01 1.329800000000000182e+02 2.051970000000000255e+03
1.509999999999999953e-01 2.089789999999999981e-01 1.038145499999999899e+01 1.326440000000000055e+02 2.051815000000000055e+03
1.519999999999999962e-01 2.089604999999999935e-01 1.019083999999999968e+01 1.323944999999999936e+02 2.051690000000000055e+03
1.529999999999999971e-01 2.089455000000000062e-01 1.004506500000000102e+01 1.322230000000000132e+02 2.051585000000000036e+03
1.539999999999999980e-01 2.089350000000000096e-01 9.938969999999999416e+00 1.321154999999999973e+02 2.051510000000000218e+03
1.549999999999999989e-01 2.089270000000000016e-01 9.867124999999999702e+00 1.320604999999999905e+02 2.051454999999999927e+03
1.559999999999999998e-01 2.089215000000000100e-01 9.823879999999999058e+00 1.320459999999999923e+02 2.051409999999999854e+03
1.570000000000000007e-01 2.089175000000000060e-01 9.803519999999998902e+00 1.320610000000000070e+02 2.051384999999999764e+03
1.580000000000000016e-01 2.089154999999999762e-01 9.800715000000000288e+00 1.320944999999999823e+02 2.051364999999999782e+03
1.590000000000000024e-01 2.089145000000000030e-01 9.810349999999999682e+00 1.321370000000000005e+02 2.051359999999999673e+03
