# t [s], A [cm^2], U [cm/s], P [cPa], c [cm/s]
1.000000000000000021e-03 4.971774999999999389e-01 3.103400000000006154e-03 9.541809999999999548e+01 1.526570000000000164e+03
2.000000000000000042e-03 4.971710000000000296e-01 1.372679999999999820e-03 9.539734999999998877e+01 1.526559999999999945e+03
3.000000000000000062e-03 4.972155000000000324e-01 9.691669999999999452e-02 9.549094999999999800e+01 1.526590000000000146e+03
4.000000000000000083e-03 4.972545000000000437e-01 1.861295253000000149e-01 9.559874999999999545e+01 1.526619999999999891e+03
5.000000000000000104e-03 4.972370000000000401e-01 1.623387500000000039e-01 9.555455000000000609e+01 1.526615000000000009e+03
6.000000000000000125e-03 4.971885000000000332e-01 6.753449999999996956e-02 9.536240000000000805e+01 1.526565000000000055e+03
7.000000000000000146e-03 4.971415000000000139e-01 -3.273100000000001009e-02 9.509614999999999441e+01 1.526505000000000109e+03
8.000000000000000167e-03 4.970694999999999419e-01 -1.941399999999999793e-01 9.470420000000000016e+01 1.526409999999999854e+03
9.000000000000001055e-03 4.969485000000000152e-01 -4.715300000000000047e-01 9.410235000000000127e+01 1.526264999999999873e+03
1.000000000000000194e-02 4.967759999999999954e-01 -8.676150000000000251e-01 9.325005000000000166e+01 1.526049999999999955e+03
1.099999999999999936e-02 4.965410000000000101e-01 -1.392365000000000075e+00 9.210105000000000075e+01 1.525764999999999873e+03
1.200000000000000025e-02 4.962324999999999653e-01 -2.053964999999999819e+00 9.060824999999999818e+01 1.525375000000000000e+03
1.300000000000000114e-02 4.958629999999999427e-01 -2.804159999999999986e+00 8.879265000000000896e+01 1.524900000000000091e+03
1.400000000000000203e-02 4.954744999999999844e-01 -3.525770000000000071e+00 8.677915000000000134e+01 1.524355000000000018e+03
1.499999999999999944e-02 4.951164999999999594e-01 -4.079461000000000226e+00 8.475754999999999484e+01 1.523789999999999964e+03
1.600000000000000033e-02 4.948240000000000416e-01 -4.363762499999999989e+00 8.290444999999999709e+01 1.523240000000000009e+03
1.700000000000000122e-02 4.946025000000000005e-01 -4.347351000000000631e+00 8.132264999999999588e+01 1.522735000000000127e+03
1.800000000000000211e-02 4.944339999999999846e-01 -4.066749500000000239e+00 8.002035000000000764e+01 1.522295000000000073e+03
1.900000000000000300e-02 4.942885000000000195e-01 -3.601986000000000132e+00 7.892629999999999768e+01 1.521894999999999982e+03
2.000000000000000042e-02 4.941324999999999745e-01 -3.044456999999999969e+00 7.792615000000000691e+01 1.521525000000000091e+03
2.100000000000000130e-02 4.939439999999999942e-01 -2.467778000000000027e+00 7.690524999999999523e+01 1.521150000000000091e+03
2.200000000000000219e-02 4.937134999999999718e-01 -1.909734999999999960e+00 7.578475000000000250e+01 1.520755000000000109e+03
2.299999999999999961e-02 4.934485000000000121e-01 -1.370160000000000267e+00 7.453900000000000148e+01 1.520340000000000146e+03
2.400000000000000050e-02 4.931639999999999913e-01 -8.239599999999998037e-01 7.318989999999999441e+01 1.519889999999999873e+03
2.500000000000000139e-02 4.928755000000000219e-01 -2.420550000000001312e-01 7.178485000000000582e+01 1.519434999999999945e+03
2.600000000000000228e-02 4.925935000000000175e-01 3.890949999999997466e-01 7.036814999999999998e+01 1.518965000000000146e+03
2.700000000000000316e-02 4.923150000000000581e-01 1.056074999999999875e+00 6.895834999999999582e+01 1.518490000000000009e+03
2.800000000000000058e-02 4.920309999999999961e-01 1.717334999999999834e+00 6.753705000000000780e+01 1.518019999999999982e+03
2.900000000000000147e-02 4.917230000000000212e-01 2.310699999999999754e+00 6.605029999999999291e+01 1.517525000000000091e+03
3.000000000000000236e-02 4.913710000000000022e-01 2.766560000000000130e+00 6.442114999999999725e+01 1.517000000000000000e+03
3.099999999999999978e-02 4.909580000000000055e-01 3.023185000000000233e+00 6.256940000000000168e+01 1.516420000000000073e+03
3.200000000000000067e-02 4.904744999999999799e-01 3.040630000000000166e+00 6.043319999999999936e+01 1.515769999999999982e+03
3.300000000000000155e-02 4.899225000000000385e-01 2.810049999999999937e+00 5.798765000000000214e+01 1.515039999999999964e+03
3.400000000000000244e-02 4.893135000000000123e-01 2.356064999999999632e+00 5.525565000000000282e+01 1.514244999999999891e+03
3.500000000000000333e-02 4.886709999999999665e-01 1.731999999999999318e+00 5.230850000000000222e+01 1.513384999999999991e+03
3.600000000000000422e-02 4.880225000000000257e-01 1.010019999999999918e+00 4.925634999999999764e+01 1.512490000000000009e+03
3.700000000000000511e-02 4.873975000000000390e-01 2.686749999999999972e-01 4.623239999999999839e+01 1.511590000000000146e+03
3.799999999999999906e-02 4.868234999999999646e-01 -4.178050000000004260e-01 4.337505000000000166e+01 1.510724999999999909e+03
3.899999999999999994e-02 4.863220000000000320e-01 -9.879799999999994142e-01 4.081170000000000186e+01 1.509924999999999955e+03
4.000000000000000083e-02 4.859100000000000086e-01 -1.396949999999999914e+00 3.864694999999999681e+01 1.509224999999999909e+03
4.100000000000000172e-02 4.855960000000000276e-01 -1.616875000000000062e+00 3.695579999999999643e+01 1.508650000000000091e+03
4.200000000000000261e-02 4.853850000000000109e-01 -1.634664999999999813e+00 3.578244999999999720e+01 1.508210000000000036e+03
4.300000000000000350e-02 4.852754999999999708e-01 -1.448041000000000134e+00 3.514320000000000022e+01 1.507920000000000073e+03
4.400000000000000439e-02 4.852650000000000574e-01 -1.061311499999999963e+00 3.503184999999999860e+01 1.507784999999999854e+03
4.499999999999999833e-02 4.853480000000000016e-01 -4.817164999999999919e-01 3.542654999999999887e+01 1.507799999999999955e+03
4.599999999999999922e-02 4.855200000000000071e-01 2.827850000000000641e-01 3.629614999999999725e+01 1.507949999999999818e+03
4.700000000000000011e-02 4.857734999999999692e-01 1.224205000000000210e+00 3.760444999999999993e+01 1.508244999999999891e+03
4.800000000000000100e-02 4.861030000000000073e-01 2.333855000000000235e+00 3.931315000000000026e+01 1.508659999999999854e+03
4.900000000000000189e-02 4.865014999999999756e-01 3.600875000000000270e+00 4.138185000000000002e+01 1.509195000000000164e+03
5.000000000000000278e-02 4.869605000000000183e-01 5.010634999999999728e+00 4.376769999999999783e+01 1.509829999999999927e+03
5.100000000000000366e-02 4.874720000000000164e-01 6.543700000000000294e+00 4.642454999999999643e+01 1.510559999999999945e+03
5.200000000000000455e-02 4.880249999999999866e-01 8.175559999999999050e+00 4.930205000000000126e+01 1.511360000000000127e+03
5.300000000000000544e-02 4.886085000000000012e-01 9.877470000000000638e+00 5.234635000000000105e+01 1.512224999999999909e+03
5.399999999999999939e-02 4.892110000000000070e-01 1.161785000000000068e+01 5.550095000000000312e+01 1.513139999999999873e+03
5.500000000000000028e-02 4.898215000000000208e-01 1.336445499999999953e+01 5.870964999999999634e+01 1.514079999999999927e+03
5.600000000000000117e-02 4.904284999999999339e-01 1.508626499999999915e+01 6.191859999999999786e+01 1.515035000000000082e+03
5.700000000000000205e-02 4.910244999999999749e-01 1.675567000000000206e+01 6.507970000000000255e+01 1.515990000000000009e+03
5.800000000000000294e-02 4.916015000000000246e-01 1.834994999999999976e+01 6.815285000000000082e+01 1.516930000000000064e+03
5.900000000000000383e-02 4.921555000000000235e-01 1.985204999999999842e+01 7.110804999999999154e+01 1.517849999999999909e+03
6.000000000000000472e-02 4.926834999999999409e-01 2.125114999999999910e+01 7.392614999999999270e+01 1.518740000000000009e+03
6.099999999999999867e-02 4.931860000000000133e-01 2.254229999999999734e+01 7.659919999999999618e+01 1.519595000000000027e+03
6.199999999999999956e-02 4.936634999999999773e-01 2.372585000000000122e+01 7.912950000000000728e+01 1.520409999999999854e+03
6.300000000000000044e-02 4.941190000000000304e-01 2.480664999999999765e+01 8.152844999999999231e+01 1.521194999999999936e+03
6.400000000000000133e-02 4.945574999999999832e-01 2.579305000000000092e+01 8.381444999999999368e+01 1.521945000000000164e+03
6.500000000000000222e-02 4.949829999999999508e-01 2.669574999999999676e+01 8.601099999999999568e+01 1.522674999999999955e+03
6.600000000000000311e-02 4.954005000000000214e-01 2.752694999999999936e+01 8.814449999999999363e+01 1.523380000000000109e+03
6.700000000000000400e-02 4.958154999999999646e-01 2.829954999999999998e+01 9.024219999999999686e+01 1.524074999999999818e+03
6.800000000000000488e-02 4.962320000000000064e-01 2.902604999999999791e+01 9.233035000000000991e+01 1.524764999999999873e+03
6.900000000000000577e-02 4.966540000000000399e-01 2.971809999999999974e+01 9.443225000000001046e+01 1.525449999999999818e+03
7.000000000000000666e-02 4.970860000000000278e-01 3.038550000000000040e+01 9.656669999999999732e+01 1.526144999999999982e+03
7.100000000000000755e-02 4.975275000000000114e-01 3.103580000000000183e+01 9.874760000000000559e+01 1.526849999999999909e+03
7.200000000000000844e-02 4.979814999999999658e-01 3.167374999999999829e+01 1.009812000000000012e+02 1.527569999999999936e+03
7.300000000000000933e-02 4.984454999999999858e-01 3.230105000000000359e+01 1.032673000000000059e+02 1.528304999999999836e+03
7.399999999999999634e-02 4.989185000000000425e-01 3.291620000000000346e+01 1.055985000000000014e+02 1.529050000000000182e+03
7.499999999999999722e-02 4.993969999999999798e-01 3.351484999999999559e+01 1.079615000000000009e+02 1.529805000000000064e+03
7.599999999999999811e-02 4.998759999999999870e-01 3.409000000000000341e+01 1.103360000000000127e+02 1.530565000000000055e+03
7.699999999999999900e-02 5.003509999999999902e-01 3.463254999999999484e+01 1.126975000000000051e+02 1.531320000000000164e+03
7.799999999999999989e-02 5.008170000000000677e-01 3.513200000000000500e+01 1.150184999999999889e+02 1.532069999999999936e+03
7.900000000000000078e-02 5.012664999999999482e-01 3.557725000000000648e+01 1.172685000000000031e+02 1.532800000000000182e+03
8.000000000000000167e-02 5.016954999999999609e-01 3.595725000000000193e+01 1.194194999999999993e+02 1.533505000000000109e+03
8.100000000000000255e-02 5.020979999999999333e-01 3.626175000000000637e+01 1.214435000000000002e+02 1.534174999999999955e+03
8.200000000000000344e-02 5.024699999999999722e-01 3.648179999999999978e+01 1.233149999999999977e+02 1.534805000000000064e+03
8.300000000000000433e-02 5.028080000000000327e-01 3.661019999999999897e+01 1.250139999999999958e+02 1.535380000000000109e+03
8.400000000000000522e-02 5.031079999999999997e-01 3.664209999999999923e+01 1.265250000000000057e+02 1.535904999999999973e+03
8.500000000000000611e-02 5.033699999999999841e-01 3.657500000000000284e+01 1.278379999999999939e+02 1.536375000000000000e+03
8.600000000000000699e-02 5.035924999999999985e-01 3.640874999999999773e+01 1.289470000000000027e+02 1.536779999999999973e+03
8.700000000000000788e-02 5.037765000000000715e-01 3.614585000000000292e+01 1.298549999999999898e+02 1.537125000000000000e+03
8.800000000000000877e-02 5.039230000000000098e-01 3.579110000000000014e+01 1.305665000000000191e+02 1.537410000000000082e+03
8.899999999999999578e-02 5.040355000000000807e-01 3.535150000000000148e+01 1.310939999999999941e+02 1.537639999999999873e+03
8.999999999999999667e-02 5.041149999999999798e-01 3.483594999999999686e+01 1.314525000000000148e+02 1.537809999999999945e+03
9.099999999999999756e-02 5.041674999999999907e-01 3.425480000000000302e+01 1.316610000000000014e+02 1.537929999999999836e+03
9.199999999999999845e-02 5.041959999999999775e-01 3.361965000000000003e+01 1.317404999999999973e+02 1.538009999999999991e+03
9.299999999999999933e-02 5.042044999999999444e-01 3.294284999999999997e+01 1.317144999999999868e+02 1.538049999999999955e+03
9.400000000000000022e-02 5.041980000000000350e-01 3.223695000000000022e+01 1.316055000000000064e+02 1.538059999999999945e+03
9.500000000000000111e-02 5.041805000000000314e-01 3.151445000000000007e+01 1.314375000000000000e+02 1.538045000000000073e+03
9.600000000000000200e-02 5.041569999999999663e-01 3.078715000000000046e+01 1.312325000000000159e+02 1.538009999999999991e+03
9.700000000000000289e-02 5.041299999999999670e-01 3.006585000000000107e+01 1.310109999999999957e+02 1.537969999999999800e+03
9.800000000000000377e-02 5.041029999999999678e-01 2.935990000000000322e+01 1.307900000000000205e+02 1.537914999999999964e+03
9.900000000000000466e-02 5.040789999999999438e-01 2.867705000000000126e+01 1.305849999999999795e+02 1.537869999999999891e+03
1.000000000000000056e-01 5.040594999999999937e-01 2.802295000000000158e+01 1.304050000000000011e+02 1.537815000000000055e+03
1.010000000000000064e-01 5.040454999999999242e-01 2.740124999999999744e+01 1.302579999999999814e+02 1.537775000000000091e+03
1.020000000000000073e-01 5.040375000000000272e-01 2.681360000000000099e+01 1.301469999999999914e+02 1.537744999999999891e+03
1.030000000000000082e-01 5.040344999999999409e-01 2.625929999999999964e+01 1.300705000000000098e+02 1.537714999999999918e+03
1.040000000000000091e-01 5.040360000000000396e-01 2.573615000000000208e+01 1.300240000000000009e+02 1.537695000000000164e+03
1.050000000000000100e-01 5.040405000000000024e-01 2.524009999999999820e+01 1.300010000000000048e+02 1.537679999999999836e+03
1.059999999999999970e-01 5.040450000000000763e-01 2.476569999999999894e+01 1.299904999999999973e+02 1.537670000000000073e+03
1.069999999999999979e-01 5.040489999999999693e-01 2.430669999999999931e+01 1.299809999999999945e+02 1.537660000000000082e+03
1.079999999999999988e-01 5.040479999999999405e-01 2.385610000000000142e+01 1.299600000000000080e+02 1.537650000000000091e+03
1.089999999999999997e-01 5.040405000000000024e-01 2.340675000000000239e+01 1.299134999999999991e+02 1.537634999999999991e+03
1.100000000000000006e-01 5.040250000000000563e-01 2.295165000000000077e+01 1.298299999999999841e+02 1.537610000000000127e+03
1.110000000000000014e-01 5.039974999999999872e-01 2.248414999999999964e+01 1.296959999999999980e+02 1.537565000000000055e+03
1.120000000000000023e-01 5.039580000000000171e-01 2.199859999999999971e+01 1.295024999999999977e+02 1.537509999999999991e+03
1.130000000000000032e-01 5.039040000000000186e-01 2.149024999999999963e+01 1.292409999999999854e+02 1.537440000000000055e+03
1.140000000000000041e-01 5.038350000000000328e-01 2.095599999999999952e+01 1.289054999999999893e+02 1.537340000000000146e+03
1.150000000000000050e-01 5.037504999999999900e-01 2.039385000000000048e+01 1.284939999999999998e+02 1.537224999999999909e+03
1.160000000000000059e-01 5.036519999999999886e-01 1.980355000000000132e+01 1.280070000000000050e+02 1.537085000000000036e+03
1.170000000000000068e-01 5.035395000000000287e-01 1.918649999999999878e+01 1.274475000000000051e+02 1.536920000000000073e+03
1.180000000000000077e-01 5.034134999999999582e-01 1.854565000000000197e+01 1.268220000000000027e+02 1.536740000000000009e+03
1.190000000000000085e-01 5.032784999999999620e-01 1.788540000000000063e+01 1.261390000000000100e+02 1.536539999999999964e+03
1.200000000000000094e-01 5.031345000000000400e-01 1.721150000000000091e+01 1.254105000000000132e+02 1.536324999999999818e+03
1.209999999999999964e-01 5.029850000000000154e-01 1.653065000000000140e+01 1.246495000000000033e+02 1.536099999999999909e+03
1.219999999999999973e-01 5.028329999999999744e-01 1.585064999999999813e+01 1.238704999999999927e+02 1.535860000000000127e+03
1.229999999999999982e-01 5.026820000000000732e-01 1.517960000000000065e+01 1.230900000000000034e+02 1.535625000000000000e+03
1.239999999999999991e-01 5.025349999999999540e-01 1.452598499999999859e+01 1.223239999999999981e+02 1.535389999999999873e+03
1.250000000000000000e-01 5.023944999999999661e-01 1.389799999999999969e+01 1.215865000000000009e+02 1.535154999999999973e+03
1.260000000000000009e-01 5.022630000000000150e-01 1.330358999999999980e+01 1.208940000000000055e+02 1.534934999999999945e+03
1.270000000000000018e-01 5.021439999999999237e-01 1.274977999999999945e+01 1.202584999999999980e+02 1.534730000000000018e+03
1.280000000000000027e-01 5.020385000000000542e-01 1.224276000000000053e+01 1.196929999999999978e+02 1.534539999999999964e+03
1.290000000000000036e-01 5.019485000000000197e-01 1.178732499999999916e+01 1.192040000000000077e+02 1.534369999999999891e+03
1.300000000000000044e-01 5.018754999999999189e-01 1.138699499999999887e+01 1.188000000000000114e+02 1.534230000000000018e+03
1.310000000000000053e-01 5.018190000000000150e-01 1.104375999999999891e+01 1.184830000000000041e+02 1.534110000000000127e+03
1.320000000000000062e-01 5.017795000000000449e-01 1.075808499999999945e+01 1.182545000000000073e+02 1.534014999999999873e+03
1.330000000000000071e-01 5.017565000000000497e-01 1.052896499999999946e+01 1.181124999999999972e+02 1.533945000000000164e+03
1.340000000000000080e-01 5.017479999999999718e-01 1.035403499999999966e+01 1.180515000000000043e+02 1.533904999999999973e+03
1.350000000000000089e-01 5.017540000000000333e-01 1.022970499999999916e+01 1.180649999999999977e+02 1.533884999999999991e+03
1.360000000000000098e-01 5.017719999999999958e-01 1.015133499999999955e+01 1.181454999999999984e+02 1.533884999999999991e+03
1.370000000000000107e-01 5.017994999999999539e-01 1.011355000000000004e+01 1.182819999999999965e+02 1.533904999999999973e+03
1.380000000000000115e-01 5.018350000000000311e-01 1.011039999999999850e+01 1.184635000000000105e+02 1.533940000000000055e+03
1.390000000000000124e-01 5.018765000000000587e-01 1.013552999999999926e+01 1.186790000000000020e+02 1.533990000000000009e+03
1.400000000000000133e-01 5.019215000000000204e-01 1.018263500000000121e+01 1.189175000000000040e+02 1.534045000000000073e+03
1.410000000000000142e-01 5.019685000000000397e-01 1.024548500000000040e+01 1.191684999999999945e+02 1.534105000000000018e+03
1.420000000000000151e-01 5.020145000000000302e-01 1.031822000000000017e+01 1.194219999999999970e+02 1.534174999999999955e+03
1.430000000000000160e-01 5.020599999999999508e-01 1.039541499999999985e+01 1.196694999999999993e+02 1.534244999999999891e+03
1.440000000000000169e-01 5.021014999999999784e-01 1.047233999999999909e+01 1.199035000000000082e+02 1.534309999999999945e+03
1.450000000000000178e-01 5.021400000000000308e-01 1.054486499999999971e+01 1.201185000000000116e+02 1.534375000000000000e+03
1.459999999999999909e-01 5.021735000000000504e-01 1.060974500000000020e+01 1.203100000000000023e+02 1.534429999999999836e+03
1.469999999999999918e-01 5.022020000000000373e-01 1.066452999999999918e+01 1.204764999999999873e+02 1.534485000000000127e+03
1.479999999999999927e-01 5.022260000000000613e-01 1.070738000000000056e+01 1.206150000000000091e+02 1.534529999999999973e+03
1.489999999999999936e-01 5.022440000000000238e-01 1.073747000000000007e+01 1.207270000000000039e+02 1.534565000000000055e+03
1.499999999999999944e-01 5.022584999999999411e-01 1.075454500000000024e+01 1.208135000000000048e+02 1.534599999999999909e+03
1.509999999999999953e-01 5.022689999999999655e-01 1.075894999999999868e+01 1.208764999999999930e+02 1.534625000000000000e+03
1.519999999999999962e-01 5.022754999999999859e-01 1.075160999999999945e+01 1.209199999999999875e+02 1.534644999999999982e+03
1.529999999999999971e-01 5.022794999999999899e-01 1.073403000000000063e+01 1.209475000000000051e+02 1.534654999999999973e+03
1.539999999999999980e-01 5.022820000000000062e-01 1.070783499999999933e+01 1.209635000000000105e+02 1.534670000000000073e+03
1.549999999999999989e-01 5.022830000000000350e-01 1.067501999999999995e+01 1.209714999999999918e+02 1.534675000000000182e+03
1.559999999999999998e-01 5.022845000000000226e-01 1.063772999999999946e+01 1.209765000000000015e+02 1.534680000000000064e+03
1.570000000000000007e-01 5.022860000000000102e-01 1.059808500000000109e+01 1.209819999999999993e+02 1.534690000000000055e+03
1.580000000000000016e-01 5.022889999999999855e-01 1.055806000000000111e+01 1.209919999999999902e+02 1.534695000000000164e+03
1.590000000000000024e-01 5.022940000000000182e-01 1.051953500000000119e+01 1.210090000000000003e+02 1.534700000000000045e+03
