# t [s], A [cm^2], U [cm/s], P [cPa], c [cm/s]
1.000000000000000021e-03 4.795375000000000054e-01 3.904449999999996812e-03 1.074344999999999999e+02 1.525125000000000000e+03
2.000000000000000042e-03 4.795309999999999850e-01 1.640925000000000109e-03 1.074140000000000015e+02 1.525115000000000009e+03
3.000000000000000062e-03 4.795734999999999859e-01 9.231775000000000397e-02 1.075054999999999978e+02 1.525139999999999873e+03
4.000000000000000083e-03 4.796119999999999828e-01 1.798592499999999983e-01 1.076144999999999925e+02 1.525170000000000073e+03
5.000000000000000104e-03 4.795975000000000099e-01 1.588610000000000022e-01 1.075765000000000100e+02 1.525170000000000073e+03
6.000000000000000125e-03 4.795530000000000070e-01 6.731750000000000234e-02 1.073919999999999959e+02 1.525130000000000109e+03
7.000000000000000146e-03 4.795090000000000185e-01 -2.828049999999998620e-02 1.071334999999999980e+02 1.525070000000000164e+03
8.000000000000000167e-03 4.794435000000000224e-01 -1.789954999999999741e-01 1.067554999999999978e+02 1.524990000000000009e+03
9.000000000000001055e-03 4.793324999999999947e-01 -4.411149999999999238e-01 1.061734999999999900e+02 1.524860000000000127e+03
1.000000000000000194e-02 4.791719999999999868e-01 -8.189349999999998575e-01 1.053429999999999893e+02 1.524670000000000073e+03
1.099999999999999936e-02 4.789519999999999889e-01 -1.320500000000000007e+00 1.042195000000000107e+02 1.524414999999999964e+03
1.200000000000000025e-02 4.786624999999999908e-01 -1.952960000000000029e+00 1.027543000000000006e+02 1.524070000000000164e+03
1.300000000000000114e-02 4.783124999999999738e-01 -2.671685000000000088e+00 1.009612999999999943e+02 1.523634999999999991e+03
1.400000000000000203e-02 4.779399999999999760e-01 -3.366545000000000343e+00 9.895310000000000628e+01 1.523134999999999991e+03
1.499999999999999944e-02 4.775899999999999590e-01 -3.903899999999999704e+00 9.690579999999999927e+01 1.522610000000000127e+03
1.600000000000000033e-02 4.772944999999999549e-01 -4.182996000000000159e+00 9.498859999999999104e+01 1.522085000000000036e+03
1.700000000000000122e-02 4.770604999999999984e-01 -4.167894500000000058e+00 9.330404999999998950e+01 1.521599999999999909e+03
1.800000000000000211e-02 4.768744999999999790e-01 -3.887099000000000082e+00 9.186894999999999811e+01 1.521155000000000200e+03
1.900000000000000300e-02 4.767090000000000494e-01 -3.411977499999999885e+00 9.062450000000001182e+01 1.520750000000000000e+03
2.000000000000000042e-02 4.765344999999999720e-01 -2.827281000000000155e+00 8.946930000000000405e+01 1.520365000000000009e+03
2.100000000000000130e-02 4.763304999999999900e-01 -2.203809999999999825e+00 8.829859999999999332e+01 1.519974999999999909e+03
2.200000000000000219e-02 4.760874999999999968e-01 -1.580615000000000103e+00 8.703804999999999836e+01 1.519574999999999818e+03
2.299999999999999961e-02 4.758120000000000127e-01 -9.616949999999999665e-01 8.566140000000000043e+01 1.519144999999999982e+03
2.400000000000000050e-02 4.755169999999999675e-01 -3.268950000000003797e-01 8.418710000000000093e+01 1.518694999999999936e+03
2.500000000000000139e-02 4.752170000000000005e-01 3.489649999999997476e-01 8.265860000000000696e+01 1.518224999999999909e+03
2.600000000000000228e-02 4.749200000000000088e-01 1.077574999999999950e+00 8.111825000000000330e+01 1.517750000000000000e+03
2.700000000000000316e-02 4.746280000000000499e-01 1.845675000000000177e+00 7.958504999999999541e+01 1.517279999999999973e+03
2.800000000000000058e-02 4.743300000000000294e-01 2.613205000000000222e+00 7.804349999999999454e+01 1.516799999999999955e+03
2.900000000000000147e-02 4.740105000000000013e-01 3.319929999999999826e+00 7.644415000000000759e+01 1.516304999999999836e+03
3.000000000000000236e-02 4.736504999999999743e-01 3.897744999999999571e+00 7.471484999999999843e+01 1.515789999999999964e+03
3.099999999999999978e-02 4.732355000000000311e-01 4.285270000000000579e+00 7.277920000000000300e+01 1.515220000000000027e+03
3.200000000000000067e-02 4.727550000000000363e-01 4.441240000000000521e+00 7.057710000000000150e+01 1.514594999999999800e+03
3.300000000000000155e-02 4.722109999999999919e-01 4.354015000000000413e+00 6.808285000000000764e+01 1.513904999999999973e+03
3.400000000000000244e-02 4.716150000000000064e-01 4.044134999999999813e+00 6.531614999999999327e+01 1.513144999999999982e+03
3.500000000000000333e-02 4.709870000000000445e-01 3.560525000000000162e+00 6.234304999999999808e+01 1.512340000000000146e+03
3.600000000000000422e-02 4.703530000000000211e-01 2.971055000000000224e+00 5.926800000000000068e+01 1.511500000000000000e+03
3.700000000000000511e-02 4.697399999999999909e-01 2.350905000000000022e+00 5.621855000000000047e+01 1.510654999999999973e+03
3.799999999999999906e-02 4.691744999999999943e-01 1.771734999999999616e+00 5.332850000000000534e+01 1.509844999999999800e+03
3.899999999999999994e-02 4.686775000000000246e-01 1.293749999999999734e+00 5.072220000000000084e+01 1.509099999999999909e+03
4.000000000000000083e-02 4.682644999999999724e-01 9.617049999999998100e-01 4.850274999999999892e+01 1.508434999999999945e+03
4.100000000000000172e-02 4.679439999999999711e-01 8.041299999999997894e-01 4.674575000000000102e+01 1.507884999999999991e+03
4.200000000000000261e-02 4.677219999999999711e-01 8.356000000000001204e-01 4.549734999999999729e+01 1.507454999999999927e+03
4.300000000000000350e-02 4.675974999999999993e-01 1.060379999999999878e+00 4.477705000000000268e+01 1.507164999999999964e+03
4.400000000000000439e-02 4.675684999999999980e-01 1.476523000000000030e+00 4.458305000000000007e+01 1.507019999999999982e+03
4.499999999999999833e-02 4.676310000000000189e-01 2.079270000000000174e+00 4.489829999999999899e+01 1.507009999999999991e+03
4.599999999999999922e-02 4.677810000000000024e-01 2.863260499999999986e+00 4.569665000000000532e+01 1.507130000000000109e+03
4.700000000000000011e-02 4.680135000000000267e-01 3.823142499999999888e+00 4.694684999999999775e+01 1.507384999999999991e+03
4.800000000000000100e-02 4.683225000000000304e-01 4.952871499999999649e+00 4.861509999999999820e+01 1.507759999999999991e+03
4.900000000000000189e-02 4.687029999999999808e-01 6.244222999999999857e+00 5.066559999999999775e+01 1.508244999999999891e+03
5.000000000000000278e-02 4.691474999999999951e-01 7.685089999999999755e+00 5.305939999999999657e+01 1.508835000000000036e+03
5.100000000000000366e-02 4.696479999999999544e-01 9.258460000000001244e+00 5.575365000000000038e+01 1.509514999999999873e+03
5.200000000000000455e-02 4.701954999999999885e-01 1.094189000000000078e+01 5.870074999999999932e+01 1.510275000000000091e+03
5.300000000000000544e-02 4.707790000000000585e-01 1.270821999999999896e+01 6.184874999999999545e+01 1.511095000000000027e+03
5.399999999999999939e-02 4.713874999999999593e-01 1.452701000000000064e+01 6.514220000000000255e+01 1.511974999999999909e+03
5.500000000000000028e-02 4.720099999999999851e-01 1.636636499999999828e+01 6.852464999999999407e+01 1.512884999999999991e+03
5.600000000000000117e-02 4.726365000000000149e-01 1.819500000000000028e+01 7.194110000000000582e+01 1.513824999999999818e+03
5.700000000000000205e-02 4.732574999999999976e-01 1.998444999999999894e+01 7.534095000000000653e+01 1.514764999999999873e+03
5.800000000000000294e-02 4.738649999999999807e-01 2.171049999999999969e+01 7.868099999999999739e+01 1.515710000000000036e+03
5.900000000000000383e-02 4.744554999999999745e-01 2.335410000000000252e+01 8.192685000000000173e+01 1.516634999999999991e+03
6.000000000000000472e-02 4.750235000000000429e-01 2.490220000000000056e+01 8.505459999999999354e+01 1.517539999999999964e+03
6.099999999999999867e-02 4.755690000000000195e-01 2.634730000000000061e+01 8.805105000000000359e+01 1.518414999999999964e+03
6.199999999999999956e-02 4.760919999999999597e-01 2.768714999999999904e+01 9.091335000000000832e+01 1.519269999999999982e+03
6.300000000000000044e-02 4.765944999999999765e-01 2.892409999999999926e+01 9.364730000000000132e+01 1.520085000000000036e+03
6.400000000000000133e-02 4.770790000000000308e-01 3.006380000000000052e+01 9.626654999999999518e+01 1.520880000000000109e+03
6.500000000000000222e-02 4.775504999999999889e-01 3.111485000000000056e+01 9.879034999999998945e+01 1.521639999999999873e+03
6.600000000000000311e-02 4.780125000000000068e-01 3.208729999999999905e+01 1.012409999999999997e+02 1.522384999999999991e+03
6.700000000000000400e-02 4.784690000000000332e-01 3.299214999999999520e+01 1.036420999999999992e+02 1.523119999999999891e+03
6.800000000000000488e-02 4.789244999999999752e-01 3.384029999999999916e+01 1.060180000000000007e+02 1.523839999999999918e+03
6.900000000000000577e-02 4.793820000000000303e-01 3.464209999999999923e+01 1.083894999999999982e+02 1.524554999999999836e+03
7.000000000000000666e-02 4.798449999999999660e-01 3.540645000000000664e+01 1.107744999999999891e+02 1.525275000000000091e+03
7.100000000000000755e-02 4.803149999999999920e-01 3.614010000000000389e+01 1.131854999999999905e+02 1.526000000000000000e+03
7.200000000000000844e-02 4.807924999999999560e-01 3.684759999999999991e+01 1.156295000000000073e+02 1.526730000000000018e+03
7.300000000000000933e-02 4.812769999999999548e-01 3.753059999999999974e+01 1.181069999999999993e+02 1.527470000000000027e+03
7.399999999999999634e-02 4.817664999999999864e-01 3.818800000000000239e+01 1.206109999999999900e+02 1.528215000000000146e+03
7.499999999999999722e-02 4.822579999999999645e-01 3.881595000000000084e+01 1.231299999999999955e+02 1.528964999999999918e+03
7.599999999999999811e-02 4.827480000000000104e-01 3.940834999999999866e+01 1.256454999999999984e+02 1.529715000000000146e+03
7.699999999999999900e-02 4.832319999999999949e-01 3.995714999999999861e+01 1.281345000000000027e+02 1.530460000000000036e+03
7.799999999999999989e-02 4.837044999999999817e-01 4.045300000000000296e+01 1.305720000000000027e+02 1.531194999999999936e+03
7.900000000000000078e-02 4.841610000000000635e-01 4.088615000000000066e+01 1.329304999999999950e+02 1.531905000000000200e+03
8.000000000000000167e-02 4.845960000000000267e-01 4.124674999999999869e+01 1.351825000000000045e+02 1.532590000000000146e+03
8.100000000000000255e-02 4.850045000000000051e-01 4.152575000000000216e+01 1.373025000000000091e+02 1.533244999999999891e+03
8.200000000000000344e-02 4.853834999999999678e-01 4.171529999999999916e+01 1.392669999999999959e+02 1.533860000000000127e+03
8.300000000000000433e-02 4.857285000000000075e-01 4.180920000000000414e+01 1.410564999999999998e+02 1.534420000000000073e+03
8.400000000000000522e-02 4.860375000000000112e-01 4.180334999999999468e+01 1.426564999999999941e+02 1.534940000000000055e+03
8.500000000000000611e-02 4.863085000000000324e-01 4.169565000000000055e+01 1.440559999999999832e+02 1.535400000000000091e+03
8.600000000000000699e-02 4.865419999999999745e-01 4.148640000000000327e+01 1.452504999999999882e+02 1.535804999999999836e+03
8.700000000000000788e-02 4.867374999999999896e-01 4.117810000000000059e+01 1.462415000000000020e+02 1.536154999999999973e+03
8.800000000000000877e-02 4.868954999999999811e-01 4.077559999999999718e+01 1.470330000000000155e+02 1.536440000000000055e+03
8.899999999999999578e-02 4.870194999999999941e-01 4.028549999999999898e+01 1.476355000000000075e+02 1.536675000000000182e+03
8.999999999999999667e-02 4.871119999999999894e-01 3.971635000000000559e+01 1.480625000000000000e+02 1.536859999999999900e+03
9.099999999999999756e-02 4.871749999999999692e-01 3.907824999999999704e+01 1.483319999999999936e+02 1.536990000000000009e+03
9.199999999999999845e-02 4.872130000000000072e-01 3.838235000000000241e+01 1.484625000000000057e+02 1.537079999999999927e+03
9.299999999999999933e-02 4.872299999999999964e-01 3.764059999999999917e+01 1.484759999999999991e+02 1.537130000000000109e+03
9.400000000000000022e-02 4.872294999999999821e-01 3.686529999999999774e+01 1.483949999999999818e+02 1.537154999999999973e+03
9.500000000000000111e-02 4.872170000000000112e-01 3.606875000000000142e+01 1.482420000000000186e+02 1.537150000000000091e+03
9.600000000000000200e-02 4.871949999999999892e-01 3.526274999999999693e+01 1.480380000000000109e+02 1.537119999999999891e+03
9.700000000000000289e-02 4.871670000000000167e-01 3.445815000000000339e+01 1.478019999999999925e+02 1.537079999999999927e+03
9.800000000000000377e-02 4.871369999999999867e-01 3.366460000000000008e+01 1.475534999999999854e+02 1.537029999999999973e+03
9.900000000000000466e-02 4.871070000000000122e-01 3.289020000000000010e+01 1.473064999999999998e+02 1.536969999999999800e+03
1.000000000000000056e-01 4.870784999999999698e-01 3.214110000000000156e+01 1.470720000000000027e+02 1.536920000000000073e+03
1.010000000000000064e-01 4.870535000000000281e-01 3.142160000000000153e+01 1.468580000000000041e+02 1.536865000000000009e+03
1.020000000000000073e-01 4.870314999999999506e-01 3.073380000000000223e+01 1.466684999999999945e+02 1.536809999999999945e+03
1.030000000000000082e-01 4.870134999999999881e-01 3.007794999999999774e+01 1.465040000000000191e+02 1.536759999999999991e+03
1.040000000000000091e-01 4.869980000000000420e-01 2.945230000000000103e+01 1.463614999999999782e+02 1.536720000000000027e+03
1.050000000000000100e-01 4.869839999999999725e-01 2.885354999999999848e+01 1.462345000000000255e+02 1.536674999999999955e+03
1.059999999999999970e-01 4.869694999999999996e-01 2.827689999999999770e+01 1.461145000000000209e+02 1.536640000000000100e+03
1.069999999999999979e-01 4.869519999999999960e-01 2.771679999999999922e+01 1.459904999999999973e+02 1.536599999999999909e+03
1.079999999999999988e-01 4.869304999999999883e-01 2.716660000000000252e+01 1.458514999999999873e+02 1.536559999999999945e+03
1.089999999999999997e-01 4.869014999999999871e-01 2.661970000000000169e+01 1.456835000000000093e+02 1.536505000000000109e+03
1.100000000000000006e-01 4.868635000000000046e-01 2.606940000000000168e+01 1.454759999999999991e+02 1.536449999999999818e+03
1.110000000000000014e-01 4.868145000000000389e-01 2.550949999999999918e+01 1.452169999999999845e+02 1.536375000000000000e+03
1.120000000000000023e-01 4.867534999999999501e-01 2.493430000000000035e+01 1.448965000000000032e+02 1.536285000000000082e+03
1.130000000000000032e-01 4.866780000000000550e-01 2.433944999999999936e+01 1.445065000000000168e+02 1.536174999999999955e+03
1.140000000000000041e-01 4.865875000000000616e-01 2.372139999999999915e+01 1.440420000000000016e+02 1.536049999999999955e+03
1.150000000000000050e-01 4.864820000000000255e-01 2.307835000000000036e+01 1.435000000000000000e+02 1.535905000000000200e+03
1.160000000000000059e-01 4.863620000000000165e-01 2.240975000000000250e+01 1.428799999999999955e+02 1.535735000000000127e+03
1.170000000000000068e-01 4.862275000000000347e-01 2.171675000000000111e+01 1.421850000000000023e+02 1.535550000000000182e+03
1.180000000000000077e-01 4.860804999999999709e-01 2.100185000000000102e+01 1.414209999999999923e+02 1.535335000000000036e+03
1.190000000000000085e-01 4.859224999999999794e-01 2.026914999999999978e+01 1.405964999999999918e+02 1.535115000000000009e+03
1.200000000000000094e-01 4.857555000000000067e-01 1.952394999999999925e+01 1.397214999999999918e+02 1.534875000000000000e+03
1.209999999999999964e-01 4.855829999999999869e-01 1.877274999999999849e+01 1.388095000000000141e+02 1.534619999999999891e+03
1.219999999999999973e-01 4.854065000000000185e-01 1.802284999999999826e+01 1.378745000000000118e+02 1.534355000000000018e+03
1.229999999999999982e-01 4.852290000000000214e-01 1.728219999999999956e+01 1.369320000000000164e+02 1.534090000000000146e+03
1.239999999999999991e-01 4.850544999999999995e-01 1.655910000000000082e+01 1.359975000000000023e+02 1.533820000000000164e+03
1.250000000000000000e-01 4.848855000000000248e-01 1.586179999999999879e+01 1.350869999999999891e+02 1.533554999999999836e+03
1.260000000000000009e-01 4.847245000000000026e-01 1.519829999999999970e+01 1.342154999999999916e+02 1.533299999999999955e+03
1.270000000000000018e-01 4.845739999999999492e-01 1.457582500000000181e+01 1.333969999999999914e+02 1.533055000000000064e+03
1.280000000000000027e-01 4.844365000000000476e-01 1.400103999999999971e+01 1.326429999999999723e+02 1.532829999999999927e+03
1.290000000000000036e-01 4.843135000000000079e-01 1.347926999999999964e+01 1.319644999999999868e+02 1.532615000000000009e+03
1.300000000000000044e-01 4.842054999999999554e-01 1.301465999999999923e+01 1.313689999999999998e+02 1.532430000000000064e+03
1.310000000000000053e-01 4.841150000000000175e-01 1.260986499999999921e+01 1.308609999999999900e+02 1.532259999999999991e+03
1.320000000000000062e-01 4.840409999999999990e-01 1.226620499999999936e+01 1.304435000000000002e+02 1.532119999999999891e+03
1.330000000000000071e-01 4.839835000000000109e-01 1.198333500000000029e+01 1.301164999999999736e+02 1.532000000000000000e+03
1.340000000000000080e-01 4.839415000000000244e-01 1.175973499999999916e+01 1.298754999999999882e+02 1.531904999999999973e+03
1.350000000000000089e-01 4.839145000000000252e-01 1.159243500000000004e+01 1.297175000000000011e+02 1.531835000000000036e+03
1.360000000000000098e-01 4.839005000000000112e-01 1.147747000000000028e+01 1.296330000000000098e+02 1.531789999999999964e+03
1.370000000000000107e-01 4.838980000000000503e-01 1.140988499999999917e+01 1.296150000000000091e+02 1.531759999999999991e+03
1.380000000000000115e-01 4.839054999999999884e-01 1.138404500000000041e+01 1.296539999999999964e+02 1.531744999999999891e+03
1.390000000000000124e-01 4.839205000000000312e-01 1.139403000000000077e+01 1.297379999999999995e+02 1.531750000000000000e+03
1.400000000000000133e-01 4.839410000000000101e-01 1.143347499999999961e+01 1.298569999999999993e+02 1.531764999999999873e+03
1.410000000000000142e-01 4.839660000000000073e-01 1.149624999999999986e+01 1.300010000000000048e+02 1.531789999999999964e+03
1.420000000000000151e-01 4.839925000000000477e-01 1.157639999999999958e+01 1.301594999999999800e+02 1.531820000000000164e+03
1.430000000000000160e-01 4.840200000000000058e-01 1.166819999999999879e+01 1.303245000000000005e+02 1.531849999999999909e+03
1.440000000000000169e-01 4.840470000000000050e-01 1.176675000000000004e+01 1.304884999999999877e+02 1.531889999999999873e+03
1.450000000000000178e-01 4.840725000000000167e-01 1.186759999999999948e+01 1.306450000000000102e+02 1.531925000000000182e+03
1.459999999999999909e-01 4.840949999999999420e-01 1.196695000000000064e+01 1.307895000000000039e+02 1.531960000000000036e+03
1.469999999999999918e-01 4.841149999999999620e-01 1.206204999999999927e+01 1.309184999999999945e+02 1.531994999999999891e+03
1.479999999999999927e-01 4.841320000000000068e-01 1.215050000000000097e+01 1.310300000000000011e+02 1.532025000000000091e+03
1.489999999999999936e-01 4.841455000000000064e-01 1.223104999999999976e+01 1.311245000000000118e+02 1.532050000000000182e+03
1.499999999999999944e-01 4.841564999999999896e-01 1.230274999999999963e+01 1.312024999999999864e+02 1.532070000000000164e+03
1.509999999999999953e-01 4.841650000000000120e-01 1.236554999999999893e+01 1.312649999999999864e+02 1.532095000000000027e+03
1.519999999999999962e-01 4.841715000000000324e-01 1.241980000000000040e+01 1.313160000000000025e+02 1.532110000000000127e+03
1.529999999999999971e-01 4.841775000000000384e-01 1.246635000000000026e+01 1.313575000000000159e+02 1.532125000000000000e+03
1.539999999999999980e-01 4.841824999999999601e-01 1.250634999999999941e+01 1.313940000000000055e+02 1.532135000000000218e+03
1.549999999999999989e-01 4.841880000000000073e-01 1.254129999999999967e+01 1.314284999999999854e+02 1.532150000000000091e+03
1.559999999999999998e-01 4.841940000000000133e-01 1.257264999999999944e+01 1.314654999999999916e+02 1.532164999999999964e+03
1.570000000000000007e-01 4.842015000000000069e-01 1.260205000000000020e+01 1.315074999999999932e+02 1.532174999999999955e+03
1.580000000000000016e-01 4.842104999999999881e-01 1.263105000000000011e+01 1.315579999999999927e+02 1.532190000000000055e+03
1.590000000000000024e-01 4.842225000000000001e-01 1.266104999999999947e+01 1.316194999999999879e+02 1.532210000000000036e+03
