# t [s], A [cm^2], U [cm/s], P [cPa], c [cm/s]
1.000000000000000021e-03 1.977530000000000121e-01 2.366205000000000114e-01 9.218375000000000341e+01 2.122304999999999836e+03
2.000000000000000042e-03 1.977049999999999919e-01 1.610011499999999929e+00 8.917904999999998950e+01 2.121944999999999709e+03
3.000000000000000062e-03 1.975719999999999976e-01 3.339970000000000105e+00 8.490709999999999980e+01 2.120970000000000255e+03
4.000000000000000083e-03 1.973900000000000099e-01 5.302342499999999959e+00 8.016089999999999804e+01 2.119659999999999854e+03
5.000000000000000104e-03 1.971939999999999804e-01 7.430410000000000181e+00 7.584815000000000396e+01 2.118269999999999982e+03
6.000000000000000125e-03 1.970065000000000011e-01 9.553084999999999383e+00 7.231364999999999554e+01 2.116944999999999709e+03
7.000000000000000146e-03 1.968320000000000070e-01 1.144263999999999903e+01 6.932115000000000293e+01 2.115744999999999891e+03
8.000000000000000167e-03 1.966720000000000135e-01 1.300580000000000069e+01 6.662550000000000239e+01 2.114664999999999964e+03
9.000000000000001055e-03 1.965330000000000132e-01 1.428325000000000067e+01 6.429120000000000346e+01 2.113739999999999782e+03
1.000000000000000194e-02 1.964174999999999949e-01 1.531439999999999912e+01 6.241109999999999758e+01 2.112975000000000364e+03
1.099999999999999936e-02 1.963245000000000129e-01 1.611849999999999739e+01 6.097030000000000172e+01 2.112375000000000000e+03
1.200000000000000025e-02 1.962530000000000108e-01 1.671274999999999977e+01 5.990919999999999845e+01 2.111920000000000073e+03
1.300000000000000114e-02 1.961979999999999835e-01 1.710004999999999953e+01 5.911695000000000277e+01 2.111574999999999818e+03
1.400000000000000203e-02 1.961550000000000238e-01 1.728710000000000235e+01 5.845434999999999803e+01 2.111309999999999945e+03
1.499999999999999944e-02 1.961205000000000032e-01 1.734065000000000012e+01 5.790959999999999752e+01 2.111109999999999673e+03
1.600000000000000033e-02 1.961005000000000109e-01 1.740469999999999828e+01 5.771999999999999886e+01 2.110994999999999891e+03
1.700000000000000122e-02 1.961060000000000025e-01 1.764224999999999710e+01 5.827745000000000175e+01 2.111039999999999964e+03
1.800000000000000211e-02 1.961459999999999870e-01 1.814365000000000094e+01 5.986905000000000143e+01 2.111309999999999945e+03
1.900000000000000300e-02 1.962220000000000075e-01 1.887235000000000085e+01 6.245094999999999885e+01 2.111809999999999945e+03
2.000000000000000042e-02 1.963249999999999995e-01 1.967750000000000199e+01 6.560420000000000584e+01 2.112489999999999782e+03
2.100000000000000130e-02 1.964359999999999995e-01 2.035920000000000130e+01 6.868224999999999625e+01 2.113239999999999782e+03
2.200000000000000219e-02 1.965345000000000009e-01 2.074754999999999683e+01 7.105419999999999447e+01 2.113925000000000182e+03
2.299999999999999961e-02 1.966060000000000030e-01 2.076084999999999781e+01 7.232409999999998718e+01 2.114425000000000182e+03
2.400000000000000050e-02 1.966430000000000122e-01 2.042259999999999920e+01 7.244079999999999586e+01 2.114695000000000164e+03
2.500000000000000139e-02 1.966465000000000019e-01 1.983739999999999881e+01 7.166769999999999641e+01 2.114750000000000000e+03
2.600000000000000228e-02 1.966275000000000106e-01 1.914059999999999917e+01 7.044265000000000043e+01 2.114639999999999873e+03
2.700000000000000316e-02 1.965985000000000094e-01 1.844534999999999769e+01 6.919655000000000200e+01 2.114449999999999818e+03
2.800000000000000058e-02 1.965685000000000071e-01 1.780695000000000050e+01 6.820520000000000493e+01 2.114250000000000000e+03
2.900000000000000147e-02 1.965430000000000232e-01 1.721560000000000201e+01 6.752360000000000184e+01 2.114074999999999818e+03
3.000000000000000236e-02 1.965220000000000022e-01 1.661394999999999911e+01 6.701154999999999973e+01 2.113935000000000400e+03
3.099999999999999978e-02 1.964990000000000070e-01 1.593039999999999878e+01 6.642680000000000007e+01 2.113779999999999745e+03
3.200000000000000067e-02 1.964690000000000047e-01 1.511454999999999949e+01 6.554394999999999527e+01 2.113579999999999927e+03
3.300000000000000155e-02 1.964259999999999895e-01 1.416420000000000101e+01 6.426015000000001010e+01 2.113304999999999836e+03
3.400000000000000244e-02 1.963719999999999910e-01 1.313465000000000060e+01 6.265165000000000362e+01 2.112949999999999818e+03
3.500000000000000333e-02 1.963119999999999865e-01 1.212829999999999941e+01 6.096620000000000061e+01 2.112554999999999836e+03
3.600000000000000422e-02 1.962554999999999994e-01 1.126752000000000109e+01 5.955395000000000039e+01 2.112175000000000182e+03
3.700000000000000511e-02 1.962145000000000139e-01 1.066075000000000017e+01 5.876304999999999978e+01 2.111890000000000327e+03
3.799999999999999906e-02 1.961979999999999835e-01 1.037267500000000098e+01 5.883490000000000464e+01 2.111760000000000218e+03
3.899999999999999994e-02 1.962119999999999975e-01 1.040759999999999863e+01 5.983350000000000080e+01 2.111835000000000036e+03
4.000000000000000083e-02 1.962550000000000128e-01 1.070930000000000071e+01 6.162664999999999793e+01 2.112105000000000018e+03
4.100000000000000172e-02 1.963214999999999821e-01 1.117530000000000001e+01 6.391849999999999454e+01 2.112529999999999745e+03
4.200000000000000261e-02 1.964009999999999923e-01 1.167910000000000004e+01 6.631774999999998954e+01 2.113050000000000182e+03
4.300000000000000350e-02 1.964794999999999736e-01 1.209479999999999933e+01 6.841949999999999932e+01 2.113574999999999818e+03
4.400000000000000439e-02 1.965445000000000109e-01 1.231749999999999901e+01 6.987959999999999638e+01 2.114019999999999982e+03
4.499999999999999833e-02 1.965864999999999974e-01 1.227599999999999980e+01 7.046580000000000155e+01 2.114305000000000291e+03
4.599999999999999922e-02 1.965974999999999806e-01 1.193769999999999953e+01 7.007954999999999757e+01 2.114394999999999982e+03
4.700000000000000011e-02 1.965755000000000141e-01 1.130498500000000028e+01 6.874840000000000373e+01 2.114264999999999873e+03
4.800000000000000100e-02 1.965220000000000022e-01 1.040675500000000042e+01 6.659699999999999420e+01 2.113920000000000073e+03
4.900000000000000189e-02 1.964405000000000179e-01 9.288095000000000212e+00 6.380679999999999552e+01 2.113385000000000218e+03
5.000000000000000278e-02 1.963364999999999971e-01 8.000400000000000844e+00 6.057695000000000363e+01 2.112699999999999818e+03
5.100000000000000366e-02 1.962160000000000015e-01 6.594574999999999854e+00 5.709389999999999787e+01 2.111899999999999636e+03
5.200000000000000455e-02 1.960854999999999959e-01 5.117494999999999905e+00 5.351465000000000316e+01 2.111029999999999745e+03
5.300000000000000544e-02 1.959504999999999997e-01 3.611791750000000079e+00 4.996335000000000548e+01 2.110125000000000000e+03
5.399999999999999939e-02 1.958149999999999891e-01 2.117669999999999941e+00 4.653790000000000049e+01 2.109220000000000255e+03
5.500000000000000028e-02 1.956829999999999958e-01 6.752499999999999059e-01 4.332120000000000459e+01 2.108329999999999927e+03
5.600000000000000117e-02 1.955585000000000240e-01 -6.735449999999998383e-01 4.039254999999999995e+01 2.107489999999999782e+03
5.700000000000000205e-02 1.954445000000000210e-01 -1.884376999999999747e+00 3.783559999999999945e+01 2.106720000000000255e+03
5.800000000000000294e-02 1.953449999999999909e-01 -2.911509999999999820e+00 3.574004999999999654e+01 2.106045000000000073e+03
5.900000000000000383e-02 1.952645000000000075e-01 -3.710189999999999877e+00 3.419865000000000066e+01 2.105485000000000127e+03
6.000000000000000472e-02 1.952050000000000174e-01 -4.239959999999999951e+00 3.329905000000000115e+01 2.105074999999999818e+03
6.099999999999999867e-02 1.951704999999999968e-01 -4.468149999999999622e+00 3.311424999999999841e+01 2.104824999999999818e+03
6.199999999999999956e-02 1.951645000000000185e-01 -4.373005000000000031e+00 3.369290000000000163e+01 2.104760000000000218e+03
6.300000000000000044e-02 1.951869999999999994e-01 -3.945714999999999861e+00 3.505209999999999582e+01 2.104890000000000327e+03
6.400000000000000133e-02 1.952389999999999959e-01 -3.191314999999999902e+00 3.717419999999999902e+01 2.105215000000000146e+03
6.500000000000000222e-02 1.953205000000000080e-01 -2.128317999999999710e+00 4.000685000000000002e+01 2.105739999999999782e+03
6.600000000000000311e-02 1.954285000000000050e-01 -7.872599999999998488e-01 4.346699999999999875e+01 2.106440000000000055e+03
6.700000000000000400e-02 1.955600000000000116e-01 7.914550000000000196e-01 4.744740000000000180e+01 2.107305000000000291e+03
6.800000000000000488e-02 1.957115000000000105e-01 2.560239999999999849e+00 5.182464999999999833e+01 2.108304999999999836e+03
6.900000000000000577e-02 1.958789999999999976e-01 4.467184000000000488e+00 5.646739999999999782e+01 2.109414999999999964e+03
7.000000000000000666e-02 1.960564999999999947e-01 6.459014999999999951e+00 6.124515000000000242e+01 2.110599999999999909e+03
7.100000000000000755e-02 1.962399999999999978e-01 8.483885000000000787e+00 6.603549999999999898e+01 2.111824999999999818e+03
7.200000000000000844e-02 1.964245000000000019e-01 1.049399999999999977e+01 7.073139999999999361e+01 2.113074999999999818e+03
7.300000000000000933e-02 1.966070000000000040e-01 1.244794000000000089e+01 7.524609999999999843e+01 2.114304999999999836e+03
7.399999999999999634e-02 1.967835000000000001e-01 1.431250000000000000e+01 7.951759999999998740e+01 2.115500000000000000e+03
7.499999999999999722e-02 1.969525000000000026e-01 1.606354999999999933e+01 8.350985000000000014e+01 2.116649999999999636e+03
7.599999999999999811e-02 1.971120000000000094e-01 1.768665000000000020e+01 8.721324999999998795e+01 2.117739999999999782e+03
7.699999999999999900e-02 1.972619999999999929e-01 1.917634999999999934e+01 9.064135000000000275e+01 2.118760000000000218e+03
7.799999999999999989e-02 1.974024999999999808e-01 2.053529999999999944e+01 9.382695000000001073e+01 2.119730000000000018e+03
7.900000000000000078e-02 1.975345000000000018e-01 2.177240000000000109e+01 9.681569999999999254e+01 2.120639999999999873e+03
8.000000000000000167e-02 1.976600000000000024e-01 2.290070000000000050e+01 9.966015000000000157e+01 2.121510000000000218e+03
8.100000000000000255e-02 1.977809999999999846e-01 2.393560000000000088e+01 1.024134499999999974e+02 2.122335000000000036e+03
8.200000000000000344e-02 1.978985000000000050e-01 2.489260000000000161e+01 1.051230000000000047e+02 2.123149999999999636e+03
8.300000000000000433e-02 1.980139999999999956e-01 2.578580000000000183e+01 1.078264999999999958e+02 2.123949999999999818e+03
8.400000000000000522e-02 1.981295000000000139e-01 2.662669999999999959e+01 1.105485000000000042e+02 2.124739999999999782e+03
8.500000000000000611e-02 1.982444999999999902e-01 2.742345000000000255e+01 1.133004999999999995e+02 2.125539999999999964e+03
8.600000000000000699e-02 1.983610000000000095e-01 2.818030000000000257e+01 1.160815000000000055e+02 2.126335000000000036e+03
8.700000000000000788e-02 1.984779999999999878e-01 2.889780000000000015e+01 1.188774999999999977e+02 2.127144999999999982e+03
8.800000000000000877e-02 1.985945000000000071e-01 2.957280000000000086e+01 1.216629999999999967e+02 2.127945000000000164e+03
8.899999999999999578e-02 1.987095000000000111e-01 3.019934999999999903e+01 1.244069999999999965e+02 2.128739999999999782e+03
8.999999999999999667e-02 1.988229999999999997e-01 3.076890000000000214e+01 1.270715000000000003e+02 2.129519999999999982e+03
9.099999999999999756e-02 1.989329999999999987e-01 3.127100000000000080e+01 1.296170000000000186e+02 2.130274999999999636e+03
9.199999999999999845e-02 1.990379999999999927e-01 3.169440000000000168e+01 1.320024999999999977e+02 2.131000000000000000e+03
9.299999999999999933e-02 1.991360000000000074e-01 3.202740000000000009e+01 1.341899999999999977e+02 2.131680000000000291e+03
9.400000000000000022e-02 1.992260000000000142e-01 3.225869999999999749e+01 1.361419999999999959e+02 2.132304999999999836e+03
9.500000000000000111e-02 1.993070000000000119e-01 3.237825000000000131e+01 1.378294999999999959e+02 2.132869999999999891e+03
9.600000000000000200e-02 1.993769999999999987e-01 3.237760000000000105e+01 1.392274999999999920e+02 2.133360000000000127e+03
9.700000000000000289e-02 1.994360000000000022e-01 3.225090000000000146e+01 1.403185000000000002e+02 2.133769999999999982e+03
9.800000000000000377e-02 1.994829999999999937e-01 3.199524999999999864e+01 1.410935000000000059e+02 2.134105000000000018e+03
9.900000000000000466e-02 1.995175000000000143e-01 3.161095000000000255e+01 1.415525000000000091e+02 2.134355000000000018e+03
1.000000000000000056e-01 1.995394999999999808e-01 3.110179999999999723e+01 1.417060000000000173e+02 2.134515000000000327e+03
1.010000000000000064e-01 1.995500000000000052e-01 3.047514999999999930e+01 1.415709999999999980e+02 2.134599999999999909e+03
1.020000000000000073e-01 1.995489999999999764e-01 2.974164999999999992e+01 1.411734999999999900e+02 2.134599999999999909e+03
1.030000000000000082e-01 1.995375000000000065e-01 2.891479999999999961e+01 1.405480000000000018e+02 2.134534999999999854e+03
1.040000000000000091e-01 1.995180000000000009e-01 2.801035000000000252e+01 1.397309999999999945e+02 2.134404999999999745e+03
1.050000000000000100e-01 1.994900000000000007e-01 2.704565000000000197e+01 1.387649999999999864e+02 2.134220000000000255e+03
1.059999999999999970e-01 1.994555000000000078e-01 2.603904999999999959e+01 1.376904999999999859e+02 2.133989999999999782e+03
1.069999999999999979e-01 1.994174999999999975e-01 2.500885000000000247e+01 1.365520000000000209e+02 2.133735000000000127e+03
1.079999999999999988e-01 1.993759999999999977e-01 2.397269999999999968e+01 1.353859999999999957e+02 2.133454999999999927e+03
1.089999999999999997e-01 1.993330000000000102e-01 2.294715000000000060e+01 1.342289999999999850e+02 2.133159999999999854e+03
1.100000000000000006e-01 1.992899999999999949e-01 2.194669999999999987e+01 1.331109999999999900e+02 2.132864999999999782e+03
1.110000000000000014e-01 1.992479999999999807e-01 2.098349999999999937e+01 1.320550000000000068e+02 2.132574999999999818e+03
1.120000000000000023e-01 1.992074999999999818e-01 2.006700000000000017e+01 1.310780000000000030e+02 2.132300000000000182e+03
1.130000000000000032e-01 1.991700000000000137e-01 1.920360000000000156e+01 1.301899999999999977e+02 2.132039999999999964e+03
1.140000000000000041e-01 1.991355000000000208e-01 1.839665000000000106e+01 1.293915000000000077e+02 2.131795000000000073e+03
1.150000000000000050e-01 1.991034999999999888e-01 1.764630000000000010e+01 1.286790000000000020e+02 2.131574999999999818e+03
1.160000000000000059e-01 1.990744999999999876e-01 1.694989999999999952e+01 1.280400000000000205e+02 2.131375000000000000e+03
1.170000000000000068e-01 1.990480000000000027e-01 1.630194999999999794e+01 1.274579999999999984e+02 2.131184999999999945e+03
1.180000000000000077e-01 1.990230000000000055e-01 1.569474999999999909e+01 1.269104999999999990e+02 2.131010000000000218e+03
1.190000000000000085e-01 1.989989999999999815e-01 1.511899999999999977e+01 1.263730000000000047e+02 2.130840000000000146e+03
1.200000000000000094e-01 1.989754999999999996e-01 1.456405000000000172e+01 1.258179999999999978e+02 2.130675000000000182e+03
1.209999999999999964e-01 1.989509999999999890e-01 1.401895000000000024e+01 1.252189999999999941e+02 2.130505000000000109e+03
1.219999999999999973e-01 1.989245000000000041e-01 1.347279999999999944e+01 1.245504999999999995e+02 2.130319999999999709e+03
1.229999999999999982e-01 1.988955000000000028e-01 1.291564999999999941e+01 1.237905000000000086e+02 2.130119999999999891e+03
1.239999999999999991e-01 1.988624999999999976e-01 1.233895000000000053e+01 1.229205000000000041e+02 2.129889999999999873e+03
1.250000000000000000e-01 1.988254999999999884e-01 1.173605000000000054e+01 1.219300000000000068e+02 2.129639999999999873e+03
1.260000000000000009e-01 1.987840000000000162e-01 1.110266999999999982e+01 1.208110000000000070e+02 2.129359999999999673e+03
1.270000000000000018e-01 1.987379999999999980e-01 1.043731999999999971e+01 1.195660000000000025e+02 2.129039999999999964e+03
1.280000000000000027e-01 1.986875000000000169e-01 9.741094999999999615e+00 1.182034999999999911e+02 2.128699999999999818e+03
1.290000000000000036e-01 1.986320000000000030e-01 9.017955000000000609e+00 1.167374999999999972e+02 2.128319999999999709e+03
1.300000000000000044e-01 1.985735000000000139e-01 8.274369999999999337e+00 1.151899999999999977e+02 2.127920000000000073e+03
1.310000000000000053e-01 1.985109999999999930e-01 7.519045000000000201e+00 1.135859999999999985e+02 2.127494999999999891e+03
1.320000000000000062e-01 1.984474999999999989e-01 6.762434999999999974e+00 1.119565000000000055e+02 2.127059999999999945e+03
1.330000000000000071e-01 1.983820000000000028e-01 6.016140000000000043e+00 1.103325000000000102e+02 2.126619999999999891e+03
1.340000000000000080e-01 1.983179999999999943e-01 5.292360000000000397e+00 1.087464999999999975e+02 2.126175000000000182e+03
1.350000000000000089e-01 1.982545000000000002e-01 4.603189999999999671e+00 1.072289999999999992e+02 2.125744999999999891e+03
1.360000000000000098e-01 1.981939999999999813e-01 3.960015000000000285e+00 1.058089999999999975e+02 2.125329999999999927e+03
1.370000000000000107e-01 1.981374999999999942e-01 3.372974999999999834e+00 1.045109999999999957e+02 2.124935000000000400e+03
1.380000000000000115e-01 1.980850000000000111e-01 2.850510000000000321e+00 1.033529999999999944e+02 2.124574999999999818e+03
1.390000000000000124e-01 1.980385000000000062e-01 2.398979999999999890e+00 1.023495000000000061e+02 2.124255000000000109e+03
1.400000000000000133e-01 1.979974999999999929e-01 2.022485000000000088e+00 1.015078000000000031e+02 2.123965000000000146e+03
1.410000000000000142e-01 1.979619999999999991e-01 1.722779500000000130e+00 1.008290000000000077e+02 2.123724999999999909e+03
1.420000000000000151e-01 1.979334999999999845e-01 1.499291000000000151e+00 1.003091500000000025e+02 2.123519999999999982e+03
1.430000000000000160e-01 1.979104999999999892e-01 1.349290499999999948e+00 9.993899999999999295e+01 2.123355000000000018e+03
1.440000000000000169e-01 1.978935000000000000e-01 1.268120499999999984e+00 9.970554999999998813e+01 2.123234999999999673e+03
1.450000000000000178e-01 1.978820000000000023e-01 1.249494000000000105e+00 9.959154999999999802e+01 2.123149999999999636e+03
1.459999999999999909e-01 1.978745000000000087e-01 1.285819999999999963e+00 9.957845000000000368e+01 2.123095000000000255e+03
1.469999999999999918e-01 1.978715000000000057e-01 1.368589999999999973e+00 9.964584999999999582e+01 2.123064999999999600e+03
1.479999999999999927e-01 1.978714999999999780e-01 1.488734999999999919e+00 9.977285000000000537e+01 2.123064999999999600e+03
1.489999999999999936e-01 1.978734999999999800e-01 1.636965000000000003e+00 9.993909999999999627e+01 2.123070000000000164e+03
1.499999999999999944e-01 1.978779999999999983e-01 1.804104999999999848e+00 1.001254500000000007e+02 2.123095000000000255e+03
1.509999999999999953e-01 1.978824999999999890e-01 1.981384999999999952e+00 1.003132500000000107e+02 2.123130000000000109e+03
1.519999999999999962e-01 1.978884999999999950e-01 2.160715000000000163e+00 1.004878999999999962e+02 2.123164999999999964e+03
1.529999999999999971e-01 1.978935000000000000e-01 2.334880000000000067e+00 1.006354000000000042e+02 2.123199999999999818e+03
1.539999999999999980e-01 1.978975000000000040e-01 2.497724999999999973e+00 1.007454999999999927e+02 2.123224999999999909e+03
1.549999999999999989e-01 1.979004999999999792e-01 2.644260000000000055e+00 1.008110000000000070e+02 2.123244999999999891e+03
1.559999999999999998e-01 1.979019999999999946e-01 2.770739999999999981e+00 1.008259999999999934e+02 2.123260000000000218e+03
1.570000000000000007e-01 1.979019999999999946e-01 2.874695000000000000e+00 1.007895000000000039e+02 2.123255000000000109e+03
1.580000000000000016e-01 1.979000000000000203e-01 2.954889999999999795e+00 1.007005000000000052e+02 2.123244999999999891e+03
1.590000000000000024e-01 1.978960000000000163e-01 3.011235000000000106e+00 1.005635000000000048e+02 2.123220000000000255e+03
