# t [s], A [cm^2], U [cm/s], P [cPa], c [cm/s]
1.000000000000000021e-03 4.806809999999999694e-01 2.576399999999999524e-03 9.653719999999999857e+01 1.620045000000000073e+03
2.000000000000000042e-03 4.806785000000000085e-01 1.030680000000000138e-02 9.651949999999999363e+01 1.620039999999999964e+03
3.000000000000000062e-03 4.807325000000000070e-01 1.405397000000000174e-01 9.665970000000000084e+01 1.620074999999999818e+03
4.000000000000000083e-03 4.807565000000000310e-01 2.115365000000000162e-01 9.674899999999999523e+01 1.620099999999999909e+03
5.000000000000000104e-03 4.807200000000000362e-01 1.396310000000000051e-01 9.661374999999999602e+01 1.620075000000000045e+03
6.000000000000000125e-03 4.806679999999999842e-01 2.143549999999999622e-02 9.632679999999999154e+01 1.620009999999999991e+03
7.000000000000000146e-03 4.806070000000000064e-01 -1.285600000000000076e-01 9.592125000000000057e+01 1.619925000000000182e+03
8.000000000000000167e-03 4.804969999999999519e-01 -4.066500000000000670e-01 9.527389999999999759e+01 1.619775000000000091e+03
9.000000000000001055e-03 4.803285000000000471e-01 -8.372049999999999770e-01 9.430619999999998981e+01 1.619554999999999836e+03
1.000000000000000194e-02 4.800935000000000619e-01 -1.423505000000000020e+00 9.296595000000000653e+01 1.619240000000000009e+03
1.099999999999999936e-02 4.797780000000000378e-01 -2.182385000000000019e+00 9.118495000000000061e+01 1.618815000000000055e+03
1.200000000000000025e-02 4.793894999999999684e-01 -3.069399999999999906e+00 8.897065000000000623e+01 1.618275000000000091e+03
1.300000000000000114e-02 4.789749999999999841e-01 -3.939344999999999875e+00 8.648550000000000182e+01 1.617655000000000200e+03
1.400000000000000203e-02 4.785970000000000502e-01 -4.605367000000000210e+00 8.400209999999999866e+01 1.617000000000000000e+03
1.499999999999999944e-02 4.782974999999999866e-01 -4.931137999999999799e+00 8.177869999999998640e+01 1.616384999999999991e+03
1.600000000000000033e-02 4.780829999999999802e-01 -4.881705000000000183e+00 7.995754999999999768e+01 1.615840000000000146e+03
1.700000000000000122e-02 4.779304999999999803e-01 -4.518349999999999866e+00 7.853294999999999959e+01 1.615375000000000000e+03
1.800000000000000211e-02 4.777974999999999861e-01 -3.958605000000000373e+00 7.738040000000000873e+01 1.614965000000000146e+03
1.900000000000000300e-02 4.776465000000000294e-01 -3.325784000000000074e+00 7.632130000000000791e+01 1.614590000000000146e+03
2.000000000000000042e-02 4.774534999999999751e-01 -2.706447449999999755e+00 7.519474999999999909e+01 1.614200000000000045e+03
2.100000000000000130e-02 4.772155000000000147e-01 -2.129764999999999908e+00 7.390975000000000250e+01 1.613789999999999964e+03
2.200000000000000219e-02 4.769459999999999811e-01 -1.574874999999999803e+00 7.245980000000000132e+01 1.613345000000000027e+03
2.299999999999999961e-02 4.766644999999999910e-01 -9.993799999999997130e-01 7.089820000000000277e+01 1.612875000000000000e+03
2.400000000000000050e-02 4.763864999999999905e-01 -3.728400000000000603e-01 6.929265000000000896e+01 1.612384999999999991e+03
2.500000000000000139e-02 4.761140000000000372e-01 2.998250000000002302e-01 6.768184999999999718e+01 1.611889999999999873e+03
2.600000000000000228e-02 4.758350000000000080e-01 9.718400000000002592e-01 6.604999999999999716e+01 1.611384999999999991e+03
2.700000000000000316e-02 4.755300000000000082e-01 1.563830000000000275e+00 6.432509999999999195e+01 1.610865000000000009e+03
2.800000000000000058e-02 4.751735000000000264e-01 1.983589999999999964e+00 6.239714999999999634e+01 1.610289999999999964e+03
2.900000000000000147e-02 4.747439999999999438e-01 2.149994999999999656e+00 6.015064999999999884e+01 1.609644999999999982e+03
3.000000000000000236e-02 4.742315000000000280e-01 2.014655000000000307e+00 5.750019999999999953e+01 1.608910000000000082e+03
3.099999999999999978e-02 4.736399999999999499e-01 1.575430000000000330e+00 5.442184999999999917e+01 1.608074999999999818e+03
3.200000000000000067e-02 4.729885000000000339e-01 8.786500000000003752e-01 5.096775000000000233e+01 1.607144999999999982e+03
3.300000000000000155e-02 4.723070000000000324e-01 9.300000000000530065e-03 4.726384999999999792e+01 1.606150000000000091e+03
3.400000000000000244e-02 4.716330000000000244e-01 -9.261749999999997485e-01 4.349025000000000318e+01 1.605119999999999891e+03
3.500000000000000333e-02 4.710024999999999906e-01 -1.818509999999999849e+00 3.985255000000000081e+01 1.604115000000000009e+03
3.600000000000000422e-02 4.704475000000000184e-01 -2.571590000000000487e+00 3.655235000000000412e+01 1.603174999999999955e+03
3.700000000000000511e-02 4.699924999999999797e-01 -3.112020000000000231e+00 3.376304999999999978e+01 1.602344999999999800e+03
3.799999999999999906e-02 4.696529999999999871e-01 -3.392170000000000130e+00 3.161434999999999818e+01 1.601664999999999964e+03
3.899999999999999994e-02 4.694359999999999644e-01 -3.388190999999999953e+00 3.018630000000000280e+01 1.601164999999999964e+03
4.000000000000000083e-02 4.693429999999999547e-01 -3.094434999999999825e+00 2.951229999999999976e+01 1.600855000000000018e+03
4.100000000000000172e-02 4.693705000000000238e-01 -2.516869999999999941e+00 2.958749999999999858e+01 1.600750000000000000e+03
4.200000000000000261e-02 4.695110000000000117e-01 -1.667219499999999854e+00 3.037969999999999970e+01 1.600840000000000146e+03
4.300000000000000350e-02 4.697580000000000089e-01 -5.592350000000001486e-01 3.184029999999999916e+01 1.601115000000000009e+03
4.400000000000000439e-02 4.701024999999999787e-01 7.924699999999997857e-01 3.391195000000000448e+01 1.601559999999999945e+03
4.499999999999999833e-02 4.705359999999999543e-01 2.371439999999999770e+00 3.653275000000000006e+01 1.602175000000000182e+03
4.599999999999999922e-02 4.710484999999999811e-01 4.157220000000000582e+00 3.963739999999999952e+01 1.602934999999999945e+03
4.700000000000000011e-02 4.716290000000000204e-01 6.123269999999999769e+00 4.315595000000000425e+01 1.603819999999999936e+03
4.800000000000000100e-02 4.722644999999999760e-01 8.235994999999999067e+00 4.701324999999999932e+01 1.604809999999999945e+03
4.900000000000000189e-02 4.729404999999999859e-01 1.045530300000000068e+01 5.112849999999999540e+01 1.605889999999999873e+03
5.000000000000000278e-02 4.736429999999999807e-01 1.273626000000000147e+01 5.541705000000000325e+01 1.607034999999999854e+03
5.100000000000000366e-02 4.743570000000000286e-01 1.503237999999999985e+01 5.979384999999999906e+01 1.608219999999999800e+03
5.200000000000000455e-02 4.750685000000000047e-01 1.729881999999999920e+01 6.417770000000000152e+01 1.609429999999999836e+03
5.300000000000000544e-02 4.757669999999999400e-01 1.949569999999999936e+01 6.849639999999999418e+01 1.610634999999999991e+03
5.399999999999999939e-02 4.764439999999999786e-01 2.159024999999999750e+01 7.269069999999999254e+01 1.611829999999999927e+03
5.500000000000000028e-02 4.770929999999999893e-01 2.355874999999999986e+01 7.671760000000000446e+01 1.612994999999999891e+03
5.600000000000000117e-02 4.777109999999999967e-01 2.538685000000000258e+01 8.055209999999999582e+01 1.614119999999999891e+03
5.700000000000000205e-02 4.782990000000000297e-01 2.706910000000000238e+01 8.418684999999999263e+01 1.615195000000000164e+03
5.800000000000000294e-02 4.788599999999999524e-01 2.860800000000000054e+01 8.763075000000000614e+01 1.616235000000000127e+03
5.900000000000000383e-02 4.793969999999999620e-01 3.001250000000000284e+01 9.090620000000001255e+01 1.617230000000000018e+03
6.000000000000000472e-02 4.799174999999999969e-01 3.129654999999999632e+01 9.404619999999999891e+01 1.618184999999999945e+03
6.099999999999999867e-02 4.804275000000000073e-01 3.247710000000000008e+01 9.709074999999999989e+01 1.619115000000000009e+03
6.199999999999999956e-02 4.809329999999999994e-01 3.357325000000000159e+01 1.000813500000000005e+02 1.620029999999999973e+03
6.300000000000000044e-02 4.814420000000000366e-01 3.460419999999999874e+01 1.030617000000000019e+02 1.620940000000000055e+03
6.400000000000000133e-02 4.819594999999999851e-01 3.558820000000000050e+01 1.060696499999999958e+02 1.621855000000000018e+03
6.500000000000000222e-02 4.824899999999999745e-01 3.654139999999999588e+01 1.091375000000000028e+02 1.622775000000000091e+03
6.600000000000000311e-02 4.830375000000000085e-01 3.747639999999999816e+01 1.122905000000000086e+02 1.623714999999999918e+03
6.700000000000000400e-02 4.836024999999999907e-01 3.840169999999999817e+01 1.155399999999999920e+02 1.624679999999999836e+03
6.800000000000000488e-02 4.841845000000000176e-01 3.932065000000000055e+01 1.188884999999999934e+02 1.625670000000000073e+03
6.900000000000000577e-02 4.847814999999999763e-01 4.023160000000000025e+01 1.223249999999999886e+02 1.626690000000000055e+03
7.000000000000000666e-02 4.853879999999999861e-01 4.112774999999999892e+01 1.258269999999999982e+02 1.627719999999999800e+03
7.100000000000000755e-02 4.859990000000000143e-01 4.199774999999999636e+01 1.293615000000000066e+02 1.628764999999999873e+03
7.200000000000000844e-02 4.866059999999999830e-01 4.282694999999999652e+01 1.328880000000000052e+02 1.629815000000000055e+03
7.300000000000000933e-02 4.872024999999999828e-01 4.359799999999999898e+01 1.363600000000000136e+02 1.630845000000000027e+03
7.399999999999999634e-02 4.877794999999999770e-01 4.429285000000000139e+01 1.397284999999999968e+02 1.631860000000000127e+03
7.499999999999999722e-02 4.883290000000000131e-01 4.489350000000000307e+01 1.429449999999999932e+02 1.632835000000000036e+03
7.599999999999999811e-02 4.888434999999999864e-01 4.538349999999999795e+01 1.459644999999999868e+02 1.633759999999999991e+03
7.699999999999999900e-02 4.893174999999999608e-01 4.574884999999999735e+01 1.487475000000000023e+02 1.634630000000000109e+03
7.799999999999999989e-02 4.897464999999999735e-01 4.597889999999999588e+01 1.512630000000000052e+02 1.635425000000000182e+03
7.900000000000000078e-02 4.901265000000000205e-01 4.606690000000000396e+01 1.534875000000000114e+02 1.636144999999999982e+03
8.000000000000000167e-02 4.904565000000000174e-01 4.601010000000000133e+01 1.554105000000000132e+02 1.636779999999999973e+03
8.100000000000000255e-02 4.907369999999999788e-01 4.581015000000000015e+01 1.570279999999999916e+02 1.637335000000000036e+03
8.200000000000000344e-02 4.909675000000000011e-01 4.547279999999999944e+01 1.583474999999999966e+02 1.637799999999999955e+03
8.300000000000000433e-02 4.911535000000000206e-01 4.500750000000000028e+01 1.593855000000000075e+02 1.638184999999999945e+03
8.400000000000000522e-02 4.912969999999999837e-01 4.442710000000000292e+01 1.601639999999999873e+02 1.638494999999999891e+03
8.500000000000000611e-02 4.914045000000000218e-01 4.374729999999999563e+01 1.607150000000000034e+02 1.638734999999999900e+03
8.600000000000000699e-02 4.914800000000000280e-01 4.298559999999999803e+01 1.610704999999999814e+02 1.638909999999999854e+03
8.700000000000000788e-02 4.915309999999999957e-01 4.216100000000000136e+01 1.612685000000000173e+02 1.639029999999999973e+03
8.800000000000000877e-02 4.915634999999999866e-01 4.129290000000000305e+01 1.613469999999999800e+02 1.639115000000000009e+03
8.899999999999999578e-02 4.915825000000000333e-01 4.040014999999999645e+01 1.613419999999999845e+02 1.639164999999999964e+03
8.999999999999999667e-02 4.915939999999999754e-01 3.950079999999999814e+01 1.612889999999999873e+02 1.639190000000000055e+03
9.099999999999999756e-02 4.916024999999999978e-01 3.861074999999999591e+01 1.612185000000000059e+02 1.639200000000000045e+03
9.199999999999999845e-02 4.916125000000000078e-01 3.774370000000000402e+01 1.611555000000000177e+02 1.639210000000000036e+03
9.299999999999999933e-02 4.916269999999999807e-01 3.691015000000000157e+01 1.611204999999999927e+02 1.639214999999999918e+03
9.400000000000000022e-02 4.916470000000000007e-01 3.611749999999999972e+01 1.611260000000000048e+02 1.639230000000000018e+03
9.500000000000000111e-02 4.916734999999999856e-01 3.536975000000000335e+01 1.611795000000000186e+02 1.639250000000000000e+03
9.600000000000000200e-02 4.917065000000000463e-01 3.466754999999999853e+01 1.612804999999999893e+02 1.639279999999999973e+03
9.700000000000000289e-02 4.917444999999999733e-01 3.400854999999999961e+01 1.614225000000000136e+02 1.639315000000000055e+03
9.800000000000000377e-02 4.917854999999999865e-01 3.338755000000000450e+01 1.615945000000000107e+02 1.639360000000000127e+03
9.900000000000000466e-02 4.918270000000000142e-01 3.279710000000000036e+01 1.617805000000000177e+02 1.639409999999999854e+03
1.000000000000000056e-01 4.918649999999999967e-01 3.222834999999999894e+01 1.619615000000000009e+02 1.639460000000000036e+03
1.010000000000000064e-01 4.918969999999999732e-01 3.167109999999999914e+01 1.621175000000000068e+02 1.639505000000000109e+03
1.020000000000000073e-01 4.919194999999999540e-01 3.111500000000000199e+01 1.622274999999999920e+02 1.639534999999999854e+03
1.030000000000000082e-01 4.919289999999999496e-01 3.054984999999999928e+01 1.622704999999999984e+02 1.639549999999999955e+03
1.040000000000000091e-01 4.919225000000000403e-01 2.996625000000000227e+01 1.622289999999999850e+02 1.639545000000000073e+03
1.050000000000000100e-01 4.918985000000000163e-01 2.935625000000000284e+01 1.620879999999999939e+02 1.639514999999999873e+03
1.059999999999999970e-01 4.918550000000000422e-01 2.871374999999999744e+01 1.618360000000000127e+02 1.639454999999999927e+03
1.069999999999999979e-01 4.917915000000000481e-01 2.803460000000000107e+01 1.614660000000000082e+02 1.639360000000000127e+03
1.079999999999999988e-01 4.917075000000000196e-01 2.731719999999999970e+01 1.609770000000000039e+02 1.639240000000000009e+03
1.089999999999999997e-01 4.916044999999999998e-01 2.656239999999999668e+01 1.603715000000000259e+02 1.639079999999999927e+03
1.100000000000000006e-01 4.914830000000000032e-01 2.577340000000000231e+01 1.596574999999999989e+02 1.638889999999999873e+03
1.110000000000000014e-01 4.913469999999999782e-01 2.495579999999999998e+01 1.588485000000000014e+02 1.638679999999999836e+03
1.120000000000000023e-01 4.911980000000000235e-01 2.411724999999999852e+01 1.579610000000000127e+02 1.638440000000000055e+03
1.130000000000000032e-01 4.910404999999999909e-01 2.326705000000000112e+01 1.570144999999999982e+02 1.638180000000000064e+03
1.140000000000000041e-01 4.908780000000000365e-01 2.241590000000000060e+01 1.560319999999999823e+02 1.637905000000000200e+03
1.150000000000000050e-01 4.907139999999999835e-01 2.157525000000000048e+01 1.550364999999999895e+02 1.637625000000000000e+03
1.160000000000000059e-01 4.905530000000000168e-01 2.075685000000000002e+01 1.540525000000000091e+02 1.637349999999999909e+03
1.170000000000000068e-01 4.903990000000000293e-01 1.997209999999999752e+01 1.531034999999999968e+02 1.637070000000000164e+03
1.180000000000000077e-01 4.902545000000000375e-01 1.923185000000000144e+01 1.522115000000000009e+02 1.636805000000000064e+03
1.190000000000000085e-01 4.901240000000000041e-01 1.854554999999999865e+01 1.513940000000000055e+02 1.636559999999999945e+03
1.200000000000000094e-01 4.900084999999999580e-01 1.792105000000000103e+01 1.506680000000000064e+02 1.636335000000000036e+03
1.209999999999999964e-01 4.899109999999999854e-01 1.736435000000000173e+01 1.500444999999999993e+02 1.636134999999999991e+03
1.219999999999999973e-01 4.898310000000000164e-01 1.687924999999999898e+01 1.495314999999999941e+02 1.635970000000000027e+03
1.229999999999999982e-01 4.897694999999999688e-01 1.646734999999999971e+01 1.491310000000000002e+02 1.635825000000000045e+03
1.239999999999999991e-01 4.897265000000000090e-01 1.612794999999999845e+01 1.488425000000000011e+02 1.635714999999999918e+03
1.250000000000000000e-01 4.897000000000000242e-01 1.585849999999999937e+01 1.486599999999999966e+02 1.635634999999999991e+03
1.260000000000000009e-01 4.896890000000000409e-01 1.565445000000000064e+01 1.485749999999999886e+02 1.635579999999999927e+03
1.270000000000000018e-01 4.896909999999999874e-01 1.550969999999999871e+01 1.485749999999999886e+02 1.635550000000000182e+03
1.280000000000000027e-01 4.897044999999999870e-01 1.541710000000000136e+01 1.486474999999999795e+02 1.635549999999999955e+03
1.290000000000000036e-01 4.897255000000000358e-01 1.536854999999999905e+01 1.487764999999999986e+02 1.635559999999999945e+03
1.300000000000000044e-01 4.897529999999999939e-01 1.535569999999999879e+01 1.489464999999999861e+02 1.635585000000000036e+03
1.310000000000000053e-01 4.897835000000000383e-01 1.536989999999999945e+01 1.491419999999999959e+02 1.635619999999999891e+03
1.320000000000000062e-01 4.898155000000000148e-01 1.540310000000000024e+01 1.493495000000000061e+02 1.635664999999999964e+03
1.330000000000000071e-01 4.898464999999999625e-01 1.544744999999999990e+01 1.495550000000000068e+02 1.635714999999999918e+03
1.340000000000000080e-01 4.898749999999999494e-01 1.549619999999999997e+01 1.497489999999999952e+02 1.635759999999999991e+03
1.350000000000000089e-01 4.898995000000000433e-01 1.554344999999999999e+01 1.499219999999999970e+02 1.635805000000000064e+03
1.360000000000000098e-01 4.899200000000000221e-01 1.558435000000000059e+01 1.500685000000000002e+02 1.635840000000000146e+03
1.370000000000000107e-01 4.899350000000000094e-01 1.561509999999999998e+01 1.501835000000000093e+02 1.635875000000000000e+03
1.380000000000000115e-01 4.899449999999999639e-01 1.563325000000000031e+01 1.502660000000000196e+02 1.635900000000000091e+03
1.390000000000000124e-01 4.899494999999999822e-01 1.563724999999999810e+01 1.503165000000000191e+02 1.635914999999999964e+03
1.400000000000000133e-01 4.899494999999999822e-01 1.562674999999999947e+01 1.503369999999999891e+02 1.635920000000000073e+03
1.410000000000000142e-01 4.899459999999999926e-01 1.560214999999999996e+01 1.503315000000000055e+02 1.635924999999999955e+03
1.420000000000000151e-01 4.899390000000000134e-01 1.556465000000000032e+01 1.503050000000000068e+02 1.635924999999999955e+03
1.430000000000000160e-01 4.899299999999999766e-01 1.551610000000000156e+01 1.502624999999999886e+02 1.635914999999999964e+03
1.440000000000000169e-01 4.899204999999999810e-01 1.545889999999999986e+01 1.502099999999999795e+02 1.635904999999999973e+03
1.450000000000000178e-01 4.899104999999999710e-01 1.539569999999999972e+01 1.501550000000000011e+02 1.635889999999999873e+03
1.459999999999999909e-01 4.899014999999999898e-01 1.532914999999999850e+01 1.501030000000000086e+02 1.635875000000000000e+03
1.469999999999999918e-01 4.898945000000000105e-01 1.526205000000000034e+01 1.500589999999999975e+02 1.635865000000000009e+03
1.479999999999999927e-01 4.898894999999999778e-01 1.519699999999999918e+01 1.500274999999999750e+02 1.635859999999999900e+03
1.489999999999999936e-01 4.898879999999999901e-01 1.513630000000000031e+01 1.500134999999999934e+02 1.635860000000000127e+03
1.499999999999999944e-01 4.898899999999999921e-01 1.508189999999999920e+01 1.500194999999999936e+02 1.635860000000000127e+03
1.509999999999999953e-01 4.898954999999999838e-01 1.503514999999999979e+01 1.500464999999999804e+02 1.635865000000000009e+03
1.519999999999999962e-01 4.899054999999999938e-01 1.499709999999999965e+01 1.500960000000000036e+02 1.635875000000000000e+03
1.529999999999999971e-01 4.899185000000000345e-01 1.496804999999999986e+01 1.501675000000000182e+02 1.635894999999999982e+03
1.539999999999999980e-01 4.899350000000000094e-01 1.494800000000000040e+01 1.502590000000000146e+02 1.635920000000000073e+03
1.549999999999999989e-01 4.899544999999999595e-01 1.493645000000000067e+01 1.503684999999999832e+02 1.635944999999999936e+03
1.559999999999999998e-01 4.899765000000000370e-01 1.493244999999999933e+01 1.504925000000000068e+02 1.635985000000000127e+03
1.570000000000000007e-01 4.899995000000000323e-01 1.493484999999999907e+01 1.506279999999999859e+02 1.636019999999999982e+03
1.580000000000000016e-01 4.900239999999999596e-01 1.494214999999999982e+01 1.507715000000000032e+02 1.636054999999999836e+03
1.590000000000000024e-01 4.900489999999999569e-01 1.495284999999999975e+01 1.509189999999999827e+02 1.636095000000000027e+03
