# t [s], A [cm^2], U [cm/s], P [cPa], c [cm/s]
1.000000000000000021e-03 5.781490000000000240e-01 4.761599999999997779e-03 9.203574999999999307e+01 1.592650000000000091e+03
2.000000000000000042e-03 5.781389999999999585e-01 -3.655824999999999700e-03 9.200889999999999702e+01 1.592644999999999982e+03
3.000000000000000062e-03 5.781815000000000149e-01 7.717989999999999573e-02 9.209125000000000227e+01 1.592664999999999964e+03
4.000000000000000083e-03 5.782289999999999930e-01 1.765938499999999967e-01 9.221214999999999407e+01 1.592700000000000045e+03
5.000000000000000104e-03 5.782159999999999522e-01 1.721465000000000078e-01 9.218930000000000291e+01 1.592694999999999936e+03
6.000000000000000125e-03 5.781585000000000196e-01 8.120299999999999740e-02 9.200215000000000032e+01 1.592654999999999973e+03
7.000000000000000146e-03 5.781080000000000663e-01 -3.604500000000010473e-03 9.175915000000000532e+01 1.592599999999999909e+03
8.000000000000000167e-03 5.780414999999999859e-01 -1.279724999999999890e-01 9.142689999999998918e+01 1.592514999999999873e+03
9.000000000000001055e-03 5.779269999999999685e-01 -3.596249999999999725e-01 9.091294999999999504e+01 1.592400000000000091e+03
1.000000000000000194e-02 5.777605000000000102e-01 -7.045850000000001279e-01 9.017764999999999986e+01 1.592224999999999909e+03
1.099999999999999936e-02 5.775314999999999754e-01 -1.175590000000000135e+00 8.917284999999999684e+01 1.591994999999999891e+03
1.200000000000000025e-02 5.772239999999999593e-01 -1.790715000000000057e+00 8.783844999999999459e+01 1.591674999999999955e+03
1.300000000000000114e-02 5.768495000000000150e-01 -2.509840000000000071e+00 8.618344999999999345e+01 1.591275000000000091e+03
1.400000000000000203e-02 5.764555000000000096e-01 -3.216124999999999901e+00 8.433089999999999975e+01 1.590809999999999945e+03
1.499999999999999944e-02 5.760989999999999167e-01 -3.767420999999999687e+00 8.247175000000000011e+01 1.590329999999999927e+03
1.600000000000000033e-02 5.758170000000000233e-01 -4.062629249999999637e+00 8.077729999999999677e+01 1.589865000000000009e+03
1.700000000000000122e-02 5.756110000000000948e-01 -4.074733999999999412e+00 7.933529999999998950e+01 1.589449999999999818e+03
1.800000000000000211e-02 5.754559999999999675e-01 -3.844829999999999970e+00 7.813544999999999163e+01 1.589079999999999927e+03
1.900000000000000300e-02 5.753135000000000332e-01 -3.453732999999999720e+00 7.709260000000000446e+01 1.588740000000000009e+03
2.000000000000000042e-02 5.751479999999999926e-01 -2.987875500000000351e+00 7.608914999999998940e+01 1.588409999999999854e+03
2.100000000000000130e-02 5.749374999999999902e-01 -2.510714000000000112e+00 7.502025000000000432e+01 1.588065000000000055e+03
2.200000000000000219e-02 5.746780000000000221e-01 -2.047039999999999971e+00 7.382689999999999486e+01 1.587700000000000045e+03
2.299999999999999961e-02 5.743829999999999769e-01 -1.583974999999999911e+00 7.250849999999999795e+01 1.587299999999999955e+03
2.400000000000000050e-02 5.740760000000000307e-01 -1.086780000000000079e+00 7.111064999999999259e+01 1.586884999999999991e+03
2.500000000000000139e-02 5.737760000000000637e-01 -5.215849999999997433e-01 6.969764999999999588e+01 1.586460000000000036e+03
2.600000000000000228e-02 5.734934999999999894e-01 1.247700000000002696e-01 6.832120000000000459e+01 1.586039999999999964e+03
2.700000000000000316e-02 5.732255000000000544e-01 8.341749999999998888e-01 6.699755000000000393e+01 1.585634999999999991e+03
2.800000000000000058e-02 5.729564999999999797e-01 1.557744999999999935e+00 6.569830000000000325e+01 1.585230000000000018e+03
2.900000000000000147e-02 5.726615000000000455e-01 2.225264999999999826e+00 6.435575000000000045e+01 1.584815000000000055e+03
3.000000000000000236e-02 5.723169999999999646e-01 2.760475000000000012e+00 6.287939999999999685e+01 1.584375000000000000e+03
3.099999999999999978e-02 5.719014999999999516e-01 3.098314999999999930e+00 6.117974999999999852e+01 1.583885000000000218e+03
3.200000000000000067e-02 5.714074999999999571e-01 3.200114999999999821e+00 5.919339999999999691e+01 1.583335000000000036e+03
3.300000000000000155e-02 5.708394999999999442e-01 3.062899999999999956e+00 5.690290000000000248e+01 1.582715000000000146e+03
3.400000000000000244e-02 5.702169999999999739e-01 2.719625000000000181e+00 5.434555000000000291e+01 1.582025000000000091e+03
3.500000000000000333e-02 5.695689999999999920e-01 2.231479999999999908e+00 5.160930000000000462e+01 1.581289999999999964e+03
3.600000000000000422e-02 5.689300000000000468e-01 1.674180000000000224e+00 4.881730000000000302e+01 1.580539999999999964e+03
3.700000000000000511e-02 5.683319999999999483e-01 1.124279999999999724e+00 4.610770000000000124e+01 1.579789999999999964e+03
3.799999999999999906e-02 5.678014999999999590e-01 6.477649999999997021e-01 4.361359999999999815e+01 1.579095000000000027e+03
3.899999999999999994e-02 5.673580000000000290e-01 2.936650000000002869e-01 4.144780000000000086e+01 1.578470000000000027e+03
4.000000000000000083e-02 5.670124999999999194e-01 9.245999999999998664e-02 3.969365000000000521e+01 1.577934999999999945e+03
4.100000000000000172e-02 5.667685000000000084e-01 5.826999999999982194e-02 3.840260000000000673e+01 1.577519999999999982e+03
4.200000000000000261e-02 5.666255000000000042e-01 1.933499999999999108e-01 3.759685000000000343e+01 1.577235000000000127e+03
4.300000000000000350e-02 5.665805000000000424e-01 4.935455000000000259e-01 3.727590000000000003e+01 1.577069999999999936e+03
4.400000000000000439e-02 5.666274999999999507e-01 9.531895000000000229e-01 3.742464999999999975e+01 1.577034999999999854e+03
4.499999999999999833e-02 5.667634999999999756e-01 1.568451500000000109e+00 3.802089999999999748e+01 1.577119999999999891e+03
4.599999999999999922e-02 5.669839999999999325e-01 2.338601500000000222e+00 3.904124999999999801e+01 1.577329999999999927e+03
4.700000000000000011e-02 5.672869999999999857e-01 3.265169499999999836e+00 4.046335000000000548e+01 1.577655000000000200e+03
4.800000000000000100e-02 5.676695000000000491e-01 4.349626500000000284e+00 4.226624999999999943e+01 1.578090000000000146e+03
4.900000000000000189e-02 5.681285000000000363e-01 5.590490499999999585e+00 4.442770000000000152e+01 1.578625000000000000e+03
5.000000000000000278e-02 5.686569999999999681e-01 6.980894949999999710e+00 4.692164999999999964e+01 1.579255000000000109e+03
5.100000000000000366e-02 5.692479999999999762e-01 8.507044000000000494e+00 4.971550000000000580e+01 1.579974999999999909e+03
5.200000000000000455e-02 5.698925000000000241e-01 1.014822000000000024e+01 5.276899999999999835e+01 1.580769999999999982e+03
5.300000000000000544e-02 5.705774999999999597e-01 1.187785500000000027e+01 5.603459999999999752e+01 1.581634999999999991e+03
5.399999999999999939e-02 5.712920000000000220e-01 1.366575000000000095e+01 5.945940000000000225e+01 1.582549999999999955e+03
5.500000000000000028e-02 5.720224999999999893e-01 1.548023000000000060e+01 6.298825000000000074e+01 1.583509999999999991e+03
5.600000000000000117e-02 5.727579999999999893e-01 1.729103999999999886e+01 6.656719999999999970e+01 1.584490000000000009e+03
5.700000000000000205e-02 5.734894999999999854e-01 1.907130000000000081e+01 7.014730000000000132e+01 1.585480000000000018e+03
5.800000000000000294e-02 5.742095000000000393e-01 2.079885000000000161e+01 7.368720000000000425e+01 1.586474999999999909e+03
5.900000000000000383e-02 5.749119999999999786e-01 2.245730000000000004e+01 7.715540000000000020e+01 1.587460000000000036e+03
6.000000000000000472e-02 5.755955000000000377e-01 2.403594999999999970e+01 8.053090000000000259e+01 1.588424999999999955e+03
6.099999999999999867e-02 5.762590000000000767e-01 2.552935000000000088e+01 8.380320000000000391e+01 1.589369999999999891e+03
6.199999999999999956e-02 5.769035000000000135e-01 2.693639999999999901e+01 8.697150000000000603e+01 1.590295000000000073e+03
6.300000000000000044e-02 5.775315000000000865e-01 2.825959999999999894e+01 9.004234999999999900e+01 1.591194999999999936e+03
6.400000000000000133e-02 5.781459999999999377e-01 2.950410000000000110e+01 9.302889999999999304e+01 1.592075000000000045e+03
6.500000000000000222e-02 5.787514999999999743e-01 3.067629999999999768e+01 9.594804999999999495e+01 1.592934999999999945e+03
6.600000000000000311e-02 5.793510000000000604e-01 3.178370000000000317e+01 9.881784999999999286e+01 1.593785000000000082e+03
6.700000000000000400e-02 5.799479999999999080e-01 3.283370000000000033e+01 1.016573999999999955e+02 1.594625000000000000e+03
6.800000000000000488e-02 5.805470000000000352e-01 3.383279999999999887e+01 1.044831000000000074e+02 1.595465000000000146e+03
6.900000000000000577e-02 5.811475000000000390e-01 3.478655000000000541e+01 1.073075000000000045e+02 1.596295000000000073e+03
7.000000000000000666e-02 5.817525000000000057e-01 3.569835000000000491e+01 1.101400000000000006e+02 1.597130000000000109e+03
7.100000000000000755e-02 5.823610000000000175e-01 3.656950000000000500e+01 1.129830000000000041e+02 1.597964999999999918e+03
7.200000000000000844e-02 5.829714999999999758e-01 3.739900000000000091e+01 1.158335000000000008e+02 1.598809999999999945e+03
7.300000000000000933e-02 5.835814999999999753e-01 3.818359999999999843e+01 1.186814999999999998e+02 1.599644999999999982e+03
7.399999999999999634e-02 5.841865000000000530e-01 3.891795000000000471e+01 1.215134999999999934e+02 1.600480000000000018e+03
7.499999999999999722e-02 5.847835000000000116e-01 3.959530000000000172e+01 1.243095000000000141e+02 1.601304999999999836e+03
7.599999999999999811e-02 5.853660000000000529e-01 4.020785000000000053e+01 1.270469999999999970e+02 1.602119999999999891e+03
7.699999999999999900e-02 5.859300000000000619e-01 4.074765000000000015e+01 1.297024999999999864e+02 1.602914999999999964e+03
7.799999999999999989e-02 5.864694999999999769e-01 4.120690000000000452e+01 1.322524999999999977e+02 1.603674999999999955e+03
7.900000000000000078e-02 5.869815000000000449e-01 4.157880000000000109e+01 1.346730000000000018e+02 1.604410000000000082e+03
8.000000000000000167e-02 5.874605000000000521e-01 4.185755000000000337e+01 1.369449999999999932e+02 1.605099999999999909e+03
8.100000000000000255e-02 5.879044999999999410e-01 4.203910000000000480e+01 1.390500000000000114e+02 1.605755000000000109e+03
8.200000000000000344e-02 5.883104999999999585e-01 4.212080000000000268e+01 1.409759999999999991e+02 1.606349999999999909e+03
8.300000000000000433e-02 5.886770000000000058e-01 4.210205000000000553e+01 1.427130000000000223e+02 1.606900000000000091e+03
8.400000000000000522e-02 5.890035000000000132e-01 4.198385000000000389e+01 1.442565000000000168e+02 1.607394999999999982e+03
8.500000000000000611e-02 5.892905000000000504e-01 4.176914999999999623e+01 1.456064999999999827e+02 1.607840000000000146e+03
8.600000000000000699e-02 5.895390000000000352e-01 4.146255000000000024e+01 1.467674999999999841e+02 1.608224999999999909e+03
8.700000000000000788e-02 5.897504999999999553e-01 4.107014999999999816e+01 1.477454999999999927e+02 1.608555000000000064e+03
8.800000000000000877e-02 5.899274999999999380e-01 4.059969999999999857e+01 1.485529999999999973e+02 1.608840000000000146e+03
8.899999999999999578e-02 5.900729999999999587e-01 4.006024999999999636e+01 1.492040000000000077e+02 1.609074999999999818e+03
8.999999999999999667e-02 5.901905000000000623e-01 3.946184999999999832e+01 1.497150000000000034e+02 1.609269999999999982e+03
9.099999999999999756e-02 5.902844999999999898e-01 3.881534999999999513e+01 1.501030000000000086e+02 1.609420000000000073e+03
9.199999999999999845e-02 5.903585000000000083e-01 3.813200000000000500e+01 1.503890000000000100e+02 1.609545000000000073e+03
9.299999999999999933e-02 5.904159999999999409e-01 3.742334999999999923e+01 1.505914999999999964e+02 1.609635000000000218e+03
9.400000000000000022e-02 5.904610000000000136e-01 3.670019999999999527e+01 1.507309999999999945e+02 1.609710000000000036e+03
9.500000000000000111e-02 5.904985000000000372e-01 3.597285000000000110e+01 1.508259999999999934e+02 1.609759999999999991e+03
9.600000000000000200e-02 5.905299999999999994e-01 3.525050000000000239e+01 1.508915000000000077e+02 1.609799999999999955e+03
9.700000000000000289e-02 5.905595000000000150e-01 3.454059999999999775e+01 1.509430000000000121e+02 1.609829999999999927e+03
9.800000000000000377e-02 5.905875000000000430e-01 3.384909999999999997e+01 1.509915000000000020e+02 1.609860000000000127e+03
9.900000000000000466e-02 5.906160000000000299e-01 3.317985000000000184e+01 1.510434999999999945e+02 1.609884999999999991e+03
1.000000000000000056e-01 5.906449999999999756e-01 3.253499999999999659e+01 1.511034999999999968e+02 1.609904999999999973e+03
1.010000000000000064e-01 5.906749999999999501e-01 3.191464999999999819e+01 1.511734999999999900e+02 1.609924999999999955e+03
1.020000000000000073e-01 5.907050000000000356e-01 3.131730000000000302e+01 1.512500000000000000e+02 1.609949999999999818e+03
1.030000000000000082e-01 5.907335000000000225e-01 3.073979999999999890e+01 1.513280000000000030e+02 1.609970000000000027e+03
1.040000000000000091e-01 5.907580000000000053e-01 3.017799999999999727e+01 1.513999999999999773e+02 1.609994999999999891e+03
1.050000000000000100e-01 5.907780000000000253e-01 2.962675000000000125e+01 1.514565000000000055e+02 1.610009999999999991e+03
1.059999999999999970e-01 5.907910000000000661e-01 2.908039999999999736e+01 1.514884999999999877e+02 1.610019999999999982e+03
1.069999999999999979e-01 5.907934999999999715e-01 2.853320000000000078e+01 1.514839999999999804e+02 1.610025000000000091e+03
1.079999999999999988e-01 5.907854999999999634e-01 2.797950000000000159e+01 1.514345000000000141e+02 1.610005000000000109e+03
1.089999999999999997e-01 5.907634999999999970e-01 2.741405000000000314e+01 1.513294999999999959e+02 1.609984999999999900e+03
1.100000000000000006e-01 5.907274999999999610e-01 2.683220000000000027e+01 1.511614999999999895e+02 1.609940000000000055e+03
1.110000000000000014e-01 5.906759999999999788e-01 2.623055000000000092e+01 1.509244999999999948e+02 1.609880000000000109e+03
1.120000000000000023e-01 5.906080000000000219e-01 2.560660000000000025e+01 1.506144999999999925e+02 1.609804999999999836e+03
1.130000000000000032e-01 5.905245000000000077e-01 2.495915000000000106e+01 1.502314999999999827e+02 1.609699999999999818e+03
1.140000000000000041e-01 5.904255000000000475e-01 2.428860000000000241e+01 1.497755000000000223e+02 1.609579999999999927e+03
1.150000000000000050e-01 5.903119999999999479e-01 2.359655000000000058e+01 1.492514999999999930e+02 1.609440000000000055e+03
1.160000000000000059e-01 5.901864999999999473e-01 2.288605000000000089e+01 1.486655000000000086e+02 1.609284999999999854e+03
1.170000000000000068e-01 5.900509999999999922e-01 2.216150000000000020e+01 1.480280000000000200e+02 1.609110000000000127e+03
1.180000000000000077e-01 5.899069999999999592e-01 2.142844999999999800e+01 1.473485000000000014e+02 1.608924999999999955e+03
1.190000000000000085e-01 5.897590000000000332e-01 2.069330000000000069e+01 1.466409999999999911e+02 1.608730000000000018e+03
1.200000000000000094e-01 5.896090000000000497e-01 1.996309999999999718e+01 1.459194999999999993e+02 1.608529999999999973e+03
1.209999999999999964e-01 5.894605000000000539e-01 1.924549999999999983e+01 1.451984999999999957e+02 1.608325000000000045e+03
1.219999999999999973e-01 5.893165000000000209e-01 1.854804999999999993e+01 1.444934999999999832e+02 1.608125000000000000e+03
1.229999999999999982e-01 5.891800000000000370e-01 1.787805000000000177e+01 1.438179999999999836e+02 1.607929999999999836e+03
1.239999999999999991e-01 5.890539999999999665e-01 1.724249999999999972e+01 1.431864999999999952e+02 1.607744999999999891e+03
1.250000000000000000e-01 5.889404999999999779e-01 1.664755000000000251e+01 1.426100000000000136e+02 1.607575000000000045e+03
1.260000000000000009e-01 5.888409999999999478e-01 1.609819999999999851e+01 1.420994999999999777e+02 1.607414999999999964e+03
1.270000000000000018e-01 5.887580000000000036e-01 1.559844999999999970e+01 1.416614999999999895e+02 1.607275000000000091e+03
1.280000000000000027e-01 5.886905000000000054e-01 1.515090000000000003e+01 1.413009999999999877e+02 1.607160000000000082e+03
1.290000000000000036e-01 5.886400000000000521e-01 1.475675000000000026e+01 1.410205000000000268e+02 1.607065000000000055e+03
1.300000000000000044e-01 5.886059999999999626e-01 1.441579999999999906e+01 1.408199999999999932e+02 1.606990000000000009e+03
1.310000000000000053e-01 5.885875000000000412e-01 1.412654999999999994e+01 1.406959999999999980e+02 1.606934999999999945e+03
1.320000000000000062e-01 5.885825000000000085e-01 1.388640000000000008e+01 1.406434999999999889e+02 1.606900000000000091e+03
1.330000000000000071e-01 5.885909999999999753e-01 1.369154999999999944e+01 1.406555000000000177e+02 1.606889999999999873e+03
1.340000000000000080e-01 5.886089999999999378e-01 1.353760000000000119e+01 1.407230000000000132e+02 1.606889999999999873e+03
1.350000000000000089e-01 5.886360000000000481e-01 1.341935000000000144e+01 1.408369999999999891e+02 1.606904999999999973e+03
1.360000000000000098e-01 5.886694999999999567e-01 1.333139999999999858e+01 1.409869999999999948e+02 1.606934999999999945e+03
1.370000000000000107e-01 5.887069999999999803e-01 1.326829999999999998e+01 1.411625000000000227e+02 1.606970000000000027e+03
1.380000000000000115e-01 5.887465000000000614e-01 1.322439999999999927e+01 1.413539999999999850e+02 1.607014999999999873e+03
1.390000000000000124e-01 5.887875000000000192e-01 1.319470000000000098e+01 1.415525000000000091e+02 1.607065000000000055e+03
1.400000000000000133e-01 5.888269999999999893e-01 1.317440000000000033e+01 1.417510000000000048e+02 1.607110000000000127e+03
1.410000000000000142e-01 5.888645000000000129e-01 1.315920000000000023e+01 1.419410000000000025e+02 1.607154999999999973e+03
1.420000000000000151e-01 5.888984999999999914e-01 1.314559999999999995e+01 1.421179999999999950e+02 1.607204999999999927e+03
1.430000000000000160e-01 5.889284999999999659e-01 1.313064999999999927e+01 1.422779999999999916e+02 1.607250000000000000e+03
1.440000000000000169e-01 5.889550000000000063e-01 1.311204999999999998e+01 1.424189999999999827e+02 1.607289999999999964e+03
1.450000000000000178e-01 5.889770000000000838e-01 1.308815000000000062e+01 1.425389999999999873e+02 1.607325000000000045e+03
1.459999999999999909e-01 5.889955000000000052e-01 1.305799999999999983e+01 1.426394999999999982e+02 1.607349999999999909e+03
1.469999999999999918e-01 5.890100000000000335e-01 1.302110000000000056e+01 1.427205000000000155e+02 1.607380000000000109e+03
1.479999999999999927e-01 5.890210000000000168e-01 1.297765000000000057e+01 1.427844999999999800e+02 1.607400000000000091e+03
1.489999999999999936e-01 5.890299999999999425e-01 1.292810000000000059e+01 1.428340000000000032e+02 1.607414999999999964e+03
1.499999999999999944e-01 5.890364999999999629e-01 1.287335000000000029e+01 1.428720000000000141e+02 1.607430000000000064e+03
1.509999999999999953e-01 5.890419999999999545e-01 1.281449999999999889e+01 1.429025000000000034e+02 1.607445000000000164e+03
1.519999999999999962e-01 5.890469999999999873e-01 1.275295000000000023e+01 1.429284999999999854e+02 1.607450000000000045e+03
1.529999999999999971e-01 5.890530000000000488e-01 1.269020000000000081e+01 1.429540000000000077e+02 1.607460000000000036e+03
1.539999999999999980e-01 5.890595000000000692e-01 1.262764999999999915e+01 1.429819999999999993e+02 1.607470000000000027e+03
1.549999999999999989e-01 5.890674999999999661e-01 1.256664999999999921e+01 1.430149999999999864e+02 1.607485000000000127e+03
1.559999999999999998e-01 5.890770000000000728e-01 1.250839999999999996e+01 1.430564999999999998e+02 1.607490000000000009e+03
1.570000000000000007e-01 5.890895000000000437e-01 1.245400000000000063e+01 1.431064999999999827e+02 1.607509999999999991e+03
1.580000000000000016e-01 5.891035000000000021e-01 1.240399999999999991e+01 1.431669999999999732e+02 1.607525000000000091e+03
1.590000000000000024e-01 5.891210000000000058e-01 1.235890000000000022e+01 1.432390000000000043e+02 1.607549999999999955e+03
