# t [s], A [cm^2], U [cm/s], P [cPa], c [cm/s]
1.000000000000000021e-03 7.815974999999999451e-01 5.558000000000000440e-03 9.469474999999999909e+01 1.721674999999999955e+03
2.000000000000000042e-03 7.815860000000000030e-01 1.117260000000000128e-03 9.466370000000000573e+01 1.721664999999999964e+03
3.000000000000000062e-03 7.816644999999999843e-01 1.252463500000000063e-01 9.480539999999999168e+01 1.721694999999999936e+03
4.000000000000000083e-03 7.817104999999999748e-01 2.155025999999999886e-01 9.491655000000000086e+01 1.721720000000000027e+03
5.000000000000000104e-03 7.816484999999999683e-01 1.503160000000000052e-01 9.477519999999999811e+01 1.721690000000000055e+03
6.000000000000000125e-03 7.815604999999999913e-01 3.677900000000000613e-02 9.447655000000000314e+01 1.721634999999999991e+03
7.000000000000000146e-03 7.814749999999999197e-01 -8.624349999999997296e-02 9.409720000000000084e+01 1.721550000000000182e+03
8.000000000000000167e-03 7.813185000000000269e-01 -3.352049999999999752e-01 9.349275000000000091e+01 1.721420000000000073e+03
9.000000000000001055e-03 7.810764999999999514e-01 -7.385650000000001381e-01 9.258189999999999031e+01 1.721235000000000127e+03
1.000000000000000194e-02 7.807364999999999444e-01 -1.305485000000000007e+00 9.130514999999999759e+01 1.720960000000000036e+03
1.099999999999999936e-02 7.802694999999999492e-01 -2.065239999999999743e+00 8.957130000000000791e+01 1.720590000000000146e+03
1.200000000000000025e-02 7.796955000000000968e-01 -2.965289999999999981e+00 8.739285000000000991e+01 1.720115000000000009e+03
1.300000000000000114e-02 7.791029999999999900e-01 -3.832549999999999901e+00 8.497639999999999816e+01 1.719574999999999818e+03
1.400000000000000203e-02 7.785959999999999548e-01 -4.462935500000000388e+00 8.263320000000000221e+01 1.719025000000000091e+03
1.499999999999999944e-02 7.782290000000000596e-01 -4.731436500000000045e+00 8.061475000000000080e+01 1.718525000000000091e+03
1.600000000000000033e-02 7.779880000000000129e-01 -4.634374999999999467e+00 7.901130000000000564e+01 1.718094999999999800e+03
1.700000000000000122e-02 7.778125000000000178e-01 -4.264429999999999943e+00 7.774830000000000041e+01 1.717730000000000018e+03
1.800000000000000211e-02 7.776290000000000147e-01 -3.754424999999999901e+00 7.664865000000000350e+01 1.717400000000000091e+03
1.900000000000000300e-02 7.773825000000000873e-01 -3.219740000000000268e+00 7.552079999999999416e+01 1.717065000000000055e+03
2.000000000000000042e-02 7.770544999999999813e-01 -2.718859650000000183e+00 7.423579999999999757e+01 1.716704999999999927e+03
2.100000000000000130e-02 7.766629999999999923e-01 -2.244525000000000325e+00 7.276660000000001105e+01 1.716309999999999945e+03
2.200000000000000219e-02 7.762474999999999792e-01 -1.746630000000000127e+00 7.117579999999999529e+01 1.715889999999999873e+03
2.299999999999999961e-02 7.758469999999999533e-01 -1.172339999999999938e+00 6.956430000000000291e+01 1.715460000000000036e+03
2.400000000000000050e-02 7.754784999999999595e-01 -5.024400000000002198e-01 6.801085000000000491e+01 1.715039999999999964e+03
2.500000000000000139e-02 7.751314999999999733e-01 2.305849999999995958e-01 6.652830000000000155e+01 1.714634999999999991e+03
2.600000000000000228e-02 7.747714999999999463e-01 9.456799999999998541e-01 6.504999999999999716e+01 1.714224999999999909e+03
2.700000000000000316e-02 7.743489999999999540e-01 1.532834999999999948e+00 6.344554999999999723e+01 1.713795000000000073e+03
2.800000000000000058e-02 7.738190000000000346e-01 1.882044999999999746e+00 6.155804999999999438e+01 1.713309999999999945e+03
2.900000000000000147e-02 7.731504999999999628e-01 1.913465000000000416e+00 5.925310000000000343e+01 1.712740000000000009e+03
3.000000000000000236e-02 7.723419999999999730e-01 1.600154999999999994e+00 5.646359999999999957e+01 1.712074999999999818e+03
3.099999999999999978e-02 7.714205000000000645e-01 9.759150000000005321e-01 5.321724999999999994e+01 1.711305000000000064e+03
3.200000000000000067e-02 7.704364999999999686e-01 1.258049999999997226e-01 4.963694999999999879e+01 1.710465000000000146e+03
3.300000000000000155e-02 7.694535000000000124e-01 -8.358900000000000219e-01 4.591595000000000226e+01 1.709579999999999927e+03
3.400000000000000244e-02 7.685325000000000628e-01 -1.791135000000000144e+00 4.227909999999999968e+01 1.708699999999999818e+03
3.500000000000000333e-02 7.677240000000000730e-01 -2.638705000000000300e+00 3.894409999999999883e+01 1.707875000000000000e+03
3.600000000000000422e-02 7.670624999999999805e-01 -3.305804999999999438e+00 3.609105000000000274e+01 1.707144999999999982e+03
3.700000000000000511e-02 7.665649999999999409e-01 -3.750445000000000029e+00 3.384595000000000198e+01 1.706539999999999964e+03
3.799999999999999906e-02 7.662375000000000158e-01 -3.957071500000000075e+00 3.227729999999999677e+01 1.706085000000000036e+03
3.899999999999999994e-02 7.660730000000000040e-01 -3.927884999999999849e+00 3.140319999999999823e+01 1.705795000000000073e+03
4.000000000000000083e-02 7.660639999999999672e-01 -3.673354999999999926e+00 3.120560000000000045e+01 1.705659999999999854e+03
4.100000000000000172e-02 7.661974999999999758e-01 -3.204435000000000144e+00 3.164565000000000339e+01 1.705679999999999836e+03
4.200000000000000261e-02 7.664664999999999395e-01 -2.528189499999999867e+00 3.267754999999999654e+01 1.705855000000000018e+03
4.300000000000000350e-02 7.668620000000000436e-01 -1.647664999999999935e+00 3.425610000000000355e+01 1.706159999999999854e+03
4.400000000000000439e-02 7.673775000000000457e-01 -5.649850000000000705e-01 3.633874999999999744e+01 1.706595000000000027e+03
4.499999999999999833e-02 7.680039999999999090e-01 7.139249999999996987e-01 3.888230000000000075e+01 1.707154999999999973e+03
4.599999999999999922e-02 7.687304999999999833e-01 2.175064999999999582e+00 4.183814999999999884e+01 1.707819999999999936e+03
4.700000000000000011e-02 7.695414999999999894e-01 3.793995000000000228e+00 4.514779999999999660e+01 1.708575000000000045e+03
4.800000000000000100e-02 7.704159999999999897e-01 5.536019999999999719e+00 4.874089999999999634e+01 1.709409999999999854e+03
4.900000000000000189e-02 7.713334999999998942e-01 7.358389999999999986e+00 5.253679999999999950e+01 1.710309999999999945e+03
5.000000000000000278e-02 7.722700000000000120e-01 9.214519499999999752e+00 5.644870000000000232e+01 1.711240000000000009e+03
5.100000000000000366e-02 7.732040000000000024e-01 1.105813000000000024e+01 6.039010000000000389e+01 1.712200000000000045e+03
5.200000000000000455e-02 7.741179999999999728e-01 1.284761499999999934e+01 6.428119999999999834e+01 1.713154999999999973e+03
5.300000000000000544e-02 7.749969999999999359e-01 1.454899499999999968e+01 6.805500000000000682e+01 1.714099999999999909e+03
5.399999999999999939e-02 7.758315000000000072e-01 1.613759999999999906e+01 7.166159999999999286e+01 1.715014999999999873e+03
5.500000000000000028e-02 7.766184999999999894e-01 1.759870000000000090e+01 7.507019999999999982e+01 1.715889999999999873e+03
5.600000000000000117e-02 7.773570000000000757e-01 1.892664999999999864e+01 7.826909999999999457e+01 1.716724999999999909e+03
5.700000000000000205e-02 7.780519999999999659e-01 2.012355000000000160e+01 8.126364999999999839e+01 1.717510000000000218e+03
5.800000000000000294e-02 7.787085000000000257e-01 2.119760000000000133e+01 8.407339999999999236e+01 1.718259999999999991e+03
5.900000000000000383e-02 7.793360000000000287e-01 2.216109999999999758e+01 8.672839999999999350e+01 1.718969999999999800e+03
6.000000000000000472e-02 7.799424999999999830e-01 2.302929999999999922e+01 8.926519999999999300e+01 1.719644999999999982e+03
6.099999999999999867e-02 7.805385000000000240e-01 2.381859999999999999e+01 9.172310000000000230e+01 1.720305000000000064e+03
6.199999999999999956e-02 7.811319999999999375e-01 2.454514999999999958e+01 9.414025000000000887e+01 1.720950000000000045e+03
6.300000000000000044e-02 7.817300000000000360e-01 2.522354999999999947e+01 9.655070000000000618e+01 1.721590000000000146e+03
6.400000000000000133e-02 7.823379999999999779e-01 2.586585000000000178e+01 9.898104999999999620e+01 1.722230000000000018e+03
6.500000000000000222e-02 7.829570000000000141e-01 2.648029999999999973e+01 1.014475999999999942e+02 1.722875000000000000e+03
6.600000000000000311e-02 7.835889999999999800e-01 2.707075000000000031e+01 1.039573500000000053e+02 1.723535000000000082e+03
6.700000000000000400e-02 7.842295000000000238e-01 2.763654999999999973e+01 1.065035000000000025e+02 1.724199999999999818e+03
6.800000000000000488e-02 7.848725000000000840e-01 2.817285000000000039e+01 1.090679999999999978e+02 1.724860000000000127e+03
6.900000000000000577e-02 7.855119999999999880e-01 2.867109999999999914e+01 1.116250000000000000e+02 1.725529999999999973e+03
7.000000000000000666e-02 7.861374999999999336e-01 2.912040000000000006e+01 1.141405000000000030e+02 1.726184999999999945e+03
7.100000000000000755e-02 7.867394999999999250e-01 2.950825000000000031e+01 1.165765000000000100e+02 1.726825000000000045e+03
7.200000000000000844e-02 7.873094999999999954e-01 2.982209999999999894e+01 1.188919999999999959e+02 1.727434999999999945e+03
7.300000000000000933e-02 7.878380000000000383e-01 3.005049999999999955e+01 1.210494999999999948e+02 1.728014999999999873e+03
7.399999999999999634e-02 7.883170000000000455e-01 3.018339999999999890e+01 1.230155000000000030e+02 1.728550000000000182e+03
7.499999999999999722e-02 7.887405000000000665e-01 3.021349999999999980e+01 1.247614999999999981e+02 1.729030000000000200e+03
7.599999999999999811e-02 7.891055000000000152e-01 3.013599999999999923e+01 1.262669999999999959e+02 1.729454999999999927e+03
7.699999999999999900e-02 7.894084999999999575e-01 2.994944999999999879e+01 1.275190000000000055e+02 1.729820000000000164e+03
7.799999999999999989e-02 7.896499999999999631e-01 2.965545000000000186e+01 1.285130000000000052e+02 1.730115000000000009e+03
7.900000000000000078e-02 7.898309999999999498e-01 2.925869999999999749e+01 1.292535000000000025e+02 1.730355000000000018e+03
8.000000000000000167e-02 7.899555000000000327e-01 2.876689999999999969e+01 1.297520000000000095e+02 1.730525000000000091e+03
8.100000000000000255e-02 7.900274999999999936e-01 2.819024999999999892e+01 1.300260000000000105e+02 1.730644999999999982e+03
8.200000000000000344e-02 7.900540000000000340e-01 2.754149999999999920e+01 1.301009999999999991e+02 1.730704999999999927e+03
8.300000000000000433e-02 7.900415000000000632e-01 2.683510000000000062e+01 1.300049999999999955e+02 1.730724999999999909e+03
8.400000000000000522e-02 7.899975000000000191e-01 2.608664999999999878e+01 1.297700000000000102e+02 1.730695000000000164e+03
8.500000000000000611e-02 7.899315000000000087e-01 2.531240000000000023e+01 1.294304999999999950e+02 1.730644999999999982e+03
8.600000000000000699e-02 7.898499999999999410e-01 2.452844999999999942e+01 1.290200000000000102e+02 1.730565000000000055e+03
8.700000000000000788e-02 7.897615000000000052e-01 2.375000000000000000e+01 1.285720000000000027e+02 1.730474999999999909e+03
8.800000000000000877e-02 7.896715000000000817e-01 2.299060000000000059e+01 1.281154999999999973e+02 1.730369999999999891e+03
8.899999999999999578e-02 7.895874999999999977e-01 2.226144999999999996e+01 1.276770000000000067e+02 1.730269999999999982e+03
8.999999999999999667e-02 7.895119999999999916e-01 2.157134999999999891e+01 1.272759999999999962e+02 1.730170000000000073e+03
9.099999999999999756e-02 7.894489999999999563e-01 2.092560000000000286e+01 1.269284999999999854e+02 1.730079999999999927e+03
9.199999999999999845e-02 7.893985000000000030e-01 2.032674999999999699e+01 1.266414999999999935e+02 1.730000000000000000e+03
9.299999999999999933e-02 7.893615000000000492e-01 1.977400000000000091e+01 1.264175000000000040e+02 1.729940000000000055e+03
9.400000000000000022e-02 7.893360000000000376e-01 1.926370000000000005e+01 1.262514999999999930e+02 1.729884999999999991e+03
9.500000000000000111e-02 7.893194999999999517e-01 1.878989999999999938e+01 1.261355000000000075e+02 1.729844999999999800e+03
9.600000000000000200e-02 7.893075000000000507e-01 1.834465000000000146e+01 1.260540000000000020e+02 1.729809999999999945e+03
9.700000000000000289e-02 7.892969999999999153e-01 1.791850000000000165e+01 1.259925000000000068e+02 1.729785000000000082e+03
9.800000000000000377e-02 7.892829999999999568e-01 1.750140000000000029e+01 1.259309999999999974e+02 1.729764999999999873e+03
9.900000000000000466e-02 7.892609999999999904e-01 1.708305000000000007e+01 1.258515000000000157e+02 1.729740000000000009e+03
1.000000000000000056e-01 7.892274999999999707e-01 1.665370000000000061e+01 1.257350000000000136e+02 1.729704999999999927e+03
1.010000000000000064e-01 7.891780000000000461e-01 1.620445000000000135e+01 1.255660000000000025e+02 1.729664999999999964e+03
1.020000000000000073e-01 7.891110000000000069e-01 1.572814999999999941e+01 1.253305000000000007e+02 1.729605000000000018e+03
1.030000000000000082e-01 7.890245000000000175e-01 1.521940000000000026e+01 1.250195000000000078e+02 1.729529999999999973e+03
1.040000000000000091e-01 7.889174999999999383e-01 1.467525000000000013e+01 1.246280000000000001e+02 1.729434999999999945e+03
1.050000000000000100e-01 7.887910000000000199e-01 1.409509999999999863e+01 1.241560000000000059e+02 1.729329999999999927e+03
1.059999999999999970e-01 7.886465000000000281e-01 1.348098500000000044e+01 1.236080000000000041e+02 1.729200000000000045e+03
1.069999999999999979e-01 7.884875000000000078e-01 1.283740999999999843e+01 1.229944999999999879e+02 1.729050000000000182e+03
1.079999999999999988e-01 7.883180000000000742e-01 1.217107000000000028e+01 1.223294999999999959e+02 1.728889999999999873e+03
1.089999999999999997e-01 7.881424999999999681e-01 1.149057999999999957e+01 1.216310000000000002e+02 1.728720000000000027e+03
1.100000000000000006e-01 7.879665000000000141e-01 1.080604500000000101e+01 1.209200000000000017e+02 1.728549999999999955e+03
1.110000000000000014e-01 7.877959999999999408e-01 1.012838999999999956e+01 1.202185000000000059e+02 1.728375000000000000e+03
1.120000000000000023e-01 7.876365000000000727e-01 9.468944999999999723e+00 1.195510000000000019e+02 1.728210000000000036e+03
1.130000000000000032e-01 7.874925000000000397e-01 8.838744999999999408e+00 1.189385000000000048e+02 1.728049999999999955e+03
1.140000000000000041e-01 7.873700000000000143e-01 8.248094999999999288e+00 1.184025000000000034e+02 1.727909999999999854e+03
1.150000000000000050e-01 7.872719999999999718e-01 7.705795000000000172e+00 1.179609999999999985e+02 1.727789999999999964e+03
1.160000000000000059e-01 7.872014999999999985e-01 7.219009999999999927e+00 1.176260000000000048e+02 1.727694999999999936e+03
1.170000000000000068e-01 7.871604999999999297e-01 6.792709999999999582e+00 1.174089999999999918e+02 1.727625000000000000e+03
1.180000000000000077e-01 7.871494999999999465e-01 6.429619999999999891e+00 1.173125000000000000e+02 1.727585000000000036e+03
1.190000000000000085e-01 7.871669999999999501e-01 6.130139999999999922e+00 1.173375000000000057e+02 1.727574999999999818e+03
1.200000000000000094e-01 7.872114999999999529e-01 5.892400000000000304e+00 1.174770000000000039e+02 1.727590000000000146e+03
1.209999999999999964e-01 7.872809999999998976e-01 5.712474999999999525e+00 1.177219999999999942e+02 1.727630000000000109e+03
1.219999999999999973e-01 7.873704999999999732e-01 5.584704999999999586e+00 1.180589999999999975e+02 1.727700000000000045e+03
1.229999999999999982e-01 7.874775000000000524e-01 5.502064999999999984e+00 1.184720000000000084e+02 1.727784999999999854e+03
1.239999999999999991e-01 7.875959999999999628e-01 5.456569999999999254e+00 1.189429999999999978e+02 1.727889999999999873e+03
1.250000000000000000e-01 7.877220000000000333e-01 5.439709999999999823e+00 1.194525000000000006e+02 1.728009999999999991e+03
1.260000000000000009e-01 7.878510000000000790e-01 5.442859999999999587e+00 1.199830000000000041e+02 1.728130000000000109e+03
1.270000000000000018e-01 7.879795000000000549e-01 5.457645000000000302e+00 1.205150000000000006e+02 1.728255000000000109e+03
1.280000000000000027e-01 7.881029999999999980e-01 5.476259999999999906e+00 1.210335000000000036e+02 1.728380000000000109e+03
1.290000000000000036e-01 7.882184999999999331e-01 5.491735000000000255e+00 1.215235000000000127e+02 1.728505000000000109e+03
1.300000000000000044e-01 7.883234999999999548e-01 5.498089999999999478e+00 1.219735000000000014e+02 1.728619999999999891e+03
1.310000000000000053e-01 7.884165000000000756e-01 5.490510000000000446e+00 1.223755000000000024e+02 1.728724999999999909e+03
1.320000000000000062e-01 7.884970000000000034e-01 5.465339999999999421e+00 1.227235000000000014e+02 1.728815000000000055e+03
1.330000000000000071e-01 7.885630000000000139e-01 5.420180000000000220e+00 1.230130000000000052e+02 1.728894999999999982e+03
1.340000000000000080e-01 7.886154999999999138e-01 5.353765000000000107e+00 1.232439999999999998e+02 1.728965000000000146e+03
1.350000000000000089e-01 7.886545000000000361e-01 5.265950000000000131e+00 1.234180000000000064e+02 1.729014999999999873e+03
1.360000000000000098e-01 7.886815000000000353e-01 5.157564999999999955e+00 1.235380000000000109e+02 1.729055000000000064e+03
1.370000000000000107e-01 7.886969999999999814e-01 5.030300000000000438e+00 1.236089999999999947e+02 1.729079999999999927e+03
1.380000000000000115e-01 7.887035000000000018e-01 4.886530000000000484e+00 1.236370000000000005e+02 1.729095000000000027e+03
1.390000000000000124e-01 7.887025000000000841e-01 4.729140000000000121e+00 1.236289999999999907e+02 1.729105000000000018e+03
1.400000000000000133e-01 7.886949999999999239e-01 4.561339999999999506e+00 1.235919999999999987e+02 1.729099999999999909e+03
1.410000000000000142e-01 7.886835000000000928e-01 4.386474999999999902e+00 1.235324999999999989e+02 1.729089999999999918e+03
1.420000000000000151e-01 7.886684999999999945e-01 4.207855000000000345e+00 1.234575000000000102e+02 1.729079999999999927e+03
1.430000000000000160e-01 7.886519999999999087e-01 4.028565000000000396e+00 1.233725000000000023e+02 1.729065000000000055e+03
1.440000000000000169e-01 7.886349999999999749e-01 3.851315000000000044e+00 1.232819999999999965e+02 1.729049999999999955e+03
1.450000000000000178e-01 7.886180000000000412e-01 3.678360000000000074e+00 1.231905000000000001e+02 1.729029999999999973e+03
1.459999999999999909e-01 7.886009999999999964e-01 3.511379999999999946e+00 1.230999999999999943e+02 1.729005000000000109e+03
1.469999999999999918e-01 7.885845000000000216e-01 3.351474999999999760e+00 1.230105000000000075e+02 1.728985000000000127e+03
1.479999999999999927e-01 7.885679999999999357e-01 3.199169999999999625e+00 1.229214999999999947e+02 1.728960000000000036e+03
1.489999999999999936e-01 7.885510000000000019e-01 3.054464999999999986e+00 1.228329999999999984e+02 1.728945000000000164e+03
1.499999999999999944e-01 7.885334999999999983e-01 2.916889999999999983e+00 1.227415000000000020e+02 1.728914999999999964e+03
1.509999999999999953e-01 7.885139999999999372e-01 2.785680000000000156e+00 1.226444999999999936e+02 1.728894999999999982e+03
1.519999999999999962e-01 7.884910000000000529e-01 2.659824999999999662e+00 1.225384999999999991e+02 1.728865000000000009e+03
1.529999999999999971e-01 7.884649999999999714e-01 2.538280000000000314e+00 1.224194999999999993e+02 1.728840000000000146e+03
1.539999999999999980e-01 7.884349999999999969e-01 2.420020000000000060e+00 1.222860000000000014e+02 1.728805000000000064e+03
1.549999999999999989e-01 7.883995000000000308e-01 2.304199999999999804e+00 1.221349999999999909e+02 1.728764999999999873e+03
1.559999999999999998e-01 7.883599999999999497e-01 2.190209999999999990e+00 1.219645000000000010e+02 1.728724999999999909e+03
1.570000000000000007e-01 7.883139999999999592e-01 2.077739999999999920e+00 1.217740000000000009e+02 1.728679999999999836e+03
1.580000000000000016e-01 7.882644999999999236e-01 1.966819999999999791e+00 1.215639999999999930e+02 1.728625000000000000e+03
1.590000000000000024e-01 7.882095000000000073e-01 1.857813999999999854e+00 1.213360000000000127e+02 1.728570000000000164e+03
