# t [s], A [cm^2], U [cm/s], P [cPa], c [cm/s]
1.000000000000000021e-03 1.409719999999999862e-01 2.752134999999999998e-01 8.828244999999999720e+01 2.039184999999999945e+03
2.000000000000000042e-03 1.409434999999999993e-01 1.609728500000000118e+00 8.539674999999999727e+01 2.038849999999999909e+03
3.000000000000000062e-03 1.408590000000000120e-01 3.252013500000000334e+00 8.148605000000000587e+01 2.037889999999999873e+03
4.000000000000000083e-03 1.407390000000000030e-01 5.091588999999999920e+00 7.720580000000001064e+01 2.036549999999999955e+03
5.000000000000000104e-03 1.406060000000000088e-01 7.075229999999999464e+00 7.331804999999999950e+01 2.035079999999999927e+03
6.000000000000000125e-03 1.404765000000000041e-01 9.068495000000000417e+00 7.012125000000000341e+01 2.033660000000000082e+03
7.000000000000000146e-03 1.403530000000000055e-01 1.088799500000000009e+01 6.743334999999999013e+01 2.032335000000000036e+03
8.000000000000000167e-03 1.402384999999999882e-01 1.244137499999999896e+01 6.501359999999999673e+01 2.031119999999999891e+03
9.000000000000001055e-03 1.401350000000000096e-01 1.375044499999999914e+01 6.286695000000000277e+01 2.030039999999999964e+03
1.000000000000000194e-02 1.400465000000000182e-01 1.485030000000000072e+01 6.107519999999999527e+01 2.029125000000000000e+03
1.099999999999999936e-02 1.399719999999999853e-01 1.575390000000000157e+01 5.963700000000000045e+01 2.028364999999999782e+03
1.200000000000000025e-02 1.399104999999999932e-01 1.646845000000000070e+01 5.849859999999999616e+01 2.027744999999999891e+03
1.300000000000000114e-02 1.398610000000000131e-01 1.699534999999999840e+01 5.757739999999999725e+01 2.027250000000000000e+03
1.400000000000000203e-02 1.398189999999999988e-01 1.733640000000000114e+01 5.676924999999999955e+01 2.026844999999999800e+03
1.499999999999999944e-02 1.397840000000000193e-01 1.752749999999999986e+01 5.603184999999999860e+01 2.026505000000000109e+03
1.600000000000000033e-02 1.397559999999999913e-01 1.766250000000000142e+01 5.548760000000000048e+01 2.026244999999999891e+03
1.700000000000000122e-02 1.397399999999999753e-01 1.786995000000000289e+01 5.541299999999999670e+01 2.026099999999999909e+03
1.800000000000000211e-02 1.397430000000000061e-01 1.825329999999999941e+01 5.609189999999999543e+01 2.026139999999999873e+03
1.900000000000000300e-02 1.397685000000000177e-01 1.883845000000000169e+01 5.763465000000000060e+01 2.026404999999999973e+03
2.000000000000000042e-02 1.398149999999999948e-01 1.955890000000000128e+01 5.988174999999999670e+01 2.026889999999999873e+03
2.100000000000000130e-02 1.398765000000000147e-01 2.028389999999999915e+01 6.243985000000000696e+01 2.027525000000000091e+03
2.200000000000000219e-02 1.399420000000000108e-01 2.086849999999999739e+01 6.481749999999999545e+01 2.028210000000000036e+03
2.299999999999999961e-02 1.400015000000000009e-01 2.120309999999999917e+01 6.658859999999999957e+01 2.028835000000000036e+03
2.400000000000000050e-02 1.400450000000000028e-01 2.124385000000000190e+01 6.751670000000000016e+01 2.029315000000000055e+03
2.500000000000000139e-02 1.400704999999999867e-01 2.101570000000000249e+01 6.760014999999999930e+01 2.029599999999999909e+03
2.600000000000000228e-02 1.400774999999999937e-01 2.059299999999999997e+01 6.703470000000000084e+01 2.029694999999999936e+03
2.700000000000000316e-02 1.400710000000000011e-01 2.006665000000000276e+01 6.611684999999999945e+01 2.029650000000000091e+03
2.800000000000000058e-02 1.400565000000000004e-01 1.951229999999999976e+01 6.513169999999999504e+01 2.029509999999999991e+03
2.900000000000000147e-02 1.400399999999999978e-01 1.896950000000000003e+01 6.426570000000000960e+01 2.029340000000000146e+03
3.000000000000000236e-02 1.400230000000000086e-01 1.843844999999999956e+01 6.356959999999999411e+01 2.029170000000000073e+03
3.099999999999999978e-02 1.400065000000000059e-01 1.788960000000000150e+01 6.297370000000000800e+01 2.029000000000000000e+03
3.200000000000000067e-02 1.399894999999999889e-01 1.728374999999999773e+01 6.234244999999999948e+01 2.028824999999999818e+03
3.300000000000000155e-02 1.399690000000000101e-01 1.659260000000000090e+01 6.154354999999999620e+01 2.028615000000000009e+03
3.400000000000000244e-02 1.399424999999999975e-01 1.581470000000000020e+01 6.051044999999999874e+01 2.028349999999999909e+03
3.500000000000000333e-02 1.399110000000000076e-01 1.498225000000000051e+01 5.927795000000000414e+01 2.028029999999999973e+03
3.600000000000000422e-02 1.398760000000000003e-01 1.415674999999999883e+01 5.798375000000000057e+01 2.027674999999999955e+03
3.700000000000000511e-02 1.398415000000000075e-01 1.341539999999999999e+01 5.683520000000000039e+01 2.027319999999999936e+03
3.799999999999999906e-02 1.398125000000000062e-01 1.283210000000000051e+01 5.605414999999999992e+01 2.027014999999999873e+03
3.899999999999999994e-02 1.397950000000000026e-01 1.245929999999999893e+01 5.581610000000000582e+01 2.026815000000000055e+03
4.000000000000000083e-02 1.397909999999999986e-01 1.231559999999999988e+01 5.620310000000000628e+01 2.026764999999999873e+03
4.100000000000000172e-02 1.398030000000000106e-01 1.238165000000000049e+01 5.718094999999999573e+01 2.026869999999999891e+03
4.200000000000000261e-02 1.398284999999999945e-01 1.260450000000000159e+01 5.860594999999999999e+01 2.027125000000000000e+03
4.300000000000000350e-02 1.398650000000000171e-01 1.290879999999999939e+01 6.025469999999999970e+01 2.027485000000000127e+03
4.400000000000000439e-02 1.399060000000000026e-01 1.321025000000000027e+01 6.186814999999999998e+01 2.027904999999999973e+03
4.499999999999999833e-02 1.399455000000000005e-01 1.342950000000000088e+01 6.319724999999999682e+01 2.028309999999999945e+03
4.599999999999999922e-02 1.399775000000000047e-01 1.350234999999999985e+01 6.404120000000000346e+01 2.028644999999999982e+03
4.700000000000000011e-02 1.399969999999999826e-01 1.338609999999999900e+01 6.427070000000000505e+01 2.028855000000000018e+03
4.800000000000000100e-02 1.400015000000000009e-01 1.306090000000000018e+01 6.383599999999999852e+01 2.028909999999999854e+03
4.900000000000000189e-02 1.399894999999999889e-01 1.252789999999999893e+01 6.275945000000000107e+01 2.028789999999999964e+03
5.000000000000000278e-02 1.399600000000000011e-01 1.180372999999999983e+01 6.111820000000000164e+01 2.028494999999999891e+03
5.100000000000000366e-02 1.399154999999999982e-01 1.091568499999999986e+01 5.902264999999999873e+01 2.028049999999999955e+03
5.200000000000000455e-02 1.398584999999999967e-01 9.896179999999999310e+00 5.659579999999999700e+01 2.027464999999999918e+03
5.300000000000000544e-02 1.397915000000000130e-01 8.779344999999999288e+00 5.395749999999999602e+01 2.026775000000000091e+03
5.399999999999999939e-02 1.397174999999999945e-01 7.598874999999999602e+00 5.121529999999999916e+01 2.026009999999999991e+03
5.500000000000000028e-02 1.396384999999999987e-01 6.387659999999999449e+00 4.846245000000000402e+01 2.025200000000000045e+03
5.600000000000000117e-02 1.395589999999999886e-01 5.178444999999999965e+00 4.577984999999999616e+01 2.024380000000000109e+03
5.700000000000000205e-02 1.394799999999999929e-01 4.004635000000000389e+00 4.324150000000000205e+01 2.023559999999999945e+03
5.800000000000000294e-02 1.394040000000000001e-01 2.900968449999999699e+00 4.091915000000000191e+01 2.022769999999999982e+03
5.900000000000000383e-02 1.393340000000000134e-01 1.903595999999999844e+00 3.888609999999999900e+01 2.022034999999999854e+03
6.000000000000000472e-02 1.392720000000000069e-01 1.049360000000000070e+00 3.721760000000000446e+01 2.021389999999999873e+03
6.099999999999999867e-02 1.392200000000000104e-01 3.742900000000000116e-01 3.598910000000000053e+01 2.020835000000000036e+03
6.199999999999999956e-02 1.391804999999999848e-01 -8.837999999999990308e-02 3.527164999999999395e+01 2.020414999999999964e+03
6.300000000000000044e-02 1.391560000000000019e-01 -3.103774999999999729e-01 3.512650000000000006e+01 2.020150000000000091e+03
6.400000000000000133e-02 1.391479999999999939e-01 -2.704834999999999878e-01 3.559914999999999452e+01 2.020049999999999955e+03
6.500000000000000222e-02 1.391574999999999895e-01 4.391350000000004972e-02 3.671470000000000056e+01 2.020130000000000109e+03
6.600000000000000311e-02 1.391859999999999764e-01 6.358495000000000674e-01 3.847490000000000521e+01 2.020405000000000200e+03
6.700000000000000400e-02 1.392329999999999957e-01 1.498582499999999929e+00 4.085705000000000098e+01 2.020875000000000000e+03
6.800000000000000488e-02 1.392984999999999918e-01 2.616070999999999813e+00 4.381544999999999845e+01 2.021529999999999973e+03
6.900000000000000577e-02 1.393810000000000049e-01 3.964109500000000175e+00 4.728464999999999918e+01 2.022365000000000009e+03
7.000000000000000666e-02 1.394790000000000196e-01 5.511870000000000047e+00 5.118404999999999916e+01 2.023365000000000009e+03
7.100000000000000755e-02 1.395905000000000062e-01 7.223794999999999966e+00 5.542305000000000348e+01 2.024505000000000109e+03
7.200000000000000844e-02 1.397125000000000172e-01 9.061640000000000583e+00 5.990709999999999980e+01 2.025764999999999873e+03
7.300000000000000933e-02 1.398429999999999951e-01 1.098645999999999923e+01 6.454325000000000045e+01 2.027110000000000127e+03
7.399999999999999634e-02 1.399789999999999923e-01 1.296059500000000142e+01 6.924509999999999366e+01 2.028519999999999982e+03
7.499999999999999722e-02 1.401189999999999936e-01 1.494950000000000045e+01 7.393760000000000332e+01 2.029970000000000027e+03
7.599999999999999811e-02 1.402590000000000225e-01 1.692295000000000016e+01 7.855984999999999729e+01 2.031440000000000055e+03
7.699999999999999900e-02 1.403995000000000104e-01 1.885624999999999929e+01 8.306745000000000800e+01 2.032909999999999854e+03
7.799999999999999989e-02 1.405375000000000096e-01 2.073059999999999903e+01 8.743305000000000859e+01 2.034360000000000127e+03
7.900000000000000078e-02 1.406725000000000059e-01 2.253340000000000032e+01 9.164555000000000007e+01 2.035784999999999854e+03
8.000000000000000167e-02 1.408044999999999991e-01 2.425750000000000028e+01 9.570844999999999914e+01 2.037180000000000064e+03
8.100000000000000255e-02 1.409325000000000161e-01 2.590079999999999671e+01 9.963554999999999495e+01 2.038534999999999854e+03
8.200000000000000344e-02 1.410579999999999889e-01 2.746500000000000341e+01 1.034499500000000012e+02 2.039865000000000009e+03
8.300000000000000433e-02 1.411799999999999999e-01 2.895445000000000135e+01 1.071775000000000091e+02 2.041164999999999964e+03
8.400000000000000522e-02 1.413004999999999955e-01 3.037500000000000000e+01 1.108435000000000059e+02 2.042445000000000164e+03
8.500000000000000611e-02 1.414185000000000025e-01 3.173269999999999769e+01 1.144714999999999918e+02 2.043704999999999927e+03
8.600000000000000699e-02 1.415359999999999951e-01 3.303320000000000078e+01 1.180794999999999959e+02 2.044960000000000036e+03
8.700000000000000788e-02 1.416520000000000001e-01 3.428059999999999974e+01 1.216769999999999925e+02 2.046204999999999927e+03
8.800000000000000877e-02 1.417685000000000195e-01 3.547740000000000293e+01 1.252665000000000077e+02 2.047440000000000055e+03
8.899999999999999578e-02 1.418834999999999957e-01 3.662395000000000067e+01 1.288425000000000011e+02 2.048679999999999836e+03
8.999999999999999667e-02 1.419984999999999997e-01 3.771840000000000259e+01 1.323925000000000125e+02 2.049909999999999854e+03
9.099999999999999756e-02 1.421120000000000161e-01 3.875695000000000334e+01 1.358974999999999795e+02 2.051130000000000109e+03
9.199999999999999845e-02 1.422249999999999903e-01 3.973425000000000296e+01 1.393344999999999914e+02 2.052335000000000036e+03
9.299999999999999933e-02 1.423349999999999893e-01 4.064334999999999809e+01 1.426759999999999877e+02 2.053519999999999982e+03
9.400000000000000022e-02 1.424420000000000130e-01 4.147615000000000407e+01 1.458924999999999841e+02 2.054675000000000182e+03
9.500000000000000111e-02 1.425454999999999917e-01 4.222424999999999784e+01 1.489555000000000007e+02 2.055789999999999964e+03
9.600000000000000200e-02 1.426445000000000074e-01 4.287895000000000323e+01 1.518349999999999795e+02 2.056854999999999563e+03
9.700000000000000289e-02 1.427374999999999894e-01 4.343160000000000309e+01 1.545049999999999955e+02 2.057864999999999782e+03
9.800000000000000377e-02 1.428249999999999797e-01 4.387454999999999927e+01 1.569404999999999859e+02 2.058809999999999945e+03
9.900000000000000466e-02 1.429055000000000186e-01 4.420109999999999673e+01 1.591214999999999975e+02 2.059684999999999945e+03
1.000000000000000056e-01 1.429779999999999940e-01 4.440609999999999502e+01 1.610310000000000059e+02 2.060475000000000364e+03
1.010000000000000064e-01 1.430424999999999891e-01 4.448624999999999829e+01 1.626595000000000084e+02 2.061175000000000182e+03
1.020000000000000073e-01 1.430980000000000030e-01 4.444055000000000177e+01 1.640014999999999930e+02 2.061795000000000073e+03
1.030000000000000082e-01 1.431454999999999811e-01 4.427044999999999675e+01 1.650575000000000045e+02 2.062319999999999709e+03
1.040000000000000091e-01 1.431850000000000067e-01 4.397974999999999568e+01 1.658369999999999891e+02 2.062750000000000000e+03
1.050000000000000100e-01 1.432154999999999956e-01 4.357484999999999786e+01 1.663530000000000086e+02 2.063090000000000146e+03
1.059999999999999970e-01 1.432379999999999765e-01 4.306459999999999866e+01 1.666250000000000000e+02 2.063350000000000364e+03
1.069999999999999979e-01 1.432534999999999781e-01 4.245980000000000132e+01 1.666779999999999973e+02 2.063519999999999982e+03
1.079999999999999988e-01 1.432609999999999995e-01 4.177315000000000111e+01 1.665405000000000086e+02 2.063614999999999782e+03
1.089999999999999997e-01 1.432634999999999881e-01 4.101825000000000188e+01 1.662439999999999998e+02 2.063649999999999636e+03
1.100000000000000006e-01 1.432605000000000128e-01 4.020974999999999966e+01 1.658195000000000050e+02 2.063625000000000000e+03
1.110000000000000014e-01 1.432530000000000192e-01 3.936220000000000141e+01 1.653004999999999995e+02 2.063554999999999836e+03
1.120000000000000023e-01 1.432419999999999805e-01 3.848985000000000412e+01 1.647164999999999964e+02 2.063444999999999709e+03
1.130000000000000032e-01 1.432284999999999808e-01 3.760599999999999454e+01 1.640955000000000155e+02 2.063305000000000291e+03
1.140000000000000041e-01 1.432134999999999936e-01 3.672265000000000157e+01 1.634625000000000057e+02 2.063144999999999982e+03
1.150000000000000050e-01 1.431975000000000053e-01 3.585014999999999930e+01 1.628355000000000246e+02 2.062975000000000364e+03
1.160000000000000059e-01 1.431810000000000027e-01 3.499680000000000035e+01 1.622305000000000064e+02 2.062800000000000182e+03
1.170000000000000068e-01 1.431645000000000001e-01 3.416875000000000284e+01 1.616564999999999941e+02 2.062625000000000000e+03
1.180000000000000077e-01 1.431485000000000118e-01 3.337004999999999910e+01 1.611184999999999832e+02 2.062449999999999818e+03
1.190000000000000085e-01 1.431330000000000102e-01 3.260235000000000127e+01 1.606154999999999973e+02 2.062275000000000091e+03
1.200000000000000094e-01 1.431179999999999952e-01 3.186529999999999774e+01 1.601419999999999959e+02 2.062114999999999782e+03
1.209999999999999964e-01 1.431040000000000090e-01 3.115670000000000073e+01 1.596895000000000095e+02 2.061954999999999927e+03
1.219999999999999973e-01 1.430894999999999806e-01 3.047254999999999825e+01 1.592450000000000045e+02 2.061805000000000291e+03
1.229999999999999982e-01 1.430755000000000221e-01 2.980765000000000242e+01 1.587940000000000111e+02 2.061644999999999982e+03
1.239999999999999991e-01 1.430609999999999937e-01 2.915579999999999927e+01 1.583195000000000050e+02 2.061485000000000127e+03
1.250000000000000000e-01 1.430460000000000065e-01 2.851024999999999920e+01 1.578054999999999950e+02 2.061319999999999709e+03
1.260000000000000009e-01 1.430295000000000039e-01 2.786410000000000053e+01 1.572355000000000018e+02 2.061144999999999982e+03
1.270000000000000018e-01 1.430109999999999992e-01 2.721075000000000088e+01 1.565939999999999941e+02 2.060944999999999709e+03
1.280000000000000027e-01 1.429910000000000070e-01 2.654420000000000002e+01 1.558695000000000164e+02 2.060724999999999909e+03
1.290000000000000036e-01 1.429679999999999840e-01 2.585950000000000060e+01 1.550514999999999759e+02 2.060484999999999673e+03
1.300000000000000044e-01 1.429429999999999867e-01 2.515315000000000012e+01 1.541349999999999909e+02 2.060210000000000036e+03
1.310000000000000053e-01 1.429144999999999999e-01 2.442295000000000016e+01 1.531165000000000020e+02 2.059909999999999854e+03
1.320000000000000062e-01 1.428840000000000110e-01 2.366844999999999999e+01 1.520000000000000000e+02 2.059574999999999818e+03
1.330000000000000071e-01 1.428495000000000181e-01 2.289104999999999990e+01 1.507919999999999732e+02 2.059210000000000036e+03
1.340000000000000080e-01 1.428130000000000233e-01 2.209384999999999977e+01 1.495024999999999977e+02 2.058815000000000055e+03
1.350000000000000089e-01 1.427734999999999976e-01 2.128154999999999930e+01 1.481469999999999914e+02 2.058394999999999982e+03
1.360000000000000098e-01 1.427329999999999988e-01 2.046020000000000039e+01 1.467434999999999832e+02 2.057960000000000036e+03
1.370000000000000107e-01 1.426899999999999835e-01 1.963714999999999833e+01 1.453120000000000118e+02 2.057505000000000109e+03
1.380000000000000115e-01 1.426465000000000094e-01 1.882045000000000101e+01 1.438739999999999952e+02 2.057039999999999964e+03
1.390000000000000124e-01 1.426030000000000075e-01 1.801859999999999928e+01 1.424509999999999934e+02 2.056565000000000055e+03
1.400000000000000133e-01 1.425595000000000057e-01 1.724020000000000152e+01 1.410665000000000191e+02 2.056099999999999909e+03
1.410000000000000142e-01 1.425164999999999904e-01 1.649354999999999905e+01 1.397384999999999877e+02 2.055639999999999873e+03
1.420000000000000151e-01 1.424755000000000049e-01 1.578614999999999924e+01 1.384870000000000232e+02 2.055199999999999818e+03
1.430000000000000160e-01 1.424365000000000214e-01 1.512460000000000093e+01 1.373259999999999934e+02 2.054780000000000200e+03
1.440000000000000169e-01 1.423995000000000122e-01 1.451415000000000077e+01 1.362680000000000007e+02 2.054385000000000218e+03
1.450000000000000178e-01 1.423659999999999926e-01 1.395864999999999867e+01 1.353189999999999884e+02 2.054019999999999982e+03
1.459999999999999909e-01 1.423344999999999749e-01 1.346059999999999945e+01 1.344845000000000255e+02 2.053679999999999836e+03
1.469999999999999918e-01 1.423075000000000034e-01 1.302084999999999937e+01 1.337644999999999982e+02 2.053380000000000109e+03
1.479999999999999927e-01 1.422829999999999928e-01 1.263874999999999993e+01 1.331560000000000059e+02 2.053119999999999891e+03
1.489999999999999936e-01 1.422619999999999996e-01 1.231259999999999977e+01 1.326525000000000034e+02 2.052889999999999873e+03
1.499999999999999944e-01 1.422444999999999959e-01 1.203914999999999935e+01 1.322459999999999809e+02 2.052690000000000055e+03
1.509999999999999953e-01 1.422289999999999943e-01 1.181465000000000032e+01 1.319259999999999877e+02 2.052524999999999636e+03
1.519999999999999962e-01 1.422165000000000235e-01 1.163429999999999964e+01 1.316820000000000164e+02 2.052385000000000218e+03
1.529999999999999971e-01 1.422065000000000135e-01 1.149300000000000033e+01 1.315015000000000214e+02 2.052269999999999982e+03
1.539999999999999980e-01 1.421990000000000198e-01 1.138534999999999897e+01 1.313725000000000023e+02 2.052184999999999945e+03
1.549999999999999989e-01 1.421919999999999851e-01 1.130579999999999963e+01 1.312830000000000155e+02 2.052110000000000127e+03
1.559999999999999998e-01 1.421870000000000078e-01 1.124895000000000067e+01 1.312230000000000132e+02 2.052050000000000182e+03
1.570000000000000007e-01 1.421835000000000182e-01 1.120964999999999989e+01 1.311825000000000045e+02 2.052005000000000109e+03
1.580000000000000016e-01 1.421800000000000008e-01 1.118309999999999960e+01 1.311529999999999916e+02 2.051975000000000364e+03
1.590000000000000024e-01 1.421779999999999988e-01 1.116499999999999915e+01 1.311260000000000048e+02 2.051944999999999709e+03
