# t [s], A [cm^2], U [cm/s], P [cPa], c [cm/s]
1.000000000000000021e-03 1.347165000000000168e-01 3.875625000000000320e-01 9.776685000000000514e+01 2.071980000000000018e+03
2.000000000000000042e-03 1.346829999999999972e-01 1.965536999999999868e+00 9.426144999999999641e+01 2.071529999999999745e+03
3.000000000000000062e-03 1.345884999999999998e-01 3.872577000000000158e+00 8.960439999999999827e+01 2.070329999999999927e+03
4.000000000000000083e-03 1.344584999999999808e-01 5.996162499999999618e+00 8.470635000000000048e+01 2.068695000000000164e+03
5.000000000000000104e-03 1.343185000000000073e-01 8.258044999999999192e+00 8.043254999999999200e+01 2.066949999999999818e+03
6.000000000000000125e-03 1.341824999999999823e-01 1.047409000000000034e+01 7.698404999999999632e+01 2.065274999999999636e+03
7.000000000000000146e-03 1.340544999999999931e-01 1.244392500000000013e+01 7.405334999999999468e+01 2.063725000000000364e+03
8.000000000000000167e-03 1.339359999999999995e-01 1.410795500000000047e+01 7.142144999999999300e+01 2.062319999999999709e+03
9.000000000000001055e-03 1.338320000000000065e-01 1.550825000000000031e+01 6.915059999999999718e+01 2.061095000000000255e+03
1.000000000000000194e-02 1.337424999999999864e-01 1.667494999999999905e+01 6.730029999999999291e+01 2.060054999999999836e+03
1.099999999999999936e-02 1.336689999999999823e-01 1.761885000000000190e+01 6.582925000000000182e+01 2.059215000000000146e+03
1.200000000000000025e-02 1.336084999999999912e-01 1.834795000000000087e+01 6.465995000000000914e+01 2.058529999999999745e+03
1.300000000000000114e-02 1.335594999999999977e-01 1.886430000000000007e+01 6.368484999999999729e+01 2.057984999999999673e+03
1.400000000000000203e-02 1.335179999999999978e-01 1.918544999999999945e+01 6.280689999999999884e+01 2.057529999999999745e+03
1.499999999999999944e-02 1.334835000000000049e-01 1.938674999999999926e+01 6.207005000000000194e+01 2.057159999999999854e+03
1.600000000000000033e-02 1.334599999999999953e-01 1.960354999999999848e+01 6.172999999999999687e+01 2.056909999999999854e+03
1.700000000000000122e-02 1.334529999999999883e-01 1.997494999999999976e+01 6.214164999999999850e+01 2.056845000000000255e+03
1.800000000000000211e-02 1.334690000000000043e-01 2.056909999999999883e+01 6.353055000000000518e+01 2.057045000000000073e+03
1.900000000000000300e-02 1.335089999999999888e-01 2.134490000000000265e+01 6.581770000000000209e+01 2.057510000000000218e+03
2.000000000000000042e-02 1.335675000000000057e-01 2.216815000000000069e+01 6.860595000000000709e+01 2.058190000000000055e+03
2.100000000000000130e-02 1.336335000000000162e-01 2.286805000000000021e+01 7.131989999999998986e+01 2.058965000000000146e+03
2.200000000000000219e-02 1.336950000000000083e-01 2.330120000000000147e+01 7.341384999999999650e+01 2.059710000000000036e+03
2.299999999999999961e-02 1.337430000000000008e-01 2.339705000000000013e+01 7.454874999999999829e+01 2.060284999999999854e+03
2.400000000000000050e-02 1.337710000000000010e-01 2.317060000000000031e+01 7.467525000000000546e+01 2.060639999999999873e+03
2.500000000000000139e-02 1.337784999999999946e-01 2.270295000000000130e+01 7.400374999999999659e+01 2.060760000000000218e+03
2.600000000000000228e-02 1.337714999999999876e-01 2.210249999999999915e+01 7.288994999999999891e+01 2.060694999999999709e+03
2.700000000000000316e-02 1.337554999999999994e-01 2.146430000000000149e+01 7.169104999999998995e+01 2.060519999999999982e+03
2.800000000000000058e-02 1.337355000000000071e-01 2.084259999999999735e+01 7.064929999999999666e+01 2.060305000000000291e+03
2.900000000000000147e-02 1.337174999999999891e-01 2.024394999999999811e+01 6.983949999999998681e+01 2.060090000000000146e+03
3.000000000000000236e-02 1.336999999999999855e-01 1.963814999999999955e+01 6.918575000000001296e+01 2.059885000000000218e+03
3.099999999999999978e-02 1.336824999999999819e-01 1.898179999999999978e+01 6.852830000000000155e+01 2.059684999999999945e+03
3.200000000000000067e-02 1.336629999999999763e-01 1.824275000000000091e+01 6.770980000000000132e+01 2.059454999999999927e+03
3.300000000000000155e-02 1.336380000000000068e-01 1.741929999999999978e+01 6.665155000000000030e+01 2.059175000000000182e+03
3.400000000000000244e-02 1.336080000000000045e-01 1.654775000000000063e+01 6.539509999999999934e+01 2.058829999999999927e+03
3.500000000000000333e-02 1.335755000000000137e-01 1.569674999999999798e+01 6.410105000000000075e+01 2.058454999999999927e+03
3.600000000000000422e-02 1.335439999999999960e-01 1.495090000000000074e+01 6.300574999999999903e+01 2.058090000000000146e+03
3.700000000000000511e-02 1.335189999999999988e-01 1.438850000000000051e+01 6.235325000000000273e+01 2.057795000000000073e+03
3.799999999999999906e-02 1.335054999999999992e-01 1.406099999999999994e+01 6.232370000000000232e+01 2.057625000000000000e+03
3.899999999999999994e-02 1.335065000000000002e-01 1.397980000000000089e+01 6.298069999999999879e+01 2.057625000000000000e+03
4.000000000000000083e-02 1.335235000000000172e-01 1.411284999999999989e+01 6.425079999999999814e+01 2.057805000000000291e+03
4.100000000000000172e-02 1.335540000000000060e-01 1.439189999999999969e+01 6.593805000000000405e+01 2.058144999999999982e+03
4.200000000000000261e-02 1.335930000000000173e-01 1.472599999999999909e+01 6.776519999999999300e+01 2.058590000000000146e+03
4.300000000000000350e-02 1.336344999999999894e-01 1.501820000000000022e+01 6.942860000000000298e+01 2.059065000000000055e+03
4.400000000000000439e-02 1.336720000000000130e-01 1.518104999999999905e+01 7.065209999999999013e+01 2.059500000000000000e+03
4.499999999999999833e-02 1.336990000000000123e-01 1.514744999999999919e+01 7.122809999999999775e+01 2.059819999999999709e+03
4.599999999999999922e-02 1.337114999999999831e-01 1.487700000000000067e+01 7.104064999999999941e+01 2.059970000000000255e+03
4.700000000000000011e-02 1.337055000000000049e-01 1.435604999999999976e+01 7.006784999999999286e+01 2.059914999999999964e+03
4.800000000000000100e-02 1.336809999999999943e-01 1.359434999999999860e+01 6.836814999999999998e+01 2.059640000000000327e+03
4.900000000000000189e-02 1.336390000000000078e-01 1.261875000000000036e+01 6.605700000000000216e+01 2.059159999999999854e+03
5.000000000000000278e-02 1.335814999999999919e-01 1.146682000000000023e+01 6.328030000000000399e+01 2.058500000000000000e+03
5.100000000000000366e-02 1.335109999999999908e-01 1.018134000000000050e+01 6.019159999999999400e+01 2.057690000000000055e+03
5.200000000000000455e-02 1.334319999999999951e-01 8.806440000000000268e+00 5.693580000000000041e+01 2.056775000000000091e+03
5.300000000000000544e-02 1.333469999999999933e-01 7.385779999999999568e+00 5.364180000000000348e+01 2.055784999999999854e+03
5.399999999999999939e-02 1.332595000000000030e-01 5.962175000000000225e+00 5.042170000000000130e+01 2.054760000000000218e+03
5.500000000000000028e-02 1.331725000000000270e-01 4.577929999999999389e+00 4.737430000000000518e+01 2.053744999999999891e+03
5.600000000000000117e-02 1.330879999999999841e-01 3.275499600000000289e+00 4.459064999999999657e+01 2.052765000000000327e+03
5.700000000000000205e-02 1.330105000000000037e-01 2.097455999999999765e+00 4.215820000000000078e+01 2.051855000000000018e+03
5.800000000000000294e-02 1.329414999999999902e-01 1.085830000000000073e+00 4.016239999999999810e+01 2.051039999999999964e+03
5.900000000000000383e-02 1.328829999999999734e-01 2.806249999999999023e-01 3.868524999999999636e+01 2.050349999999999909e+03
6.000000000000000472e-02 1.328384999999999982e-01 -2.822449999999999681e-01 3.780160000000000053e+01 2.049815000000000055e+03
6.099999999999999867e-02 1.328094999999999970e-01 -5.733489999999999975e-01 3.757254999999999967e+01 2.049465000000000146e+03
6.199999999999999956e-02 1.327979999999999994e-01 -5.719279999999999919e-01 3.803999999999999915e+01 2.049309999999999945e+03
6.300000000000000044e-02 1.328050000000000064e-01 -2.676005000000000189e-01 3.922115000000000151e+01 2.049364999999999782e+03
6.400000000000000133e-02 1.328310000000000046e-01 3.386870000000000713e-01 4.110545000000000471e+01 2.049644999999999982e+03
6.500000000000000222e-02 1.328759999999999941e-01 1.234601000000000059e+00 4.365425000000000466e+01 2.050150000000000091e+03
6.600000000000000311e-02 1.329390000000000016e-01 2.397253649999999681e+00 4.680279999999999774e+01 2.050860000000000127e+03
6.700000000000000400e-02 1.330184999999999840e-01 3.794710999999999945e+00 5.046464999999999890e+01 2.051769999999999982e+03
6.800000000000000488e-02 1.331129999999999813e-01 5.388099999999999667e+00 5.453784999999999883e+01 2.052850000000000364e+03
6.900000000000000577e-02 1.332190000000000041e-01 7.133999999999999453e+00 5.891169999999999618e+01 2.054079999999999927e+03
7.000000000000000666e-02 1.333344999999999947e-01 8.986909999999999954e+00 6.347405000000000541e+01 2.055414999999999964e+03
7.100000000000000755e-02 1.334565000000000057e-01 1.090178500000000028e+01 6.811769999999999925e+01 2.056835000000000036e+03
7.200000000000000844e-02 1.335824999999999929e-01 1.283612499999999912e+01 7.274639999999999418e+01 2.058305000000000291e+03
7.300000000000000933e-02 1.337094999999999811e-01 1.475220000000000020e+01 7.727975000000000705e+01 2.059795000000000073e+03
7.399999999999999634e-02 1.338360000000000105e-01 1.661834999999999951e+01 8.165610000000000923e+01 2.061275000000000091e+03
7.499999999999999722e-02 1.339589999999999947e-01 1.840970000000000084e+01 8.583455000000000723e+01 2.062735000000000127e+03
7.599999999999999811e-02 1.340784999999999894e-01 2.010924999999999940e+01 8.979489999999999839e+01 2.064150000000000091e+03
7.699999999999999900e-02 1.341930000000000067e-01 2.170739999999999981e+01 9.353614999999999213e+01 2.065510000000000218e+03
7.799999999999999989e-02 1.343030000000000057e-01 2.320125000000000171e+01 9.707410000000000139e+01 2.066820000000000164e+03
7.900000000000000078e-02 1.344084999999999863e-01 2.459365000000000023e+01 1.004364999999999952e+02 2.068074999999999818e+03
8.000000000000000167e-02 1.345095000000000041e-01 2.589189999999999969e+01 1.036597500000000025e+02 2.069284999999999854e+03
8.100000000000000255e-02 1.346069999999999767e-01 2.710604999999999976e+01 1.067835000000000036e+02 2.070454999999999927e+03
8.200000000000000344e-02 1.347015000000000018e-01 2.824765000000000015e+01 1.098444999999999965e+02 2.071599999999999909e+03
8.300000000000000433e-02 1.347949999999999982e-01 2.932784999999999798e+01 1.128774999999999977e+02 2.072720000000000255e+03
8.400000000000000522e-02 1.348870000000000069e-01 3.035670000000000002e+01 1.159064999999999941e+02 2.073829999999999927e+03
8.500000000000000611e-02 1.349789999999999879e-01 3.134179999999999922e+01 1.189474999999999909e+02 2.074930000000000291e+03
8.600000000000000699e-02 1.350704999999999822e-01 3.228784999999999883e+01 1.220045000000000073e+02 2.076029999999999745e+03
8.700000000000000788e-02 1.351625000000000187e-01 3.319630000000000081e+01 1.250699999999999932e+02 2.077135000000000218e+03
8.800000000000000877e-02 1.352540000000000131e-01 3.406544999999999845e+01 1.281285000000000025e+02 2.078244999999999891e+03
8.899999999999999578e-02 1.353449999999999931e-01 3.489034999999999798e+01 1.311550000000000011e+02 2.079340000000000146e+03
8.999999999999999667e-02 1.354349999999999998e-01 3.566360000000000241e+01 1.341179999999999950e+02 2.080430000000000291e+03
9.099999999999999756e-02 1.355230000000000046e-01 3.637590000000000146e+01 1.369819999999999993e+02 2.081489999999999782e+03
9.199999999999999845e-02 1.356080000000000063e-01 3.701624999999999943e+01 1.397090000000000032e+02 2.082519999999999982e+03
9.299999999999999933e-02 1.356895000000000184e-01 3.757330000000000325e+01 1.422620000000000005e+02 2.083510000000000218e+03
9.400000000000000022e-02 1.357665000000000122e-01 3.803575000000000017e+01 1.446055000000000064e+02 2.084440000000000055e+03
9.500000000000000111e-02 1.358374999999999999e-01 3.839284999999999570e+01 1.467069999999999936e+02 2.085300000000000182e+03
9.600000000000000200e-02 1.359020000000000228e-01 3.863524999999999920e+01 1.485389999999999873e+02 2.086090000000000146e+03
9.700000000000000289e-02 1.359589999999999965e-01 3.875554999999999950e+01 1.500815000000000055e+02 2.086789999999999964e+03
9.800000000000000377e-02 1.360079999999999900e-01 3.874864999999999782e+01 1.513199999999999932e+02 2.087389999999999873e+03
9.900000000000000466e-02 1.360494999999999899e-01 3.861230000000000473e+01 1.522479999999999905e+02 2.087894999999999982e+03
1.000000000000000056e-01 1.360814999999999941e-01 3.834694999999999965e+01 1.528670000000000186e+02 2.088300000000000182e+03
1.010000000000000064e-01 1.361050000000000038e-01 3.795629999999999882e+01 1.531864999999999952e+02 2.088599999999999909e+03
1.020000000000000073e-01 1.361205000000000054e-01 3.744704999999999728e+01 1.532224999999999966e+02 2.088795000000000073e+03
1.030000000000000082e-01 1.361279999999999990e-01 3.682860000000000156e+01 1.529979999999999905e+02 2.088904999999999745e+03
1.040000000000000091e-01 1.361284999999999856e-01 3.611299999999999955e+01 1.525434999999999945e+02 2.088909999999999854e+03
1.050000000000000100e-01 1.361215000000000064e-01 3.531405000000000172e+01 1.518919999999999959e+02 2.088845000000000255e+03
1.059999999999999970e-01 1.361090000000000078e-01 3.444720000000000226e+01 1.510784999999999911e+02 2.088704999999999927e+03
1.069999999999999979e-01 1.360915000000000041e-01 3.352850000000000108e+01 1.501410000000000196e+02 2.088500000000000000e+03
1.079999999999999988e-01 1.360704999999999831e-01 3.257439999999999714e+01 1.491159999999999854e+02 2.088250000000000000e+03
1.089999999999999997e-01 1.360454999999999859e-01 3.160064999999999813e+01 1.480389999999999873e+02 2.087960000000000036e+03
1.100000000000000006e-01 1.360190000000000010e-01 3.062219999999999942e+01 1.469420000000000073e+02 2.087645000000000437e+03
1.110000000000000014e-01 1.359910000000000008e-01 2.965225000000000222e+01 1.458509999999999991e+02 2.087309999999999945e+03
1.120000000000000023e-01 1.359630000000000005e-01 2.870215000000000316e+01 1.447895000000000039e+02 2.086970000000000255e+03
1.130000000000000032e-01 1.359350000000000003e-01 2.778090000000000259e+01 1.437729999999999961e+02 2.086630000000000109e+03
1.140000000000000041e-01 1.359070000000000000e-01 2.689509999999999934e+01 1.428120000000000118e+02 2.086295000000000073e+03
1.150000000000000050e-01 1.358805000000000152e-01 2.604870000000000019e+01 1.419099999999999966e+02 2.085970000000000255e+03
1.160000000000000059e-01 1.358550000000000035e-01 2.524304999999999666e+01 1.410659999999999741e+02 2.085659999999999854e+03
1.170000000000000068e-01 1.358309999999999795e-01 2.447725000000000151e+01 1.402729999999999961e+02 2.085364999999999782e+03
1.180000000000000077e-01 1.358074999999999977e-01 2.374810000000000088e+01 1.395190000000000055e+02 2.085085000000000036e+03
1.190000000000000085e-01 1.357849999999999890e-01 2.305060000000000286e+01 1.387889999999999873e+02 2.084805000000000291e+03
1.200000000000000094e-01 1.357630000000000225e-01 2.237825000000000131e+01 1.380654999999999859e+02 2.084539999999999964e+03
1.209999999999999964e-01 1.357415000000000149e-01 2.172350000000000136e+01 1.373280000000000030e+02 2.084269999999999982e+03
1.219999999999999973e-01 1.357185000000000197e-01 2.107835000000000036e+01 1.365570000000000164e+02 2.083994999999999891e+03
1.229999999999999982e-01 1.356954999999999967e-01 2.043449999999999989e+01 1.357344999999999970e+02 2.083715000000000146e+03
1.239999999999999991e-01 1.356709999999999861e-01 1.978430000000000177e+01 1.348410000000000082e+02 2.083414999999999964e+03
1.250000000000000000e-01 1.356445000000000012e-01 1.912075000000000102e+01 1.338634999999999877e+02 2.083095000000000255e+03
1.260000000000000009e-01 1.356154999999999999e-01 1.843825000000000003e+01 1.327905000000000086e+02 2.082750000000000000e+03
1.270000000000000018e-01 1.355844999999999967e-01 1.773259999999999792e+01 1.316154999999999973e+02 2.082375000000000000e+03
1.280000000000000027e-01 1.355509999999999771e-01 1.700159999999999982e+01 1.303369999999999891e+02 2.081965000000000146e+03
1.290000000000000036e-01 1.355140000000000233e-01 1.624494999999999933e+01 1.289585000000000150e+02 2.081529999999999745e+03
1.300000000000000044e-01 1.354750000000000121e-01 1.546454999999999913e+01 1.274890000000000043e+02 2.081060000000000400e+03
1.310000000000000053e-01 1.354334999999999845e-01 1.466420000000000101e+01 1.259410000000000025e+02 2.080560000000000400e+03
1.320000000000000062e-01 1.353894999999999960e-01 1.384970000000000034e+01 1.243335000000000008e+02 2.080034999999999854e+03
1.330000000000000071e-01 1.353439999999999921e-01 1.302830000000000155e+01 1.226864999999999952e+02 2.079489999999999782e+03
1.340000000000000080e-01 1.352975000000000150e-01 1.220865500000000026e+01 1.210250000000000057e+02 2.078934999999999945e+03
1.350000000000000089e-01 1.352504999999999957e-01 1.140021000000000129e+01 1.193735000000000070e+02 2.078364999999999782e+03
1.360000000000000098e-01 1.352035000000000042e-01 1.061289000000000016e+01 1.177584999999999980e+02 2.077805000000000291e+03
1.370000000000000107e-01 1.351569999999999994e-01 9.856555000000000177e+00 1.162044999999999959e+02 2.077250000000000000e+03
1.380000000000000115e-01 1.351120000000000099e-01 9.140480000000000160e+00 1.147344999999999970e+02 2.076710000000000036e+03
1.390000000000000124e-01 1.350695000000000090e-01 8.473219999999999530e+00 1.133684999999999974e+02 2.076194999999999709e+03
1.400000000000000133e-01 1.350294999999999968e-01 7.861864999999999881e+00 1.121225000000000023e+02 2.075710000000000036e+03
1.410000000000000142e-01 1.349920000000000009e-01 7.312174999999999869e+00 1.110090000000000003e+02 2.075265000000000327e+03
1.420000000000000151e-01 1.349580000000000224e-01 6.828125000000000000e+00 1.100354999999999990e+02 2.074855000000000018e+03
1.430000000000000160e-01 1.349285000000000068e-01 6.411925000000000097e+00 1.092050000000000125e+02 2.074494999999999891e+03
1.440000000000000169e-01 1.349019999999999941e-01 6.063995000000000246e+00 1.085174999999999983e+02 2.074170000000000073e+03
1.450000000000000178e-01 1.348799999999999999e-01 5.783050000000000246e+00 1.079664999999999964e+02 2.073899999999999636e+03
1.459999999999999909e-01 1.348610000000000086e-01 5.566245000000000331e+00 1.075440000000000111e+02 2.073670000000000073e+03
1.469999999999999918e-01 1.348460000000000214e-01 5.409365000000000201e+00 1.072384999999999877e+02 2.073480000000000018e+03
1.479999999999999927e-01 1.348340000000000094e-01 5.307084999999999830e+00 1.070365000000000038e+02 2.073335000000000036e+03
1.489999999999999936e-01 1.348250000000000004e-01 5.253194999999999837e+00 1.069230000000000018e+02 2.073220000000000255e+03
1.499999999999999944e-01 1.348189999999999944e-01 5.240890000000000271e+00 1.068820000000000050e+02 2.073144999999999982e+03
1.509999999999999953e-01 1.348150000000000182e-01 5.263035000000000352e+00 1.068979999999999961e+02 2.073090000000000146e+03
1.519999999999999962e-01 1.348125000000000018e-01 5.312400000000000233e+00 1.069555000000000007e+02 2.073059999999999945e+03
1.529999999999999971e-01 1.348119999999999874e-01 5.381904999999999717e+00 1.070384999999999991e+02 2.073045000000000073e+03
1.539999999999999980e-01 1.348125000000000018e-01 5.464825000000000266e+00 1.071350000000000051e+02 2.073039999999999964e+03
1.549999999999999989e-01 1.348125000000000018e-01 5.554980000000000473e+00 1.072330000000000041e+02 2.073045000000000073e+03
1.559999999999999998e-01 1.348139999999999894e-01 5.646860000000000213e+00 1.073220000000000027e+02 2.073059999999999945e+03
1.570000000000000007e-01 1.348154999999999770e-01 5.735780000000000101e+00 1.073944999999999936e+02 2.073074999999999818e+03
1.580000000000000016e-01 1.348159999999999914e-01 5.817924999999999791e+00 1.074440000000000026e+02 2.073085000000000036e+03
1.590000000000000024e-01 1.348165000000000058e-01 5.890425000000000466e+00 1.074680000000000035e+02 2.073090000000000146e+03
