# t [s], A [cm^2], U [cm/s], P [cPa], c [cm/s]
1.000000000000000021e-03 7.263215000000000643e-01 8.715000000000000524e-03 1.082890000000000015e+02 1.824630000000000109e+03
2.000000000000000042e-03 7.263085000000000235e-01 -1.669565000000000025e-03 1.082469999999999999e+02 1.824625000000000000e+03
3.000000000000000062e-03 7.263824999999999310e-01 1.315790000000000015e-01 1.084115000000000038e+02 1.824659999999999854e+03
4.000000000000000083e-03 7.264209999999999834e-01 2.267701500000000037e-01 1.085270000000000010e+02 1.824684999999999945e+03
5.000000000000000104e-03 7.263450000000000184e-01 1.347955000000000125e-01 1.083125000000000000e+02 1.824639999999999873e+03
6.000000000000000125e-03 7.262600000000000167e-01 1.740249999999998742e-02 1.079519999999999982e+02 1.824554999999999836e+03
7.000000000000000146e-03 7.261739999999999862e-01 -1.174549999999999761e-01 1.075054999999999978e+02 1.824460000000000036e+03
8.000000000000000167e-03 7.260070000000000690e-01 -4.189300000000000246e-01 1.067655000000000030e+02 1.824299999999999955e+03
9.000000000000001055e-03 7.257640000000000757e-01 -8.819949999999999735e-01 1.056835000000000093e+02 1.824059999999999945e+03
1.000000000000000194e-02 7.254260000000000153e-01 -1.526990000000000069e+00 1.041753499999999946e+02 1.823724999999999909e+03
1.099999999999999936e-02 7.249585000000000612e-01 -2.392984999999999918e+00 1.021155499999999989e+02 1.823264999999999873e+03
1.200000000000000025e-02 7.244085000000000107e-01 -3.365280000000000271e+00 9.959064999999999657e+01 1.822690000000000055e+03
1.300000000000000114e-02 7.238979999999999304e-01 -4.182128500000000138e+00 9.695754999999999768e+01 1.822065000000000055e+03
1.400000000000000203e-02 7.235249999999999737e-01 -4.610282499999999395e+00 9.461574999999999136e+01 1.821474999999999909e+03
1.499999999999999944e-02 7.233034999999999881e-01 -4.575495000000000090e+00 9.277125000000000909e+01 1.820974999999999909e+03
1.600000000000000033e-02 7.231704999999999384e-01 -4.166490000000000471e+00 9.136969999999999459e+01 1.820555000000000064e+03
1.700000000000000122e-02 7.230309999999999793e-01 -3.559669999999999668e+00 9.016864999999999952e+01 1.820190000000000055e+03
1.800000000000000211e-02 7.228094999999999937e-01 -2.925408000000000008e+00 8.887909999999999400e+01 1.819800000000000182e+03
1.900000000000000300e-02 7.224749999999999783e-01 -2.356551000000000062e+00 8.730109999999999104e+01 1.819360000000000127e+03
2.000000000000000042e-02 7.220509999999999984e-01 -1.844145000000000145e+00 8.539955000000000496e+01 1.818849999999999909e+03
2.100000000000000130e-02 7.215939999999999577e-01 -1.306285000000000140e+00 8.329210000000000491e+01 1.818284999999999854e+03
2.200000000000000219e-02 7.211615000000000109e-01 -6.495700000000002028e-01 8.116610000000000014e+01 1.817714999999999918e+03
2.299999999999999961e-02 7.207850000000000090e-01 1.720249999999996504e-01 7.917570000000000618e+01 1.817164999999999964e+03
2.400000000000000050e-02 7.204535000000000800e-01 1.126069999999999682e+00 7.736719999999999686e+01 1.816650000000000091e+03
2.500000000000000139e-02 7.201265000000000027e-01 2.103909999999999947e+00 7.565469999999999118e+01 1.816154999999999973e+03
2.600000000000000228e-02 7.197405000000000053e-01 2.949079999999999480e+00 7.384395000000000664e+01 1.815650000000000091e+03
2.700000000000000316e-02 7.192344999999999988e-01 3.501680000000000348e+00 7.169424999999999670e+01 1.815074999999999818e+03
2.800000000000000058e-02 7.185719999999999885e-01 3.647034999999999805e+00 6.900045000000000073e+01 1.814400000000000091e+03
2.900000000000000147e-02 7.177529999999999744e-01 3.353050000000000086e+00 6.567005000000000337e+01 1.813579999999999927e+03
3.000000000000000236e-02 7.168185000000000251e-01 2.680369999999999919e+00 6.176474999999999937e+01 1.812630000000000109e+03
3.099999999999999978e-02 7.158390000000000031e-01 1.760640000000000427e+00 5.748879999999999768e+01 1.811595000000000027e+03
3.200000000000000067e-02 7.148900000000000254e-01 7.555550000000001987e-01 5.313415000000000532e+01 1.810519999999999982e+03
3.300000000000000155e-02 7.140394999999999381e-01 -1.840500000000000469e-01 4.901089999999999947e+01 1.809490000000000009e+03
3.400000000000000244e-02 7.133335000000000647e-01 -9.451749999999998764e-01 4.538785000000000025e+01 1.808545000000000073e+03
3.500000000000000333e-02 7.127950000000000674e-01 -1.462674999999999503e+00 4.245660000000000167e+01 1.807755000000000109e+03
3.600000000000000422e-02 7.124274999999999913e-01 -1.715180000000000149e+00 4.031924999999999670e+01 1.807144999999999982e+03
3.700000000000000511e-02 7.122215000000000629e-01 -1.712380000000000013e+00 3.899759999999999849e+01 1.806730000000000018e+03
3.799999999999999906e-02 7.121604999999999741e-01 -1.478669000000000011e+00 3.845534999999999570e+01 1.806500000000000000e+03
3.899999999999999994e-02 7.122269999999999435e-01 -1.037793500000000035e+00 3.862630000000000052e+01 1.806460000000000036e+03
4.000000000000000083e-02 7.124114999999999753e-01 -4.027450000000001307e-01 3.944084999999999752e+01 1.806585000000000036e+03
4.100000000000000172e-02 7.127065000000000206e-01 4.267549999999997734e-01 4.084205000000000041e+01 1.806865000000000009e+03
4.200000000000000261e-02 7.131104999999999805e-01 1.459354999999999958e+00 4.278940000000000055e+01 1.807284999999999854e+03
4.300000000000000350e-02 7.136210000000000608e-01 2.702910000000000146e+00 4.525140000000000384e+01 1.807845000000000027e+03
4.400000000000000439e-02 7.142310000000000603e-01 4.155120000000000147e+00 4.819280000000000541e+01 1.808530000000000200e+03
4.499999999999999833e-02 7.149289999999999257e-01 5.797634999999999650e+00 5.156340000000000146e+01 1.809329999999999927e+03
4.599999999999999922e-02 7.156955000000000400e-01 7.594646000000000008e+00 5.529160000000000252e+01 1.810230000000000018e+03
4.700000000000000011e-02 7.165084999999999926e-01 9.496524999999998329e+00 5.928504999999999825e+01 1.811204999999999927e+03
4.800000000000000100e-02 7.173424999999999940e-01 1.144565000000000055e+01 6.343729999999999336e+01 1.812230000000000018e+03
4.900000000000000189e-02 7.181735000000000202e-01 1.338409499999999852e+01 6.763819999999999766e+01 1.813285000000000082e+03
5.000000000000000278e-02 7.189825000000000799e-01 1.526022999999999996e+01 7.178569999999999141e+01 1.814339999999999918e+03
5.100000000000000366e-02 7.197545000000000748e-01 1.703355000000000175e+01 7.579540000000000077e+01 1.815375000000000000e+03
5.200000000000000455e-02 7.204814999999999969e-01 1.867689999999999984e+01 7.960769999999999413e+01 1.816375000000000000e+03
5.300000000000000544e-02 7.211615000000000109e-01 2.017630000000000123e+01 8.318975000000000364e+01 1.817325000000000045e+03
5.399999999999999939e-02 7.217960000000001042e-01 2.152949999999999875e+01 8.653404999999999347e+01 1.818224999999999909e+03
5.500000000000000028e-02 7.223919999999999231e-01 2.274289999999999878e+01 8.965489999999999782e+01 1.819075000000000045e+03
5.600000000000000117e-02 7.229569999999999608e-01 2.382900000000000063e+01 9.258270000000000266e+01 1.819875000000000000e+03
5.700000000000000205e-02 7.234990000000000032e-01 2.480420000000000158e+01 9.535810000000000741e+01 1.820630000000000109e+03
5.800000000000000294e-02 7.240284999999999638e-01 2.568670000000000186e+01 9.802795000000000414e+01 1.821365000000000009e+03
5.900000000000000383e-02 7.245535000000000725e-01 2.649504999999999910e+01 1.006387500000000017e+02 1.822079999999999927e+03
6.000000000000000472e-02 7.250825000000000742e-01 2.724649999999999750e+01 1.032344999999999970e+02 1.822784999999999854e+03
6.099999999999999867e-02 7.256205000000000016e-01 2.795544999999999902e+01 1.058490000000000038e+02 1.823490000000000009e+03
6.199999999999999956e-02 7.261710000000000109e-01 2.863210000000000122e+01 1.085065000000000026e+02 1.824204999999999927e+03
6.300000000000000044e-02 7.267334999999999212e-01 2.928130000000000166e+01 1.112160000000000082e+02 1.824930000000000064e+03
6.400000000000000133e-02 7.273060000000000080e-01 2.990185000000000315e+01 1.139710000000000036e+02 1.825664999999999964e+03
6.500000000000000222e-02 7.278810000000000002e-01 3.048704999999999998e+01 1.167500000000000000e+02 1.826404999999999973e+03
6.600000000000000311e-02 7.284509999999999597e-01 3.102564999999999884e+01 1.195194999999999936e+02 1.827144999999999982e+03
6.700000000000000400e-02 7.290060000000000429e-01 3.150329999999999941e+01 1.222360000000000042e+02 1.827869999999999891e+03
6.800000000000000488e-02 7.295359999999999623e-01 3.190465000000000373e+01 1.248509999999999991e+02 1.828575000000000045e+03
6.900000000000000577e-02 7.300314999999999444e-01 3.221455000000000268e+01 1.273160000000000025e+02 1.829244999999999891e+03
7.000000000000000666e-02 7.304844999999999811e-01 3.242025000000000290e+01 1.295865000000000009e+02 1.829869999999999891e+03
7.100000000000000755e-02 7.308879999999999821e-01 3.251160000000000139e+01 1.316250000000000000e+02 1.830440000000000055e+03
7.200000000000000844e-02 7.312369999999999148e-01 3.248225000000000051e+01 1.334014999999999986e+02 1.830944999999999936e+03
7.300000000000000933e-02 7.315300000000000136e-01 3.232954999999999757e+01 1.348994999999999891e+02 1.831380000000000109e+03
7.399999999999999634e-02 7.317655000000000687e-01 3.205480000000000018e+01 1.361094999999999970e+02 1.831744999999999891e+03
7.499999999999999722e-02 7.319444999999999979e-01 3.166284999999999883e+01 1.370350000000000250e+02 1.832034999999999854e+03
7.599999999999999811e-02 7.320714999999999861e-01 3.116205000000000069e+01 1.376875000000000000e+02 1.832250000000000000e+03
7.699999999999999900e-02 7.321500000000000785e-01 3.056385000000000218e+01 1.380865000000000009e+02 1.832400000000000091e+03
7.799999999999999989e-02 7.321860000000000035e-01 2.988230000000000075e+01 1.382605000000000075e+02 1.832490000000000009e+03
7.900000000000000078e-02 7.321864999999999624e-01 2.913360000000000127e+01 1.382409999999999854e+02 1.832525000000000091e+03
8.000000000000000167e-02 7.321584999999999344e-01 2.833530000000000371e+01 1.380649999999999977e+02 1.832509999999999991e+03
8.100000000000000255e-02 7.321100000000000385e-01 2.750594999999999857e+01 1.377694999999999936e+02 1.832469999999999800e+03
8.200000000000000344e-02 7.320480000000000320e-01 2.666360000000000241e+01 1.373935000000000173e+02 1.832389999999999873e+03
8.300000000000000433e-02 7.319795000000000051e-01 2.582549999999999812e+01 1.369714999999999918e+02 1.832305000000000064e+03
8.400000000000000522e-02 7.319105000000000194e-01 2.500665000000000049e+01 1.365374999999999943e+02 1.832204999999999927e+03
8.500000000000000611e-02 7.318454999999999266e-01 2.421965000000000146e+01 1.361179999999999950e+02 1.832099999999999909e+03
8.600000000000000699e-02 7.317884999999999529e-01 2.347339999999999804e+01 1.357325000000000159e+02 1.832005000000000109e+03
8.700000000000000788e-02 7.317400000000000571e-01 2.277349999999999852e+01 1.353940000000000055e+02 1.831914999999999964e+03
8.800000000000000877e-02 7.317009999999999348e-01 2.212140000000000128e+01 1.351080000000000041e+02 1.831835000000000036e+03
8.899999999999999578e-02 7.316700000000000426e-01 2.151534999999999798e+01 1.348714999999999975e+02 1.831764999999999873e+03
8.999999999999999667e-02 7.316445000000000309e-01 2.095015000000000072e+01 1.346759999999999877e+02 1.831704999999999927e+03
9.099999999999999756e-02 7.316214999999999247e-01 2.041805000000000092e+01 1.345060000000000002e+02 1.831654999999999973e+03
9.199999999999999845e-02 7.315964999999999829e-01 1.990950000000000131e+01 1.343425000000000011e+02 1.831599999999999909e+03
9.299999999999999933e-02 7.315644999999999509e-01 1.941349999999999909e+01 1.341639999999999873e+02 1.831549999999999955e+03
9.400000000000000022e-02 7.315214999999999357e-01 1.891854999999999976e+01 1.339470000000000027e+02 1.831490000000000009e+03
9.500000000000000111e-02 7.314629999999999743e-01 1.841335000000000122e+01 1.336694999999999993e+02 1.831414999999999964e+03
9.600000000000000200e-02 7.313855000000000217e-01 1.788749999999999929e+01 1.333100000000000023e+02 1.831325000000000045e+03
9.700000000000000289e-02 7.312849999999999628e-01 1.733225000000000193e+01 1.328520000000000039e+02 1.831210000000000036e+03
9.800000000000000377e-02 7.311609999999999498e-01 1.674099999999999966e+01 1.322820000000000107e+02 1.831065000000000055e+03
9.900000000000000466e-02 7.310119999999999951e-01 1.611009999999999920e+01 1.315935000000000059e+02 1.830900000000000091e+03
1.000000000000000056e-01 7.308390000000000164e-01 1.543900000000000006e+01 1.307855000000000132e+02 1.830700000000000045e+03
1.010000000000000064e-01 7.306435000000000013e-01 1.473055000000000092e+01 1.298659999999999854e+02 1.830474999999999909e+03
1.020000000000000073e-01 7.304295000000000648e-01 1.399084999999999823e+01 1.288474999999999966e+02 1.830214999999999918e+03
1.030000000000000082e-01 7.302020000000000177e-01 1.322903999999999947e+01 1.277500000000000000e+02 1.829940000000000055e+03
1.040000000000000091e-01 7.299660000000000037e-01 1.245672000000000068e+01 1.265989999999999895e+02 1.829650000000000091e+03
1.050000000000000100e-01 7.297290000000000720e-01 1.168731000000000009e+01 1.254250000000000114e+02 1.829349999999999909e+03
1.059999999999999970e-01 7.294960000000000333e-01 1.093518500000000060e+01 1.242579999999999956e+02 1.829049999999999955e+03
1.069999999999999979e-01 7.292745000000000477e-01 1.021485999999999983e+01 1.231299999999999955e+02 1.828755000000000109e+03
1.079999999999999988e-01 7.290695000000000370e-01 9.540199999999998681e+00 1.220720000000000027e+02 1.828474999999999909e+03
1.089999999999999997e-01 7.288870000000000626e-01 8.923479999999999634e+00 1.211119999999999948e+02 1.828215000000000146e+03
1.100000000000000006e-01 7.287310000000000176e-01 8.374874999999999403e+00 1.202715000000000032e+02 1.827985000000000127e+03
1.110000000000000014e-01 7.286030000000000006e-01 7.902035000000000586e+00 1.195679999999999978e+02 1.827785000000000082e+03
1.120000000000000023e-01 7.285055000000000280e-01 7.509574999999999889e+00 1.190114999999999981e+02 1.827615000000000009e+03
1.130000000000000032e-01 7.284384999999999888e-01 7.198980000000000601e+00 1.186065000000000111e+02 1.827494999999999891e+03
1.140000000000000041e-01 7.284000000000000474e-01 6.968804999999999694e+00 1.183495000000000061e+02 1.827405000000000200e+03
1.150000000000000050e-01 7.283884999999999943e-01 6.814814999999999401e+00 1.182314999999999969e+02 1.827345000000000027e+03
1.160000000000000059e-01 7.283994999999999775e-01 6.730455000000000076e+00 1.182385000000000019e+02 1.827325000000000045e+03
1.170000000000000068e-01 7.284300000000000219e-01 6.707304999999999851e+00 1.183524999999999920e+02 1.827335000000000036e+03
1.180000000000000077e-01 7.284755000000000535e-01 6.735654999999999504e+00 1.185534999999999997e+02 1.827365000000000009e+03
1.190000000000000085e-01 7.285314999999999985e-01 6.805089999999999861e+00 1.188185000000000002e+02 1.827420000000000073e+03
1.200000000000000094e-01 7.285934999999998940e-01 6.905025000000000190e+00 1.191260000000000048e+02 1.827485000000000127e+03
1.209999999999999964e-01 7.286584999999999868e-01 7.025170000000000137e+00 1.194559999999999889e+02 1.827555000000000064e+03
1.219999999999999973e-01 7.287215000000000220e-01 7.155899999999999928e+00 1.197895000000000039e+02 1.827634999999999991e+03
1.229999999999999982e-01 7.287810000000000121e-01 7.288610000000000255e+00 1.201105000000000018e+02 1.827710000000000036e+03
1.239999999999999991e-01 7.288345000000000518e-01 7.415874999999999773e+00 1.204050000000000011e+02 1.827785000000000082e+03
1.250000000000000000e-01 7.288795000000000135e-01 7.531600000000000072e+00 1.206649999999999920e+02 1.827849999999999909e+03
1.260000000000000009e-01 7.289160000000000084e-01 7.631120000000000125e+00 1.208824999999999932e+02 1.827910000000000082e+03
1.270000000000000018e-01 7.289440000000000364e-01 7.711185000000000400e+00 1.210550000000000068e+02 1.827954999999999927e+03
1.280000000000000027e-01 7.289630000000000276e-01 7.769944999999999879e+00 1.211814999999999998e+02 1.827990000000000009e+03
1.290000000000000036e-01 7.289729999999999821e-01 7.806904999999999539e+00 1.212644999999999982e+02 1.828019999999999982e+03
1.300000000000000044e-01 7.289764999999999162e-01 7.822789999999999466e+00 1.213075000000000045e+02 1.828034999999999854e+03
1.310000000000000053e-01 7.289734999999999410e-01 7.819425000000000736e+00 1.213174999999999955e+02 1.828045000000000073e+03
1.320000000000000062e-01 7.289670000000000316e-01 7.799529999999999852e+00 1.213010000000000019e+02 1.828045000000000073e+03
1.330000000000000071e-01 7.289579999999999949e-01 7.766515000000000057e+00 1.212669999999999959e+02 1.828045000000000073e+03
1.340000000000000080e-01 7.289479999999999293e-01 7.724209999999999354e+00 1.212239999999999895e+02 1.828034999999999854e+03
1.350000000000000089e-01 7.289390000000000036e-01 7.676595000000000724e+00 1.211800000000000068e+02 1.828025000000000091e+03
1.360000000000000098e-01 7.289324999999999832e-01 7.627519999999999634e+00 1.211435000000000031e+02 1.828019999999999982e+03
1.370000000000000107e-01 7.289299999999999669e-01 7.580439999999999401e+00 1.211204999999999927e+02 1.828014999999999873e+03
1.380000000000000115e-01 7.289315000000000655e-01 7.538204999999999600e+00 1.211165000000000020e+02 1.828014999999999873e+03
1.390000000000000124e-01 7.289379999999999749e-01 7.502890000000000725e+00 1.211345000000000027e+02 1.828019999999999982e+03
1.400000000000000133e-01 7.289499999999999869e-01 7.475704999999999600e+00 1.211749999999999972e+02 1.828030000000000200e+03
1.410000000000000142e-01 7.289654999999999330e-01 7.456965000000000288e+00 1.212379999999999995e+02 1.828045000000000073e+03
1.420000000000000151e-01 7.289849999999999941e-01 7.446184999999999832e+00 1.213199999999999932e+02 1.828065000000000055e+03
1.430000000000000160e-01 7.290069999999999606e-01 7.442170000000000840e+00 1.214175000000000040e+02 1.828090000000000146e+03
1.440000000000000169e-01 7.290305000000000257e-01 7.443224999999999980e+00 1.215240000000000009e+02 1.828115000000000009e+03
1.450000000000000178e-01 7.290535000000000210e-01 7.447364999999999569e+00 1.216334999999999980e+02 1.828144999999999982e+03
1.459999999999999909e-01 7.290760000000000574e-01 7.452524999999999622e+00 1.217409999999999997e+02 1.828170000000000073e+03
1.469999999999999918e-01 7.290959999999999663e-01 7.456795000000000506e+00 1.218400000000000034e+02 1.828195000000000164e+03
1.479999999999999927e-01 7.291130000000000111e-01 7.458544999999999980e+00 1.219260000000000019e+02 1.828215000000000146e+03
1.489999999999999936e-01 7.291259999999999408e-01 7.456609999999999516e+00 1.219954999999999927e+02 1.828235000000000127e+03
1.499999999999999944e-01 7.291354999999999364e-01 7.450325000000000308e+00 1.220469999999999970e+02 1.828250000000000000e+03
1.509999999999999953e-01 7.291410000000000391e-01 7.439569999999999794e+00 1.220794999999999959e+02 1.828264999999999873e+03
1.519999999999999962e-01 7.291434999999999444e-01 7.424744999999999706e+00 1.220944999999999965e+02 1.828269999999999982e+03
1.529999999999999971e-01 7.291425000000000267e-01 7.406719999999999970e+00 1.220939999999999941e+02 1.828275000000000091e+03
1.539999999999999980e-01 7.291395000000000515e-01 7.386739999999999640e+00 1.220825000000000102e+02 1.828265000000000100e+03
1.549999999999999989e-01 7.291360000000000063e-01 7.366389999999999993e+00 1.220635000000000048e+02 1.828265000000000100e+03
1.559999999999999998e-01 7.291320000000000023e-01 7.347475000000000200e+00 1.220424999999999898e+02 1.828260000000000218e+03
1.570000000000000007e-01 7.291294999999999860e-01 7.331974999999999909e+00 1.220254999999999939e+02 1.828260000000000218e+03
1.580000000000000016e-01 7.291285000000000682e-01 7.321944999999999482e+00 1.220169999999999959e+02 1.828255000000000109e+03
1.590000000000000024e-01 7.291320000000000023e-01 7.319454999999999600e+00 1.220244999999999891e+02 1.828255000000000109e+03
