# t [s], A [cm^2], U [cm/s], P [cPa], c [cm/s]
1.000000000000000021e-03 7.247284999999999977e-01 6.558750000000002078e-03 9.171274999999999977e+01 1.764519999999999982e+03
2.000000000000000042e-03 7.247144999999999282e-01 -7.301750000000000081e-03 9.167855000000000132e+01 1.764514999999999873e+03
3.000000000000000062e-03 7.247524999999999107e-01 5.525450000000000500e-02 9.175024999999999409e+01 1.764529999999999973e+03
4.000000000000000083e-03 7.248084999999999667e-01 1.586667999999999967e-01 9.188915000000000077e+01 1.764565000000000055e+03
5.000000000000000104e-03 7.248014999999999874e-01 1.719815000000000094e-01 9.188814999999999600e+01 1.764565000000000055e+03
6.000000000000000125e-03 7.247354999999999769e-01 8.739600000000000146e-02 9.169785000000000252e+01 1.764525000000000091e+03
7.000000000000000146e-03 7.246859999999999413e-01 2.629349999999996967e-02 9.147974999999999568e+01 1.764470000000000027e+03
8.000000000000000167e-03 7.246304999999999552e-01 -5.369649999999998036e-02 9.120884999999999820e+01 1.764404999999999973e+03
9.000000000000001055e-03 7.245274999999999910e-01 -2.303569999999999784e-01 9.077889999999999304e+01 1.764305000000000064e+03
1.000000000000000194e-02 7.243729999999999336e-01 -5.138350000000001527e-01 9.015030000000000143e+01 1.764164999999999964e+03
1.099999999999999936e-02 7.241504999999999193e-01 -9.285050000000000248e-01 8.926035000000000252e+01 1.763960000000000036e+03
1.200000000000000025e-02 7.238415000000000266e-01 -1.498744999999999994e+00 8.803515000000000157e+01 1.763680000000000064e+03
1.300000000000000114e-02 7.234694999999999876e-01 -2.169870000000000410e+00 8.650514999999998622e+01 1.763324999999999818e+03
1.400000000000000203e-02 7.230999999999999650e-01 -2.806788499999999686e+00 8.483410000000000650e+01 1.762920000000000073e+03
1.499999999999999944e-02 7.227945000000000064e-01 -3.272210999999999981e+00 8.322514999999999930e+01 1.762514999999999873e+03
1.600000000000000033e-02 7.225749999999999673e-01 -3.495747999999999855e+00 8.181239999999999668e+01 1.762144999999999982e+03
1.700000000000000122e-02 7.224194999999999922e-01 -3.488347500000000156e+00 8.061549999999999727e+01 1.761809999999999945e+03
1.800000000000000211e-02 7.222844999999999960e-01 -3.315030000000000143e+00 7.955955000000000155e+01 1.761494999999999891e+03
1.900000000000000300e-02 7.221269999999999634e-01 -3.054154000000000035e+00 7.852834999999998900e+01 1.761190000000000055e+03
2.000000000000000042e-02 7.219200000000000061e-01 -2.763941500000000051e+00 7.741894999999999527e+01 1.760865000000000009e+03
2.100000000000000130e-02 7.216599999999999682e-01 -2.466010999999999953e+00 7.617834999999999468e+01 1.760509999999999991e+03
2.200000000000000219e-02 7.213614999999999888e-01 -2.146646499999999680e+00 7.481390000000000384e+01 1.760125000000000000e+03
2.299999999999999961e-02 7.210514999999999564e-01 -1.771129999999999871e+00 7.338039999999999452e+01 1.759724999999999909e+03
2.400000000000000050e-02 7.207540000000000058e-01 -1.304100000000000037e+00 7.195154999999999745e+01 1.759319999999999936e+03
2.500000000000000139e-02 7.204820000000000668e-01 -7.284200000000000674e-01 7.058859999999999957e+01 1.758925000000000182e+03
2.600000000000000228e-02 7.202349999999999586e-01 -5.644500000000007844e-02 6.931544999999999845e+01 1.758545000000000073e+03
2.700000000000000316e-02 7.199955000000000105e-01 6.685399999999996901e-01 6.810845000000000482e+01 1.758180000000000064e+03
2.800000000000000058e-02 7.197379999999999889e-01 1.380074999999999941e+00 6.690040000000000475e+01 1.757825000000000045e+03
2.900000000000000147e-02 7.194335000000000591e-01 2.002849999999999575e+00 6.559784999999999400e+01 1.757444999999999936e+03
3.000000000000000236e-02 7.190600000000000325e-01 2.470095000000000152e+00 6.410685000000000855e+01 1.757034999999999854e+03
3.099999999999999978e-02 7.186060000000000780e-01 2.739910000000000068e+00 6.236070000000000135e+01 1.756565000000000055e+03
3.200000000000000067e-02 7.180800000000000516e-01 2.805300000000000349e+00 6.034215000000000373e+01 1.756039999999999964e+03
3.300000000000000155e-02 7.175034999999999608e-01 2.694290000000000074e+00 5.809080000000000155e+01 1.755460000000000036e+03
3.400000000000000244e-02 7.169090000000000185e-01 2.460119999999999862e+00 5.569495000000000573e+01 1.754835000000000036e+03
3.500000000000000333e-02 7.163310000000000510e-01 2.165974999999999984e+00 5.327094999999999914e+01 1.754210000000000036e+03
3.600000000000000422e-02 7.157975000000000865e-01 1.870360000000000245e+00 5.093939999999999912e+01 1.753595000000000027e+03
3.700000000000000511e-02 7.153294999999999515e-01 1.617339999999999556e+00 4.880495000000000516e+01 1.753019999999999982e+03
3.799999999999999906e-02 7.149364999999999748e-01 1.433065000000000033e+00 4.694460000000000122e+01 1.752509999999999991e+03
3.899999999999999994e-02 7.146220000000000905e-01 1.327700000000000102e+00 4.540505000000000280e+01 1.752074999999999818e+03
4.000000000000000083e-02 7.143824999999999203e-01 1.300664999999999960e+00 4.420629999999999882e+01 1.751720000000000027e+03
4.100000000000000172e-02 7.142140000000000155e-01 1.347175000000000011e+00 4.335004999999999598e+01 1.751454999999999927e+03
4.200000000000000261e-02 7.141124999999999279e-01 1.464194500000000065e+00 4.282914999999999850e+01 1.751275000000000091e+03
4.300000000000000350e-02 7.140779999999999905e-01 1.654530000000000056e+00 4.263689999999999714e+01 1.751179999999999836e+03
4.400000000000000439e-02 7.141120000000000800e-01 1.928185000000000038e+00 4.277190000000000225e+01 1.751179999999999836e+03
4.499999999999999833e-02 7.142195000000000071e-01 2.300945000000000018e+00 4.323999999999999488e+01 1.751264999999999873e+03
4.599999999999999922e-02 7.144049999999999567e-01 2.790889500000000023e+00 4.405199999999999960e+01 1.751440000000000055e+03
4.700000000000000011e-02 7.146725000000000438e-01 3.414051499999999795e+00 4.521829999999999927e+01 1.751710000000000036e+03
4.800000000000000100e-02 7.150229999999999642e-01 4.180416499999999758e+00 4.674344999999999573e+01 1.752070000000000164e+03
4.900000000000000189e-02 7.154530000000000056e-01 5.091311000000000142e+00 4.862120000000000175e+01 1.752529999999999973e+03
5.000000000000000278e-02 7.159549999999998970e-01 6.138553500000000440e+00 5.083164999999999623e+01 1.753070000000000164e+03
5.100000000000000366e-02 7.165200000000000458e-01 7.305124999999999424e+00 5.334104999999999563e+01 1.753695000000000164e+03
5.200000000000000455e-02 7.171334999999999793e-01 8.567560000000000286e+00 5.610354999999999848e+01 1.754394999999999982e+03
5.300000000000000544e-02 7.177824999999999900e-01 9.898469999999999658e+00 5.906544999999999845e+01 1.755150000000000091e+03
5.399999999999999939e-02 7.184540000000000370e-01 1.126961000000000013e+01 6.216940000000000310e+01 1.755950000000000045e+03
5.500000000000000028e-02 7.191354999999999276e-01 1.265480499999999964e+01 6.535975000000000534e+01 1.756779999999999973e+03
5.600000000000000117e-02 7.198174999999999990e-01 1.403130999999999950e+01 6.858615000000000350e+01 1.757630000000000109e+03
5.700000000000000205e-02 7.204924999999999802e-01 1.538135499999999922e+01 7.180689999999999884e+01 1.758490000000000009e+03
5.800000000000000294e-02 7.211564999999999781e-01 1.669200000000000017e+01 7.499025000000000318e+01 1.759345000000000027e+03
5.900000000000000383e-02 7.218065000000000175e-01 1.795465000000000089e+01 7.811424999999999841e+01 1.760190000000000055e+03
6.000000000000000472e-02 7.224414999999999587e-01 1.916434999999999889e+01 8.116620000000000346e+01 1.761025000000000091e+03
6.099999999999999867e-02 7.230624999999999414e-01 2.031864999999999810e+01 8.414074999999999704e+01 1.761844999999999800e+03
6.199999999999999956e-02 7.236694999999999656e-01 2.141644999999999754e+01 8.703794999999999504e+01 1.762640000000000100e+03
6.300000000000000044e-02 7.242640000000000189e-01 2.245759999999999934e+01 8.986109999999999332e+01 1.763420000000000073e+03
6.400000000000000133e-02 7.248464999999999492e-01 2.344174999999999898e+01 9.261475000000000080e+01 1.764190000000000055e+03
6.500000000000000222e-02 7.254184999999999661e-01 2.436820000000000164e+01 9.530339999999999634e+01 1.764940000000000055e+03
6.600000000000000311e-02 7.259784999999999711e-01 2.523529999999999873e+01 9.792895000000000039e+01 1.765670000000000073e+03
6.700000000000000400e-02 7.265270000000000339e-01 2.604050000000000153e+01 1.004921499999999952e+02 1.766390000000000100e+03
6.800000000000000488e-02 7.270615000000000272e-01 2.678025000000000233e+01 1.029884500000000003e+02 1.767085000000000036e+03
6.900000000000000577e-02 7.275804999999999634e-01 2.745060000000000144e+01 1.054122500000000002e+02 1.767769999999999982e+03
7.000000000000000666e-02 7.280809999999999782e-01 2.804715000000000202e+01 1.077539999999999907e+02 1.768434999999999945e+03
7.100000000000000755e-02 7.285610000000000142e-01 2.856580000000000297e+01 1.100040000000000049e+02 1.769069999999999936e+03
7.200000000000000844e-02 7.290179999999999438e-01 2.900330000000000297e+01 1.121500000000000057e+02 1.769680000000000064e+03
7.300000000000000933e-02 7.294500000000000428e-01 2.935750000000000171e+01 1.141829999999999927e+02 1.770264999999999873e+03
7.399999999999999634e-02 7.298549999999999205e-01 2.962780000000000058e+01 1.160944999999999965e+02 1.770815000000000055e+03
7.499999999999999722e-02 7.302324999999999511e-01 2.981470000000000198e+01 1.178764999999999930e+02 1.771335000000000036e+03
7.599999999999999811e-02 7.305825000000000236e-01 2.992009999999999792e+01 1.195259999999999962e+02 1.771815000000000055e+03
7.699999999999999900e-02 7.309039999999999981e-01 2.994669999999999987e+01 1.210399999999999920e+02 1.772259999999999991e+03
7.799999999999999989e-02 7.311974999999999447e-01 2.989755000000000251e+01 1.224170000000000016e+02 1.772670000000000073e+03
7.900000000000000078e-02 7.314629999999999743e-01 2.977604999999999791e+01 1.236585000000000036e+02 1.773045000000000073e+03
8.000000000000000167e-02 7.317004999999999759e-01 2.958539999999999992e+01 1.247639999999999958e+02 1.773380000000000109e+03
8.100000000000000255e-02 7.319094999999999906e-01 2.932869999999999777e+01 1.257344999999999970e+02 1.773675000000000182e+03
8.200000000000000344e-02 7.320910000000000473e-01 2.900914999999999822e+01 1.265720000000000027e+02 1.773934999999999945e+03
8.300000000000000433e-02 7.322444999999999649e-01 2.863025000000000020e+01 1.272779999999999916e+02 1.774159999999999854e+03
8.400000000000000522e-02 7.323710000000001052e-01 2.819619999999999749e+01 1.278559999999999945e+02 1.774349999999999909e+03
8.500000000000000611e-02 7.324720000000000120e-01 2.771175000000000210e+01 1.283104999999999905e+02 1.774500000000000000e+03
8.600000000000000699e-02 7.325485000000000468e-01 2.718299999999999983e+01 1.286479999999999961e+02 1.774625000000000000e+03
8.700000000000000788e-02 7.326030000000000042e-01 2.661679999999999779e+01 1.288779999999999859e+02 1.774710000000000036e+03
8.800000000000000877e-02 7.326380000000000114e-01 2.602100000000000080e+01 1.290114999999999839e+02 1.774769999999999982e+03
8.899999999999999578e-02 7.326559999999999739e-01 2.540380000000000038e+01 1.290595000000000141e+02 1.774804999999999836e+03
8.999999999999999667e-02 7.326610000000000067e-01 2.477369999999999806e+01 1.290370000000000061e+02 1.774819999999999936e+03
9.099999999999999756e-02 7.326544999999999863e-01 2.413870000000000005e+01 1.289574999999999818e+02 1.774815000000000055e+03
9.199999999999999845e-02 7.326405000000000278e-01 2.350600000000000023e+01 1.288340000000000032e+02 1.774795000000000073e+03
9.299999999999999933e-02 7.326200000000000490e-01 2.288194999999999979e+01 1.286784999999999854e+02 1.774759999999999991e+03
9.400000000000000022e-02 7.325964999999999838e-01 2.227114999999999867e+01 1.285014999999999930e+02 1.774720000000000027e+03
9.500000000000000111e-02 7.325694999999999846e-01 2.167714999999999748e+01 1.283109999999999786e+02 1.774674999999999955e+03
9.600000000000000200e-02 7.325409999999999977e-01 2.110154999999999959e+01 1.281109999999999900e+02 1.774625000000000000e+03
9.700000000000000289e-02 7.325099999999999945e-01 2.054495000000000005e+01 1.279060000000000059e+02 1.774569999999999936e+03
9.800000000000000377e-02 7.324760000000000160e-01 2.000655000000000072e+01 1.276954999999999956e+02 1.774510000000000218e+03
9.900000000000000466e-02 7.324399999999999800e-01 1.948454999999999870e+01 1.274789999999999992e+02 1.774454999999999927e+03
1.000000000000000056e-01 7.323994999999999811e-01 1.897654999999999959e+01 1.272530000000000001e+02 1.774390000000000100e+03
1.010000000000000064e-01 7.323549999999999782e-01 1.847940000000000182e+01 1.270134999999999934e+02 1.774320000000000164e+03
1.020000000000000073e-01 7.323039999999999550e-01 1.798955000000000126e+01 1.267560000000000002e+02 1.774250000000000000e+03
1.030000000000000082e-01 7.322465000000000224e-01 1.750359999999999872e+01 1.264759999999999991e+02 1.774170000000000073e+03
1.040000000000000091e-01 7.321809999999999707e-01 1.701774999999999949e+01 1.261670000000000016e+02 1.774085000000000036e+03
1.050000000000000100e-01 7.321070000000000633e-01 1.652874999999999872e+01 1.258264999999999958e+02 1.773994999999999891e+03
1.059999999999999970e-01 7.320240000000000080e-01 1.603359999999999985e+01 1.254495000000000005e+02 1.773894999999999982e+03
1.069999999999999979e-01 7.319314999999999571e-01 1.552984999999999971e+01 1.250344999999999942e+02 1.773785000000000082e+03
1.079999999999999988e-01 7.318290000000000628e-01 1.501590000000000025e+01 1.245805000000000007e+02 1.773659999999999854e+03
1.089999999999999997e-01 7.317184999999999384e-01 1.449094999999999978e+01 1.240875000000000057e+02 1.773534999999999854e+03
1.100000000000000006e-01 7.315994999999999582e-01 1.395524999999999949e+01 1.235589999999999975e+02 1.773390000000000100e+03
1.110000000000000014e-01 7.314739999999999576e-01 1.341000999999999976e+01 1.229989999999999952e+02 1.773240000000000009e+03
1.120000000000000023e-01 7.313434999999999242e-01 1.285746999999999929e+01 1.224140000000000015e+02 1.773085000000000036e+03
1.130000000000000032e-01 7.312100000000000266e-01 1.230074000000000112e+01 1.218114999999999952e+02 1.772924999999999955e+03
1.140000000000000041e-01 7.310760000000000591e-01 1.174376999999999960e+01 1.212014999999999958e+02 1.772759999999999991e+03
1.150000000000000050e-01 7.309434999999999683e-01 1.119119000000000064e+01 1.205944999999999965e+02 1.772595000000000027e+03
1.160000000000000059e-01 7.308154999999999513e-01 1.064798499999999848e+01 1.200014999999999930e+02 1.772434999999999945e+03
1.170000000000000068e-01 7.306954999999999423e-01 1.011918499999999987e+01 1.194339999999999975e+02 1.772275000000000091e+03
1.180000000000000077e-01 7.305835000000000523e-01 9.609960000000000946e+00 1.189029999999999916e+02 1.772130000000000109e+03
1.190000000000000085e-01 7.304835000000000633e-01 9.125040000000000262e+00 1.184184999999999945e+02 1.771990000000000009e+03
1.200000000000000094e-01 7.303965000000000041e-01 8.668655000000001110e+00 1.179894999999999925e+02 1.771869999999999891e+03
1.209999999999999964e-01 7.303239999999999732e-01 8.244189999999999685e+00 1.176229999999999905e+02 1.771759999999999991e+03
1.219999999999999973e-01 7.302669999999999995e-01 7.854224999999999568e+00 1.173239999999999981e+02 1.771670000000000073e+03
1.229999999999999982e-01 7.302254999999999718e-01 7.500300000000000189e+00 1.170964999999999918e+02 1.771599999999999909e+03
1.239999999999999991e-01 7.301990000000000425e-01 7.182900000000000063e+00 1.169394999999999953e+02 1.771545000000000073e+03
1.250000000000000000e-01 7.301874999999999893e-01 6.901490000000000791e+00 1.168515000000000015e+02 1.771509999999999991e+03
1.260000000000000009e-01 7.301900000000000057e-01 6.654624999999999346e+00 1.168299999999999983e+02 1.771490000000000009e+03
1.270000000000000018e-01 7.302040000000000752e-01 6.440034999999999954e+00 1.168679999999999950e+02 1.771490000000000009e+03
1.280000000000000027e-01 7.302290000000000170e-01 6.254884999999999806e+00 1.169590000000000032e+02 1.771505000000000109e+03
1.290000000000000036e-01 7.302625000000000366e-01 6.095895000000000508e+00 1.170949999999999989e+02 1.771529999999999973e+03
1.300000000000000044e-01 7.303029999999999244e-01 5.959575000000000067e+00 1.172675000000000125e+02 1.771569999999999936e+03
1.310000000000000053e-01 7.303479999999999972e-01 5.842389999999999972e+00 1.174680000000000035e+02 1.771615000000000009e+03
1.320000000000000062e-01 7.303965000000000041e-01 5.740904999999999703e+00 1.176885000000000048e+02 1.771664999999999964e+03
1.330000000000000071e-01 7.304470000000000685e-01 5.651889999999999858e+00 1.179209999999999923e+02 1.771724999999999909e+03
1.340000000000000080e-01 7.304979999999999807e-01 5.572395000000000209e+00 1.181595000000000084e+02 1.771784999999999854e+03
1.350000000000000089e-01 7.305485000000000451e-01 5.499760000000000204e+00 1.183975000000000080e+02 1.771845000000000027e+03
1.360000000000000098e-01 7.305975000000000108e-01 5.431684999999999874e+00 1.186299999999999955e+02 1.771904999999999973e+03
1.370000000000000107e-01 7.306445000000000300e-01 5.366164999999999630e+00 1.188534999999999968e+02 1.771965000000000146e+03
1.380000000000000115e-01 7.306885000000000741e-01 5.301520000000000010e+00 1.190655000000000001e+02 1.772025000000000091e+03
1.390000000000000124e-01 7.307299999999999907e-01 5.236380000000000479e+00 1.192630000000000052e+02 1.772079999999999927e+03
1.400000000000000133e-01 7.307680000000000842e-01 5.169679999999999609e+00 1.194449999999999932e+02 1.772125000000000000e+03
1.410000000000000142e-01 7.308025000000000215e-01 5.100645000000000095e+00 1.196105000000000018e+02 1.772174999999999955e+03
1.420000000000000151e-01 7.308339999999999836e-01 5.028794999999999682e+00 1.197590000000000003e+02 1.772219999999999800e+03
1.430000000000000160e-01 7.308620000000000116e-01 4.953915000000000290e+00 1.198919999999999959e+02 1.772255000000000109e+03
1.440000000000000169e-01 7.308864999999999945e-01 4.876030000000000086e+00 1.200090000000000003e+02 1.772289999999999964e+03
1.450000000000000178e-01 7.309084999999999610e-01 4.795374999999999943e+00 1.201115000000000066e+02 1.772320000000000164e+03
1.459999999999999909e-01 7.309280000000000221e-01 4.712329999999999686e+00 1.202009999999999934e+02 1.772349999999999909e+03
1.469999999999999918e-01 7.309449999999999559e-01 4.627364999999999284e+00 1.202775000000000034e+02 1.772369999999999891e+03
1.479999999999999927e-01 7.309605000000000130e-01 4.540969999999999729e+00 1.203439999999999941e+02 1.772389999999999873e+03
1.489999999999999936e-01 7.309740000000000126e-01 4.453615000000000101e+00 1.204004999999999939e+02 1.772409999999999854e+03
1.499999999999999944e-01 7.309855000000000658e-01 4.365669999999999717e+00 1.204480000000000075e+02 1.772425000000000182e+03
1.509999999999999953e-01 7.309954999999999092e-01 4.277404999999999902e+00 1.204869999999999948e+02 1.772434999999999945e+03
1.519999999999999962e-01 7.310039999999999871e-01 4.188930000000000042e+00 1.205175000000000125e+02 1.772445000000000164e+03
1.529999999999999971e-01 7.310099999999999376e-01 4.100229999999999819e+00 1.205395000000000039e+02 1.772454999999999927e+03
1.539999999999999980e-01 7.310144999999999005e-01 4.011169999999999902e+00 1.205525000000000091e+02 1.772454999999999927e+03
1.549999999999999989e-01 7.310164999999999580e-01 3.921534999999999549e+00 1.205550000000000068e+02 1.772465000000000146e+03
1.559999999999999998e-01 7.310159999999999991e-01 3.831064999999999721e+00 1.205465000000000089e+02 1.772465000000000146e+03
1.570000000000000007e-01 7.310130000000000239e-01 3.739519999999999733e+00 1.205259999999999962e+02 1.772460000000000036e+03
1.580000000000000016e-01 7.310065000000000035e-01 3.646735000000000504e+00 1.204919999999999902e+02 1.772450000000000045e+03
1.590000000000000024e-01 7.309970000000000079e-01 3.552649999999999864e+00 1.204445000000000050e+02 1.772434999999999945e+03
