# t [s], A [cm^2], U [cm/s], P [cPa], c [cm/s]
1.000000000000000021e-03 1.924939999999999984e-01 6.106740000000000085e-02 8.882200000000000273e+01 2.221369999999999891e+03
2.000000000000000042e-03 1.924639999999999962e-01 1.100531000000000148e+00 8.648324999999999818e+01 2.221085000000000036e+03
3.000000000000000062e-03 1.923670000000000102e-01 2.505698999999999899e+00 8.299429999999999552e+01 2.220215000000000146e+03
4.000000000000000083e-03 1.922264999999999946e-01 4.140466999999999231e+00 7.879534999999999911e+01 2.218980000000000018e+03
5.000000000000000104e-03 1.920675000000000021e-01 5.952861999999999654e+00 7.462690000000000623e+01 2.217605000000000018e+03
6.000000000000000125e-03 1.919109999999999983e-01 7.844715000000000771e+00 7.097549999999999670e+01 2.216255000000000109e+03
7.000000000000000146e-03 1.917634999999999756e-01 9.635104999999999364e+00 6.786045000000000016e+01 2.215010000000000218e+03
8.000000000000000167e-03 1.916245000000000032e-01 1.117826499999999967e+01 6.506440000000000623e+01 2.213864999999999782e+03
9.000000000000001055e-03 1.915000000000000036e-01 1.245770999999999873e+01 6.254585000000000150e+01 2.212855000000000018e+03
1.000000000000000194e-02 1.913930000000000076e-01 1.350655499999999876e+01 6.039889999999999759e+01 2.211994999999999891e+03
1.099999999999999936e-02 1.913044999999999884e-01 1.434789999999999921e+01 5.866995000000000005e+01 2.211295000000000073e+03
1.200000000000000025e-02 1.912340000000000151e-01 1.499934999999999974e+01 5.734470000000000312e+01 2.210744999999999891e+03
1.300000000000000114e-02 1.911800000000000166e-01 1.546649999999999991e+01 5.635410000000000252e+01 2.210324999999999818e+03
1.400000000000000203e-02 1.911364999999999870e-01 1.574125000000000085e+01 5.556300000000000239e+01 2.210005000000000109e+03
1.499999999999999944e-02 1.911009999999999931e-01 1.583999999999999986e+01 5.485804999999999865e+01 2.209744999999999891e+03
1.600000000000000033e-02 1.910725000000000062e-01 1.584479999999999933e+01 5.429370000000000118e+01 2.209539999999999964e+03
1.700000000000000122e-02 1.910589999999999788e-01 1.589140000000000086e+01 5.412860000000000582e+01 2.209444999999999709e+03
1.800000000000000211e-02 1.910680000000000156e-01 1.610679999999999978e+01 5.468824999999999648e+01 2.209519999999999982e+03
1.900000000000000300e-02 1.911054999999999837e-01 1.654305000000000092e+01 5.615424999999999756e+01 2.209815000000000055e+03
2.000000000000000042e-02 1.911690000000000056e-01 1.715160000000000196e+01 5.842745000000000033e+01 2.210324999999999818e+03
2.100000000000000130e-02 1.912504999999999900e-01 1.780805000000000149e+01 6.113989999999999725e+01 2.210984999999999673e+03
2.200000000000000219e-02 1.913370000000000071e-01 1.836645000000000039e+01 6.379209999999999781e+01 2.211689999999999600e+03
2.299999999999999961e-02 1.914140000000000008e-01 1.871439999999999770e+01 6.593174999999999386e+01 2.212335000000000036e+03
2.400000000000000050e-02 1.914724999999999899e-01 1.880545000000000044e+01 6.729319999999999879e+01 2.212835000000000036e+03
2.500000000000000139e-02 1.915094999999999992e-01 1.866319999999999979e+01 6.785020000000000095e+01 2.213164999999999964e+03
2.600000000000000228e-02 1.915254999999999874e-01 1.835920000000000130e+01 6.777909999999999968e+01 2.213319999999999709e+03
2.700000000000000316e-02 1.915284999999999904e-01 1.797930000000000206e+01 6.736070000000000846e+01 2.213355000000000018e+03
2.800000000000000058e-02 1.915235000000000132e-01 1.759065000000000012e+01 6.686464999999999748e+01 2.213324999999999818e+03
2.900000000000000147e-02 1.915169999999999928e-01 1.722095000000000198e+01 6.645834999999999582e+01 2.213275000000000091e+03
3.000000000000000236e-02 1.915109999999999868e-01 1.685459999999999781e+01 6.616610000000000014e+01 2.213220000000000255e+03
3.099999999999999978e-02 1.915040000000000076e-01 1.644534999999999769e+01 6.588439999999999941e+01 2.213164999999999964e+03
3.200000000000000067e-02 1.914910000000000223e-01 1.593800000000000061e+01 6.544065000000000509e+01 2.213065000000000055e+03
3.300000000000000155e-02 1.914690000000000003e-01 1.529380000000000095e+01 6.467409999999999570e+01 2.212894999999999982e+03
3.400000000000000244e-02 1.914354999999999807e-01 1.451004999999999967e+01 6.351064999999999827e+01 2.212630000000000109e+03
3.500000000000000333e-02 1.913905000000000189e-01 1.362819999999999965e+01 6.200865000000000293e+01 2.212279999999999745e+03
3.600000000000000422e-02 1.913389999999999813e-01 1.272724999999999973e+01 6.035895000000000721e+01 2.211864999999999782e+03
3.700000000000000511e-02 1.912880000000000136e-01 1.190490499999999940e+01 5.883955000000000268e+01 2.211449999999999818e+03
3.799999999999999906e-02 1.912464999999999860e-01 1.125176499999999891e+01 5.774025000000000318e+01 2.211099999999999909e+03
3.899999999999999994e-02 1.912214999999999887e-01 1.082908499999999918e+01 5.728364999999999441e+01 2.210880000000000109e+03
4.000000000000000083e-02 1.912174999999999847e-01 1.065500000000000114e+01 5.756779999999999831e+01 2.210829999999999927e+03
4.100000000000000172e-02 1.912355000000000027e-01 1.070284999999999975e+01 5.854514999999999958e+01 2.210954999999999927e+03
4.200000000000000261e-02 1.912719999999999976e-01 1.091065000000000040e+01 6.003960000000000008e+01 2.211234999999999673e+03
4.300000000000000350e-02 1.913210000000000188e-01 1.119634999999999891e+01 6.179180000000000206e+01 2.211619999999999891e+03
4.400000000000000439e-02 1.913739999999999886e-01 1.147574999999999967e+01 6.351730000000000587e+01 2.212045000000000073e+03
4.499999999999999833e-02 1.914234999999999964e-01 1.167684999999999995e+01 6.496170000000000755e+01 2.212449999999999818e+03
4.599999999999999922e-02 1.914625000000000077e-01 1.174949999999999939e+01 6.594030000000000769e+01 2.212779999999999745e+03
4.700000000000000011e-02 1.914870000000000183e-01 1.166844999999999999e+01 6.635694999999999766e+01 2.212985000000000127e+03
4.800000000000000100e-02 1.914945000000000119e-01 1.143055000000000021e+01 6.620109999999999673e+01 2.213055000000000291e+03
4.900000000000000189e-02 1.914845000000000019e-01 1.104861999999999966e+01 6.552849999999999397e+01 2.212989999999999782e+03
5.000000000000000278e-02 1.914595000000000047e-01 1.054317499999999974e+01 6.443280000000000030e+01 2.212795000000000073e+03
5.100000000000000366e-02 1.914219999999999811e-01 9.935845000000000482e+00 6.301724999999999710e+01 2.212494999999999891e+03
5.200000000000000455e-02 1.913735000000000019e-01 9.244585000000000719e+00 6.137270000000000181e+01 2.212109999999999673e+03
5.300000000000000544e-02 1.913174999999999737e-01 8.482279999999999376e+00 5.956654999999999944e+01 2.211659999999999854e+03
5.399999999999999939e-02 1.912554999999999950e-01 7.657825000000000770e+00 5.764154999999999518e+01 2.211154999999999745e+03
5.500000000000000028e-02 1.911879999999999968e-01 6.779225000000000279e+00 5.562369999999999948e+01 2.210605000000000018e+03
5.600000000000000117e-02 1.911164999999999947e-01 5.856935000000000002e+00 5.353430000000000177e+01 2.210024999999999636e+03
5.700000000000000205e-02 1.910430000000000184e-01 4.907004999999999839e+00 5.140229999999999677e+01 2.209429999999999836e+03
5.800000000000000294e-02 1.909675000000000122e-01 3.952865000000000073e+00 4.927349999999999852e+01 2.208820000000000164e+03
5.900000000000000383e-02 1.908934999999999937e-01 3.025443500000000174e+00 4.721529999999999916e+01 2.208210000000000036e+03
6.000000000000000472e-02 1.908225000000000060e-01 2.161675550000000001e+00 4.531484999999999985e+01 2.207625000000000000e+03
6.099999999999999867e-02 1.907590000000000119e-01 1.401753499999999875e+00 4.367280000000000229e+01 2.207100000000000364e+03
6.199999999999999956e-02 1.907050000000000134e-01 7.857034999999998881e-01 4.239345000000000141e+01 2.206649999999999636e+03
6.300000000000000044e-02 1.906645000000000145e-01 3.498470000000000191e-01 4.157424999999999926e+01 2.206305000000000291e+03
6.400000000000000133e-02 1.906404999999999905e-01 1.237865000000000215e-01 4.129510000000000502e+01 2.206095000000000255e+03
6.500000000000000222e-02 1.906355000000000133e-01 1.282090499999999911e-01 4.161159999999999570e+01 2.206034999999999854e+03
6.600000000000000311e-02 1.906510000000000149e-01 3.736694999999999323e-01 4.254999999999999716e+01 2.206139999999999873e+03
6.700000000000000400e-02 1.906875000000000098e-01 8.603754999999999598e-01 4.410649999999999693e+01 2.206414999999999964e+03
6.800000000000000488e-02 1.907455000000000123e-01 1.578829499999999886e+00 4.624930000000000518e+01 2.206864999999999782e+03
6.900000000000000577e-02 1.908219999999999916e-01 2.511140999999999845e+00 4.892284999999999684e+01 2.207470000000000255e+03
7.000000000000000666e-02 1.909164999999999890e-01 3.632810500000000165e+00 5.205369999999999919e+01 2.208225000000000364e+03
7.100000000000000755e-02 1.910260000000000014e-01 4.914839999999999876e+00 5.555760000000000076e+01 2.209099999999999909e+03
7.200000000000000844e-02 1.911490000000000133e-01 6.325934999999999420e+00 5.934644999999999726e+01 2.210095000000000255e+03
7.300000000000000933e-02 1.912810000000000066e-01 7.834645000000000081e+00 6.333525000000000205e+01 2.211164999999999964e+03
7.399999999999999634e-02 1.914204999999999934e-01 9.411229999999999762e+00 6.744745000000000346e+01 2.212295000000000073e+03
7.499999999999999722e-02 1.915640000000000120e-01 1.102904999999999980e+01 7.161950000000000216e+01 2.213470000000000255e+03
7.599999999999999811e-02 1.917110000000000203e-01 1.266561000000000092e+01 7.580310000000000059e+01 2.214675000000000182e+03
7.699999999999999900e-02 1.918584999999999874e-01 1.430270000000000152e+01 7.996545000000000414e+01 2.215890000000000327e+03
7.799999999999999989e-02 1.920060000000000100e-01 1.592629999999999946e+01 8.408770000000001232e+01 2.217109999999999673e+03
7.900000000000000078e-02 1.921530000000000182e-01 1.752555000000000263e+01 8.816179999999999950e+01 2.218324999999999818e+03
8.000000000000000167e-02 1.922995000000000121e-01 1.909224999999999994e+01 9.218665000000000020e+01 2.219534999999999854e+03
8.100000000000000255e-02 1.924450000000000049e-01 2.061935000000000073e+01 9.616360000000000241e+01 2.220744999999999891e+03
8.200000000000000344e-02 1.925890000000000102e-01 2.210054999999999836e+01 1.000927000000000078e+02 2.221940000000000055e+03
8.300000000000000433e-02 1.927315000000000000e-01 2.352955000000000041e+01 1.039719000000000051e+02 2.223130000000000109e+03
8.400000000000000522e-02 1.928725000000000023e-01 2.489954999999999785e+01 1.077925000000000040e+02 2.224305000000000291e+03
8.500000000000000611e-02 1.930115000000000025e-01 2.620420000000000016e+01 1.115434999999999945e+02 2.225465000000000146e+03
8.600000000000000699e-02 1.931474999999999997e-01 2.743699999999999761e+01 1.152100000000000080e+02 2.226609999999999673e+03
8.700000000000000788e-02 1.932814999999999950e-01 2.859219999999999828e+01 1.187750000000000057e+02 2.227724999999999909e+03
8.800000000000000877e-02 1.934109999999999996e-01 2.966514999999999702e+01 1.222249999999999943e+02 2.228815000000000055e+03
8.899999999999999578e-02 1.935370000000000146e-01 3.065240000000000009e+01 1.255455000000000041e+02 2.229875000000000000e+03
8.999999999999999667e-02 1.936579999999999968e-01 3.155140000000000100e+01 1.287264999999999873e+02 2.230899999999999636e+03
9.099999999999999756e-02 1.937745000000000162e-01 3.236075000000000301e+01 1.317584999999999980e+02 2.231875000000000000e+03
9.199999999999999845e-02 1.938854999999999884e-01 3.307925000000000182e+01 1.346349999999999909e+02 2.232815000000000055e+03
9.299999999999999933e-02 1.939909999999999968e-01 3.370615000000000094e+01 1.373489999999999895e+02 2.233715000000000146e+03
9.400000000000000022e-02 1.940910000000000135e-01 3.424025000000000318e+01 1.398940000000000055e+02 2.234555000000000291e+03
9.500000000000000111e-02 1.941844999999999821e-01 3.467999999999999972e+01 1.422599999999999909e+02 2.235349999999999909e+03
9.600000000000000200e-02 1.942714999999999859e-01 3.502344999999999686e+01 1.444370000000000118e+02 2.236090000000000146e+03
9.700000000000000289e-02 1.943515000000000104e-01 3.526850000000000307e+01 1.464130000000000109e+02 2.236775000000000091e+03
9.800000000000000377e-02 1.944245000000000001e-01 3.541299999999999670e+01 1.481754999999999995e+02 2.237394999999999982e+03
9.900000000000000466e-02 1.944889999999999952e-01 3.545569999999999311e+01 1.497139999999999986e+02 2.237954999999999927e+03
1.000000000000000056e-01 1.945465000000000111e-01 3.539605000000000246e+01 1.510204999999999984e+02 2.238440000000000055e+03
1.010000000000000064e-01 1.945949999999999902e-01 3.523529999999999518e+01 1.520910000000000082e+02 2.238859999999999673e+03
1.020000000000000073e-01 1.946354999999999891e-01 3.497629999999999484e+01 1.529254999999999995e+02 2.239215000000000146e+03
1.030000000000000082e-01 1.946670000000000067e-01 3.462384999999999735e+01 1.535319999999999823e+02 2.239489999999999782e+03
1.040000000000000091e-01 1.946910000000000029e-01 3.418444999999999823e+01 1.539230000000000018e+02 2.239704999999999927e+03
1.050000000000000100e-01 1.947074999999999778e-01 3.366644999999999754e+01 1.541154999999999973e+02 2.239855000000000018e+03
1.059999999999999970e-01 1.947170000000000012e-01 3.307929999999999637e+01 1.541304999999999836e+02 2.239945000000000164e+03
1.069999999999999979e-01 1.947205000000000186e-01 3.243350000000000222e+01 1.539925000000000068e+02 2.239980000000000018e+03
1.079999999999999988e-01 1.947185000000000166e-01 3.174005000000000010e+01 1.537274999999999920e+02 2.239965000000000146e+03
1.089999999999999997e-01 1.947110000000000229e-01 3.101004999999999967e+01 1.533609999999999900e+02 2.239920000000000073e+03
1.100000000000000006e-01 1.947010000000000129e-01 3.025450000000000017e+01 1.529175000000000182e+02 2.239835000000000036e+03
1.110000000000000014e-01 1.946879999999999999e-01 2.948359999999999914e+01 1.524205000000000041e+02 2.239730000000000018e+03
1.120000000000000023e-01 1.946724999999999983e-01 2.870684999999999931e+01 1.518905000000000030e+02 2.239599999999999909e+03
1.130000000000000032e-01 1.946559999999999957e-01 2.793249999999999744e+01 1.513449999999999989e+02 2.239460000000000036e+03
1.140000000000000041e-01 1.946384999999999921e-01 2.716765000000000185e+01 1.507975000000000136e+02 2.239315000000000055e+03
1.150000000000000050e-01 1.946209999999999885e-01 2.641779999999999973e+01 1.502579999999999814e+02 2.239164999999999964e+03
1.160000000000000059e-01 1.946025000000000116e-01 2.568679999999999808e+01 1.497330000000000041e+02 2.239014999999999873e+03
1.170000000000000068e-01 1.945850000000000080e-01 2.497694999999999865e+01 1.492239999999999895e+02 2.238864999999999782e+03
1.180000000000000077e-01 1.945675000000000043e-01 2.428885000000000005e+01 1.487299999999999898e+02 2.238715000000000146e+03
1.190000000000000085e-01 1.945500000000000007e-01 2.362154999999999916e+01 1.482439999999999998e+02 2.238570000000000164e+03
1.200000000000000094e-01 1.945330000000000115e-01 2.297279999999999944e+01 1.477590000000000146e+02 2.238420000000000073e+03
1.209999999999999964e-01 1.945155000000000078e-01 2.233899999999999864e+01 1.472624999999999886e+02 2.238269999999999982e+03
1.219999999999999973e-01 1.944974999999999898e-01 2.171584999999999965e+01 1.467434999999999832e+02 2.238114999999999782e+03
1.229999999999999982e-01 1.944780000000000120e-01 2.109834999999999994e+01 1.461864999999999952e+02 2.237954999999999927e+03
1.239999999999999991e-01 1.944564999999999766e-01 2.048140000000000072e+01 1.455784999999999911e+02 2.237774999999999636e+03
1.250000000000000000e-01 1.944339999999999957e-01 1.985985000000000156e+01 1.449064999999999941e+02 2.237585000000000036e+03
1.260000000000000009e-01 1.944089999999999985e-01 1.922925000000000040e+01 1.441605000000000132e+02 2.237369999999999891e+03
1.270000000000000018e-01 1.943809999999999982e-01 1.858579999999999899e+01 1.433310000000000173e+02 2.237135000000000218e+03
1.280000000000000027e-01 1.943504999999999816e-01 1.792699999999999960e+01 1.424139999999999873e+02 2.236880000000000109e+03
1.290000000000000036e-01 1.943165000000000031e-01 1.725159999999999982e+01 1.414074999999999989e+02 2.236599999999999909e+03
1.300000000000000044e-01 1.942794999999999939e-01 1.656009999999999849e+01 1.403160000000000025e+02 2.236289999999999964e+03
1.310000000000000053e-01 1.942395000000000094e-01 1.585420000000000051e+01 1.391475000000000080e+02 2.235954999999999927e+03
1.320000000000000062e-01 1.941975000000000229e-01 1.513775000000000048e+01 1.379130000000000109e+02 2.235605000000000018e+03
1.330000000000000071e-01 1.941534999999999789e-01 1.441554999999999964e+01 1.366290000000000191e+02 2.235234999999999673e+03
1.340000000000000080e-01 1.941074999999999884e-01 1.369399999999999906e+01 1.353139999999999930e+02 2.234850000000000364e+03
1.350000000000000089e-01 1.940604999999999969e-01 1.298015000000000008e+01 1.339900000000000091e+02 2.234460000000000036e+03
1.360000000000000098e-01 1.940135000000000054e-01 1.228154999999999930e+01 1.326779999999999973e+02 2.234065000000000055e+03
1.370000000000000107e-01 1.939670000000000005e-01 1.160598500000000044e+01 1.314004999999999939e+02 2.233675000000000182e+03
1.380000000000000115e-01 1.939219999999999833e-01 1.096071500000000043e+01 1.301770000000000209e+02 2.233295000000000073e+03
1.390000000000000124e-01 1.938785000000000092e-01 1.035233999999999988e+01 1.290254999999999939e+02 2.232929999999999836e+03
1.400000000000000133e-01 1.938380000000000103e-01 9.786604999999999777e+00 1.279609999999999985e+02 2.232585000000000036e+03
1.410000000000000142e-01 1.938000000000000000e-01 9.267755000000001075e+00 1.269935000000000116e+02 2.232264999999999873e+03
1.420000000000000151e-01 1.937654999999999794e-01 8.798935000000000173e+00 1.261304999999999978e+02 2.231970000000000255e+03
1.430000000000000160e-01 1.937345000000000039e-01 8.381779999999999120e+00 1.253739999999999952e+02 2.231710000000000036e+03
1.440000000000000169e-01 1.937075000000000047e-01 8.016674999999999329e+00 1.247245000000000061e+02 2.231474999999999909e+03
1.450000000000000178e-01 1.936835000000000084e-01 7.702764999999999418e+00 1.241779999999999973e+02 2.231269999999999982e+03
1.459999999999999909e-01 1.936634999999999884e-01 7.438134999999999941e+00 1.237280000000000086e+02 2.231099999999999909e+03
1.469999999999999918e-01 1.936464999999999992e-01 7.219990000000000130e+00 1.233665000000000020e+02 2.230949999999999818e+03
1.479999999999999927e-01 1.936324999999999852e-01 7.044814999999999827e+00 1.230845000000000056e+02 2.230824999999999818e+03
1.489999999999999936e-01 1.936215000000000019e-01 6.908529999999999838e+00 1.228714999999999975e+02 2.230730000000000018e+03
1.499999999999999944e-01 1.936130000000000073e-01 6.806689999999999685e+00 1.227175000000000011e+02 2.230650000000000091e+03
1.509999999999999953e-01 1.936060000000000003e-01 6.734605000000000175e+00 1.226110000000000042e+02 2.230590000000000146e+03
1.519999999999999962e-01 1.936010000000000231e-01 6.687500000000000000e+00 1.225420000000000016e+02 2.230545000000000073e+03
1.529999999999999971e-01 1.935975000000000057e-01 6.660629999999999384e+00 1.225014999999999930e+02 2.230510000000000218e+03
1.539999999999999980e-01 1.935945000000000027e-01 6.649424999999999919e+00 1.224789999999999992e+02 2.230485000000000127e+03
1.549999999999999989e-01 1.935925000000000007e-01 6.649599999999999511e+00 1.224664999999999964e+02 2.230465000000000146e+03
1.559999999999999998e-01 1.935910000000000131e-01 6.657259999999999955e+00 1.224574999999999960e+02 2.230449999999999818e+03
1.570000000000000007e-01 1.935900000000000121e-01 6.668989999999999974e+00 1.224459999999999980e+02 2.230440000000000055e+03
1.580000000000000016e-01 1.935884999999999967e-01 6.681929999999999481e+00 1.224269999999999925e+02 2.230429999999999836e+03
1.590000000000000024e-01 1.935870000000000091e-01 6.693799999999999528e+00 1.223979999999999961e+02 2.230409999999999854e+03
