# t [s], A [cm^2], U [cm/s], P [cPa], c [cm/s]
1.000000000000000021e-03 6.561734999999999651e-01 4.492000000000002935e-03 9.430034999999999457e+01 1.627474999999999909e+03
2.000000000000000042e-03 6.561654999999999571e-01 4.337699999999999889e-03 9.427240000000000464e+01 1.627470000000000027e+03
3.000000000000000062e-03 6.562405000000000044e-01 1.403103500000000003e-01 9.441620000000000346e+01 1.627500000000000000e+03
4.000000000000000083e-03 6.562769999999999992e-01 2.257474999999999898e-01 9.451255000000000450e+01 1.627519999999999982e+03
5.000000000000000104e-03 6.562145000000000339e-01 1.460175000000000223e-01 9.435060000000000002e+01 1.627485000000000127e+03
6.000000000000000125e-03 6.561285000000000034e-01 1.434150000000000702e-02 9.402375000000000682e+01 1.627425000000000182e+03
7.000000000000000146e-03 6.560360000000000635e-01 -1.406549999999999745e-01 9.359215000000000373e+01 1.627335000000000036e+03
8.000000000000000167e-03 6.558709999999999818e-01 -4.419349999999999667e-01 9.290500000000000114e+01 1.627195000000000164e+03
9.000000000000001055e-03 6.556224999999999969e-01 -9.066649999999999432e-01 9.188960000000000150e+01 1.626990000000000009e+03
1.000000000000000194e-02 6.552880000000000926e-01 -1.527645000000000142e+00 9.050645000000000095e+01 1.626704999999999927e+03
1.099999999999999936e-02 6.548389999999999489e-01 -2.332049999999999734e+00 8.867404999999999404e+01 1.626325000000000045e+03
1.200000000000000025e-02 6.542840000000000877e-01 -3.281075000000000408e+00 8.638630000000000564e+01 1.625835000000000036e+03
1.300000000000000114e-02 6.536980000000000013e-01 -4.207890000000000796e+00 8.382704999999999984e+01 1.625275000000000091e+03
1.400000000000000203e-02 6.531814999999999705e-01 -4.890125499999999903e+00 8.131515000000000271e+01 1.624699999999999818e+03
1.499999999999999944e-02 6.528009999999999646e-01 -5.169866000000000739e+00 7.914414999999999623e+01 1.624170000000000073e+03
1.600000000000000033e-02 6.525600000000000289e-01 -5.017089999999999606e+00 7.745550000000000068e+01 1.623724999999999909e+03
1.700000000000000122e-02 6.524069999999999592e-01 -4.520129999999999981e+00 7.620640000000000214e+01 1.623360000000000127e+03
1.800000000000000211e-02 6.522689999999999877e-01 -3.833129999999999704e+00 7.521459999999999013e+01 1.623049999999999955e+03
1.900000000000000300e-02 6.520779999999999355e-01 -3.110895000000000188e+00 7.424580000000000268e+01 1.622750000000000000e+03
2.000000000000000042e-02 6.517979999999999885e-01 -2.453247949999999733e+00 7.310819999999999652e+01 1.622424999999999955e+03
2.100000000000000130e-02 6.514334999999999987e-01 -1.879064999999999763e+00 7.171835000000000093e+01 1.622055000000000064e+03
2.200000000000000219e-02 6.510205000000000020e-01 -1.340634999999999799e+00 7.011090000000000089e+01 1.621644999999999982e+03
2.299999999999999961e-02 6.506015000000000548e-01 -7.676399999999998780e-01 6.839279999999999404e+01 1.621204999999999927e+03
2.400000000000000050e-02 6.502054999999999918e-01 -1.148549999999999294e-01 6.667430000000000234e+01 1.620769999999999982e+03
2.500000000000000139e-02 6.498349999999999405e-01 6.080399999999999139e-01 6.500950000000000273e+01 1.620329999999999927e+03
2.600000000000000228e-02 6.494634999999999714e-01 1.331710000000000171e+00 6.336674999999999613e+01 1.619889999999999873e+03
2.700000000000000316e-02 6.490484999999999172e-01 1.943555000000000144e+00 6.163380000000000791e+01 1.619440000000000055e+03
2.800000000000000058e-02 6.485410000000000341e-01 2.317369999999999930e+00 5.964889999999999759e+01 1.618940000000000055e+03
2.900000000000000147e-02 6.479029999999998957e-01 2.347684999999999800e+00 5.725000000000000000e+01 1.618355000000000018e+03
3.000000000000000236e-02 6.471180000000000820e-01 1.979924999999999713e+00 5.432750000000000057e+01 1.617674999999999955e+03
3.099999999999999978e-02 6.462014999999999842e-01 1.227439999999999642e+00 5.086469999999999914e+01 1.616880000000000109e+03
3.200000000000000067e-02 6.451945000000000041e-01 1.698499999999993904e-01 4.695395000000000607e+01 1.615984999999999900e+03
3.300000000000000155e-02 6.441580000000000084e-01 -1.066150000000000375e+00 4.278270000000000550e+01 1.615025000000000091e+03
3.400000000000000244e-02 6.431569999999999787e-01 -2.334374999999999645e+00 3.859855000000000302e+01 1.614049999999999955e+03
3.500000000000000333e-02 6.422550000000000203e-01 -3.496315000000000062e+00 3.466514999999999702e+01 1.613110000000000127e+03
3.600000000000000422e-02 6.414990000000000414e-01 -4.440089999999999648e+00 3.122274999999999778e+01 1.612259999999999991e+03
3.700000000000000511e-02 6.409199999999999342e-01 -5.089644999999999975e+00 2.845994999999999919e+01 1.611545000000000073e+03
3.799999999999999906e-02 6.405345000000000066e-01 -5.404421499999999767e+00 2.650005000000000166e+01 1.611000000000000000e+03
3.899999999999999994e-02 6.403440000000000243e-01 -5.372894999999999754e+00 2.540050000000000097e+01 1.610639999999999873e+03
4.000000000000000083e-02 6.403404999999999792e-01 -5.002979999999999983e+00 2.516335000000000122e+01 1.610474999999999909e+03
4.100000000000000172e-02 6.405125000000000401e-01 -4.312014999999999709e+00 2.575055000000000049e+01 1.610500000000000000e+03
4.200000000000000261e-02 6.408454999999999568e-01 -3.319239999999999746e+00 2.710150000000000148e+01 1.610720000000000027e+03
4.300000000000000350e-02 6.413265000000000216e-01 -2.042204999999999604e+00 2.914644999999999797e+01 1.611099999999999909e+03
4.400000000000000439e-02 6.419414999999999427e-01 -4.972350000000003156e-01 3.181390000000000029e+01 1.611639999999999873e+03
4.499999999999999833e-02 6.426779999999999715e-01 1.297090000000000298e+00 3.503280000000000172e+01 1.612325000000000045e+03
4.599999999999999922e-02 6.435199999999999809e-01 3.315725000000000033e+00 3.872925000000000040e+01 1.613130000000000109e+03
4.700000000000000011e-02 6.444494999999998974e-01 5.523820000000000618e+00 4.282334999999999781e+01 1.614045000000000073e+03
4.800000000000000100e-02 6.454440000000000177e-01 7.875804999999999723e+00 4.722579999999999956e+01 1.615039999999999964e+03
4.900000000000000189e-02 6.464799999999999436e-01 1.031718099999999971e+01 5.183859999999999957e+01 1.616099999999999909e+03
5.000000000000000278e-02 6.475325000000000664e-01 1.278831499999999899e+01 5.655830000000000268e+01 1.617210000000000036e+03
5.100000000000000366e-02 6.485775000000000290e-01 1.522926999999999964e+01 6.128159999999999741e+01 1.618329999999999927e+03
5.200000000000000455e-02 6.495934999999999349e-01 1.758492500000000192e+01 6.591275000000000261e+01 1.619440000000000055e+03
5.300000000000000544e-02 6.505644999999999900e-01 1.980900000000000105e+01 7.037000000000000455e+01 1.620535000000000082e+03
5.399999999999999939e-02 6.514789999999999193e-01 2.186684999999999945e+01 7.459104999999999563e+01 1.621585000000000036e+03
5.500000000000000028e-02 6.523304999999999243e-01 2.373615000000000208e+01 7.853620000000000800e+01 1.622585000000000036e+03
5.600000000000000117e-02 6.531195000000000750e-01 2.540715000000000146e+01 8.218850000000000477e+01 1.623525000000000091e+03
5.700000000000000205e-02 6.538479999999999848e-01 2.688040000000000163e+01 8.555234999999998990e+01 1.624400000000000091e+03
5.800000000000000294e-02 6.545244999999999536e-01 2.816559999999999775e+01 8.865024999999999977e+01 1.625220000000000027e+03
5.900000000000000383e-02 6.551575000000000593e-01 2.927895000000000181e+01 9.151875000000001137e+01 1.625980000000000018e+03
6.000000000000000472e-02 6.557580000000000631e-01 3.024184999999999945e+01 9.420459999999999923e+01 1.626700000000000045e+03
6.099999999999999867e-02 6.563379999999999770e-01 3.107900000000000063e+01 9.675970000000000937e+01 1.627384999999999991e+03
6.199999999999999956e-02 6.569084999999998953e-01 3.181710000000000349e+01 9.923935000000000173e+01 1.628050000000000182e+03
6.300000000000000044e-02 6.574820000000000109e-01 3.248355000000000103e+01 1.016974000000000018e+02 1.628699999999999818e+03
6.400000000000000133e-02 6.580684999999999452e-01 3.310475000000000279e+01 1.041835000000000093e+02 1.629355000000000018e+03
6.500000000000000222e-02 6.586760000000000392e-01 3.370434999999999803e+01 1.067394999999999925e+02 1.630019999999999982e+03
6.600000000000000311e-02 6.593109999999999804e-01 3.430169999999999675e+01 1.093969999999999914e+02 1.630700000000000045e+03
6.700000000000000400e-02 6.599764999999999660e-01 3.491009999999999991e+01 1.121740000000000066e+02 1.631410000000000082e+03
6.800000000000000488e-02 6.606705000000000494e-01 3.553575000000000017e+01 1.150745000000000005e+02 1.632139999999999873e+03
6.900000000000000577e-02 6.613884999999999348e-01 3.617719999999999914e+01 1.180849999999999937e+02 1.632894999999999982e+03
7.000000000000000666e-02 6.621230000000000171e-01 3.682585000000000264e+01 1.211779999999999973e+02 1.633674999999999955e+03
7.100000000000000755e-02 6.628629999999999800e-01 3.746654999999999802e+01 1.243114999999999952e+02 1.634460000000000036e+03
7.200000000000000844e-02 6.635964999999999225e-01 3.807959999999999923e+01 1.274345000000000141e+02 1.635244999999999891e+03
7.300000000000000933e-02 6.643094999999999972e-01 3.864209999999999923e+01 1.304895000000000209e+02 1.636019999999999982e+03
7.399999999999999634e-02 6.649875000000000647e-01 3.913049999999999784e+01 1.334149999999999920e+02 1.636769999999999982e+03
7.499999999999999722e-02 6.656185000000000018e-01 3.952174999999999727e+01 1.361544999999999845e+02 1.637480000000000018e+03
7.599999999999999811e-02 6.661915000000000475e-01 3.979555000000000575e+01 1.386550000000000011e+02 1.638139999999999873e+03
7.699999999999999900e-02 6.666965000000000252e-01 3.993509999999999849e+01 1.408720000000000141e+02 1.638730000000000018e+03
7.799999999999999989e-02 6.671285000000000132e-01 3.992839999999999634e+01 1.427724999999999795e+02 1.639250000000000000e+03
7.900000000000000078e-02 6.674824999999999786e-01 3.976859999999999928e+01 1.443365000000000009e+02 1.639700000000000045e+03
8.000000000000000167e-02 6.677584999999999216e-01 3.945420000000000016e+01 1.455554999999999950e+02 1.640059999999999945e+03
8.100000000000000255e-02 6.679595000000000393e-01 3.898930000000000007e+01 1.464345000000000141e+02 1.640340000000000146e+03
8.200000000000000344e-02 6.680880000000000152e-01 3.838295000000000101e+01 1.469890000000000043e+02 1.640539999999999964e+03
8.300000000000000433e-02 6.681515000000000093e-01 3.764889999999999759e+01 1.472470000000000141e+02 1.640664999999999964e+03
8.400000000000000522e-02 6.681584999999999885e-01 3.680469999999999686e+01 1.472429999999999950e+02 1.640724999999999909e+03
8.500000000000000611e-02 6.681185000000000596e-01 3.587115000000000009e+01 1.470185000000000173e+02 1.640720000000000027e+03
8.600000000000000699e-02 6.680424999999999836e-01 3.487089999999999890e+01 1.466200000000000045e+02 1.640670000000000073e+03
8.700000000000000788e-02 6.679405000000000481e-01 3.382775000000000176e+01 1.460955000000000155e+02 1.640579999999999927e+03
8.800000000000000877e-02 6.678230000000000555e-01 3.276550000000000296e+01 1.454929999999999950e+02 1.640465000000000146e+03
8.899999999999999578e-02 6.677005000000000301e-01 3.170655000000000001e+01 1.448580000000000041e+02 1.640335000000000036e+03
8.999999999999999667e-02 6.675815000000000499e-01 3.067129999999999868e+01 1.442309999999999945e+02 1.640200000000000045e+03
9.099999999999999756e-02 6.674724999999999131e-01 2.967719999999999914e+01 1.436469999999999914e+02 1.640059999999999945e+03
9.199999999999999845e-02 6.673799999999999732e-01 2.873805000000000121e+01 1.431324999999999932e+02 1.639940000000000055e+03
9.299999999999999933e-02 6.673069999999999835e-01 2.786350000000000193e+01 1.427074999999999818e+02 1.639829999999999927e+03
9.400000000000000022e-02 6.672555000000000014e-01 2.705904999999999916e+01 1.423815000000000168e+02 1.639744999999999891e+03
9.500000000000000111e-02 6.672255000000000269e-01 2.632574999999999932e+01 1.421569999999999823e+02 1.639675000000000182e+03
9.600000000000000200e-02 6.672135000000000149e-01 2.566094999999999970e+01 1.420285000000000082e+02 1.639634999999999991e+03
9.700000000000000289e-02 6.672179999999999778e-01 2.505809999999999960e+01 1.419819999999999993e+02 1.639605000000000018e+03
9.800000000000000377e-02 6.672339999999999938e-01 2.450779999999999959e+01 1.419995000000000118e+02 1.639595000000000027e+03
9.900000000000000466e-02 6.672549999999999315e-01 2.399815000000000254e+01 1.420564999999999998e+02 1.639595000000000027e+03
1.000000000000000056e-01 6.672759999999999803e-01 2.351570000000000249e+01 1.421270000000000095e+02 1.639605000000000018e+03
1.010000000000000064e-01 6.672899999999999388e-01 2.304599999999999937e+01 1.421840000000000259e+02 1.639605000000000018e+03
1.020000000000000073e-01 6.672914999999999264e-01 2.257460000000000022e+01 1.421995000000000005e+02 1.639605000000000018e+03
1.030000000000000082e-01 6.672750000000000625e-01 2.208769999999999811e+01 1.421479999999999961e+02 1.639590000000000146e+03
1.040000000000000091e-01 6.672350000000000225e-01 2.157310000000000016e+01 1.420049999999999955e+02 1.639555000000000064e+03
1.050000000000000100e-01 6.671690000000000120e-01 2.102060000000000173e+01 1.417529999999999859e+02 1.639494999999999891e+03
1.059999999999999970e-01 6.670739999999999448e-01 2.042264999999999731e+01 1.413790000000000191e+02 1.639410000000000082e+03
1.069999999999999979e-01 6.669484999999999442e-01 1.977485000000000070e+01 1.408759999999999764e+02 1.639300000000000182e+03
1.079999999999999988e-01 6.667939999999999978e-01 1.907600000000000051e+01 1.402429999999999950e+02 1.639160000000000082e+03
1.089999999999999997e-01 6.666115000000000235e-01 1.832845000000000013e+01 1.394855000000000018e+02 1.638984999999999900e+03
1.100000000000000006e-01 6.664054999999999840e-01 1.753774999999999906e+01 1.386159999999999854e+02 1.638789999999999964e+03
1.110000000000000014e-01 6.661794999999999245e-01 1.671239999999999881e+01 1.376530000000000200e+02 1.638565000000000055e+03
1.120000000000000023e-01 6.659395000000000175e-01 1.586350000000000016e+01 1.366185000000000116e+02 1.638320000000000164e+03
1.130000000000000032e-01 6.656919999999999504e-01 1.500420499999999890e+01 1.355395000000000039e+02 1.638065000000000055e+03
1.140000000000000041e-01 6.654434999999999656e-01 1.414894500000000122e+01 1.344445000000000050e+02 1.637799999999999955e+03
1.150000000000000050e-01 6.652009999999999312e-01 1.331285000000000096e+01 1.333640000000000043e+02 1.637539999999999964e+03
1.160000000000000059e-01 6.649705000000000199e-01 1.251078500000000027e+01 1.323259999999999934e+02 1.637279999999999973e+03
1.170000000000000068e-01 6.647585000000000299e-01 1.175688000000000066e+01 1.313589999999999804e+02 1.637039999999999964e+03
1.180000000000000077e-01 6.645699999999999941e-01 1.106359499999999940e+01 1.304869999999999948e+02 1.636815000000000055e+03
1.190000000000000085e-01 6.644084999999999575e-01 1.044134500000000010e+01 1.297284999999999968e+02 1.636615000000000009e+03
1.200000000000000094e-01 6.642774999999999652e-01 9.897925000000000750e+00 1.290999999999999943e+02 1.636440000000000055e+03
1.209999999999999964e-01 6.641779999999999351e-01 9.438204999999999956e+00 1.286089999999999804e+02 1.636299999999999955e+03
1.219999999999999973e-01 6.641099999999999781e-01 9.064035000000000508e+00 1.282584999999999980e+02 1.636190000000000055e+03
1.229999999999999982e-01 6.640725000000000655e-01 8.774264999999999759e+00 1.280444999999999993e+02 1.636115000000000009e+03
1.239999999999999991e-01 6.640635000000000288e-01 8.564795000000000158e+00 1.279600000000000080e+02 1.636065000000000055e+03
1.250000000000000000e-01 6.640779999999999461e-01 8.429194999999999993e+00 1.279904999999999973e+02 1.636054999999999836e+03
1.260000000000000009e-01 6.641129999999999534e-01 8.358779999999999433e+00 1.281184999999999832e+02 1.636055000000000064e+03
1.270000000000000018e-01 6.641634999999999067e-01 8.343334999999999724e+00 1.283245000000000005e+02 1.636085000000000036e+03
1.280000000000000027e-01 6.642250000000000654e-01 8.371570000000000178e+00 1.285860000000000127e+02 1.636130000000000109e+03
1.290000000000000036e-01 6.642915000000000347e-01 8.431684999999999874e+00 1.288820000000000050e+02 1.636190000000000055e+03
1.300000000000000044e-01 6.643585000000000740e-01 8.511874999999999858e+00 1.291899999999999977e+02 1.636255000000000109e+03
1.310000000000000053e-01 6.644220000000000681e-01 8.600830000000000197e+00 1.294890000000000043e+02 1.636319999999999936e+03
1.320000000000000062e-01 6.644784999999999719e-01 8.688140000000000640e+00 1.297620000000000005e+02 1.636380000000000109e+03
1.330000000000000071e-01 6.645240000000000036e-01 8.764635000000000176e+00 1.299934999999999832e+02 1.636430000000000064e+03
1.340000000000000080e-01 6.645570000000000643e-01 8.822665000000000646e+00 1.301714999999999804e+02 1.636474999999999909e+03
1.350000000000000089e-01 6.645750000000000268e-01 8.856270000000000309e+00 1.302875000000000227e+02 1.636505000000000109e+03
1.360000000000000098e-01 6.645784999999999609e-01 8.861190000000000566e+00 1.303374999999999773e+02 1.636519999999999982e+03
1.370000000000000107e-01 6.645665000000000600e-01 8.835039999999999338e+00 1.303195000000000050e+02 1.636525000000000091e+03
1.380000000000000115e-01 6.645404999999999784e-01 8.777084999999999582e+00 1.302355000000000018e+02 1.636509999999999991e+03
1.390000000000000124e-01 6.645010000000000083e-01 8.688295000000000101e+00 1.300905000000000200e+02 1.636485000000000127e+03
1.400000000000000133e-01 6.644505000000000550e-01 8.570904999999999774e+00 1.298905000000000030e+02 1.636445000000000164e+03
1.410000000000000142e-01 6.643909999999999538e-01 8.428435000000000343e+00 1.296454999999999984e+02 1.636389999999999873e+03
1.420000000000000151e-01 6.643235000000000667e-01 8.265304999999999680e+00 1.293650000000000091e+02 1.636329999999999927e+03
1.430000000000000160e-01 6.642529999999999824e-01 8.086584999999999468e+00 1.290600000000000023e+02 1.636259999999999991e+03
1.440000000000000169e-01 6.641795000000000337e-01 7.897714999999999819e+00 1.287409999999999854e+02 1.636190000000000055e+03
1.450000000000000178e-01 6.641070000000000029e-01 7.704174999999999329e+00 1.284184999999999945e+02 1.636115000000000009e+03
1.459999999999999909e-01 6.640369999999999884e-01 7.511280000000000179e+00 1.281024999999999920e+02 1.636039999999999964e+03
1.469999999999999918e-01 6.639709999999999779e-01 7.323885000000000645e+00 1.278015000000000043e+02 1.635965000000000146e+03
1.479999999999999927e-01 6.639105000000000700e-01 7.146179999999999310e+00 1.275215000000000032e+02 1.635900000000000091e+03
1.489999999999999936e-01 6.638564999999999605e-01 6.981545000000000556e+00 1.272674999999999983e+02 1.635835000000000036e+03
1.499999999999999944e-01 6.638090000000000934e-01 6.832425000000000637e+00 1.270425000000000040e+02 1.635775000000000091e+03
1.509999999999999953e-01 6.637684999999999835e-01 6.700294999999999668e+00 1.268474999999999966e+02 1.635724999999999909e+03
1.519999999999999962e-01 6.637345000000000050e-01 6.585649999999999338e+00 1.266814999999999998e+02 1.635675000000000182e+03
1.529999999999999971e-01 6.637059999999999071e-01 6.488100000000000200e+00 1.265409999999999968e+02 1.635639999999999873e+03
1.539999999999999980e-01 6.636815000000000353e-01 6.406455000000000233e+00 1.264234999999999900e+02 1.635605000000000018e+03
1.549999999999999989e-01 6.636604999999999865e-01 6.338885000000000325e+00 1.263220000000000027e+02 1.635575000000000045e+03
1.559999999999999998e-01 6.636414999999999953e-01 6.283075000000000188e+00 1.262319999999999993e+02 1.635550000000000182e+03
1.570000000000000007e-01 6.636230000000000739e-01 6.236430000000000362e+00 1.261475000000000080e+02 1.635525000000000091e+03
1.580000000000000016e-01 6.636035000000000128e-01 6.196229999999999905e+00 1.260619999999999976e+02 1.635500000000000000e+03
1.590000000000000024e-01 6.635820000000000052e-01 6.159819999999999851e+00 1.259694999999999965e+02 1.635474999999999909e+03
