# t [s], A [cm^2], U [cm/s], P [cPa], c [cm/s]
1.000000000000000021e-03 1.554004999999999970e-01 1.930999999999999939e-01 9.079734999999999445e+01 1.736579999999999927e+03
2.000000000000000042e-03 1.553865000000000107e-01 1.463575999999999988e+00 8.841460000000000719e+01 1.736450000000000045e+03
3.000000000000000062e-03 1.553070000000000006e-01 3.048503500000000255e+00 8.538540000000000418e+01 1.735789999999999964e+03
4.000000000000000083e-03 1.551790000000000114e-01 4.803891499999999759e+00 8.188569999999999993e+01 1.734759999999999991e+03
5.000000000000000104e-03 1.550239999999999951e-01 6.688467999999999414e+00 7.841944999999999766e+01 1.733525000000000091e+03
6.000000000000000125e-03 1.548579999999999957e-01 8.642540000000000333e+00 7.533674999999999500e+01 1.732215000000000146e+03
7.000000000000000146e-03 1.546949999999999992e-01 1.056464500000000051e+01 7.272865000000000180e+01 1.730925000000000182e+03
8.000000000000000167e-03 1.545369999999999799e-01 1.234662499999999952e+01 7.049509999999999366e+01 1.729699999999999818e+03
9.000000000000001055e-03 1.543889999999999985e-01 1.392861500000000063e+01 6.851250000000000284e+01 1.728570000000000164e+03
1.000000000000000194e-02 1.542520000000000002e-01 1.530855500000000013e+01 6.674830000000000041e+01 1.727529999999999973e+03
1.099999999999999936e-02 1.541295000000000026e-01 1.650534999999999997e+01 6.522764999999999702e+01 1.726615000000000009e+03
1.200000000000000025e-02 1.540225000000000066e-01 1.753154999999999930e+01 6.396094999999999686e+01 1.725824999999999818e+03
1.300000000000000114e-02 1.539305000000000256e-01 1.839365000000000094e+01 6.292739999999999156e+01 1.725144999999999982e+03
1.400000000000000203e-02 1.538525000000000031e-01 1.909675000000000011e+01 6.209099999999999397e+01 1.724585000000000036e+03
1.499999999999999944e-02 1.537875000000000214e-01 1.964500000000000313e+01 6.140734999999999388e+01 1.724115000000000009e+03
1.600000000000000033e-02 1.537324999999999942e-01 2.004475000000000051e+01 6.082970000000000255e+01 1.723730000000000018e+03
1.700000000000000122e-02 1.536870000000000180e-01 2.031470000000000198e+01 6.033180000000000121e+01 1.723414999999999964e+03
1.800000000000000211e-02 1.536494999999999944e-01 2.049490000000000123e+01 5.993699999999999761e+01 1.723160000000000082e+03
1.900000000000000300e-02 1.536210000000000075e-01 2.064339999999999975e+01 5.972650000000000148e+01 1.722970000000000027e+03
2.000000000000000042e-02 1.536055000000000059e-01 2.082215000000000060e+01 5.981439999999999912e+01 1.722880000000000109e+03
2.100000000000000130e-02 1.536065000000000069e-01 2.107699999999999818e+01 6.030020000000000380e+01 1.722900000000000091e+03
2.200000000000000219e-02 1.536244999999999972e-01 2.142374999999999829e+01 6.122199999999999420e+01 1.723045000000000073e+03
2.299999999999999961e-02 1.536609999999999920e-01 2.184414999999999907e+01 6.253329999999999700e+01 1.723320000000000164e+03
2.400000000000000050e-02 1.537120000000000153e-01 2.229264999999999830e+01 6.410784999999999911e+01 1.723704999999999927e+03
2.500000000000000139e-02 1.537729999999999930e-01 2.271055000000000135e+01 6.577004999999999768e+01 1.724164999999999964e+03
2.600000000000000228e-02 1.538384999999999891e-01 2.304090000000000060e+01 6.733594999999999686e+01 1.724659999999999854e+03
2.700000000000000316e-02 1.539014999999999966e-01 2.324184999999999945e+01 6.865319999999999823e+01 1.725139999999999873e+03
2.800000000000000058e-02 1.539570000000000105e-01 2.329364999999999952e+01 6.962829999999999586e+01 1.725570000000000164e+03
2.900000000000000147e-02 1.540030000000000010e-01 2.319924999999999926e+01 7.023714999999999975e+01 1.725925000000000182e+03
3.000000000000000236e-02 1.540369999999999795e-01 2.297995000000000232e+01 7.051765000000000327e+01 1.726194999999999936e+03
3.099999999999999978e-02 1.540604999999999891e-01 2.266689999999999827e+01 7.054964999999999975e+01 1.726384999999999991e+03
3.200000000000000067e-02 1.540749999999999897e-01 2.229214999999999947e+01 7.042810000000000059e+01 1.726505000000000109e+03
3.300000000000000155e-02 1.540830000000000255e-01 2.188085000000000235e+01 7.023789999999999623e+01 1.726575000000000045e+03
3.400000000000000244e-02 1.540874999999999884e-01 2.144725000000000037e+01 7.003669999999999618e+01 1.726615000000000009e+03
3.500000000000000333e-02 1.540885000000000171e-01 2.099425000000000097e+01 6.984704999999999586e+01 1.726630000000000109e+03
3.600000000000000422e-02 1.540880000000000027e-01 2.051599999999999824e+01 6.966034999999999400e+01 1.726630000000000109e+03
3.700000000000000511e-02 1.540845000000000131e-01 2.000274999999999892e+01 6.944755000000000678e+01 1.726615000000000009e+03
3.799999999999999906e-02 1.540789999999999937e-01 1.944640000000000057e+01 6.917464999999999975e+01 1.726575000000000045e+03
3.899999999999999994e-02 1.540699999999999847e-01 1.884510000000000218e+01 6.881749999999999545e+01 1.726505000000000109e+03
4.000000000000000083e-02 1.540564999999999851e-01 1.820620000000000260e+01 6.837305000000000632e+01 1.726414999999999964e+03
4.100000000000000172e-02 1.540400000000000102e-01 1.754694999999999894e+01 6.786500000000000909e+01 1.726300000000000182e+03
4.200000000000000261e-02 1.540210000000000190e-01 1.689304999999999879e+01 6.734220000000000539e+01 1.726164999999999964e+03
4.300000000000000350e-02 1.540020000000000000e-01 1.627449999999999974e+01 6.687109999999999843e+01 1.726019999999999982e+03
4.400000000000000439e-02 1.539850000000000108e-01 1.572129999999999939e+01 6.652389999999999759e+01 1.725894999999999982e+03
4.499999999999999833e-02 1.539729999999999988e-01 1.525829999999999842e+01 6.636504999999999654e+01 1.725799999999999955e+03
4.599999999999999922e-02 1.539669999999999928e-01 1.490155000000000030e+01 6.643895000000000550e+01 1.725759999999999991e+03
4.700000000000000011e-02 1.539705000000000101e-01 1.465524999999999878e+01 6.676184999999999548e+01 1.725775000000000091e+03
4.800000000000000100e-02 1.539830000000000088e-01 1.451160000000000139e+01 6.731800000000001205e+01 1.725860000000000127e+03
4.900000000000000189e-02 1.540035000000000154e-01 1.445224999999999937e+01 6.806180000000000518e+01 1.726009999999999991e+03
5.000000000000000278e-02 1.540320000000000022e-01 1.445030000000000037e+01 6.892420000000001323e+01 1.726210000000000036e+03
5.100000000000000366e-02 1.540650000000000075e-01 1.447439999999999927e+01 6.982210000000000605e+01 1.726450000000000045e+03
5.200000000000000455e-02 1.540995000000000004e-01 1.449210000000000065e+01 7.066880000000000450e+01 1.726704999999999927e+03
5.300000000000000544e-02 1.541330000000000200e-01 1.447325000000000017e+01 7.138384999999999536e+01 1.726949999999999818e+03
5.399999999999999939e-02 1.541619999999999935e-01 1.439250000000000007e+01 7.190084999999999127e+01 1.727170000000000073e+03
5.500000000000000028e-02 1.541849999999999887e-01 1.423075000000000045e+01 7.217225000000000534e+01 1.727340000000000146e+03
5.600000000000000117e-02 1.541980000000000017e-01 1.397575000000000145e+01 7.217149999999999466e+01 1.727440000000000055e+03
5.700000000000000205e-02 1.542014999999999914e-01 1.362195000000000000e+01 7.189220000000000255e+01 1.727474999999999909e+03
5.800000000000000294e-02 1.541945000000000121e-01 1.316945000000000121e+01 7.134495000000001141e+01 1.727424999999999955e+03
5.900000000000000383e-02 1.541764999999999941e-01 1.262310000000000088e+01 7.055339999999999634e+01 1.727289999999999964e+03
6.000000000000000472e-02 1.541480000000000072e-01 1.199089999999999989e+01 6.954980000000000473e+01 1.727085000000000036e+03
6.099999999999999867e-02 1.541099999999999970e-01 1.128319499999999920e+01 6.837069999999999936e+01 1.726805000000000064e+03
6.199999999999999956e-02 1.540639999999999787e-01 1.051178000000000168e+01 6.705400000000000205e+01 1.726470000000000027e+03
6.300000000000000044e-02 1.540115000000000234e-01 9.689495000000000857e+00 6.563689999999999714e+01 1.726075000000000045e+03
6.400000000000000133e-02 1.539530000000000065e-01 8.829830000000001178e+00 6.415474999999999284e+01 1.725644999999999982e+03
6.500000000000000222e-02 1.538899999999999990e-01 7.947219999999999729e+00 6.264135000000000275e+01 1.725180000000000064e+03
6.600000000000000311e-02 1.538249999999999895e-01 7.056815000000000282e+00 6.112935000000000230e+01 1.724695000000000164e+03
6.700000000000000400e-02 1.537585000000000202e-01 6.174854999999999983e+00 5.965109999999999957e+01 1.724200000000000045e+03
6.800000000000000488e-02 1.536929999999999963e-01 5.318520000000000358e+00 5.823935000000000173e+01 1.723710000000000036e+03
6.900000000000000577e-02 1.536290000000000155e-01 4.505844999999999878e+00 5.692770000000000152e+01 1.723230000000000018e+03
7.000000000000000666e-02 1.535679999999999823e-01 3.755399999999999849e+00 5.575059999999999860e+01 1.722780000000000200e+03
7.100000000000000755e-02 1.535120000000000096e-01 3.085815000000000197e+00 5.474224999999999852e+01 1.722355000000000018e+03
7.200000000000000844e-02 1.534630000000000161e-01 2.515163500000000329e+00 5.393614999999999782e+01 1.721990000000000009e+03
7.300000000000000933e-02 1.534220000000000028e-01 2.060265999999999931e+00 5.336370000000000147e+01 1.721680000000000064e+03
7.399999999999999634e-02 1.533899999999999986e-01 1.736006999999999856e+00 5.305210000000000292e+01 1.721429999999999836e+03
7.499999999999999722e-02 1.533694999999999919e-01 1.554642000000000079e+00 5.302349999999999852e+01 1.721269999999999982e+03
7.599999999999999811e-02 1.533605000000000107e-01 1.525259999999999838e+00 5.329339999999999833e+01 1.721195000000000164e+03
7.699999999999999900e-02 1.533640000000000003e-01 1.653375000000000039e+00 5.386979999999999791e+01 1.721210000000000036e+03
7.799999999999999989e-02 1.533809999999999896e-01 1.940679999999999961e+00 5.475265000000000271e+01 1.721325000000000045e+03
7.900000000000000078e-02 1.534109999999999918e-01 2.385029999999999983e+00 5.593384999999999962e+01 1.721534999999999854e+03
8.000000000000000167e-02 1.534544999999999937e-01 2.980595000000000105e+00 5.739764999999999873e+01 1.721845000000000027e+03
8.100000000000000255e-02 1.535104999999999942e-01 3.718154999999999877e+00 5.912149999999999750e+01 1.722250000000000000e+03
8.200000000000000344e-02 1.535785000000000067e-01 4.585569999999999702e+00 6.107719999999999771e+01 1.722744999999999891e+03
8.300000000000000433e-02 1.536575000000000024e-01 5.568355000000000388e+00 6.323250000000000171e+01 1.723324999999999818e+03
8.400000000000000522e-02 1.537465000000000082e-01 6.650280000000000413e+00 6.555240000000000578e+01 1.723980000000000018e+03
8.500000000000000611e-02 1.538444999999999951e-01 7.814095000000000013e+00 6.800104999999999222e+01 1.724694999999999936e+03
8.600000000000000699e-02 1.539484999999999881e-01 9.042070000000000718e+00 7.054295000000000471e+01 1.725470000000000027e+03
8.700000000000000788e-02 1.540584999999999871e-01 1.031683500000000109e+01 7.314480000000000359e+01 1.726280000000000200e+03
8.800000000000000877e-02 1.541720000000000035e-01 1.162166999999999994e+01 7.577625000000000455e+01 1.727125000000000000e+03
8.899999999999999578e-02 1.542895000000000238e-01 1.294116500000000158e+01 7.841110000000000468e+01 1.728000000000000000e+03
8.999999999999999667e-02 1.544075000000000031e-01 1.426154999999999973e+01 8.102789999999998827e+01 1.728884999999999991e+03
9.099999999999999756e-02 1.545265000000000111e-01 1.557085000000000008e+01 8.361005000000000109e+01 1.729779999999999973e+03
9.199999999999999845e-02 1.546454999999999913e-01 1.685914999999999964e+01 8.614605000000000246e+01 1.730675000000000182e+03
9.299999999999999933e-02 1.547634999999999983e-01 1.811840000000000117e+01 8.862895000000000323e+01 1.731559999999999945e+03
9.400000000000000022e-02 1.548800000000000177e-01 1.934250000000000114e+01 9.105610000000000070e+01 1.732434999999999945e+03
9.500000000000000111e-02 1.549949999999999939e-01 2.052704999999999913e+01 9.342789999999999395e+01 1.733309999999999945e+03
9.600000000000000200e-02 1.551084999999999825e-01 2.166910000000000025e+01 9.574755000000000393e+01 1.734164999999999964e+03
9.700000000000000289e-02 1.552195000000000102e-01 2.276689999999999969e+01 9.801959999999999695e+01 1.735014999999999873e+03
9.800000000000000377e-02 1.553295000000000092e-01 2.381949999999999790e+01 1.002497500000000059e+02 1.735849999999999909e+03
9.900000000000000466e-02 1.554379999999999928e-01 2.482650000000000290e+01 1.024434499999999986e+02 1.736674999999999955e+03
1.000000000000000056e-01 1.555445000000000022e-01 2.578780000000000072e+01 1.046045000000000016e+02 1.737485000000000127e+03
1.010000000000000064e-01 1.556500000000000106e-01 2.670349999999999824e+01 1.067365000000000066e+02 1.738289999999999964e+03
1.020000000000000073e-01 1.557540000000000036e-01 2.757339999999999947e+01 1.088414999999999964e+02 1.739090000000000146e+03
1.030000000000000082e-01 1.558574999999999822e-01 2.839719999999999800e+01 1.109180000000000064e+02 1.739875000000000000e+03
1.040000000000000091e-01 1.559589999999999865e-01 2.917405000000000115e+01 1.129650000000000034e+02 1.740660000000000082e+03
1.050000000000000100e-01 1.560595000000000176e-01 2.990290000000000248e+01 1.149770000000000039e+02 1.741429999999999836e+03
1.059999999999999970e-01 1.561584999999999779e-01 3.058225000000000193e+01 1.169500000000000028e+02 1.742190000000000055e+03
1.069999999999999979e-01 1.562560000000000060e-01 3.121020000000000039e+01 1.188760000000000048e+02 1.742930000000000064e+03
1.079999999999999988e-01 1.563505000000000034e-01 3.178459999999999752e+01 1.207475000000000023e+02 1.743664999999999964e+03
1.089999999999999997e-01 1.564435000000000131e-01 3.230304999999999893e+01 1.225550000000000068e+02 1.744380000000000109e+03
1.100000000000000006e-01 1.565340000000000065e-01 3.276285000000000025e+01 1.242895000000000039e+02 1.745074999999999818e+03
1.110000000000000014e-01 1.566204999999999958e-01 3.316154999999999831e+01 1.259414999999999907e+02 1.745744999999999891e+03
1.120000000000000023e-01 1.567040000000000100e-01 3.349634999999999962e+01 1.275024999999999977e+02 1.746389999999999873e+03
1.130000000000000032e-01 1.567839999999999789e-01 3.376494999999999891e+01 1.289635000000000105e+02 1.747005000000000109e+03
1.140000000000000041e-01 1.568585000000000118e-01 3.396490000000000009e+01 1.303160000000000025e+02 1.747590000000000146e+03
1.150000000000000050e-01 1.569289999999999852e-01 3.409420000000000073e+01 1.315525000000000091e+02 1.748135000000000218e+03
1.160000000000000059e-01 1.569944999999999813e-01 3.415135000000000076e+01 1.326675000000000182e+02 1.748644999999999982e+03
1.170000000000000068e-01 1.570539999999999992e-01 3.413514999999999588e+01 1.336560000000000059e+02 1.749105000000000018e+03
1.180000000000000077e-01 1.571084999999999843e-01 3.404495000000000005e+01 1.345124999999999886e+02 1.749529999999999973e+03
1.190000000000000085e-01 1.571564999999999768e-01 3.388094999999999857e+01 1.352364999999999782e+02 1.749909999999999854e+03
1.200000000000000094e-01 1.571989999999999776e-01 3.364390000000000214e+01 1.358259999999999934e+02 1.750240000000000009e+03
1.209999999999999964e-01 1.572344999999999993e-01 3.333520000000000039e+01 1.362824999999999989e+02 1.750525000000000091e+03
1.219999999999999973e-01 1.572645000000000015e-01 3.295725000000000193e+01 1.366075000000000159e+02 1.750764999999999873e+03
1.229999999999999982e-01 1.572884999999999978e-01 3.251314999999999600e+01 1.368070000000000164e+02 1.750954999999999927e+03
1.239999999999999991e-01 1.573065000000000158e-01 3.200674999999999670e+01 1.368849999999999909e+02 1.751099999999999909e+03
1.250000000000000000e-01 1.573189999999999866e-01 3.144269999999999854e+01 1.368500000000000227e+02 1.751200000000000045e+03
1.260000000000000009e-01 1.573249999999999926e-01 3.082629999999999981e+01 1.367104999999999961e+02 1.751259999999999991e+03
1.270000000000000018e-01 1.573269999999999946e-01 3.016339999999999932e+01 1.364764999999999873e+02 1.751279999999999973e+03
1.280000000000000027e-01 1.573240000000000194e-01 2.946020000000000039e+01 1.361589999999999918e+02 1.751259999999999991e+03
1.290000000000000036e-01 1.573160000000000114e-01 2.872339999999999804e+01 1.357680000000000007e+02 1.751210000000000036e+03
1.300000000000000044e-01 1.573050000000000004e-01 2.795964999999999989e+01 1.353165000000000191e+02 1.751130000000000109e+03
1.310000000000000053e-01 1.572904999999999998e-01 2.717569999999999908e+01 1.348154999999999859e+02 1.751019999999999982e+03
1.320000000000000062e-01 1.572729999999999961e-01 2.637805000000000177e+01 1.342750000000000057e+02 1.750890000000000100e+03
1.330000000000000071e-01 1.572530000000000039e-01 2.557305000000000206e+01 1.337065000000000055e+02 1.750740000000000009e+03
1.340000000000000080e-01 1.572314999999999963e-01 2.476630000000000109e+01 1.331189999999999998e+02 1.750579999999999927e+03
1.350000000000000089e-01 1.572080000000000144e-01 2.396330000000000027e+01 1.325199999999999818e+02 1.750400000000000091e+03
1.360000000000000098e-01 1.571835000000000038e-01 2.316844999999999999e+01 1.319159999999999968e+02 1.750214999999999918e+03
1.370000000000000107e-01 1.571585000000000065e-01 2.238575000000000159e+01 1.313129999999999882e+02 1.750019999999999982e+03
1.380000000000000115e-01 1.571325000000000083e-01 2.161824999999999974e+01 1.307144999999999868e+02 1.749820000000000164e+03
1.390000000000000124e-01 1.571059999999999957e-01 2.086840000000000117e+01 1.301214999999999975e+02 1.749619999999999891e+03
1.400000000000000133e-01 1.570799999999999974e-01 2.013775000000000048e+01 1.295374999999999943e+02 1.749414999999999964e+03
1.410000000000000142e-01 1.570535000000000125e-01 1.942705000000000126e+01 1.289594999999999914e+02 1.749215000000000146e+03
1.420000000000000151e-01 1.570274999999999865e-01 1.873655000000000115e+01 1.283865000000000123e+02 1.749009999999999991e+03
1.430000000000000160e-01 1.570010000000000017e-01 1.806575000000000131e+01 1.278170000000000073e+02 1.748809999999999945e+03
1.440000000000000169e-01 1.569744999999999890e-01 1.741355000000000075e+01 1.272460000000000093e+02 1.748599999999999909e+03
1.450000000000000178e-01 1.569479999999999764e-01 1.677840000000000131e+01 1.266709999999999923e+02 1.748394999999999982e+03
1.459999999999999909e-01 1.569209999999999772e-01 1.615844999999999843e+01 1.260854999999999961e+02 1.748184999999999945e+03
1.469999999999999918e-01 1.568930000000000047e-01 1.555164999999999864e+01 1.254855000000000018e+02 1.747969999999999800e+03
1.479999999999999927e-01 1.568650000000000044e-01 1.495544999999999902e+01 1.248669999999999902e+02 1.747750000000000000e+03
1.489999999999999936e-01 1.568355000000000166e-01 1.436765000000000114e+01 1.242245000000000061e+02 1.747525000000000091e+03
1.499999999999999944e-01 1.568049999999999999e-01 1.378575000000000017e+01 1.235544999999999902e+02 1.747289999999999964e+03
1.509999999999999953e-01 1.567739999999999967e-01 1.320765000000000100e+01 1.228520000000000039e+02 1.747049999999999955e+03
1.519999999999999962e-01 1.567405000000000048e-01 1.263145000000000095e+01 1.221159999999999997e+02 1.746795000000000073e+03
1.529999999999999971e-01 1.567060000000000120e-01 1.205535000000000068e+01 1.213430000000000035e+02 1.746525000000000091e+03
1.539999999999999980e-01 1.566704999999999903e-01 1.147827999999999982e+01 1.205330000000000013e+02 1.746250000000000000e+03
1.549999999999999989e-01 1.566325000000000078e-01 1.089939500000000017e+01 1.196850000000000023e+02 1.745960000000000036e+03
1.559999999999999998e-01 1.565929999999999822e-01 1.031846499999999978e+01 1.188004999999999995e+02 1.745659999999999854e+03
1.570000000000000007e-01 1.565519999999999967e-01 9.735789999999999722e+00 1.178820000000000050e+02 1.745345000000000027e+03
1.580000000000000016e-01 1.565094999999999958e-01 9.152200000000000557e+00 1.169325000000000045e+02 1.745019999999999982e+03
1.590000000000000024e-01 1.564655000000000074e-01 8.569155000000000300e+00 1.159569999999999936e+02 1.744679999999999836e+03
