# t [s], A [cm^2], U [cm/s], P [cPa], c [cm/s]
1.000000000000000021e-03 1.954635000000000122e-01 3.536778499999999603e-01 1.009327499999999986e+02 2.112965000000000146e+03
2.000000000000000042e-03 1.954064999999999830e-01 1.976078500000000071e+00 9.736190000000000566e+01 2.112500000000000000e+03
3.000000000000000062e-03 1.952554999999999985e-01 3.966422499999999740e+00 9.243825000000001069e+01 2.111324999999999818e+03
4.000000000000000083e-03 1.950514999999999888e-01 6.199436999999999642e+00 8.718684999999999263e+01 2.109769999999999982e+03
5.000000000000000104e-03 1.948369999999999824e-01 8.583809999999999718e+00 8.259789999999999566e+01 2.108135000000000218e+03
6.000000000000000125e-03 1.946324999999999861e-01 1.090173000000000059e+01 7.890815000000000623e+01 2.106605000000000018e+03
7.000000000000000146e-03 1.944430000000000047e-01 1.291857500000000059e+01 7.577289999999999281e+01 2.105210000000000036e+03
8.000000000000000167e-03 1.942714999999999859e-01 1.457610000000000028e+01 7.298005000000000564e+01 2.103974999999999909e+03
9.000000000000001055e-03 1.941245000000000054e-01 1.592905000000000015e+01 7.062969999999999970e+01 2.102930000000000291e+03
1.000000000000000194e-02 1.940034999999999954e-01 1.701249999999999929e+01 6.878345000000000198e+01 2.102079999999999927e+03
1.099999999999999936e-02 1.939069999999999960e-01 1.784574999999999889e+01 6.739480000000000359e+01 2.101414999999999964e+03
1.200000000000000025e-02 1.938334999999999919e-01 1.844585000000000008e+01 6.638214999999999577e+01 2.100909999999999854e+03
1.300000000000000114e-02 1.937770000000000048e-01 1.881680000000000064e+01 6.561284999999999457e+01 2.100529999999999745e+03
1.400000000000000203e-02 1.937325000000000019e-01 1.898445000000000249e+01 6.496875000000000000e+01 2.100244999999999891e+03
1.499999999999999944e-02 1.936990000000000101e-01 1.905154999999999887e+01 6.452785000000000082e+01 2.100039999999999964e+03
1.600000000000000033e-02 1.936859999999999971e-01 1.918925000000000125e+01 6.462819999999999254e+01 2.099965000000000146e+03
1.700000000000000122e-02 1.937035000000000007e-01 1.955304999999999893e+01 6.568250000000000455e+01 2.100099999999999909e+03
1.800000000000000211e-02 1.937605000000000022e-01 2.019019999999999726e+01 6.787720000000000198e+01 2.100505000000000109e+03
1.900000000000000300e-02 1.938524999999999832e-01 2.100699999999999790e+01 7.098724999999998886e+01 2.101164999999999964e+03
2.000000000000000042e-02 1.939675000000000149e-01 2.180865000000000009e+01 7.441965000000000430e+01 2.101980000000000018e+03
2.100000000000000130e-02 1.940820000000000045e-01 2.238269999999999982e+01 7.743810000000000571e+01 2.102814999999999600e+03
2.200000000000000219e-02 1.941775000000000029e-01 2.258040000000000092e+01 7.944004999999999939e+01 2.103515000000000327e+03
2.299999999999999961e-02 1.942379999999999940e-01 2.236350000000000193e+01 8.015770000000000550e+01 2.103980000000000018e+03
2.400000000000000050e-02 1.942610000000000170e-01 2.180270000000000152e+01 7.971134999999999593e+01 2.104175000000000182e+03
2.500000000000000139e-02 1.942524999999999946e-01 2.103529999999999944e+01 7.851050000000000750e+01 2.104135000000000218e+03
2.600000000000000228e-02 1.942249999999999810e-01 2.020539999999999736e+01 7.706329999999999814e+01 2.103954999999999927e+03
2.700000000000000316e-02 1.941910000000000025e-01 1.941244999999999976e+01 7.578194999999999482e+01 2.103720000000000255e+03
2.800000000000000058e-02 1.941599999999999993e-01 1.868670000000000186e+01 7.485960000000000036e+01 2.103500000000000000e+03
2.900000000000000147e-02 1.941350000000000020e-01 1.799540000000000006e+01 7.425075000000001069e+01 2.103319999999999709e+03
3.000000000000000236e-02 1.941129999999999800e-01 1.727159999999999940e+01 7.374309999999999832e+01 2.103159999999999854e+03
3.099999999999999978e-02 1.940890000000000115e-01 1.645159999999999911e+01 7.307930000000000348e+01 2.102985000000000127e+03
3.200000000000000067e-02 1.940560000000000063e-01 1.550864999999999938e+01 7.208089999999999975e+01 2.102760000000000218e+03
3.300000000000000155e-02 1.940115000000000034e-01 1.447095000000000020e+01 7.073369999999999891e+01 2.102449999999999818e+03
3.400000000000000244e-02 1.939599999999999935e-01 1.342060000000000031e+01 6.920959999999999468e+01 2.102085000000000036e+03
3.500000000000000333e-02 1.939069999999999960e-01 1.247214999999999918e+01 6.782005000000000905e+01 2.101710000000000036e+03
3.600000000000000422e-02 1.938650000000000095e-01 1.174085000000000001e+01 6.692015000000000668e+01 2.101400000000000091e+03
3.700000000000000511e-02 1.938429999999999875e-01 1.130914999999999893e+01 6.679715000000000202e+01 2.101230000000000018e+03
3.799999999999999906e-02 1.938484999999999792e-01 1.120384999999999920e+01 6.758115000000000805e+01 2.101250000000000000e+03
3.899999999999999994e-02 1.938834999999999864e-01 1.138879999999999981e+01 6.920374999999999943e+01 2.101485000000000127e+03
4.000000000000000083e-02 1.939434999999999909e-01 1.177360000000000007e+01 7.141204999999999359e+01 2.101894999999999982e+03
4.100000000000000172e-02 1.940199999999999980e-01 1.223404999999999987e+01 7.382755000000000223e+01 2.102425000000000182e+03
4.200000000000000261e-02 1.940989999999999938e-01 1.263670000000000115e+01 7.602809999999999491e+01 2.102984999999999673e+03
4.300000000000000350e-02 1.941680000000000073e-01 1.286224999999999952e+01 7.762995000000000800e+01 2.103485000000000127e+03
4.400000000000000439e-02 1.942154999999999854e-01 1.282249999999999979e+01 7.835079999999999245e+01 2.103829999999999927e+03
4.499999999999999833e-02 1.942325000000000024e-01 1.246809999999999974e+01 7.804399999999999693e+01 2.103965000000000146e+03
4.599999999999999922e-02 1.942145000000000121e-01 1.178894999999999982e+01 7.670050000000000523e+01 2.103849999999999909e+03
4.700000000000000011e-02 1.941620000000000013e-01 1.080716499999999947e+01 7.442584999999999695e+01 2.103485000000000127e+03
4.800000000000000100e-02 1.940780000000000005e-01 9.567185000000000272e+00 7.140194999999999936e+01 2.102894999999999982e+03
4.900000000000000189e-02 1.939664999999999861e-01 8.125624999999999432e+00 6.784529999999999461e+01 2.102114999999999782e+03
5.000000000000000278e-02 1.938369999999999815e-01 6.542764999999999276e+00 6.397209999999999752e+01 2.101194999999999709e+03
5.100000000000000366e-02 1.936939999999999773e-01 4.877624499999999585e+00 5.997570000000000334e+01 2.100179999999999836e+03
5.200000000000000455e-02 1.935455000000000092e-01 3.185938500000000229e+00 5.601810000000000400e+01 2.099114999999999782e+03
5.300000000000000544e-02 1.933960000000000123e-01 1.520519999999999872e+00 5.223174999999999812e+01 2.098050000000000182e+03
5.399999999999999939e-02 1.932515000000000205e-01 -6.729499999999988269e-02 4.872860000000000014e+01 2.097014999999999873e+03
5.500000000000000028e-02 1.931169999999999831e-01 -1.526390000000000136e+00 4.560985000000000156e+01 2.096045000000000073e+03
5.600000000000000117e-02 1.929960000000000009e-01 -2.805559000000000136e+00 4.297320000000000562e+01 2.095170000000000073e+03
5.700000000000000205e-02 1.928929999999999811e-01 -3.854595000000000216e+00 4.091544999999999987e+01 2.094425000000000182e+03
5.800000000000000294e-02 1.928114999999999968e-01 -4.626629999999999576e+00 3.952955000000000041e+01 2.093824999999999818e+03
5.900000000000000383e-02 1.927564999999999973e-01 -5.081319999999999837e+00 3.889770000000000039e+01 2.093414999999999964e+03
6.000000000000000472e-02 1.927300000000000124e-01 -5.188189999999999635e+00 3.908230000000000359e+01 2.093204999999999927e+03
6.099999999999999867e-02 1.927339999999999887e-01 -4.929534999999999556e+00 4.011724999999999852e+01 2.093210000000000036e+03
6.199999999999999956e-02 1.927709999999999979e-01 -4.302224999999999966e+00 4.200194999999999368e+01 2.093449999999999818e+03
6.300000000000000044e-02 1.928394999999999970e-01 -3.318274999999999864e+00 4.469854999999999734e+01 2.093914999999999964e+03
6.400000000000000133e-02 1.929389999999999994e-01 -2.004088999999999565e+00 4.813360000000000127e+01 2.094599999999999909e+03
6.500000000000000222e-02 1.930664999999999742e-01 -3.985099999999999199e-01 5.220344999999999658e+01 2.095485000000000127e+03
6.600000000000000311e-02 1.932185000000000152e-01 1.449789999999999912e+00 5.678164999999999907e+01 2.096554999999999836e+03
6.700000000000000400e-02 1.933900000000000063e-01 3.485459999999999781e+00 6.172844999999999516e+01 2.097765000000000327e+03
6.800000000000000488e-02 1.935764999999999847e-01 5.649704999999999977e+00 6.690000000000000568e+01 2.099090000000000146e+03
6.900000000000000577e-02 1.937725000000000142e-01 7.883369999999999322e+00 7.215709999999999980e+01 2.100484999999999673e+03
7.000000000000000666e-02 1.939730000000000065e-01 1.013015500000000024e+01 7.737290000000000134e+01 2.101920000000000073e+03
7.100000000000000755e-02 1.941734999999999989e-01 1.233895000000000053e+01 8.243940000000000623e+01 2.103364999999999782e+03
7.200000000000000844e-02 1.943699999999999872e-01 1.446630000000000038e+01 8.727250000000000796e+01 2.104784999999999854e+03
7.300000000000000933e-02 1.945590000000000097e-01 1.647820000000000107e+01 9.181485000000000696e+01 2.106154999999999745e+03
7.399999999999999634e-02 1.947395000000000098e-01 1.835060000000000002e+01 9.603735000000000355e+01 2.107465000000000146e+03
7.499999999999999722e-02 1.949089999999999989e-01 2.007045000000000101e+01 9.993815000000000737e+01 2.108704999999999927e+03
7.599999999999999811e-02 1.950680000000000192e-01 2.163439999999999941e+01 1.035400499999999937e+02 2.109864999999999782e+03
7.699999999999999900e-02 1.952165000000000150e-01 2.304820000000000135e+01 1.068855000000000075e+02 2.110960000000000036e+03
7.799999999999999989e-02 1.953570000000000029e-01 2.432444999999999879e+01 1.100304999999999893e+02 2.111994999999999891e+03
7.900000000000000078e-02 1.954899999999999971e-01 2.548055000000000092e+01 1.130374999999999943e+02 2.112970000000000255e+03
8.000000000000000167e-02 1.956180000000000141e-01 2.653640000000000043e+01 1.159689999999999941e+02 2.113920000000000073e+03
8.100000000000000255e-02 1.957435000000000147e-01 2.751200000000000045e+01 1.188820000000000050e+02 2.114849999999999909e+03
8.200000000000000344e-02 1.958685000000000009e-01 2.842549999999999955e+01 1.218205000000000098e+02 2.115765000000000327e+03
8.300000000000000433e-02 1.959934999999999872e-01 2.929184999999999661e+01 1.248149999999999977e+02 2.116690000000000055e+03
8.400000000000000522e-02 1.961204999999999754e-01 3.012129999999999797e+01 1.278789999999999907e+02 2.117625000000000000e+03
8.500000000000000611e-02 1.962495000000000211e-01 3.091915000000000191e+01 1.310090000000000146e+02 2.118569999999999709e+03
8.600000000000000699e-02 1.963799999999999990e-01 3.168540000000000134e+01 1.341864999999999952e+02 2.119529999999999745e+03
8.700000000000000788e-02 1.965115000000000056e-01 3.241535000000000366e+01 1.373789999999999907e+02 2.120505000000000109e+03
8.800000000000000877e-02 1.966430000000000122e-01 3.309994999999999976e+01 1.405439999999999827e+02 2.121475000000000364e+03
8.899999999999999578e-02 1.967730000000000035e-01 3.372695000000000221e+01 1.436324999999999932e+02 2.122429999999999836e+03
8.999999999999999667e-02 1.968995000000000051e-01 3.428180000000000405e+01 1.465910000000000082e+02 2.123364999999999782e+03
9.099999999999999756e-02 1.970204999999999873e-01 3.474885000000000446e+01 1.493665000000000020e+02 2.124260000000000218e+03
9.199999999999999845e-02 1.971344999999999903e-01 3.511225000000000307e+01 1.519099999999999966e+02 2.125105000000000018e+03
9.299999999999999933e-02 1.972395000000000120e-01 3.535719999999999885e+01 1.541750000000000114e+02 2.125880000000000109e+03
9.400000000000000022e-02 1.973334999999999950e-01 3.547095000000000198e+01 1.561260000000000048e+02 2.126579999999999927e+03
9.500000000000000111e-02 1.974155000000000215e-01 3.544330000000000069e+01 1.577334999999999923e+02 2.127195000000000164e+03
9.600000000000000200e-02 1.974845000000000073e-01 3.526765000000000327e+01 1.589809999999999945e+02 2.127710000000000036e+03
9.700000000000000289e-02 1.975390000000000201e-01 3.494134999999999991e+01 1.598615000000000066e+02 2.128125000000000000e+03
9.800000000000000377e-02 1.975795000000000190e-01 3.446600000000000108e+01 1.603795000000000073e+02 2.128435000000000400e+03
9.900000000000000466e-02 1.976064999999999905e-01 3.384754999999999825e+01 1.605500000000000114e+02 2.128644999999999982e+03
1.000000000000000056e-01 1.976195000000000035e-01 3.309595000000000198e+01 1.604004999999999939e+02 2.128755000000000109e+03
1.010000000000000064e-01 1.976199999999999901e-01 3.222530000000000427e+01 1.599630000000000223e+02 2.128774999999999636e+03
1.020000000000000073e-01 1.976100000000000079e-01 3.125250000000000128e+01 1.592810000000000059e+02 2.128704999999999927e+03
1.030000000000000082e-01 1.975895000000000012e-01 3.019715000000000060e+01 1.583994999999999891e+02 2.128569999999999709e+03
1.040000000000000091e-01 1.975609999999999866e-01 2.908030000000000115e+01 1.573679999999999950e+02 2.128364999999999782e+03
1.050000000000000100e-01 1.975259999999999794e-01 2.792365000000000208e+01 1.562355000000000018e+02 2.128119999999999891e+03
1.059999999999999970e-01 1.974874999999999825e-01 2.674879999999999924e+01 1.550490000000000066e+02 2.127835000000000036e+03
1.069999999999999979e-01 1.974454999999999960e-01 2.557610000000000028e+01 1.538524999999999920e+02 2.127529999999999745e+03
1.079999999999999988e-01 1.974025000000000085e-01 2.442399999999999949e+01 1.526835000000000093e+02 2.127215000000000146e+03
1.089999999999999997e-01 1.973599999999999799e-01 2.330855000000000032e+01 1.515724999999999909e+02 2.126900000000000091e+03
1.100000000000000006e-01 1.973185000000000078e-01 2.224249999999999972e+01 1.505434999999999945e+02 2.126599999999999909e+03
1.110000000000000014e-01 1.972794999999999965e-01 2.123535000000000039e+01 1.496105000000000018e+02 2.126309999999999945e+03
1.120000000000000023e-01 1.972439999999999749e-01 2.029279999999999973e+01 1.487794999999999845e+02 2.126050000000000182e+03
1.130000000000000032e-01 1.972109999999999974e-01 1.941685000000000016e+01 1.480480000000000018e+02 2.125800000000000182e+03
1.140000000000000041e-01 1.971819999999999962e-01 1.860600000000000165e+01 1.474060000000000059e+02 2.125579999999999927e+03
1.150000000000000050e-01 1.971554999999999835e-01 1.785539999999999949e+01 1.468360000000000127e+02 2.125380000000000109e+03
1.160000000000000059e-01 1.971314999999999873e-01 1.715739999999999910e+01 1.463149999999999977e+02 2.125194999999999709e+03
1.170000000000000068e-01 1.971085000000000198e-01 1.650199999999999889e+01 1.458154999999999859e+02 2.125024999999999636e+03
1.180000000000000077e-01 1.970864999999999978e-01 1.587775000000000070e+01 1.453079999999999927e+02 2.124855000000000018e+03
1.190000000000000085e-01 1.970640000000000169e-01 1.527224999999999966e+01 1.447620000000000005e+02 2.124690000000000055e+03
1.200000000000000094e-01 1.970395000000000063e-01 1.467309999999999803e+01 1.441490000000000009e+02 2.124505000000000109e+03
1.209999999999999964e-01 1.970129999999999937e-01 1.406844999999999857e+01 1.434420000000000073e+02 2.124305000000000291e+03
1.219999999999999973e-01 1.969830000000000192e-01 1.344800000000000040e+01 1.426204999999999927e+02 2.124085000000000036e+03
1.229999999999999982e-01 1.969480000000000119e-01 1.280339999999999989e+01 1.416680000000000064e+02 2.123824999999999818e+03
1.239999999999999991e-01 1.969084999999999863e-01 1.212880000000000003e+01 1.405765000000000100e+02 2.123534999999999854e+03
1.250000000000000000e-01 1.968639999999999834e-01 1.142131499999999988e+01 1.393449999999999989e+02 2.123210000000000036e+03
1.260000000000000009e-01 1.968145000000000033e-01 1.068113999999999919e+01 1.379805000000000064e+02 2.122845000000000255e+03
1.270000000000000018e-01 1.967595000000000038e-01 9.911505000000000010e+00 1.364979999999999905e+02 2.122449999999999818e+03
1.280000000000000027e-01 1.967005000000000003e-01 9.118610000000000326e+00 1.349189999999999827e+02 2.122015000000000327e+03
1.290000000000000036e-01 1.966380000000000072e-01 8.311354999999998938e+00 1.332704999999999984e+02 2.121555000000000291e+03
1.300000000000000044e-01 1.965724999999999834e-01 7.500650000000000261e+00 1.315844999999999914e+02 2.121085000000000036e+03
1.310000000000000053e-01 1.965060000000000140e-01 6.698885000000000645e+00 1.298950000000000102e+02 2.120590000000000146e+03
1.320000000000000062e-01 1.964394999999999891e-01 5.919340000000000046e+00 1.282379999999999995e+02 2.120105000000000018e+03
1.330000000000000071e-01 1.963739999999999930e-01 5.175374999999999837e+00 1.266474999999999937e+02 2.119625000000000000e+03
1.340000000000000080e-01 1.963104999999999989e-01 4.479775000000000063e+00 1.251560000000000059e+02 2.119159999999999854e+03
1.350000000000000089e-01 1.962514999999999954e-01 3.844090000000000007e+00 1.237905000000000086e+02 2.118725000000000364e+03
1.360000000000000098e-01 1.961964999999999959e-01 3.278094999999999981e+00 1.225734999999999957e+02 2.118315000000000055e+03
1.370000000000000107e-01 1.961470000000000158e-01 2.789360000000000284e+00 1.215219999999999914e+02 2.117949999999999818e+03
1.380000000000000115e-01 1.961040000000000005e-01 2.382985000000000131e+00 1.206435000000000031e+02 2.117630000000000109e+03
1.390000000000000124e-01 1.960669999999999913e-01 2.061420000000000030e+00 1.199429999999999978e+02 2.117355000000000018e+03
1.400000000000000133e-01 1.960370000000000168e-01 1.824495000000000200e+00 1.194164999999999992e+02 2.117125000000000000e+03
1.410000000000000142e-01 1.960135000000000072e-01 1.669540000000000024e+00 1.190534999999999997e+02 2.116944999999999709e+03
1.420000000000000151e-01 1.959954999999999892e-01 1.591615000000000002e+00 1.188410000000000082e+02 2.116814999999999600e+03
1.430000000000000160e-01 1.959839999999999915e-01 1.583835000000000104e+00 1.187605000000000075e+02 2.116724999999999909e+03
1.440000000000000169e-01 1.959774999999999989e-01 1.637770000000000170e+00 1.187914999999999992e+02 2.116664999999999964e+03
1.450000000000000178e-01 1.959754999999999969e-01 1.743819999999999926e+00 1.189099999999999966e+02 2.116644999999999982e+03
1.459999999999999909e-01 1.959764999999999979e-01 1.891669999999999963e+00 1.190939999999999941e+02 2.116650000000000091e+03
1.469999999999999918e-01 1.959805000000000019e-01 2.070689999999999920e+00 1.193190000000000026e+02 2.116675000000000182e+03
1.479999999999999927e-01 1.959870000000000223e-01 2.270325000000000149e+00 1.195635000000000048e+02 2.116710000000000036e+03
1.489999999999999936e-01 1.959940000000000015e-01 2.480439999999999756e+00 1.198075000000000045e+02 2.116760000000000218e+03
1.499999999999999944e-01 1.960010000000000085e-01 2.691615000000000091e+00 1.200324999999999989e+02 2.116809999999999945e+03
1.509999999999999953e-01 1.960080000000000156e-01 2.895394999999999719e+00 1.202229999999999990e+02 2.116859999999999673e+03
1.519999999999999962e-01 1.960135000000000072e-01 3.084500000000000242e+00 1.203665000000000020e+02 2.116900000000000091e+03
1.529999999999999971e-01 1.960179999999999978e-01 3.252955000000000041e+00 1.204544999999999959e+02 2.116930000000000291e+03
1.539999999999999980e-01 1.960199999999999998e-01 3.396189999999999820e+00 1.204805000000000064e+02 2.116949999999999818e+03
1.549999999999999989e-01 1.960204999999999864e-01 3.511070000000000135e+00 1.204415000000000049e+02 2.116954999999999927e+03
1.559999999999999998e-01 1.960184999999999844e-01 3.595884999999999998e+00 1.203375000000000057e+02 2.116935000000000400e+03
1.570000000000000007e-01 1.960139999999999938e-01 3.650274999999999714e+00 1.201705000000000041e+02 2.116909999999999854e+03
1.580000000000000016e-01 1.960075000000000012e-01 3.675130000000000230e+00 1.199465000000000003e+02 2.116864999999999782e+03
1.590000000000000024e-01 1.959989999999999788e-01 3.672419999999999796e+00 1.196715000000000089e+02 2.116800000000000182e+03
