# t [s], A [cm^2], U [cm/s], P [cPa], c [cm/s]
1.000000000000000021e-03 1.513100000000000001e-01 1.731896500000000005e-01 9.726454999999999984e+01 1.860150000000000091e+03
2.000000000000000042e-03 1.512919999999999821e-01 1.476490999999999998e+00 9.472194999999999254e+01 1.859969999999999800e+03
3.000000000000000062e-03 1.512094999999999967e-01 3.127255499999999966e+00 9.136619999999999209e+01 1.859210000000000036e+03
4.000000000000000083e-03 1.510810000000000208e-01 4.973912499999999959e+00 8.744634999999999536e+01 1.858045000000000073e+03
5.000000000000000104e-03 1.509270000000000056e-01 6.968881500000000173e+00 8.355349999999999966e+01 1.856664999999999964e+03
6.000000000000000125e-03 1.507654999999999967e-01 9.039099999999999469e+00 8.009045000000000414e+01 1.855235000000000127e+03
7.000000000000000146e-03 1.506079999999999919e-01 1.106187500000000057e+01 7.714759999999999707e+01 1.853849999999999909e+03
8.000000000000000167e-03 1.504579999999999806e-01 1.291294999999999860e+01 7.459524999999999295e+01 1.852545000000000073e+03
9.000000000000001055e-03 1.503169999999999784e-01 1.453478499999999940e+01 7.230745000000000289e+01 1.851345000000000027e+03
1.000000000000000194e-02 1.501885000000000026e-01 1.593510000000000026e+01 7.027864999999999895e+01 1.850264999999999873e+03
1.099999999999999936e-02 1.500754999999999728e-01 1.713605000000000089e+01 6.854955000000001064e+01 1.849320000000000164e+03
1.200000000000000025e-02 1.499790000000000012e-01 1.815084999999999837e+01 6.712800000000000011e+01 1.848519999999999982e+03
1.300000000000000114e-02 1.498970000000000025e-01 1.898754999999999882e+01 6.598654999999999404e+01 1.847855000000000018e+03
1.400000000000000203e-02 1.498295000000000043e-01 1.965099999999999980e+01 6.507715000000000316e+01 1.847309999999999945e+03
1.499999999999999944e-02 1.497740000000000182e-01 2.014365000000000094e+01 6.433504999999999541e+01 1.846869999999999891e+03
1.600000000000000033e-02 1.497280000000000000e-01 2.047674999999999912e+01 6.370130000000000337e+01 1.846509999999999991e+03
1.700000000000000122e-02 1.496895000000000031e-01 2.068625000000000114e+01 6.316884999999999906e+01 1.846215000000000146e+03
1.800000000000000211e-02 1.496600000000000152e-01 2.083709999999999951e+01 6.281409999999999627e+01 1.846000000000000000e+03
1.900000000000000300e-02 1.496429999999999982e-01 2.100755000000000194e+01 6.277870000000000061e+01 1.845875000000000000e+03
2.000000000000000042e-02 1.496419999999999972e-01 2.126265000000000072e+01 6.320669999999999789e+01 1.845880000000000109e+03
2.100000000000000130e-02 1.496595000000000009e-01 2.163049999999999784e+01 6.417195000000000960e+01 1.846039999999999964e+03
2.200000000000000219e-02 1.496954999999999814e-01 2.209425000000000239e+01 6.563419999999999277e+01 1.846345000000000027e+03
2.299999999999999961e-02 1.497474999999999778e-01 2.259939999999999927e+01 6.743975000000000364e+01 1.846775000000000091e+03
2.400000000000000050e-02 1.498094999999999843e-01 2.307274999999999920e+01 6.936224999999998886e+01 1.847299999999999955e+03
2.500000000000000139e-02 1.498745000000000216e-01 2.344444999999999979e+01 7.116239999999999100e+01 1.847849999999999909e+03
2.600000000000000228e-02 1.499360000000000137e-01 2.366495000000000104e+01 7.264600000000000080e+01 1.848380000000000109e+03
2.700000000000000316e-02 1.499884999999999968e-01 2.371490000000000009e+01 7.370265000000000555e+01 1.848835000000000036e+03
2.800000000000000058e-02 1.500295000000000101e-01 2.360444999999999993e+01 7.431759999999999877e+01 1.849195000000000164e+03
2.900000000000000147e-02 1.500584999999999836e-01 2.336545000000000272e+01 7.455734999999999957e+01 1.849454999999999927e+03
3.000000000000000236e-02 1.500765000000000016e-01 2.303889999999999816e+01 7.453685000000000116e+01 1.849625000000000000e+03
3.099999999999999978e-02 1.500869999999999982e-01 2.266230000000000189e+01 7.437959999999999638e+01 1.849724999999999909e+03
3.200000000000000067e-02 1.500925000000000176e-01 2.226055000000000206e+01 7.418334999999999013e+01 1.849779999999999973e+03
3.300000000000000155e-02 1.500954999999999928e-01 2.184195000000000064e+01 7.399959999999998672e+01 1.849809999999999945e+03
3.400000000000000244e-02 1.500960000000000072e-01 2.140010000000000190e+01 7.382970000000000255e+01 1.849819999999999936e+03
3.500000000000000333e-02 1.500945000000000196e-01 2.091960000000000264e+01 7.363675000000000637e+01 1.849809999999999945e+03
3.600000000000000422e-02 1.500900000000000012e-01 2.038449999999999918e+01 7.336679999999999779e+01 1.849775000000000091e+03
3.700000000000000511e-02 1.500810000000000199e-01 1.978560000000000230e+01 7.297325000000000728e+01 1.849704999999999927e+03
3.799999999999999906e-02 1.500675000000000203e-01 1.912650000000000006e+01 7.243735000000000923e+01 1.849594999999999800e+03
3.899999999999999994e-02 1.500485000000000013e-01 1.842579999999999885e+01 7.178059999999999263e+01 1.849449999999999818e+03
4.000000000000000083e-02 1.500265000000000071e-01 1.771535000000000082e+01 7.106560000000000343e+01 1.849269999999999982e+03
4.100000000000000172e-02 1.500035000000000118e-01 1.703535000000000110e+01 7.038589999999999236e+01 1.849085000000000036e+03
4.200000000000000261e-02 1.499820000000000042e-01 1.642715000000000103e+01 6.984794999999999732e+01 1.848905000000000200e+03
4.300000000000000350e-02 1.499665000000000026e-01 1.592559999999999931e+01 6.954930000000000234e+01 1.848764999999999873e+03
4.400000000000000439e-02 1.499580000000000080e-01 1.555315000000000047e+01 6.955879999999999086e+01 1.848695000000000164e+03
4.499999999999999833e-02 1.499599999999999822e-01 1.531575000000000131e+01 6.990260000000000673e+01 1.848704999999999927e+03
4.599999999999999922e-02 1.499729999999999952e-01 1.520255000000000045e+01 7.055920000000000414e+01 1.848795000000000073e+03
4.700000000000000011e-02 1.499949999999999894e-01 1.518819999999999837e+01 7.146309999999999718e+01 1.848974999999999909e+03
4.800000000000000100e-02 1.500245000000000051e-01 1.523700000000000010e+01 7.251644999999999186e+01 1.849220000000000027e+03
4.900000000000000189e-02 1.500595000000000123e-01 1.530860000000000021e+01 7.360415000000000418e+01 1.849500000000000000e+03
5.000000000000000278e-02 1.500954999999999928e-01 1.536305000000000121e+01 7.461019999999999186e+01 1.849795000000000073e+03
5.100000000000000366e-02 1.501290000000000124e-01 1.536514999999999986e+01 7.543254999999999200e+01 1.850075000000000045e+03
5.200000000000000455e-02 1.501569999999999849e-01 1.528770000000000095e+01 7.599334999999999241e+01 1.850309999999999945e+03
5.300000000000000544e-02 1.501764999999999906e-01 1.511260000000000048e+01 7.624375000000000568e+01 1.850480000000000018e+03
5.399999999999999939e-02 1.501870000000000149e-01 1.483079999999999998e+01 7.616490000000000293e+01 1.850565000000000055e+03
5.500000000000000028e-02 1.501859999999999862e-01 1.444105000000000061e+01 7.576380000000000337e+01 1.850565000000000055e+03
5.600000000000000117e-02 1.501744999999999886e-01 1.394810000000000016e+01 7.506709999999999638e+01 1.850474999999999909e+03
5.700000000000000205e-02 1.501524999999999943e-01 1.336069999999999958e+01 7.411390000000000100e+01 1.850295000000000073e+03
5.800000000000000294e-02 1.501210000000000044e-01 1.269010000000000105e+01 7.294904999999999973e+01 1.850039999999999964e+03
5.900000000000000383e-02 1.500815000000000066e-01 1.194865499999999869e+01 7.161820000000000164e+01 1.849710000000000036e+03
6.000000000000000472e-02 1.500354999999999883e-01 1.114942500000000081e+01 7.016454999999999131e+01 1.849329999999999927e+03
6.099999999999999867e-02 1.499834999999999918e-01 1.030607000000000006e+01 6.862805000000000177e+01 1.848900000000000091e+03
6.199999999999999956e-02 1.499274999999999913e-01 9.433115000000000805e+00 6.704595000000000482e+01 1.848429999999999836e+03
6.300000000000000044e-02 1.498689999999999745e-01 8.546420000000001238e+00 6.545449999999999591e+01 1.847945000000000164e+03
6.400000000000000133e-02 1.498089999999999977e-01 7.663550000000000750e+00 6.389060000000000628e+01 1.847445000000000164e+03
6.500000000000000222e-02 1.497499999999999942e-01 6.804070000000000285e+00 6.239374999999999716e+01 1.846949999999999818e+03
6.600000000000000311e-02 1.496919999999999917e-01 5.989349999999999952e+00 6.100664999999999338e+01 1.846464999999999918e+03
6.700000000000000400e-02 1.496379999999999932e-01 5.242149999999999643e+00 5.977495000000000402e+01 1.846014999999999873e+03
6.800000000000000488e-02 1.495894999999999864e-01 4.585865000000000080e+00 5.874634999999999962e+01 1.845599999999999909e+03
6.900000000000000577e-02 1.495480000000000143e-01 4.043554999999999566e+00 5.796835000000000093e+01 1.845250000000000000e+03
7.000000000000000666e-02 1.495154999999999956e-01 3.636824999999999974e+00 5.748584999999999923e+01 1.844970000000000027e+03
7.100000000000000755e-02 1.494935000000000014e-01 3.384710000000000107e+00 5.733849999999999625e+01 1.844779999999999973e+03
7.200000000000000844e-02 1.494840000000000058e-01 3.302690000000000126e+00 5.755790000000000362e+01 1.844684999999999945e+03
7.300000000000000933e-02 1.494880000000000098e-01 3.401850000000000041e+00 5.816575000000000273e+01 1.844704999999999927e+03
7.399999999999999634e-02 1.495055000000000134e-01 3.688405000000000378e+00 5.917244999999999777e+01 1.844840000000000146e+03
7.499999999999999722e-02 1.495380000000000043e-01 4.163394999999999513e+00 6.057634999999999792e+01 1.845095000000000027e+03
7.599999999999999811e-02 1.495859999999999967e-01 4.822815000000000296e+00 6.236424999999999841e+01 1.845480000000000018e+03
7.699999999999999900e-02 1.496474999999999889e-01 5.657890000000000086e+00 6.451200000000000045e+01 1.845990000000000009e+03
7.799999999999999989e-02 1.497240000000000237e-01 6.655665000000000830e+00 6.698645000000000493e+01 1.846605000000000018e+03
7.900000000000000078e-02 1.498125000000000151e-01 7.799739999999999895e+00 6.974739999999999895e+01 1.847335000000000036e+03
8.000000000000000167e-02 1.499125000000000041e-01 9.071170000000000400e+00 7.274989999999999668e+01 1.848164999999999964e+03
8.100000000000000255e-02 1.500229999999999897e-01 1.044923000000000002e+01 7.594660000000000366e+01 1.849079999999999927e+03
8.200000000000000344e-02 1.501414999999999833e-01 1.191263499999999986e+01 7.929025000000000034e+01 1.850070000000000164e+03
8.300000000000000433e-02 1.502664999999999973e-01 1.343999499999999969e+01 8.273595000000000255e+01 1.851115000000000009e+03
8.400000000000000522e-02 1.503975000000000173e-01 1.501095000000000113e+01 8.624285000000000423e+01 1.852204999999999927e+03
8.500000000000000611e-02 1.505314999999999848e-01 1.660674999999999812e+01 8.977539999999999054e+01 1.853329999999999927e+03
8.600000000000000699e-02 1.506675000000000098e-01 1.821034999999999826e+01 9.330445000000000277e+01 1.854474999999999909e+03
8.700000000000000788e-02 1.508055000000000090e-01 1.980720000000000169e+01 9.680799999999999272e+01 1.855634999999999991e+03
8.800000000000000877e-02 1.509429999999999938e-01 2.138520000000000110e+01 1.002700000000000102e+02 1.856805000000000064e+03
8.899999999999999578e-02 1.510799999999999921e-01 2.293424999999999869e+01 1.036805999999999983e+02 1.857964999999999918e+03
8.999999999999999667e-02 1.512165000000000037e-01 2.444664999999999822e+01 1.070345000000000084e+02 1.859125000000000000e+03
9.099999999999999756e-02 1.513514999999999999e-01 2.591635000000000133e+01 1.103315000000000055e+02 1.860280000000000200e+03
9.199999999999999845e-02 1.514845000000000219e-01 2.733885000000000076e+01 1.135725000000000051e+02 1.861414999999999964e+03
9.299999999999999933e-02 1.516160000000000008e-01 2.871055000000000135e+01 1.167595000000000027e+02 1.862545000000000073e+03
9.400000000000000022e-02 1.517470000000000208e-01 3.002870000000000061e+01 1.198959999999999866e+02 1.863655000000000200e+03
9.500000000000000111e-02 1.518749999999999822e-01 3.129094999999999871e+01 1.229830000000000041e+02 1.864764999999999873e+03
9.600000000000000200e-02 1.520020000000000260e-01 3.249490000000000123e+01 1.260194999999999936e+02 1.865855000000000018e+03
9.700000000000000289e-02 1.521270000000000122e-01 3.363830000000000098e+01 1.290045000000000073e+02 1.866930000000000064e+03
9.800000000000000377e-02 1.522499999999999964e-01 3.471875000000000000e+01 1.319329999999999927e+02 1.867994999999999891e+03
9.900000000000000466e-02 1.523714999999999931e-01 3.573355000000000103e+01 1.348000000000000114e+02 1.869039999999999964e+03
1.000000000000000056e-01 1.524905000000000010e-01 3.668005000000000138e+01 1.375960000000000036e+02 1.870065000000000055e+03
1.010000000000000064e-01 1.526065000000000060e-01 3.755530000000000257e+01 1.403134999999999764e+02 1.871075000000000045e+03
1.020000000000000073e-01 1.527199999999999946e-01 3.835640000000000072e+01 1.429420000000000073e+02 1.872054999999999836e+03
1.030000000000000082e-01 1.528295000000000070e-01 3.908050000000000068e+01 1.454704999999999870e+02 1.873010000000000218e+03
1.040000000000000091e-01 1.529360000000000164e-01 3.972469999999999857e+01 1.478890000000000100e+02 1.873934999999999945e+03
1.050000000000000100e-01 1.530380000000000074e-01 4.028629999999999711e+01 1.501865000000000236e+02 1.874820000000000164e+03
1.059999999999999970e-01 1.531349999999999933e-01 4.076285000000000025e+01 1.523530000000000086e+02 1.875675000000000182e+03
1.069999999999999979e-01 1.532275000000000165e-01 4.115210000000000434e+01 1.543795000000000073e+02 1.876480000000000018e+03
1.079999999999999988e-01 1.533149999999999791e-01 4.145204999999999984e+01 1.562574999999999932e+02 1.877240000000000009e+03
1.089999999999999997e-01 1.533964999999999912e-01 4.166120000000000090e+01 1.579784999999999968e+02 1.877954999999999927e+03
1.100000000000000006e-01 1.534714999999999829e-01 4.177840000000000487e+01 1.595360000000000014e+02 1.878615000000000009e+03
1.110000000000000014e-01 1.535404999999999964e-01 4.180320000000000391e+01 1.609254999999999995e+02 1.879230000000000018e+03
1.120000000000000023e-01 1.536029999999999895e-01 4.173555000000000348e+01 1.621419999999999959e+02 1.879775000000000091e+03
1.130000000000000032e-01 1.536589999999999900e-01 4.157634999999999792e+01 1.631845000000000141e+02 1.880269999999999982e+03
1.140000000000000041e-01 1.537084999999999979e-01 4.132729999999999393e+01 1.640520000000000209e+02 1.880704999999999927e+03
1.150000000000000050e-01 1.537499999999999978e-01 4.099105000000000132e+01 1.647470000000000141e+02 1.881085000000000036e+03
1.160000000000000059e-01 1.537854999999999916e-01 4.057110000000000127e+01 1.652729999999999961e+02 1.881394999999999982e+03
1.170000000000000068e-01 1.538140000000000063e-01 4.007200000000000273e+01 1.656374999999999886e+02 1.881654999999999973e+03
1.180000000000000077e-01 1.538364999999999871e-01 3.949929999999999808e+01 1.658480000000000132e+02 1.881860000000000127e+03
1.190000000000000085e-01 1.538519999999999888e-01 3.885925000000000296e+01 1.659164999999999850e+02 1.882005000000000109e+03
1.200000000000000094e-01 1.538619999999999988e-01 3.815900000000000603e+01 1.658539999999999850e+02 1.882095000000000027e+03
1.209999999999999964e-01 1.538669999999999760e-01 3.740625000000000000e+01 1.656754999999999995e+02 1.882144999999999982e+03
1.219999999999999973e-01 1.538665000000000171e-01 3.660904999999999632e+01 1.653954999999999984e+02 1.882155000000000200e+03
1.229999999999999982e-01 1.538614999999999844e-01 3.577564999999999884e+01 1.650289999999999964e+02 1.882115000000000009e+03
1.239999999999999991e-01 1.538530000000000175e-01 3.491429999999999723e+01 1.645905000000000200e+02 1.882045000000000073e+03
1.250000000000000000e-01 1.538415000000000199e-01 3.403310000000000457e+01 1.640955000000000155e+02 1.881950000000000045e+03
1.260000000000000009e-01 1.538264999999999771e-01 3.313954999999999984e+01 1.635570000000000164e+02 1.881824999999999818e+03
1.270000000000000018e-01 1.538094999999999879e-01 3.224074999999999847e+01 1.629865000000000066e+02 1.881684999999999945e+03
1.280000000000000027e-01 1.537910000000000110e-01 3.134299999999999642e+01 1.623960000000000150e+02 1.881525000000000091e+03
1.290000000000000036e-01 1.537709999999999910e-01 3.045175000000000054e+01 1.617925000000000182e+02 1.881355000000000018e+03
1.300000000000000044e-01 1.537499999999999978e-01 2.957155000000000200e+01 1.611834999999999809e+02 1.881170000000000073e+03
1.310000000000000053e-01 1.537280000000000035e-01 2.870589999999999975e+01 1.605734999999999957e+02 1.880980000000000018e+03
1.320000000000000062e-01 1.537054999999999949e-01 2.785754999999999981e+01 1.599650000000000034e+02 1.880789999999999964e+03
1.330000000000000071e-01 1.536830000000000140e-01 2.702805000000000035e+01 1.593589999999999804e+02 1.880590000000000146e+03
1.340000000000000080e-01 1.536605000000000054e-01 2.621819999999999951e+01 1.587545000000000073e+02 1.880389999999999873e+03
1.350000000000000089e-01 1.536370000000000235e-01 2.542784999999999940e+01 1.581494999999999891e+02 1.880184999999999945e+03
1.360000000000000098e-01 1.536135000000000139e-01 2.465615000000000023e+01 1.575389999999999873e+02 1.879980000000000018e+03
1.370000000000000107e-01 1.535894999999999899e-01 2.390160000000000196e+01 1.569200000000000159e+02 1.879769999999999982e+03
1.380000000000000115e-01 1.535650000000000071e-01 2.316219999999999857e+01 1.562860000000000014e+02 1.879555000000000064e+03
1.390000000000000124e-01 1.535394999999999954e-01 2.243554999999999922e+01 1.556315000000000168e+02 1.879335000000000036e+03
1.400000000000000133e-01 1.535134999999999972e-01 2.171884999999999977e+01 1.549504999999999768e+02 1.879105000000000018e+03
1.410000000000000142e-01 1.534860000000000113e-01 2.100945000000000107e+01 1.542375000000000114e+02 1.878865000000000009e+03
1.420000000000000151e-01 1.534579999999999833e-01 2.030440000000000111e+01 1.534855000000000018e+02 1.878619999999999891e+03
1.430000000000000160e-01 1.534274999999999944e-01 1.960105000000000075e+01 1.526904999999999859e+02 1.878359999999999900e+03
1.440000000000000169e-01 1.533964999999999912e-01 1.889715000000000344e+01 1.518489999999999895e+02 1.878079999999999927e+03
1.450000000000000178e-01 1.533629999999999993e-01 1.819059999999999988e+01 1.509569999999999936e+02 1.877789999999999964e+03
1.459999999999999909e-01 1.533269999999999911e-01 1.748000000000000043e+01 1.500134999999999934e+02 1.877485000000000127e+03
1.469999999999999918e-01 1.532899999999999818e-01 1.676425000000000054e+01 1.490180000000000007e+02 1.877159999999999854e+03
1.479999999999999927e-01 1.532505000000000117e-01 1.604330000000000211e+01 1.479714999999999918e+02 1.876820000000000164e+03
1.489999999999999936e-01 1.532094999999999985e-01 1.531755000000000067e+01 1.468774999999999977e+02 1.876460000000000036e+03
1.499999999999999944e-01 1.531660000000000244e-01 1.458800000000000097e+01 1.457400000000000091e+02 1.876090000000000146e+03
1.509999999999999953e-01 1.531210000000000071e-01 1.385670000000000002e+01 1.445654999999999859e+02 1.875699999999999818e+03
1.519999999999999962e-01 1.530750000000000166e-01 1.312620000000000076e+01 1.433605000000000018e+02 1.875300000000000182e+03
1.529999999999999971e-01 1.530269999999999964e-01 1.239955499999999944e+01 1.421340000000000146e+02 1.874884999999999991e+03
1.539999999999999980e-01 1.529785000000000172e-01 1.168051999999999957e+01 1.408960000000000150e+02 1.874464999999999918e+03
1.549999999999999989e-01 1.529294999999999960e-01 1.097315000000000040e+01 1.396564999999999941e+02 1.874039999999999964e+03
1.559999999999999998e-01 1.528795000000000015e-01 1.028188000000000102e+01 1.384269999999999925e+02 1.873615000000000009e+03
1.570000000000000007e-01 1.528309999999999946e-01 9.611110000000000042e+00 1.372175000000000011e+02 1.873190000000000055e+03
1.580000000000000016e-01 1.527820000000000011e-01 8.965315000000000367e+00 1.360389999999999873e+02 1.872775000000000091e+03
1.590000000000000024e-01 1.527344999999999953e-01 8.348784999999999457e+00 1.349010000000000105e+02 1.872355000000000018e+03
