# t [s], A [cm^2], U [cm/s], P [cPa], c [cm/s]
1.000000000000000021e-03 6.468914999999999527e-01 6.223199999999998178e-03 1.024770000000000039e+02 1.733965000000000146e+03
2.000000000000000042e-03 6.468814999999999982e-01 -7.092499999999989438e-05 1.024465000000000003e+02 1.733954999999999927e+03
3.000000000000000062e-03 6.469420000000000170e-01 1.124323500000000003e-01 1.025784999999999911e+02 1.733985000000000127e+03
4.000000000000000083e-03 6.469830000000000858e-01 2.040514000000000217e-01 1.026974999999999909e+02 1.734014999999999873e+03
5.000000000000000104e-03 6.469409999999999883e-01 1.523202000000000167e-01 1.025854999999999961e+02 1.733994999999999891e+03
6.000000000000000125e-03 6.468739999999999490e-01 4.687400000000002676e-02 1.023135000000000048e+02 1.733940000000000055e+03
7.000000000000000146e-03 6.468125000000000124e-01 -5.809500000000000774e-02 1.019745000000000061e+02 1.733869999999999891e+03
8.000000000000000167e-03 6.467030000000000278e-01 -2.677049999999999708e-01 1.014424999999999955e+02 1.733759999999999991e+03
9.000000000000001055e-03 6.465275000000000327e-01 -6.205250000000001043e-01 1.006290500000000065e+02 1.733595000000000027e+03
1.000000000000000194e-02 6.462769999999999904e-01 -1.126900000000000013e+00 9.947339999999999804e+01 1.733360000000000127e+03
1.099999999999999936e-02 6.459285000000000165e-01 -1.814680000000000071e+00 9.788669999999999050e+01 1.733029999999999973e+03
1.200000000000000025e-02 6.454925000000000246e-01 -2.643684999999999619e+00 9.586464999999999748e+01 1.732605000000000018e+03
1.300000000000000114e-02 6.450314999999999799e-01 -3.464120000000000310e+00 9.357744999999999891e+01 1.732105000000000018e+03
1.400000000000000203e-02 6.446224999999999872e-01 -4.089709499999999665e+00 9.129840000000000089e+01 1.731595000000000027e+03
1.499999999999999944e-02 6.443095000000000905e-01 -4.397078999999999738e+00 8.926285000000000025e+01 1.731105000000000018e+03
1.600000000000000033e-02 6.440879999999999939e-01 -4.368807499999999955e+00 8.756924999999999670e+01 1.730674999999999955e+03
1.700000000000000122e-02 6.439165000000000028e-01 -4.075459999999999638e+00 8.617099999999999227e+01 1.730289999999999964e+03
1.800000000000000211e-02 6.437440000000000939e-01 -3.627740000000000187e+00 8.492709999999999582e+01 1.729940000000000055e+03
1.900000000000000300e-02 6.435299999999999354e-01 -3.126586000000000087e+00 8.367609999999999104e+01 1.729585000000000036e+03
2.000000000000000042e-02 6.432579999999999965e-01 -2.628264999999999851e+00 8.230299999999999727e+01 1.729210000000000036e+03
2.100000000000000130e-02 6.429384999999999684e-01 -2.134230000000000071e+00 8.077549999999999386e+01 1.728809999999999945e+03
2.200000000000000219e-02 6.425980000000000025e-01 -1.607185000000000086e+00 7.913890000000000668e+01 1.728385000000000218e+03
2.299999999999999961e-02 6.422634999999999872e-01 -1.003270000000000106e+00 7.747695000000000221e+01 1.727949999999999818e+03
2.400000000000000050e-02 6.419509999999999383e-01 -3.037000000000000810e-01 7.586105000000000587e+01 1.727525000000000091e+03
2.500000000000000139e-02 6.416539999999999466e-01 4.672899999999997611e-01 7.431024999999999636e+01 1.727105000000000018e+03
2.600000000000000228e-02 6.413510000000000044e-01 1.242375000000000229e+00 7.277584999999999127e+01 1.726684999999999945e+03
2.700000000000000316e-02 6.410084999999999811e-01 1.926079999999999792e+00 7.115135000000000787e+01 1.726255000000000109e+03
2.800000000000000058e-02 6.405920000000000503e-01 2.418825000000000003e+00 6.930185000000000173e+01 1.725784999999999854e+03
2.900000000000000147e-02 6.400780000000000358e-01 2.643085000000000129e+00 6.710540000000000305e+01 1.725244999999999891e+03
3.000000000000000236e-02 6.394615000000000160e-01 2.564369999999999816e+00 6.449250000000000682e+01 1.724625000000000000e+03
3.099999999999999978e-02 6.387594999999999246e-01 2.200410000000000199e+00 6.147285000000000110e+01 1.723920000000000073e+03
3.200000000000000067e-02 6.380060000000000731e-01 1.615539999999999754e+00 5.813954999999999984e+01 1.723144999999999982e+03
3.300000000000000155e-02 6.372440000000000326e-01 9.033649999999999736e-01 5.465124999999999744e+01 1.722335000000000036e+03
3.400000000000000244e-02 6.365195000000000158e-01 1.649150000000005889e-01 5.120054999999999978e+01 1.721514999999999873e+03
3.500000000000000333e-02 6.358694999999999764e-01 -5.099299999999997723e-01 4.797979999999999734e+01 1.720740000000000009e+03
3.600000000000000422e-02 6.353204999999999547e-01 -1.054124999999999979e+00 4.515335000000000321e+01 1.720035000000000082e+03
3.700000000000000511e-02 6.348884999999999668e-01 -1.426614999999999966e+00 4.284165000000000134e+01 1.719434999999999945e+03
3.799999999999999906e-02 6.345784999999999343e-01 -1.609240000000000004e+00 4.111650000000000205e+01 1.718965000000000146e+03
3.899999999999999994e-02 6.343885000000000218e-01 -1.599610000000000198e+00 4.000600000000000023e+01 1.718630000000000109e+03
4.000000000000000083e-02 6.343134999999999746e-01 -1.402900499999999884e+00 3.950615000000000521e+01 1.718430000000000064e+03
4.100000000000000172e-02 6.343479999999999119e-01 -1.024818000000000007e+00 3.959375000000000000e+01 1.718380000000000109e+03
4.200000000000000261e-02 6.344870000000000232e-01 -4.674699999999999411e-01 4.023834999999999695e+01 1.718454999999999927e+03
4.300000000000000350e-02 6.347264999999999713e-01 2.711699999999999111e-01 4.140935000000000343e+01 1.718664999999999964e+03
4.400000000000000439e-02 6.350635000000000030e-01 1.194745000000000168e+00 4.307820000000000249e+01 1.719000000000000000e+03
4.499999999999999833e-02 6.354934999999999334e-01 2.304260000000000197e+00 4.521564999999999657e+01 1.719445000000000164e+03
4.599999999999999922e-02 6.360114999999999519e-01 3.593900000000000539e+00 4.778719999999999857e+01 1.720000000000000000e+03
4.700000000000000011e-02 6.366054999999999353e-01 5.048239999999999839e+00 5.074860000000000326e+01 1.720655000000000200e+03
4.800000000000000100e-02 6.372634999999999827e-01 6.641519999999999868e+00 5.404340000000000543e+01 1.721394999999999982e+03
4.900000000000000189e-02 6.379700000000000371e-01 8.339263050000001343e+00 5.760289999999999822e+01 1.722210000000000036e+03
5.000000000000000278e-02 6.387074999999999836e-01 1.010117499999999957e+01 6.134959999999999525e+01 1.723074999999999818e+03
5.100000000000000366e-02 6.394579999999999709e-01 1.188508000000000031e+01 6.520204999999999984e+01 1.723980000000000018e+03
5.200000000000000455e-02 6.402079999999999993e-01 1.365066000000000024e+01 6.908095000000000141e+01 1.724900000000000091e+03
5.300000000000000544e-02 6.409424999999999706e-01 1.536289000000000016e+01 7.291530000000000200e+01 1.725829999999999927e+03
5.399999999999999939e-02 6.416524999999999590e-01 1.699375500000000017e+01 7.664664999999999395e+01 1.726744999999999891e+03
5.500000000000000028e-02 6.423319999999999030e-01 1.852374999999999972e+01 8.023265000000000668e+01 1.727630000000000109e+03
5.600000000000000117e-02 6.429780000000000495e-01 1.994105000000000061e+01 8.364754999999999541e+01 1.728489999999999782e+03
5.700000000000000205e-02 6.435910000000000242e-01 2.124145000000000039e+01 8.688159999999999172e+01 1.729315000000000055e+03
5.800000000000000294e-02 6.441740000000000244e-01 2.242624999999999957e+01 8.993905000000000882e+01 1.730099999999999909e+03
5.900000000000000383e-02 6.447294999999999554e-01 2.350140000000000029e+01 9.283504999999999541e+01 1.730845000000000027e+03
6.000000000000000472e-02 6.452640000000000597e-01 2.447560000000000002e+01 9.559280000000001110e+01 1.731565000000000055e+03
6.099999999999999867e-02 6.457825000000000371e-01 2.535920000000000130e+01 9.823935000000000173e+01 1.732255000000000109e+03
6.199999999999999956e-02 6.462900000000000311e-01 2.616284999999999883e+01 1.008026499999999999e+02 1.732925000000000182e+03
6.300000000000000044e-02 6.467905000000000459e-01 2.689649999999999963e+01 1.033079500000000053e+02 1.733575000000000045e+03
6.400000000000000133e-02 6.472875000000000156e-01 2.756844999999999857e+01 1.057764999999999986e+02 1.734215000000000146e+03
6.500000000000000222e-02 6.477825000000000388e-01 2.818424999999999869e+01 1.082214999999999918e+02 1.734849999999999909e+03
6.600000000000000311e-02 6.482760000000000744e-01 2.874694999999999823e+01 1.106495000000000033e+02 1.735480000000000018e+03
6.700000000000000400e-02 6.487655000000001060e-01 2.925639999999999930e+01 1.130575000000000045e+02 1.736099999999999909e+03
6.800000000000000488e-02 6.492484999999998951e-01 2.970960000000000178e+01 1.154329999999999927e+02 1.736715000000000146e+03
6.900000000000000577e-02 6.497204999999999231e-01 3.010144999999999982e+01 1.177574999999999932e+02 1.737315000000000055e+03
7.000000000000000666e-02 6.501755000000000173e-01 3.042530000000000001e+01 1.200074999999999932e+02 1.737900000000000091e+03
7.100000000000000755e-02 6.506085000000000340e-01 3.067385000000000161e+01 1.221554999999999893e+02 1.738464999999999918e+03
7.200000000000000844e-02 6.510135000000000227e-01 3.083995000000000175e+01 1.241744999999999948e+02 1.739000000000000000e+03
7.300000000000000933e-02 6.513864999999999794e-01 3.091734999999999900e+01 1.260370000000000061e+02 1.739494999999999891e+03
7.399999999999999634e-02 6.517224999999999824e-01 3.090129999999999910e+01 1.277194999999999965e+02 1.739950000000000045e+03
7.499999999999999722e-02 6.520185000000000564e-01 3.078855000000000075e+01 1.292024999999999864e+02 1.740355000000000018e+03
7.599999999999999811e-02 6.522719999999999629e-01 3.057784999999999798e+01 1.304724999999999966e+02 1.740710000000000036e+03
7.699999999999999900e-02 6.524814999999999365e-01 3.027000000000000313e+01 1.315200000000000102e+02 1.741019999999999982e+03
7.799999999999999989e-02 6.526475000000000470e-01 2.986775000000000091e+01 1.323425000000000011e+02 1.741264999999999873e+03
7.900000000000000078e-02 6.527700000000000724e-01 2.937579999999999814e+01 1.329429999999999836e+02 1.741460000000000036e+03
8.000000000000000167e-02 6.528515000000000290e-01 2.880085000000000051e+01 1.333299999999999841e+02 1.741599999999999909e+03
8.100000000000000255e-02 6.528944999999999332e-01 2.815139999999999887e+01 1.335149999999999864e+02 1.741684999999999945e+03
8.200000000000000344e-02 6.529024999999999412e-01 2.743764999999999787e+01 1.335159999999999911e+02 1.741730000000000018e+03
8.300000000000000433e-02 6.528795000000000570e-01 2.667115000000000080e+01 1.333549999999999898e+02 1.741724999999999909e+03
8.400000000000000522e-02 6.528309999999999391e-01 2.586464999999999748e+01 1.330544999999999902e+02 1.741684999999999945e+03
8.500000000000000611e-02 6.527619999999999534e-01 2.503150000000000119e+01 1.326415000000000077e+02 1.741615000000000009e+03
8.600000000000000699e-02 6.526769999999999516e-01 2.418505000000000038e+01 1.321430000000000007e+02 1.741514999999999873e+03
8.700000000000000788e-02 6.525815000000000365e-01 2.333845000000000169e+01 1.315849999999999795e+02 1.741400000000000091e+03
8.800000000000000877e-02 6.524805000000000188e-01 2.250375000000000014e+01 1.309939999999999998e+02 1.741269999999999982e+03
8.899999999999999578e-02 6.523780000000000134e-01 2.169125000000000014e+01 1.303919999999999959e+02 1.741130000000000109e+03
8.999999999999999667e-02 6.522775000000000656e-01 2.090939999999999799e+01 1.297984999999999900e+02 1.740990000000000009e+03
9.099999999999999756e-02 6.521810000000000107e-01 2.016420000000000101e+01 1.292284999999999968e+02 1.740849999999999909e+03
9.199999999999999845e-02 6.520905000000000173e-01 1.945905000000000129e+01 1.286920000000000073e+02 1.740715000000000146e+03
9.299999999999999933e-02 6.520060000000000855e-01 1.879475000000000051e+01 1.281945000000000050e+02 1.740585000000000036e+03
9.400000000000000022e-02 6.519274999999999931e-01 1.816985000000000028e+01 1.277349999999999994e+02 1.740465000000000146e+03
9.500000000000000111e-02 6.518539999999999335e-01 1.758040000000000092e+01 1.273105000000000047e+02 1.740349999999999909e+03
9.600000000000000200e-02 6.517824999999999314e-01 1.702104999999999890e+01 1.269114999999999895e+02 1.740240000000000009e+03
9.700000000000000289e-02 6.517109999999999292e-01 1.648474999999999824e+01 1.265275000000000034e+02 1.740140000000000100e+03
9.800000000000000377e-02 6.516385000000000094e-01 1.596385000000000076e+01 1.261460000000000008e+02 1.740034999999999854e+03
9.900000000000000466e-02 6.515604999999999869e-01 1.545030000000000037e+01 1.257520000000000095e+02 1.739934999999999945e+03
1.000000000000000056e-01 6.514744999999999564e-01 1.493599999999999994e+01 1.253319999999999936e+02 1.739825000000000045e+03
1.010000000000000064e-01 6.513795000000000002e-01 1.441344999999999921e+01 1.248734999999999928e+02 1.739710000000000036e+03
1.020000000000000073e-01 6.512725000000000319e-01 1.387614999999999910e+01 1.243644999999999925e+02 1.739579999999999927e+03
1.030000000000000082e-01 6.511519999999999531e-01 1.331896499999999861e+01 1.237955000000000041e+02 1.739440000000000055e+03
1.040000000000000091e-01 6.510184999999999444e-01 1.273816499999999863e+01 1.231624999999999943e+02 1.739284999999999854e+03
1.050000000000000100e-01 6.508709999999999773e-01 1.213213999999999970e+01 1.224625000000000057e+02 1.739119999999999891e+03
1.059999999999999970e-01 6.507114999999999982e-01 1.150095999999999918e+01 1.216984999999999957e+02 1.738934999999999945e+03
1.069999999999999979e-01 6.505400000000000071e-01 1.084686500000000109e+01 1.208750000000000000e+02 1.738740000000000009e+03
1.079999999999999988e-01 6.503594999999999793e-01 1.017403000000000013e+01 1.200024999999999977e+02 1.738529999999999973e+03
1.089999999999999997e-01 6.501734999999999598e-01 9.488244999999999152e+00 1.190935000000000059e+02 1.738309999999999945e+03
1.100000000000000006e-01 6.499850000000000350e-01 8.796800000000001063e+00 1.181634999999999991e+02 1.738085000000000036e+03
1.110000000000000014e-01 6.497975000000000279e-01 8.108125000000001137e+00 1.172300000000000040e+02 1.737855000000000018e+03
1.120000000000000023e-01 6.496150000000000535e-01 7.431299999999999351e+00 1.163125000000000000e+02 1.737625000000000000e+03
1.130000000000000032e-01 6.494409999999999350e-01 6.775629999999999598e+00 1.154294999999999902e+02 1.737409999999999854e+03
1.140000000000000041e-01 6.492799999999999683e-01 6.150190000000000268e+00 1.146005000000000109e+02 1.737195000000000164e+03
1.150000000000000050e-01 6.491335000000000299e-01 5.563450000000000450e+00 1.138419999999999987e+02 1.737005000000000109e+03
1.160000000000000059e-01 6.490059999999999718e-01 5.022740000000000649e+00 1.131690000000000111e+02 1.736829999999999927e+03
1.170000000000000068e-01 6.488990000000000036e-01 4.533970000000000056e+00 1.125919999999999987e+02 1.736675000000000182e+03
1.180000000000000077e-01 6.488130000000000841e-01 4.101374999999999993e+00 1.121204999999999927e+02 1.736545000000000073e+03
1.190000000000000085e-01 6.487490000000000201e-01 3.727335000000000065e+00 1.117579999999999956e+02 1.736440000000000055e+03
1.200000000000000094e-01 6.487069999999999226e-01 3.412345000000000184e+00 1.115045000000000073e+02 1.736355000000000018e+03
1.209999999999999964e-01 6.486844999999999972e-01 3.155044999999999877e+00 1.113559999999999945e+02 1.736299999999999955e+03
1.219999999999999973e-01 6.486804999999999932e-01 2.952390000000000292e+00 1.113050000000000068e+02 1.736269999999999982e+03
1.229999999999999982e-01 6.486929999999999641e-01 2.799884999999999735e+00 1.113414999999999964e+02 1.736259999999999991e+03
1.239999999999999991e-01 6.487184999999999757e-01 2.691875000000000018e+00 1.114514999999999958e+02 1.736269999999999982e+03
1.250000000000000000e-01 6.487544999999999007e-01 2.621850000000000236e+00 1.116214999999999975e+02 1.736295000000000073e+03
1.260000000000000009e-01 6.487985000000000557e-01 2.582815000000000083e+00 1.118365000000000009e+02 1.736335000000000036e+03
1.270000000000000018e-01 6.488464999999999927e-01 2.567629999999999857e+00 1.120799999999999983e+02 1.736380000000000109e+03
1.280000000000000027e-01 6.488970000000000571e-01 2.569224999999999870e+00 1.123379999999999939e+02 1.736434999999999945e+03
1.290000000000000036e-01 6.489454999999999529e-01 2.580954999999999888e+00 1.125969999999999942e+02 1.736494999999999891e+03
1.300000000000000044e-01 6.489914999999999434e-01 2.596714999999999662e+00 1.128444999999999965e+02 1.736549999999999955e+03
1.310000000000000053e-01 6.490325000000000122e-01 2.611159999999999926e+00 1.130699999999999932e+02 1.736599999999999909e+03
1.320000000000000062e-01 6.490675000000000194e-01 2.619774999999999743e+00 1.132665000000000077e+02 1.736644999999999982e+03
1.330000000000000071e-01 6.490949999999999775e-01 2.618939999999999824e+00 1.134269999999999925e+02 1.736684999999999945e+03
1.340000000000000080e-01 6.491149999999999975e-01 2.605970000000000120e+00 1.135480000000000018e+02 1.736714999999999918e+03
1.350000000000000089e-01 6.491270000000000095e-01 2.579105000000000203e+00 1.136280000000000001e+02 1.736740000000000009e+03
1.360000000000000098e-01 6.491309999999999025e-01 2.537449999999999761e+00 1.136664999999999992e+02 1.736755000000000109e+03
1.370000000000000107e-01 6.491279999999999273e-01 2.480935000000000112e+00 1.136655000000000086e+02 1.736755000000000109e+03
1.380000000000000115e-01 6.491179999999999728e-01 2.410219999999999807e+00 1.136274999999999977e+02 1.736755000000000109e+03
1.390000000000000124e-01 6.491024999999999157e-01 2.326575000000000060e+00 1.135570000000000022e+02 1.736744999999999891e+03
1.400000000000000133e-01 6.490819999999999368e-01 2.231780000000000097e+00 1.134590000000000032e+02 1.736724999999999909e+03
1.410000000000000142e-01 6.490575000000000649e-01 2.127944999999999975e+00 1.133375000000000057e+02 1.736699999999999818e+03
1.420000000000000151e-01 6.490305000000000657e-01 2.017405000000000115e+00 1.131984999999999957e+02 1.736670000000000073e+03
1.430000000000000160e-01 6.490009999999999390e-01 1.902550000000000185e+00 1.130469999999999970e+02 1.736639999999999873e+03
1.440000000000000169e-01 6.489709999999999646e-01 1.785684999999999967e+00 1.128874999999999886e+02 1.736605000000000018e+03
1.450000000000000178e-01 6.489405000000000312e-01 1.668913500000000161e+00 1.127235000000000014e+02 1.736565000000000055e+03
1.459999999999999909e-01 6.489099999999999868e-01 1.554028500000000035e+00 1.125589999999999975e+02 1.736525000000000091e+03
1.469999999999999918e-01 6.488800000000000123e-01 1.442451999999999845e+00 1.123950000000000102e+02 1.736490000000000009e+03
1.479999999999999927e-01 6.488504999999999967e-01 1.335175000000000001e+00 1.122335000000000065e+02 1.736449999999999818e+03
1.489999999999999936e-01 6.488220000000000098e-01 1.232790499999999900e+00 1.120745000000000005e+02 1.736409999999999854e+03
1.499999999999999944e-01 6.487924999999999942e-01 1.135473999999999872e+00 1.119170000000000016e+02 1.736369999999999891e+03
1.509999999999999953e-01 6.487635000000000485e-01 1.043102500000000044e+00 1.117590000000000003e+02 1.736329999999999927e+03
1.519999999999999962e-01 6.487339999999999218e-01 9.552950000000000053e-01 1.115990000000000038e+02 1.736295000000000073e+03
1.529999999999999971e-01 6.487030000000000296e-01 8.715279999999999694e-01 1.114344999999999999e+02 1.736250000000000000e+03
1.539999999999999980e-01 6.486699999999999688e-01 7.912509999999999266e-01 1.112634999999999934e+02 1.736210000000000036e+03
1.549999999999999989e-01 6.486354999999999205e-01 7.139719999999999400e-01 1.110840000000000032e+02 1.736159999999999854e+03
1.559999999999999998e-01 6.485984999999999667e-01 6.393603499999999107e-01 1.108940000000000055e+02 1.736115000000000009e+03
1.570000000000000007e-01 6.485594999999999555e-01 5.672924000000000300e-01 1.106935000000000002e+02 1.736065000000000055e+03
1.580000000000000016e-01 6.485179999999999279e-01 4.979085000000000316e-01 1.104809999999999945e+02 1.736014999999999873e+03
1.590000000000000024e-01 6.484739999999999949e-01 4.316109999999999669e-01 1.102579999999999956e+02 1.735960000000000036e+03
