# t [s], A [cm^2], U [cm/s], P [cPa], c [cm/s]
1.000000000000000021e-03 1.718250000000000055e-01 3.015904999999999836e-01 9.798990000000000578e+01 2.182920000000000073e+03
2.000000000000000042e-03 1.717805000000000026e-01 1.788286500000000112e+00 9.460204999999999131e+01 2.182510000000000218e+03
3.000000000000000062e-03 1.716610000000000080e-01 3.634857499999999852e+00 8.988429999999999609e+01 2.181449999999999818e+03
4.000000000000000083e-03 1.714994999999999992e-01 5.720302499999999846e+00 8.478300000000000125e+01 2.180039999999999964e+03
5.000000000000000104e-03 1.713274999999999937e-01 7.963614999999999888e+00 8.025960000000000605e+01 2.178550000000000182e+03
6.000000000000000125e-03 1.711630000000000096e-01 1.016478000000000037e+01 7.658124999999999716e+01 2.177149999999999636e+03
7.000000000000000146e-03 1.710105000000000097e-01 1.209581000000000017e+01 7.342905000000000371e+01 2.175864999999999782e+03
8.000000000000000167e-03 1.708704999999999807e-01 1.369402999999999793e+01 7.059265000000000612e+01 2.174715000000000146e+03
9.000000000000001055e-03 1.707500000000000129e-01 1.500929999999999964e+01 6.817359999999999332e+01 2.173739999999999782e+03
1.000000000000000194e-02 1.706489999999999951e-01 1.607479999999999976e+01 6.624380000000000734e+01 2.172934999999999945e+03
1.099999999999999936e-02 1.705689999999999984e-01 1.690615000000000023e+01 6.476330000000000098e+01 2.172295000000000073e+03
1.200000000000000025e-02 1.705059999999999909e-01 1.751299999999999812e+01 6.364279999999999404e+01 2.171805000000000291e+03
1.300000000000000114e-02 1.704559999999999964e-01 1.789419999999999789e+01 6.273740000000000094e+01 2.171425000000000182e+03
1.400000000000000203e-02 1.704149999999999832e-01 1.807724999999999937e+01 6.193444999999999823e+01 2.171119999999999891e+03
1.499999999999999944e-02 1.703835000000000210e-01 1.816944999999999766e+01 6.133660000000000423e+01 2.170889999999999873e+03
1.600000000000000033e-02 1.703685000000000060e-01 1.834100000000000108e+01 6.130429999999999779e+01 2.170789999999999964e+03
1.700000000000000122e-02 1.703799999999999759e-01 1.873814999999999742e+01 6.224795000000000300e+01 2.170889999999999873e+03
1.800000000000000211e-02 1.704229999999999912e-01 1.939714999999999989e+01 6.433050000000000068e+01 2.171239999999999782e+03
1.900000000000000300e-02 1.704954999999999943e-01 2.021985000000000099e+01 6.730310000000000059e+01 2.171819999999999709e+03
2.000000000000000042e-02 1.705845000000000000e-01 2.101919999999999789e+01 7.057094999999999629e+01 2.172550000000000182e+03
2.100000000000000130e-02 1.706739999999999924e-01 2.160024999999999906e+01 7.342619999999999436e+01 2.173284999999999854e+03
2.200000000000000219e-02 1.707474999999999965e-01 2.183474999999999966e+01 7.531360000000000809e+01 2.173904999999999745e+03
2.299999999999999961e-02 1.707940000000000014e-01 2.169814999999999827e+01 7.600910000000000366e+01 2.174309999999999945e+03
2.400000000000000050e-02 1.708125000000000060e-01 2.126210000000000022e+01 7.564949999999998909e+01 2.174489999999999782e+03
2.500000000000000139e-02 1.708075000000000010e-01 2.065095000000000169e+01 7.462324999999999875e+01 2.174465000000000146e+03
2.600000000000000228e-02 1.707885000000000097e-01 1.998629999999999995e+01 7.338405000000000200e+01 2.174335000000000036e+03
2.700000000000000316e-02 1.707655000000000145e-01 1.934324999999999761e+01 7.227479999999999905e+01 2.174150000000000091e+03
2.800000000000000058e-02 1.707430000000000059e-01 1.873324999999999818e+01 7.142669999999999675e+01 2.173965000000000146e+03
2.900000000000000147e-02 1.707230000000000136e-01 1.811505000000000010e+01 7.075809999999999889e+01 2.173800000000000182e+03
3.000000000000000236e-02 1.707015000000000060e-01 1.742510000000000048e+01 7.005610000000000070e+01 2.173625000000000000e+03
3.099999999999999978e-02 1.706749999999999934e-01 1.661364999999999981e+01 6.909829999999999472e+01 2.173409999999999854e+03
3.200000000000000067e-02 1.706389999999999851e-01 1.567350000000000065e+01 6.776760000000000161e+01 2.173125000000000000e+03
3.300000000000000155e-02 1.705929999999999946e-01 1.465290000000000070e+01 6.612125000000000341e+01 2.172765000000000327e+03
3.400000000000000244e-02 1.705430000000000001e-01 1.364794999999999980e+01 6.439224999999999000e+01 2.172355000000000018e+03
3.500000000000000333e-02 1.704944999999999933e-01 1.277660000000000018e+01 6.292515000000000214e+01 2.171965000000000146e+03
3.600000000000000422e-02 1.704579999999999984e-01 1.214594999999999914e+01 6.206974999999999909e+01 2.171659999999999854e+03
3.700000000000000511e-02 1.704419999999999824e-01 1.182140000000000057e+01 6.207294999999999874e+01 2.171510000000000218e+03
3.799999999999999906e-02 1.704495000000000038e-01 1.180959999999999965e+01 6.300269999999999726e+01 2.171559999999999945e+03
3.899999999999999994e-02 1.704815000000000080e-01 1.205719999999999992e+01 6.472705000000000553e+01 2.171800000000000182e+03
4.000000000000000083e-02 1.705329999999999901e-01 1.246485000000000021e+01 6.694659999999998945e+01 2.172199999999999818e+03
4.100000000000000172e-02 1.705944999999999823e-01 1.290950000000000131e+01 6.926609999999999445e+01 2.172690000000000055e+03
4.200000000000000261e-02 1.706560000000000021e-01 1.326914999999999978e+01 7.127894999999999470e+01 2.173190000000000055e+03
4.300000000000000350e-02 1.707075000000000120e-01 1.344259999999999877e+01 7.264365000000000805e+01 2.173605000000000018e+03
4.400000000000000439e-02 1.707394999999999885e-01 1.336240000000000094e+01 7.313514999999999588e+01 2.173880000000000109e+03
4.499999999999999833e-02 1.707465000000000233e-01 1.299804999999999922e+01 7.266374999999999318e+01 2.173949999999999818e+03
4.599999999999999922e-02 1.707274999999999765e-01 1.235275000000000034e+01 7.126474999999999227e+01 2.173809999999999945e+03
4.700000000000000011e-02 1.706830000000000014e-01 1.145445499999999939e+01 6.906655000000000655e+01 2.173460000000000036e+03
4.800000000000000100e-02 1.706159999999999899e-01 1.034575500000000048e+01 6.624925000000000352e+01 2.172925000000000182e+03
4.900000000000000189e-02 1.705309999999999881e-01 9.074925000000000352e+00 6.300655000000000427e+01 2.172235000000000127e+03
5.000000000000000278e-02 1.704324999999999868e-01 7.689969999999999750e+00 5.951780000000000115e+01 2.171444999999999709e+03
5.100000000000000366e-02 1.703255000000000186e-01 6.236015000000000086e+00 5.593449999999999989e+01 2.170579999999999927e+03
5.200000000000000455e-02 1.702150000000000052e-01 4.755700000000000038e+00 5.237975000000000136e+01 2.169675000000000182e+03
5.300000000000000544e-02 1.701039999999999774e-01 3.290906000000000109e+00 4.895595000000000141e+01 2.168769999999999982e+03
5.399999999999999939e-02 1.699955000000000216e-01 1.884894999999999765e+00 4.575665000000000049e+01 2.167885000000000218e+03
5.500000000000000028e-02 1.698939999999999895e-01 5.835449999999999804e-01 4.287595000000000312e+01 2.167050000000000182e+03
5.600000000000000117e-02 1.698020000000000085e-01 -5.649149999999999450e-01 4.041410000000000480e+01 2.166300000000000182e+03
5.700000000000000205e-02 1.697230000000000127e-01 -1.511629999999999807e+00 3.847594999999999743e+01 2.165649999999999636e+03
5.800000000000000294e-02 1.696610000000000062e-01 -2.210197500000000037e+00 3.716559999999999775e+01 2.165130000000000109e+03
5.900000000000000383e-02 1.696194999999999786e-01 -2.620300000000000296e+00 3.657600000000000051e+01 2.164769999999999982e+03
6.000000000000000472e-02 1.696000000000000008e-01 -2.711249999999999716e+00 3.677864999999999895e+01 2.164590000000000146e+03
6.099999999999999867e-02 1.696055000000000201e-01 -2.464814999999999756e+00 3.781430000000000291e+01 2.164619999999999891e+03
6.199999999999999956e-02 1.696369999999999822e-01 -1.876938999999999913e+00 3.968689999999999429e+01 2.164849999999999909e+03
6.300000000000000044e-02 1.696944999999999981e-01 -9.580649999999999444e-01 4.236195000000000022e+01 2.165295000000000073e+03
6.400000000000000133e-02 1.697770000000000112e-01 2.677499999999999325e-01 4.576874999999999716e+01 2.165949999999999818e+03
6.500000000000000222e-02 1.698824999999999918e-01 1.764685000000000059e+00 4.980604999999999905e+01 2.166784999999999854e+03
6.600000000000000311e-02 1.700070000000000192e-01 3.487823000000000118e+00 5.435034999999999883e+01 2.167784999999999854e+03
6.700000000000000400e-02 1.701484999999999803e-01 5.386129999999999640e+00 5.926505000000000223e+01 2.168920000000000073e+03
6.800000000000000488e-02 1.703020000000000089e-01 7.405745000000000466e+00 6.441030000000000655e+01 2.170164999999999964e+03
6.900000000000000577e-02 1.704634999999999900e-01 9.493019999999999570e+00 6.965184999999999604e+01 2.171475000000000364e+03
7.000000000000000666e-02 1.706289999999999751e-01 1.159769999999999968e+01 7.486965000000000714e+01 2.172824999999999818e+03
7.100000000000000755e-02 1.707950000000000024e-01 1.367529000000000039e+01 7.996415000000000362e+01 2.174185000000000400e+03
7.200000000000000844e-02 1.709579999999999989e-01 1.568914999999999971e+01 8.486144999999999072e+01 2.175529999999999745e+03
7.300000000000000933e-02 1.711165000000000047e-01 1.761180000000000234e+01 8.951494999999999891e+01 2.176835000000000036e+03
7.399999999999999634e-02 1.712690000000000046e-01 1.942510000000000048e+01 9.390565000000000850e+01 2.178099999999999909e+03
7.499999999999999722e-02 1.714149999999999840e-01 2.112010000000000076e+01 9.803955000000000553e+01 2.179309999999999945e+03
7.599999999999999811e-02 1.715530000000000110e-01 2.269559999999999889e+01 1.019422999999999888e+02 2.180465000000000146e+03
7.699999999999999900e-02 1.716860000000000053e-01 2.415680000000000049e+01 1.056526499999999942e+02 2.181570000000000164e+03
7.799999999999999989e-02 1.718129999999999935e-01 2.551300000000000168e+01 1.092169999999999987e+02 2.182635000000000218e+03
7.900000000000000078e-02 1.719360000000000055e-01 2.677564999999999884e+01 1.126814999999999998e+02 2.183664999999999964e+03
8.000000000000000167e-02 1.720559999999999867e-01 2.795649999999999835e+01 1.160870000000000033e+02 2.184670000000000073e+03
8.100000000000000255e-02 1.721745000000000081e-01 2.906609999999999872e+01 1.194635000000000105e+02 2.185659999999999854e+03
8.200000000000000344e-02 1.722920000000000007e-01 3.011270000000000024e+01 1.228305000000000007e+02 2.186640000000000327e+03
8.300000000000000433e-02 1.724080000000000057e-01 3.110150000000000148e+01 1.261935000000000002e+02 2.187614999999999782e+03
8.400000000000000522e-02 1.725240000000000107e-01 3.203450000000000131e+01 1.295455000000000041e+02 2.188590000000000146e+03
8.500000000000000611e-02 1.726389999999999869e-01 3.291035000000000110e+01 1.328684999999999832e+02 2.189555000000000291e+03
8.600000000000000699e-02 1.727524999999999755e-01 3.372494999999999976e+01 1.361349999999999909e+02 2.190505000000000109e+03
8.700000000000000788e-02 1.728639999999999899e-01 3.447175000000000011e+01 1.393135000000000048e+02 2.191440000000000055e+03
8.800000000000000877e-02 1.729725000000000013e-01 3.514199999999999591e+01 1.423659999999999854e+02 2.192350000000000364e+03
8.899999999999999578e-02 1.730760000000000076e-01 3.572605000000000075e+01 1.452524999999999977e+02 2.193224999999999909e+03
8.999999999999999667e-02 1.731745000000000090e-01 3.621330000000000382e+01 1.479359999999999786e+02 2.194054999999999836e+03
9.099999999999999756e-02 1.732660000000000033e-01 3.659329999999999927e+01 1.503790000000000191e+02 2.194824999999999818e+03
9.199999999999999845e-02 1.733500000000000041e-01 3.685614999999999952e+01 1.525484999999999900e+02 2.195534999999999854e+03
9.299999999999999933e-02 1.734249999999999958e-01 3.699344999999999573e+01 1.544169999999999732e+02 2.196170000000000073e+03
9.400000000000000022e-02 1.734899999999999776e-01 3.699859999999999616e+01 1.559625000000000057e+02 2.196724999999999909e+03
9.500000000000000111e-02 1.735444999999999904e-01 3.686755000000000138e+01 1.571725000000000136e+02 2.197194999999999709e+03
9.600000000000000200e-02 1.735885000000000067e-01 3.659944999999999737e+01 1.580409999999999968e+02 2.197569999999999709e+03
9.700000000000000289e-02 1.736214999999999842e-01 3.619650000000000034e+01 1.585730000000000075e+02 2.197860000000000127e+03
9.800000000000000377e-02 1.736435000000000062e-01 3.566464999999999463e+01 1.587819999999999823e+02 2.198054999999999836e+03
9.900000000000000466e-02 1.736555000000000182e-01 3.501300000000000523e+01 1.586899999999999977e+02 2.198164999999999964e+03
1.000000000000000056e-01 1.736575000000000202e-01 3.425395000000000323e+01 1.583280000000000030e+02 2.198190000000000055e+03
1.010000000000000064e-01 1.736509999999999998e-01 3.340240000000000009e+01 1.577319999999999993e+02 2.198144999999999982e+03
1.020000000000000073e-01 1.736364999999999992e-01 3.247520000000000095e+01 1.569429999999999836e+02 2.198034999999999854e+03
1.030000000000000082e-01 1.736155000000000059e-01 3.149034999999999940e+01 1.560060000000000002e+02 2.197864999999999782e+03
1.040000000000000091e-01 1.735889999999999933e-01 3.046640000000000015e+01 1.549639999999999986e+02 2.197654999999999745e+03
1.050000000000000100e-01 1.735594999999999777e-01 2.942154999999999987e+01 1.538584999999999923e+02 2.197409999999999854e+03
1.059999999999999970e-01 1.735269999999999868e-01 2.837274999999999991e+01 1.527284999999999968e+02 2.197144999999999982e+03
1.069999999999999979e-01 1.734934999999999949e-01 2.733549999999999969e+01 1.516065000000000111e+02 2.196864999999999782e+03
1.079999999999999988e-01 1.734594999999999887e-01 2.632289999999999708e+01 1.505204999999999984e+02 2.196579999999999927e+03
1.089999999999999997e-01 1.734259999999999968e-01 2.534539999999999793e+01 1.494900000000000091e+02 2.196300000000000182e+03
1.100000000000000006e-01 1.733939999999999926e-01 2.441069999999999851e+01 1.485280000000000200e+02 2.196034999999999854e+03
1.110000000000000014e-01 1.733635000000000037e-01 2.352329999999999899e+01 1.476390000000000100e+02 2.195769999999999982e+03
1.120000000000000023e-01 1.733345000000000025e-01 2.268459999999999965e+01 1.468220000000000027e+02 2.195525000000000091e+03
1.130000000000000032e-01 1.733080000000000176e-01 2.189334999999999809e+01 1.460664999999999907e+02 2.195295000000000073e+03
1.140000000000000041e-01 1.732825000000000060e-01 2.114529999999999887e+01 1.453594999999999970e+02 2.195079999999999927e+03
1.150000000000000050e-01 1.732579999999999953e-01 2.043424999999999869e+01 1.446800000000000068e+02 2.194875000000000000e+03
1.160000000000000059e-01 1.732339999999999991e-01 1.975189999999999912e+01 1.440054999999999836e+02 2.194675000000000182e+03
1.170000000000000068e-01 1.732104999999999895e-01 1.908895000000000053e+01 1.433114999999999952e+02 2.194470000000000255e+03
1.180000000000000077e-01 1.731860000000000066e-01 1.843550000000000111e+01 1.425715000000000146e+02 2.194260000000000218e+03
1.190000000000000085e-01 1.731599999999999806e-01 1.778160000000000096e+01 1.417620000000000005e+02 2.194039999999999964e+03
1.200000000000000094e-01 1.731314999999999937e-01 1.711795000000000044e+01 1.408619999999999948e+02 2.193805000000000291e+03
1.209999999999999964e-01 1.731000000000000039e-01 1.643655000000000044e+01 1.398525000000000205e+02 2.193545000000000073e+03
1.219999999999999973e-01 1.730654999999999832e-01 1.573120000000000118e+01 1.387230000000000132e+02 2.193250000000000000e+03
1.229999999999999982e-01 1.730269999999999864e-01 1.499770000000000003e+01 1.374664999999999964e+02 2.192934999999999945e+03
1.239999999999999991e-01 1.729849999999999999e-01 1.423464999999999847e+01 1.360840000000000032e+02 2.192585000000000036e+03
1.250000000000000000e-01 1.729390000000000094e-01 1.344289999999999985e+01 1.345835000000000150e+02 2.192199999999999818e+03
1.260000000000000009e-01 1.728890000000000149e-01 1.262630000000000052e+01 1.329795000000000016e+02 2.191784999999999854e+03
1.270000000000000018e-01 1.728359999999999896e-01 1.179091500000000003e+01 1.312920000000000016e+02 2.191345000000000255e+03
1.280000000000000027e-01 1.727809999999999901e-01 1.094515999999999956e+01 1.295469999999999970e+02 2.190885000000000218e+03
1.290000000000000036e-01 1.727235000000000020e-01 1.009911499999999940e+01 1.277745000000000033e+02 2.190409999999999854e+03
1.300000000000000044e-01 1.726659999999999862e-01 9.264039999999999608e+00 1.260060000000000002e+02 2.189925000000000182e+03
1.310000000000000053e-01 1.726074999999999970e-01 8.451850000000000307e+00 1.242740000000000009e+02 2.189445000000000164e+03
1.320000000000000062e-01 1.725510000000000099e-01 7.674290000000000056e+00 1.226099999999999994e+02 2.188970000000000255e+03
1.330000000000000071e-01 1.724964999999999971e-01 6.942619999999999791e+00 1.210430000000000064e+02 2.188515000000000327e+03
1.340000000000000080e-01 1.724450000000000149e-01 6.266799999999999926e+00 1.195980000000000132e+02 2.188079999999999927e+03
1.350000000000000089e-01 1.723965000000000081e-01 5.655170000000000030e+00 1.182939999999999969e+02 2.187675000000000182e+03
1.360000000000000098e-01 1.723530000000000062e-01 5.114044999999999952e+00 1.171460000000000008e+02 2.187309999999999945e+03
1.370000000000000107e-01 1.723139999999999949e-01 4.647549999999999848e+00 1.161615000000000038e+02 2.186980000000000018e+03
1.380000000000000115e-01 1.722799999999999887e-01 4.257495000000000474e+00 1.153429999999999893e+02 2.186694999999999709e+03
1.390000000000000124e-01 1.722509999999999875e-01 3.943445000000000089e+00 1.146860000000000070e+02 2.186449999999999818e+03
1.400000000000000133e-01 1.722279999999999922e-01 3.702824999999999811e+00 1.141814999999999998e+02 2.186244999999999891e+03
1.410000000000000142e-01 1.722084999999999866e-01 3.531195000000000306e+00 1.138170000000000073e+02 2.186079999999999927e+03
1.420000000000000151e-01 1.721945000000000003e-01 3.422505000000000130e+00 1.135759999999999934e+02 2.185954999999999927e+03
1.430000000000000160e-01 1.721840000000000037e-01 3.369455000000000311e+00 1.134399999999999977e+02 2.185859999999999673e+03
1.440000000000000169e-01 1.721765000000000101e-01 3.363830000000000098e+00 1.133880000000000052e+02 2.185800000000000182e+03
1.450000000000000178e-01 1.721719999999999917e-01 3.396865000000000023e+00 1.133995000000000033e+02 2.185755000000000109e+03
1.459999999999999909e-01 1.721699999999999897e-01 3.459579999999999878e+00 1.134544999999999959e+02 2.185734999999999673e+03
1.469999999999999918e-01 1.721695000000000031e-01 3.543130000000000113e+00 1.135335000000000036e+02 2.185724999999999909e+03
1.479999999999999927e-01 1.721699999999999897e-01 3.639070000000000249e+00 1.136185000000000116e+02 2.185724999999999909e+03
1.489999999999999936e-01 1.721705000000000041e-01 3.739625000000000199e+00 1.136940000000000026e+02 2.185730000000000018e+03
1.499999999999999944e-01 1.721714999999999773e-01 3.837905000000000122e+00 1.137469999999999999e+02 2.185734999999999673e+03
1.509999999999999953e-01 1.721719999999999917e-01 3.928084999999999827e+00 1.137669999999999959e+02 2.185734999999999673e+03
1.519999999999999962e-01 1.721709999999999907e-01 4.005494999999999806e+00 1.137464999999999975e+02 2.185730000000000018e+03
1.529999999999999971e-01 1.721689999999999887e-01 4.066740000000000244e+00 1.136810000000000116e+02 2.185715000000000146e+03
1.539999999999999980e-01 1.721665000000000001e-01 4.109664999999999679e+00 1.135699999999999932e+02 2.185694999999999709e+03
1.549999999999999989e-01 1.721620000000000095e-01 4.133329999999999949e+00 1.134124999999999943e+02 2.185654999999999745e+03
1.559999999999999998e-01 1.721570000000000045e-01 4.137925000000000075e+00 1.132139999999999986e+02 2.185614999999999782e+03
1.570000000000000007e-01 1.721499999999999975e-01 4.124629999999999797e+00 1.129780000000000086e+02 2.185559999999999945e+03
1.580000000000000016e-01 1.721425000000000038e-01 4.095399999999999707e+00 1.127135000000000105e+02 2.185494999999999891e+03
1.590000000000000024e-01 1.721340000000000092e-01 4.052780000000000271e+00 1.124260000000000019e+02 2.185430000000000291e+03
