# t [s], A [cm^2], U [cm/s], P [cPa], c [cm/s]
1.000000000000000021e-03 1.341630000000000045e-01 3.049554999999999905e-01 8.782450000000000045e+01 1.963994999999999891e+03
2.000000000000000042e-03 1.341335000000000166e-01 1.718793000000000015e+00 8.487075000000000102e+01 1.963610000000000127e+03
3.000000000000000062e-03 1.340445000000000109e-01 3.448961499999999791e+00 8.088044999999999618e+01 1.962530000000000200e+03
4.000000000000000083e-03 1.339199999999999835e-01 5.383494999999999919e+00 7.653774999999998840e+01 1.961030000000000200e+03
5.000000000000000104e-03 1.337824999999999986e-01 7.467679999999999652e+00 7.261530000000000484e+01 1.959389999999999873e+03
6.000000000000000125e-03 1.336475000000000024e-01 9.559974999999999667e+00 6.940019999999999811e+01 1.957805000000000064e+03
7.000000000000000146e-03 1.335199999999999998e-01 1.146952999999999889e+01 6.669474999999999909e+01 1.956325000000000045e+03
8.000000000000000167e-03 1.334020000000000206e-01 1.310146999999999906e+01 6.424739999999999895e+01 1.954974999999999909e+03
9.000000000000001055e-03 1.332949999999999968e-01 1.448152500000000131e+01 6.206284999999999741e+01 1.953769999999999982e+03
1.000000000000000194e-02 1.332019999999999871e-01 1.564785000000000004e+01 6.022509999999999764e+01 1.952740000000000009e+03
1.099999999999999936e-02 1.331244999999999790e-01 1.661449999999999960e+01 5.873169999999999646e+01 1.951880000000000109e+03
1.200000000000000025e-02 1.330600000000000116e-01 1.739325000000000188e+01 5.753610000000000468e+01 1.951184999999999945e+03
1.300000000000000114e-02 1.330069999999999864e-01 1.799155000000000015e+01 5.657420000000000471e+01 1.950615000000000009e+03
1.400000000000000203e-02 1.329639999999999989e-01 1.841019999999999968e+01 5.575045000000000073e+01 1.950159999999999854e+03
1.499999999999999944e-02 1.329270000000000174e-01 1.867524999999999835e+01 5.500260000000000105e+01 1.949775000000000091e+03
1.600000000000000033e-02 1.328965000000000007e-01 1.887154999999999916e+01 5.441684999999999661e+01 1.949470000000000027e+03
1.700000000000000122e-02 1.328779999999999961e-01 1.912899999999999778e+01 5.425054999999999694e+01 1.949279999999999973e+03
1.800000000000000211e-02 1.328774999999999817e-01 1.956445000000000078e+01 5.480360000000000298e+01 1.949284999999999854e+03
1.900000000000000300e-02 1.328999999999999904e-01 2.021934999999999860e+01 5.622735000000000127e+01 1.949539999999999964e+03
2.000000000000000042e-02 1.329444999999999932e-01 2.103425000000000011e+01 5.839955000000000496e+01 1.950034999999999854e+03
2.100000000000000130e-02 1.330060000000000131e-01 2.187109999999999843e+01 6.093545000000000300e+01 1.950715000000000146e+03
2.200000000000000219e-02 1.330724999999999825e-01 2.256530000000000058e+01 6.331595000000000084e+01 1.951460000000000036e+03
2.299999999999999961e-02 1.331315000000000137e-01 2.298349999999999937e+01 6.506279999999999575e+01 1.952144999999999982e+03
2.400000000000000050e-02 1.331749999999999878e-01 2.306304999999999694e+01 6.588694999999999879e+01 1.952644999999999982e+03
2.500000000000000139e-02 1.331959999999999811e-01 2.282350000000000279e+01 6.575769999999999982e+01 1.952914999999999964e+03
2.600000000000000228e-02 1.331964999999999955e-01 2.234904999999999831e+01 6.487949999999999307e+01 1.952945000000000164e+03
2.700000000000000316e-02 1.331809999999999938e-01 2.175254999999999939e+01 6.359449999999999648e+01 1.952795000000000073e+03
2.800000000000000058e-02 1.331559999999999966e-01 2.113640000000000185e+01 6.225579999999999359e+01 1.952529999999999973e+03
2.900000000000000147e-02 1.331295000000000117e-01 2.056405000000000172e+01 6.111825000000000330e+01 1.952240000000000009e+03
3.000000000000000236e-02 1.331060000000000021e-01 2.004925000000000068e+01 6.028085000000000093e+01 1.951974999999999909e+03
3.099999999999999978e-02 1.330860000000000098e-01 1.956409999999999982e+01 5.968919999999999959e+01 1.951744999999999891e+03
3.200000000000000067e-02 1.330684999999999785e-01 1.905855000000000032e+01 5.918690000000000140e+01 1.951550000000000182e+03
3.300000000000000155e-02 1.330500000000000016e-01 1.848499999999999943e+01 5.859134999999999849e+01 1.951345000000000027e+03
3.400000000000000244e-02 1.330274999999999930e-01 1.781949999999999790e+01 5.776890000000000214e+01 1.951099999999999909e+03
3.500000000000000333e-02 1.329990000000000061e-01 1.707474999999999810e+01 5.668834999999999980e+01 1.950789999999999964e+03
3.600000000000000422e-02 1.329655000000000142e-01 1.630069999999999908e+01 5.543914999999999793e+01 1.950420000000000073e+03
3.700000000000000511e-02 1.329294999999999782e-01 1.557429999999999914e+01 5.421090000000000231e+01 1.950025000000000091e+03
3.799999999999999906e-02 1.328969999999999874e-01 1.498029999999999973e+01 5.324245000000000516e+01 1.949659999999999854e+03
3.899999999999999994e-02 1.328729999999999911e-01 1.458994999999999997e+01 5.275619999999999976e+01 1.949384999999999991e+03
4.000000000000000083e-02 1.328624999999999945e-01 1.444300000000000139e+01 5.289699999999999847e+01 1.949255000000000109e+03
4.100000000000000172e-02 1.328685000000000005e-01 1.453815000000000168e+01 5.369304999999999950e+01 1.949305000000000064e+03
4.200000000000000261e-02 1.328909999999999814e-01 1.483280000000000065e+01 5.504630000000000223e+01 1.949539999999999964e+03
4.300000000000000350e-02 1.329265000000000030e-01 1.525179999999999936e+01 5.675254999999999939e+01 1.949914999999999964e+03
4.400000000000000439e-02 1.329704999999999915e-01 1.570155000000000101e+01 5.854219999999999402e+01 1.950394999999999982e+03
4.499999999999999833e-02 1.330160000000000231e-01 1.608579999999999899e+01 6.012994999999999379e+01 1.950894999999999982e+03
4.599999999999999922e-02 1.330554999999999932e-01 1.631990000000000052e+01 6.126224999999999454e+01 1.951329999999999927e+03
4.700000000000000011e-02 1.330824999999999925e-01 1.634090000000000131e+01 6.175274999999999892e+01 1.951644999999999982e+03
4.800000000000000100e-02 1.330935000000000035e-01 1.611260000000000048e+01 6.150135000000000218e+01 1.951779999999999973e+03
4.900000000000000189e-02 1.330850000000000088e-01 1.562604999999999933e+01 6.049615000000000009e+01 1.951694999999999936e+03
5.000000000000000278e-02 1.330569999999999808e-01 1.489499999999999957e+01 5.880044999999999789e+01 1.951394999999999982e+03
5.100000000000000366e-02 1.330099999999999894e-01 1.395064999999999955e+01 5.653150000000000119e+01 1.950884999999999991e+03
5.200000000000000455e-02 1.329465000000000230e-01 1.283443499999999915e+01 5.383525000000000205e+01 1.950190000000000055e+03
5.300000000000000544e-02 1.328709999999999891e-01 1.159233000000000047e+01 5.086469999999999914e+01 1.949355000000000018e+03
5.399999999999999939e-02 1.327860000000000151e-01 1.027086500000000058e+01 4.776354999999999507e+01 1.948420000000000073e+03
5.500000000000000028e-02 1.326964999999999950e-01 8.914690000000000225e+00 4.465780000000000172e+01 1.947420000000000073e+03
5.600000000000000117e-02 1.326045000000000140e-01 7.566195000000000448e+00 4.165420000000000300e+01 1.946404999999999973e+03
5.700000000000000205e-02 1.325145000000000073e-01 6.265914999999999679e+00 3.884324999999999761e+01 1.945400000000000091e+03
5.800000000000000294e-02 1.324279999999999902e-01 5.053334999999999688e+00 3.630480000000000018e+01 1.944440000000000055e+03
5.900000000000000383e-02 1.323495000000000088e-01 3.967464999999999797e+00 3.411310000000000286e+01 1.943554999999999836e+03
6.000000000000000472e-02 1.322800000000000087e-01 3.046709499999999959e+00 3.233995000000000175e+01 1.942775000000000091e+03
6.099999999999999867e-02 1.322225000000000206e-01 2.328016499999999933e+00 3.105550000000000210e+01 1.942125000000000000e+03
6.199999999999999956e-02 1.321789999999999909e-01 1.845287500000000191e+00 3.032564999999999955e+01 1.941625000000000000e+03
6.300000000000000044e-02 1.321519999999999917e-01 1.627356500000000095e+00 3.020749999999999957e+01 1.941315000000000055e+03
6.400000000000000133e-02 1.321440000000000115e-01 1.695924999999999905e+00 3.074425000000000097e+01 1.941195000000000164e+03
6.500000000000000222e-02 1.321545000000000081e-01 2.063769999999999882e+00 3.195989999999999753e+01 1.941295000000000073e+03
6.600000000000000311e-02 1.321855000000000113e-01 2.733579999999999899e+00 3.385545000000000471e+01 1.941619999999999891e+03
6.700000000000000400e-02 1.322375000000000078e-01 3.697525000000000173e+00 3.640725000000000477e+01 1.942170000000000073e+03
6.800000000000000488e-02 1.323090000000000099e-01 4.937725000000000364e+00 3.956784999999999997e+01 1.942945000000000164e+03
6.900000000000000577e-02 1.323989999999999889e-01 6.427329999999999544e+00 4.326865000000000094e+01 1.943924999999999955e+03
7.000000000000000666e-02 1.325064999999999993e-01 8.132229999999999848e+00 4.742445000000000022e+01 1.945099999999999909e+03
7.100000000000000755e-02 1.326279999999999959e-01 1.001294500000000021e+01 5.193890000000000384e+01 1.946440000000000055e+03
7.200000000000000844e-02 1.327615000000000045e-01 1.202699499999999944e+01 5.671049999999999613e+01 1.947914999999999964e+03
7.300000000000000933e-02 1.329040000000000221e-01 1.413063999999999965e+01 6.163800000000000523e+01 1.949494999999999891e+03
7.399999999999999634e-02 1.330525000000000180e-01 1.628139999999999787e+01 6.662565000000000737e+01 1.951154999999999973e+03
7.499999999999999722e-02 1.332045000000000035e-01 1.843925000000000125e+01 7.158764999999999645e+01 1.952860000000000127e+03
7.599999999999999811e-02 1.333570000000000033e-01 2.056885000000000119e+01 7.645150000000001000e+01 1.954579999999999927e+03
7.699999999999999900e-02 1.335085000000000022e-01 2.264029999999999987e+01 8.116100000000000136e+01 1.956289999999999964e+03
7.799999999999999989e-02 1.336569999999999980e-01 2.463044999999999973e+01 8.567719999999999914e+01 1.957964999999999918e+03
7.900000000000000078e-02 1.338010000000000033e-01 2.652319999999999922e+01 8.997970000000000823e+01 1.959599999999999909e+03
8.000000000000000167e-02 1.339400000000000035e-01 2.830985000000000085e+01 9.406575000000000841e+01 1.961184999999999945e+03
8.100000000000000255e-02 1.340729999999999977e-01 2.998825000000000074e+01 9.794785000000000252e+01 1.962704999999999927e+03
8.200000000000000344e-02 1.342010000000000147e-01 3.156255000000000166e+01 1.016517499999999927e+02 1.964175000000000182e+03
8.300000000000000433e-02 1.343239999999999990e-01 3.304149999999999920e+01 1.052129999999999939e+02 1.965590000000000146e+03
8.400000000000000522e-02 1.344434999999999936e-01 3.443730000000000047e+01 1.086725000000000136e+02 1.966960000000000036e+03
8.500000000000000611e-02 1.345600000000000129e-01 3.576395000000000124e+01 1.120709999999999980e+02 1.968300000000000182e+03
8.600000000000000699e-02 1.346749999999999892e-01 3.703580000000000183e+01 1.154474999999999909e+02 1.969625000000000000e+03
8.700000000000000788e-02 1.347884999999999778e-01 3.826595000000000368e+01 1.188329999999999984e+02 1.970940000000000055e+03
8.800000000000000877e-02 1.349019999999999941e-01 3.946529999999999916e+01 1.222519999999999953e+02 1.972250000000000000e+03
8.899999999999999578e-02 1.350159999999999971e-01 4.064155000000000229e+01 1.257160000000000082e+02 1.973565000000000055e+03
8.999999999999999667e-02 1.351310000000000011e-01 4.179864999999999498e+01 1.292255000000000109e+02 1.974889999999999873e+03
9.099999999999999756e-02 1.352470000000000061e-01 4.293659999999999854e+01 1.327704999999999984e+02 1.976235000000000127e+03
9.199999999999999845e-02 1.353634999999999977e-01 4.405150000000000432e+01 1.363299999999999841e+02 1.977579999999999927e+03
9.299999999999999933e-02 1.354799999999999893e-01 4.513609999999999900e+01 1.398735000000000070e+02 1.978924999999999955e+03
9.400000000000000022e-02 1.355955000000000077e-01 4.617999999999999972e+01 1.433665000000000020e+02 1.980269999999999982e+03
9.500000000000000111e-02 1.357094999999999829e-01 4.717069999999999652e+01 1.467674999999999841e+02 1.981589999999999918e+03
9.600000000000000200e-02 1.358205000000000107e-01 4.809420000000000073e+01 1.500335000000000036e+02 1.982880000000000109e+03
9.700000000000000289e-02 1.359274999999999789e-01 4.893595000000000539e+01 1.531239999999999952e+02 1.984125000000000000e+03
9.800000000000000377e-02 1.360290000000000110e-01 4.968164999999999765e+01 1.559979999999999905e+02 1.985309999999999945e+03
9.900000000000000466e-02 1.361239999999999950e-01 5.031775000000000375e+01 1.586200000000000045e+02 1.986424999999999955e+03
1.000000000000000056e-01 1.362109999999999987e-01 5.083254999999999768e+01 1.609594999999999914e+02 1.987450000000000045e+03
1.010000000000000064e-01 1.362905000000000089e-01 5.121665000000000134e+01 1.629934999999999832e+02 1.988380000000000109e+03
1.020000000000000073e-01 1.363599999999999812e-01 5.146330000000000382e+01 1.647065000000000055e+02 1.989204999999999927e+03
1.030000000000000082e-01 1.364205000000000001e-01 5.156874999999999432e+01 1.660889999999999986e+02 1.989914999999999964e+03
1.040000000000000091e-01 1.364704999999999946e-01 5.153275000000000006e+01 1.671440000000000055e+02 1.990515000000000100e+03
1.050000000000000100e-01 1.365104999999999791e-01 5.135835000000000150e+01 1.678779999999999859e+02 1.991000000000000000e+03
1.059999999999999970e-01 1.365410000000000235e-01 5.105190000000000339e+01 1.683084999999999809e+02 1.991365000000000009e+03
1.069999999999999979e-01 1.365620000000000167e-01 5.062290000000000134e+01 1.684579999999999984e+02 1.991625000000000000e+03
1.079999999999999988e-01 1.365740000000000010e-01 5.008350000000000080e+01 1.683564999999999827e+02 1.991779999999999973e+03
1.089999999999999997e-01 1.365780000000000050e-01 4.944800000000000040e+01 1.680364999999999895e+02 1.991835000000000036e+03
1.100000000000000006e-01 1.365755000000000163e-01 4.873239999999999839e+01 1.675360000000000014e+02 1.991815000000000055e+03
1.110000000000000014e-01 1.365660000000000207e-01 4.795374999999999943e+01 1.668919999999999959e+02 1.991715000000000146e+03
1.120000000000000023e-01 1.365520000000000067e-01 4.712919999999999732e+01 1.661430000000000007e+02 1.991565000000000055e+03
1.130000000000000032e-01 1.365345000000000031e-01 4.627580000000000382e+01 1.653260000000000218e+02 1.991365000000000009e+03
1.140000000000000041e-01 1.365135000000000098e-01 4.540939999999999799e+01 1.644739999999999895e+02 1.991125000000000000e+03
1.150000000000000050e-01 1.364910000000000012e-01 4.454460000000000264e+01 1.636165000000000020e+02 1.990869999999999891e+03
1.160000000000000059e-01 1.364675000000000193e-01 4.369384999999999764e+01 1.627785000000000082e+02 1.990599999999999909e+03
1.170000000000000068e-01 1.364440000000000097e-01 4.286740000000000350e+01 1.619789999999999850e+02 1.990325000000000045e+03
1.180000000000000077e-01 1.364205000000000001e-01 4.207285000000000252e+01 1.612305000000000064e+02 1.990055000000000064e+03
1.190000000000000085e-01 1.363984999999999781e-01 4.131519999999999726e+01 1.605400000000000205e+02 1.989795000000000073e+03
1.200000000000000094e-01 1.363774999999999848e-01 4.059685000000000343e+01 1.599089999999999918e+02 1.989549999999999955e+03
1.209999999999999964e-01 1.363580000000000070e-01 3.991734999999999900e+01 1.593324999999999818e+02 1.989319999999999936e+03
1.219999999999999973e-01 1.363395000000000024e-01 3.927420000000000044e+01 1.588009999999999877e+02 1.989095000000000027e+03
1.229999999999999982e-01 1.363219999999999987e-01 3.866249999999999432e+01 1.583004999999999995e+02 1.988889999999999873e+03
1.239999999999999991e-01 1.363050000000000095e-01 3.807574999999999932e+01 1.578139999999999930e+02 1.988690000000000055e+03
1.250000000000000000e-01 1.362889999999999935e-01 3.750614999999999810e+01 1.573224999999999909e+02 1.988494999999999891e+03
1.260000000000000009e-01 1.362720000000000042e-01 3.694499999999999318e+01 1.568054999999999950e+02 1.988295000000000073e+03
1.270000000000000018e-01 1.362545000000000006e-01 3.638335000000000008e+01 1.562425000000000068e+02 1.988090000000000146e+03
1.280000000000000027e-01 1.362355000000000094e-01 3.581230000000000047e+01 1.556129999999999995e+02 1.987869999999999891e+03
1.290000000000000036e-01 1.362144999999999884e-01 3.522350000000000136e+01 1.549014999999999986e+02 1.987625000000000000e+03
1.300000000000000044e-01 1.361914999999999931e-01 3.460990000000000322e+01 1.540920000000000130e+02 1.987349999999999909e+03
1.310000000000000053e-01 1.361649999999999805e-01 3.396560000000000201e+01 1.531744999999999948e+02 1.987050000000000182e+03
1.320000000000000062e-01 1.361359999999999792e-01 3.328659999999999997e+01 1.521424999999999841e+02 1.986710000000000036e+03
1.330000000000000071e-01 1.361034999999999884e-01 3.257059999999999889e+01 1.509950000000000045e+02 1.986329999999999927e+03
1.340000000000000080e-01 1.360675000000000079e-01 3.181775000000000020e+01 1.497359999999999900e+02 1.985914999999999964e+03
1.350000000000000089e-01 1.360279999999999823e-01 3.103000000000000114e+01 1.483729999999999905e+02 1.985460000000000036e+03
1.360000000000000098e-01 1.359859999999999958e-01 3.021139999999999759e+01 1.469189999999999827e+02 1.984970000000000027e+03
1.370000000000000107e-01 1.359404999999999919e-01 2.936804999999999666e+01 1.453915000000000077e+02 1.984450000000000045e+03
1.380000000000000115e-01 1.358935000000000004e-01 2.850744999999999862e+01 1.438100000000000023e+02 1.983904999999999973e+03
1.390000000000000124e-01 1.358444999999999792e-01 2.763855000000000217e+01 1.421990000000000123e+02 1.983340000000000146e+03
1.400000000000000133e-01 1.357939999999999980e-01 2.677104999999999890e+01 1.405815000000000055e+02 1.982755000000000109e+03
1.410000000000000142e-01 1.357434999999999892e-01 2.591535000000000011e+01 1.389839999999999804e+02 1.982174999999999955e+03
1.420000000000000151e-01 1.356930000000000081e-01 2.508174999999999955e+01 1.374300000000000068e+02 1.981595000000000027e+03
1.430000000000000160e-01 1.356445000000000012e-01 2.428009999999999735e+01 1.359424999999999955e+02 1.981025000000000091e+03
1.440000000000000169e-01 1.355969999999999953e-01 2.351960000000000051e+01 1.345430000000000064e+02 1.980474999999999909e+03
1.450000000000000178e-01 1.355520000000000058e-01 2.280825000000000102e+01 1.332485000000000070e+02 1.979950000000000045e+03
1.459999999999999909e-01 1.355100000000000193e-01 2.215270000000000294e+01 1.320724999999999909e+02 1.979465000000000146e+03
1.469999999999999918e-01 1.354714999999999947e-01 2.155790000000000006e+01 1.310250000000000057e+02 1.979014999999999873e+03
1.479999999999999927e-01 1.354365000000000152e-01 2.102700000000000102e+01 1.301125000000000114e+02 1.978605000000000018e+03
1.489999999999999936e-01 1.354049999999999976e-01 2.056159999999999854e+01 1.293344999999999914e+02 1.978240000000000009e+03
1.499999999999999944e-01 1.353779999999999983e-01 2.016114999999999924e+01 1.286895000000000095e+02 1.977920000000000073e+03
1.509999999999999953e-01 1.353550000000000031e-01 1.982399999999999807e+01 1.281714999999999804e+02 1.977650000000000091e+03
1.519999999999999962e-01 1.353354999999999975e-01 1.954659999999999798e+01 1.277704999999999984e+02 1.977420000000000073e+03
1.529999999999999971e-01 1.353195000000000092e-01 1.932454999999999856e+01 1.274759999999999991e+02 1.977235000000000127e+03
1.539999999999999980e-01 1.353074999999999972e-01 1.915214999999999890e+01 1.272734999999999843e+02 1.977085000000000036e+03
1.549999999999999989e-01 1.352980000000000016e-01 1.902319999999999922e+01 1.271490000000000009e+02 1.976970000000000027e+03
1.559999999999999998e-01 1.352915000000000090e-01 1.893104999999999905e+01 1.270885000000000105e+02 1.976880000000000109e+03
1.570000000000000007e-01 1.352864999999999762e-01 1.886874999999999858e+01 1.270765000000000100e+02 1.976820000000000164e+03
1.580000000000000016e-01 1.352835000000000010e-01 1.882959999999999923e+01 1.270985000000000014e+02 1.976780000000000200e+03
1.590000000000000024e-01 1.352814999999999990e-01 1.880700000000000216e+01 1.271424999999999983e+02 1.976755000000000109e+03
