# t [s], A [cm^2], U [cm/s], P [cPa], c [cm/s]
1.000000000000000021e-03 7.086429999999999119e-01 6.337499999999995914e-03 1.060534999999999997e+02 1.690654999999999973e+03
2.000000000000000042e-03 7.086345000000000560e-01 6.523600000000000058e-03 1.060215000000000032e+02 1.690650000000000091e+03
3.000000000000000062e-03 7.087220000000000741e-01 1.602907499999999819e-01 1.061935000000000002e+02 1.690684999999999945e+03
4.000000000000000083e-03 7.087509999999999089e-01 2.389195000000000069e-01 1.062740000000000009e+02 1.690710000000000036e+03
5.000000000000000104e-03 7.086599999999999566e-01 1.243265000000000065e-01 1.060270000000000010e+02 1.690654999999999973e+03
6.000000000000000125e-03 7.085589999999999389e-01 -2.052949999999997832e-02 1.056210000000000093e+02 1.690569999999999936e+03
7.000000000000000146e-03 7.084359999999999546e-01 -2.192850000000000632e-01 1.050690000000000026e+02 1.690444999999999936e+03
8.000000000000000167e-03 7.082120000000000637e-01 -6.123349999999999627e-01 1.041719999999999970e+02 1.690259999999999991e+03
9.000000000000001055e-03 7.078969999999999985e-01 -1.178500000000000103e+00 1.028904500000000013e+02 1.689980000000000018e+03
1.000000000000000194e-02 7.074774999999999814e-01 -1.921704999999999997e+00 1.011636499999999899e+02 1.689599999999999909e+03
1.099999999999999936e-02 7.069130000000000136e-01 -2.877349999999999852e+00 9.888049999999999784e+01 1.689095000000000027e+03
1.200000000000000025e-02 7.062444999999999418e-01 -3.944074999999999775e+00 9.610304999999999609e+01 1.688465000000000146e+03
1.300000000000000114e-02 7.055985000000000174e-01 -4.857025499999999774e+00 9.317040000000000077e+01 1.687775000000000091e+03
1.400000000000000203e-02 7.051009999999999778e-01 -5.345951499999999967e+00 9.052045000000001096e+01 1.687115000000000009e+03
1.499999999999999944e-02 7.047970000000000068e-01 -5.288109999999999644e+00 8.844790000000000418e+01 1.686554999999999836e+03
1.600000000000000033e-02 7.046395000000000852e-01 -4.744220000000000326e+00 8.698314999999999486e+01 1.686115000000000009e+03
1.700000000000000122e-02 7.045269999999999033e-01 -3.903750000000000053e+00 8.591719999999999402e+01 1.685755000000000109e+03
1.800000000000000211e-02 7.043524999999999370e-01 -2.991785000000000139e+00 8.491720000000000823e+01 1.685425000000000182e+03
1.900000000000000300e-02 7.040474999999999373e-01 -2.176115500000000313e+00 8.367719999999999914e+01 1.685054999999999836e+03
2.000000000000000042e-02 7.036065000000000236e-01 -1.508639999999999981e+00 8.204220000000000823e+01 1.684605000000000018e+03
2.100000000000000130e-02 7.030804999999999971e-01 -9.294500000000001094e-01 8.004930000000000234e+01 1.684079999999999927e+03
2.200000000000000219e-02 7.025394999999999834e-01 -3.277749999999999275e-01 7.786904999999998722e+01 1.683505000000000109e+03
2.299999999999999961e-02 7.020374999999999810e-01 3.814299999999999358e-01 7.569360000000000355e+01 1.682929999999999836e+03
2.400000000000000050e-02 7.015860000000000429e-01 1.205880000000000063e+00 7.363595000000000823e+01 1.682369999999999891e+03
2.500000000000000139e-02 7.011549999999999727e-01 2.063909999999999911e+00 7.167744999999999322e+01 1.681824999999999818e+03
2.600000000000000228e-02 7.006809999999999983e-01 2.806125000000000203e+00 6.967000000000000171e+01 1.681275000000000091e+03
2.700000000000000316e-02 7.000949999999999118e-01 3.258229999999999293e+00 6.738325000000000387e+01 1.680670000000000073e+03
2.800000000000000058e-02 6.993385000000000851e-01 3.272610000000000241e+00 6.458015000000000327e+01 1.679960000000000036e+03
2.900000000000000147e-02 6.983894999999999964e-01 2.774449999999999861e+00 6.110009999999999764e+01 1.679110000000000127e+03
3.000000000000000236e-02 6.972705000000000153e-01 1.787745000000000140e+00 5.692310000000000514e+01 1.678110000000000127e+03
3.099999999999999978e-02 6.960435000000000372e-01 4.301499999999993662e-01 5.219029999999999347e+01 1.676980000000000018e+03
3.200000000000000067e-02 6.947969999999999979e-01 -1.119149999999999423e+00 4.717600000000000193e+01 1.675775000000000091e+03
3.300000000000000155e-02 6.936225000000000307e-01 -2.663110000000000532e+00 4.222724999999999795e+01 1.674559999999999945e+03
3.400000000000000244e-02 6.925989999999999647e-01 -4.025199999999999889e+00 3.769635000000000247e+01 1.673420000000000073e+03
3.500000000000000333e-02 6.917830000000000368e-01 -5.073475000000000179e+00 3.388454999999999728e+01 1.672420000000000073e+03
3.600000000000000422e-02 6.912059999999999871e-01 -5.728738499999999512e+00 3.100744999999999862e+01 1.671625000000000000e+03
3.700000000000000511e-02 6.908769999999999634e-01 -5.960205000000000197e+00 2.918254999999999910e+01 1.671059999999999945e+03
3.799999999999999906e-02 6.907870000000000399e-01 -5.773299999999999876e+00 2.843659999999999854e+01 1.670750000000000000e+03
3.899999999999999994e-02 6.909174999999999622e-01 -5.194015000000000271e+00 2.872619999999999862e+01 1.670690000000000055e+03
4.000000000000000083e-02 6.912465000000000970e-01 -4.254811150000000097e+00 2.996565000000000367e+01 1.670875000000000000e+03
4.100000000000000172e-02 6.917519999999999225e-01 -2.985349999999999504e+00 3.205164999999999509e+01 1.671279999999999973e+03
4.200000000000000261e-02 6.924155000000000726e-01 -1.410079999999999778e+00 3.488054999999999950e+01 1.671875000000000000e+03
4.300000000000000350e-02 6.932184999999999597e-01 4.481000000000001648e-01 3.835425000000000040e+01 1.672644999999999982e+03
4.400000000000000439e-02 6.941424999999999956e-01 2.561024999999999885e+00 4.237715000000000032e+01 1.673570000000000164e+03
4.499999999999999833e-02 6.951654999999999918e-01 4.888944999999999652e+00 4.684905000000000541e+01 1.674615000000000009e+03
4.599999999999999922e-02 6.962589999999999613e-01 7.377480000000000260e+00 5.165879999999999939e+01 1.675764999999999873e+03
4.700000000000000011e-02 6.973940000000000694e-01 9.959120000000000417e+00 5.668249999999999744e+01 1.676980000000000018e+03
4.800000000000000100e-02 6.985360000000000458e-01 1.255831500000000034e+01 6.178770000000000095e+01 1.678235000000000127e+03
4.900000000000000189e-02 6.996539999999999981e-01 1.509878999999999927e+01 6.684149999999999636e+01 1.679500000000000000e+03
5.000000000000000278e-02 7.007209999999999273e-01 1.751137500000000102e+01 7.172175000000000011e+01 1.680739999999999782e+03
5.100000000000000366e-02 7.017169999999999241e-01 1.974005000000000010e+01 7.632765000000000555e+01 1.681930000000000064e+03
5.200000000000000455e-02 7.026304999999999357e-01 2.174620000000000175e+01 8.058780000000000143e+01 1.683055000000000064e+03
5.300000000000000544e-02 7.034569999999999990e-01 2.350949999999999918e+01 8.446410000000000196e+01 1.684095000000000027e+03
5.399999999999999939e-02 7.041999999999999371e-01 2.502645000000000053e+01 8.795154999999999745e+01 1.685050000000000182e+03
5.500000000000000028e-02 7.048689999999999678e-01 2.630750000000000099e+01 9.107415000000000305e+01 1.685920000000000073e+03
5.600000000000000117e-02 7.054759999999999920e-01 2.737369999999999948e+01 9.387805000000000177e+01 1.686710000000000036e+03
5.700000000000000205e-02 7.060370000000000257e-01 2.825315000000000154e+01 9.642570000000000618e+01 1.687434999999999945e+03
5.800000000000000294e-02 7.065669999999999451e-01 2.897845000000000226e+01 9.878860000000000241e+01 1.688105000000000018e+03
5.900000000000000383e-02 7.070834999999999759e-01 2.958514999999999873e+01 1.010427499999999981e+02 1.688744999999999891e+03
6.000000000000000472e-02 7.076020000000000643e-01 3.010994999999999777e+01 1.032625000000000028e+02 1.689375000000000000e+03
6.099999999999999867e-02 7.081370000000000164e-01 3.058959999999999724e+01 1.055200000000000102e+02 1.689994999999999891e+03
6.199999999999999956e-02 7.087035000000000418e-01 3.105865000000000009e+01 1.078780000000000001e+02 1.690640000000000100e+03
6.300000000000000044e-02 7.093104999999999549e-01 3.154744999999999777e+01 1.103890000000000100e+02 1.691309999999999945e+03
6.400000000000000133e-02 7.099655000000000271e-01 3.207900000000000063e+01 1.130889999999999986e+02 1.692019999999999982e+03
6.500000000000000222e-02 7.106684999999999253e-01 3.266729999999999734e+01 1.159929999999999950e+02 1.692784999999999854e+03
6.600000000000000311e-02 7.114175000000000360e-01 3.331504999999999939e+01 1.190960000000000036e+02 1.693585000000000036e+03
6.700000000000000400e-02 7.122025000000000716e-01 3.401389999999999958e+01 1.223684999999999974e+02 1.694434999999999945e+03
6.800000000000000488e-02 7.130095000000000738e-01 3.474484999999999957e+01 1.257605000000000075e+02 1.695309999999999945e+03
6.900000000000000577e-02 7.138219999999999565e-01 3.548064999999999714e+01 1.292034999999999911e+02 1.696200000000000045e+03
7.000000000000000666e-02 7.146190000000000042e-01 3.618815000000000026e+01 1.326169999999999902e+02 1.697095000000000027e+03
7.100000000000000755e-02 7.153819999999999624e-01 3.683185000000000286e+01 1.359155000000000086e+02 1.697965000000000146e+03
7.200000000000000844e-02 7.160919999999999508e-01 3.737669999999999959e+01 1.390140000000000100e+02 1.698789999999999964e+03
7.300000000000000933e-02 7.167310000000000070e-01 3.779110000000000014e+01 1.418344999999999914e+02 1.699559999999999945e+03
7.399999999999999634e-02 7.172870000000000079e-01 3.804869999999999663e+01 1.443120000000000118e+02 1.700250000000000000e+03
7.499999999999999722e-02 7.177510000000000279e-01 3.813020000000000209e+01 1.463969999999999914e+02 1.700840000000000146e+03
7.599999999999999811e-02 7.181165000000000465e-01 3.802420000000000044e+01 1.480595000000000141e+02 1.701335000000000036e+03
7.699999999999999900e-02 7.183834999999999527e-01 3.772749999999999915e+01 1.492875000000000227e+02 1.701715000000000146e+03
7.799999999999999989e-02 7.185555000000000136e-01 3.724500000000000455e+01 1.500889999999999986e+02 1.701994999999999891e+03
7.900000000000000078e-02 7.186394999999999866e-01 3.658910000000000196e+01 1.504884999999999877e+02 1.702170000000000073e+03
8.000000000000000167e-02 7.186449999999999783e-01 3.577870000000000061e+01 1.505260000000000105e+02 1.702244999999999891e+03
8.100000000000000255e-02 7.185850000000000293e-01 3.483825000000000216e+01 1.502545000000000073e+02 1.702244999999999891e+03
8.200000000000000344e-02 7.184734999999999872e-01 3.379609999999999559e+01 1.497330000000000041e+02 1.702164999999999964e+03
8.300000000000000433e-02 7.183250000000001023e-01 3.268335000000000434e+01 1.490280000000000200e+02 1.702030000000000200e+03
8.400000000000000522e-02 7.181545000000000289e-01 3.153200000000000003e+01 1.482060000000000173e+02 1.701859999999999900e+03
8.500000000000000611e-02 7.179765000000000175e-01 3.037315000000000254e+01 1.473329999999999984e+02 1.701670000000000073e+03
8.600000000000000699e-02 7.178039999999999976e-01 2.923604999999999876e+01 1.464679999999999893e+02 1.701465000000000146e+03
8.700000000000000788e-02 7.176474999999999937e-01 2.814584999999999937e+01 1.456624999999999943e+02 1.701269999999999982e+03
8.800000000000000877e-02 7.175154999999999728e-01 2.712339999999999662e+01 1.449594999999999914e+02 1.701085000000000036e+03
8.899999999999999578e-02 7.174134999999999263e-01 2.618384999999999962e+01 1.443874999999999886e+02 1.700934999999999945e+03
8.999999999999999667e-02 7.173450000000000104e-01 2.533640000000000114e+01 1.439644999999999868e+02 1.700815000000000055e+03
9.099999999999999756e-02 7.173095000000000443e-01 2.458429999999999893e+01 1.436959999999999980e+02 1.700730000000000018e+03
9.199999999999999845e-02 7.173049999999999704e-01 2.392500000000000071e+01 1.435745000000000005e+02 1.700674999999999955e+03
9.299999999999999933e-02 7.173264999999999780e-01 2.335074999999999790e+01 1.435834999999999866e+02 1.700654999999999973e+03
9.400000000000000022e-02 7.173674999999999358e-01 2.284939999999999927e+01 1.436974999999999909e+02 1.700664999999999964e+03
9.500000000000000111e-02 7.174205000000000165e-01 2.240494999999999948e+01 1.438824999999999932e+02 1.700690000000000055e+03
9.600000000000000200e-02 7.174760000000000026e-01 2.199905000000000044e+01 1.441020000000000039e+02 1.700730000000000018e+03
9.700000000000000289e-02 7.175264999999999560e-01 2.161159999999999926e+01 1.443154999999999859e+02 1.700769999999999982e+03
9.800000000000000377e-02 7.175610000000000044e-01 2.122229999999999706e+01 1.444819999999999993e+02 1.700809999999999945e+03
9.900000000000000466e-02 7.175730000000000164e-01 2.081170000000000186e+01 1.445649999999999977e+02 1.700825000000000045e+03
1.000000000000000056e-01 7.175540000000000251e-01 2.036204999999999998e+01 1.445300000000000011e+02 1.700820000000000164e+03
1.010000000000000064e-01 7.174994999999999568e-01 1.985900000000000176e+01 1.443489999999999895e+02 1.700779999999999973e+03
1.020000000000000073e-01 7.174054999999999183e-01 1.929165000000000063e+01 1.440024999999999977e+02 1.700704999999999927e+03
1.030000000000000082e-01 7.172709999999999919e-01 1.865384999999999849e+01 1.434814999999999827e+02 1.700585000000000036e+03
1.040000000000000091e-01 7.170965000000000256e-01 1.794425000000000026e+01 1.427835000000000036e+02 1.700420000000000073e+03
1.050000000000000100e-01 7.168844999999999246e-01 1.716669999999999874e+01 1.419184999999999945e+02 1.700214999999999918e+03
1.059999999999999970e-01 7.166414999999999313e-01 1.632959999999999923e+01 1.409060000000000059e+02 1.699974999999999909e+03
1.069999999999999979e-01 7.163734999999999964e-01 1.544594999999999985e+01 1.397719999999999914e+02 1.699700000000000045e+03
1.079999999999999988e-01 7.160900000000000043e-01 1.453218999999999994e+01 1.385519999999999925e+02 1.699409999999999854e+03
1.089999999999999997e-01 7.157994999999999219e-01 1.360762500000000053e+01 1.372860000000000014e+02 1.699090000000000146e+03
1.100000000000000006e-01 7.155120000000000369e-01 1.269316500000000048e+01 1.360154999999999745e+02 1.698769999999999982e+03
1.110000000000000014e-01 7.152380000000000404e-01 1.181020000000000003e+01 1.347849999999999966e+02 1.698454999999999927e+03
1.120000000000000023e-01 7.149855000000000516e-01 1.097954499999999989e+01 1.336359999999999957e+02 1.698155000000000200e+03
1.130000000000000032e-01 7.147639999999999549e-01 1.022017500000000112e+01 1.326055000000000064e+02 1.697880000000000109e+03
1.140000000000000041e-01 7.145794999999999231e-01 9.548149999999999693e+00 1.317270000000000039e+02 1.697639999999999873e+03
1.150000000000000050e-01 7.144364999999999188e-01 8.976074999999999804e+00 1.310229999999999961e+02 1.697434999999999945e+03
1.160000000000000059e-01 7.143380000000000285e-01 8.512100000000000222e+00 1.305109999999999957e+02 1.697279999999999973e+03
1.170000000000000068e-01 7.142839999999999190e-01 8.160099999999999909e+00 1.301959999999999980e+02 1.697170000000000073e+03
1.180000000000000077e-01 7.142744999999999234e-01 7.919154999999999944e+00 1.300755000000000052e+02 1.697110000000000127e+03
1.190000000000000085e-01 7.143040000000000500e-01 7.784200000000000230e+00 1.301385000000000218e+02 1.697089999999999918e+03
1.200000000000000094e-01 7.143684999999999619e-01 7.746180000000000732e+00 1.303659999999999854e+02 1.697119999999999891e+03
1.209999999999999964e-01 7.144619999999999305e-01 7.792839999999999989e+00 1.307325000000000159e+02 1.697190000000000055e+03
1.219999999999999973e-01 7.145764999999999478e-01 7.909425000000000594e+00 1.312079999999999984e+02 1.697280000000000200e+03
1.229999999999999982e-01 7.147049999999999237e-01 8.079520000000000479e+00 1.317599999999999909e+02 1.697400000000000091e+03
1.239999999999999991e-01 7.148404999999999898e-01 8.285880000000000578e+00 1.323549999999999898e+02 1.697539999999999964e+03
1.250000000000000000e-01 7.149754999999999860e-01 8.511255000000000237e+00 1.329604999999999961e+02 1.697679999999999836e+03
1.260000000000000009e-01 7.151024999999999743e-01 8.739100000000000534e+00 1.335464999999999804e+02 1.697820000000000164e+03
1.270000000000000018e-01 7.152165000000000328e-01 8.954290000000000305e+00 1.340840000000000032e+02 1.697949999999999818e+03
1.280000000000000027e-01 7.153130000000000877e-01 9.143595000000001249e+00 1.345520000000000209e+02 1.698070000000000164e+03
1.290000000000000036e-01 7.153884999999999827e-01 9.296155000000000612e+00 1.349320000000000164e+02 1.698175000000000182e+03
1.300000000000000044e-01 7.154405000000000348e-01 9.403749999999998721e+00 1.352124999999999773e+02 1.698255000000000109e+03
1.310000000000000053e-01 7.154679999999999929e-01 9.460945000000000604e+00 1.353865000000000123e+02 1.698309999999999945e+03
1.320000000000000062e-01 7.154719999999999969e-01 9.465119999999998868e+00 1.354530000000000030e+02 1.698340000000000146e+03
1.330000000000000071e-01 7.154534999999999645e-01 9.416475000000000151e+00 1.354170000000000016e+02 1.698339999999999918e+03
1.340000000000000080e-01 7.154145000000000643e-01 9.317614999999999981e+00 1.352860000000000014e+02 1.698325000000000045e+03
1.350000000000000089e-01 7.153590000000000781e-01 9.173590000000000799e+00 1.350724999999999909e+02 1.698284999999999854e+03
1.360000000000000098e-01 7.152899999999999814e-01 8.991134999999999877e+00 1.347925000000000182e+02 1.698224999999999909e+03
1.370000000000000107e-01 7.152119999999999589e-01 8.778575000000000017e+00 1.344625000000000057e+02 1.698154999999999973e+03
1.380000000000000115e-01 7.151285000000000558e-01 8.545180000000000220e+00 1.341014999999999873e+02 1.698069999999999936e+03
1.390000000000000124e-01 7.150445000000000828e-01 8.300684999999999647e+00 1.337280000000000086e+02 1.697985000000000127e+03
1.400000000000000133e-01 7.149635000000000851e-01 8.054669999999999774e+00 1.333600000000000136e+02 1.697894999999999982e+03
1.410000000000000142e-01 7.148890000000001077e-01 7.816289999999999516e+00 1.330134999999999934e+02 1.697804999999999836e+03
1.420000000000000151e-01 7.148240000000000149e-01 7.593600000000000350e+00 1.327019999999999982e+02 1.697730000000000018e+03
1.430000000000000160e-01 7.147704999999999753e-01 7.393295000000000172e+00 1.324360000000000070e+02 1.697659999999999854e+03
1.440000000000000169e-01 7.147299999999999764e-01 7.220394999999999897e+00 1.322230000000000132e+02 1.697599999999999909e+03
1.450000000000000178e-01 7.147019999999999484e-01 7.078060000000000684e+00 1.320665000000000191e+02 1.697554999999999836e+03
1.459999999999999909e-01 7.146865000000000023e-01 6.967570000000000263e+00 1.319660000000000082e+02 1.697525000000000091e+03
1.469999999999999918e-01 7.146824999999999983e-01 6.888354999999999784e+00 1.319175000000000182e+02 1.697500000000000000e+03
1.479999999999999927e-01 7.146879999999999900e-01 6.838210000000000122e+00 1.319139999999999873e+02 1.697494999999999891e+03
1.489999999999999936e-01 7.147000000000000020e-01 6.813509999999999955e+00 1.319470000000000027e+02 1.697494999999999891e+03
1.499999999999999944e-01 7.147170000000000467e-01 6.809585000000000221e+00 1.320039999999999907e+02 1.697505000000000109e+03
1.509999999999999953e-01 7.147350000000000092e-01 6.821049999999999613e+00 1.320749999999999886e+02 1.697514999999999873e+03
1.519999999999999962e-01 7.147520000000000540e-01 6.842174999999999230e+00 1.321465000000000032e+02 1.697530000000000200e+03
1.529999999999999971e-01 7.147654999999999426e-01 6.867280000000000051e+00 1.322079999999999984e+02 1.697539999999999964e+03
1.539999999999999980e-01 7.147734999999999506e-01 6.891004999999999825e+00 1.322485000000000070e+02 1.697550000000000182e+03
1.549999999999999989e-01 7.147729999999999917e-01 6.908609999999999474e+00 1.322595000000000027e+02 1.697550000000000182e+03
1.559999999999999998e-01 7.147639999999999549e-01 6.916204999999999714e+00 1.322355000000000018e+02 1.697545000000000073e+03
1.570000000000000007e-01 7.147455000000000336e-01 6.910885000000000389e+00 1.321720000000000255e+02 1.697529999999999973e+03
1.580000000000000016e-01 7.147179999999999644e-01 6.890840000000000742e+00 1.320674999999999955e+02 1.697505000000000109e+03
1.590000000000000024e-01 7.146810000000000107e-01 6.855419999999999625e+00 1.319225000000000136e+02 1.697474999999999909e+03
