# t [s], A [cm^2], U [cm/s], P [cPa], c [cm/s]
1.000000000000000021e-03 2.104989999999999917e-01 3.708060499999999982e-01 9.034635000000000105e+01 2.200420000000000073e+03
2.000000000000000042e-03 2.104304999999999926e-01 1.895211999999999897e+00 8.673714999999999975e+01 2.199954999999999927e+03
3.000000000000000062e-03 2.102704999999999991e-01 3.756457000000000157e+00 8.177179999999999893e+01 2.198894999999999982e+03
4.000000000000000083e-03 2.100655000000000161e-01 5.860191499999999998e+00 7.670414999999999850e+01 2.197565000000000055e+03
5.000000000000000104e-03 2.098594999999999766e-01 8.094015000000000626e+00 7.252594999999999459e+01 2.196239999999999782e+03
6.000000000000000125e-03 2.096695000000000086e-01 1.018088000000000015e+01 6.924030000000000484e+01 2.195034999999999854e+03
7.000000000000000146e-03 2.094960000000000155e-01 1.189949999999999974e+01 6.635580000000000211e+01 2.193949999999999818e+03
8.000000000000000167e-03 2.093430000000000013e-01 1.326836499999999930e+01 6.380930000000000035e+01 2.193019999999999982e+03
9.000000000000001055e-03 2.092160000000000131e-01 1.435575000000000045e+01 6.177055000000000007e+01 2.192260000000000218e+03
1.000000000000000194e-02 2.091160000000000241e-01 1.518404999999999916e+01 6.023390000000000555e+01 2.191664999999999964e+03
1.099999999999999936e-02 2.090394999999999892e-01 1.577619999999999933e+01 5.912160000000000082e+01 2.191220000000000255e+03
1.200000000000000025e-02 2.089830000000000021e-01 1.614239999999999853e+01 5.831369999999999720e+01 2.190894999999999982e+03
1.300000000000000114e-02 2.089380000000000126e-01 1.629050000000000153e+01 5.763940000000000197e+01 2.190650000000000091e+03
1.400000000000000203e-02 2.089035000000000197e-01 1.630949999999999989e+01 5.710519999999999641e+01 2.190465000000000146e+03
1.499999999999999944e-02 2.088880000000000181e-01 1.639874999999999972e+01 5.709425000000000239e+01 2.190385000000000218e+03
1.600000000000000033e-02 2.089070000000000094e-01 1.676895000000000024e+01 5.818269999999999698e+01 2.190510000000000218e+03
1.700000000000000122e-02 2.089730000000000198e-01 1.749759999999999849e+01 6.068609999999999616e+01 2.190904999999999745e+03
1.800000000000000211e-02 2.090825000000000045e-01 1.846310000000000073e+01 6.433074999999999477e+01 2.191564999999999600e+03
1.900000000000000300e-02 2.092164999999999997e-01 1.939654999999999774e+01 6.829019999999999868e+01 2.192380000000000109e+03
2.000000000000000042e-02 2.093440000000000023e-01 2.000665000000000049e+01 7.153374999999999773e+01 2.193170000000000073e+03
2.100000000000000130e-02 2.094374999999999987e-01 2.010385000000000133e+01 7.326384999999999081e+01 2.193765000000000327e+03
2.200000000000000219e-02 2.094799999999999995e-01 1.966754999999999853e+01 7.322084999999999866e+01 2.194054999999999836e+03
2.299999999999999961e-02 2.094715000000000049e-01 1.883245000000000147e+01 7.172944999999999993e+01 2.194034999999999854e+03
2.400000000000000050e-02 2.094265000000000154e-01 1.781145000000000067e+01 6.949205000000000609e+01 2.193774999999999636e+03
2.500000000000000139e-02 2.093650000000000233e-01 1.679885000000000161e+01 6.725489999999999213e+01 2.193414999999999964e+03
2.600000000000000228e-02 2.093055000000000054e-01 1.589935000000000009e+01 6.551269999999999527e+01 2.193050000000000182e+03
2.700000000000000316e-02 2.092579999999999996e-01 1.510870000000000068e+01 6.437154999999999916e+01 2.192755000000000109e+03
2.800000000000000058e-02 2.092205000000000037e-01 1.434345000000000070e+01 6.359640000000000271e+01 2.192514999999999873e+03
2.900000000000000147e-02 2.091850000000000098e-01 1.349804999999999922e+01 6.278764999999999930e+01 2.192300000000000182e+03
3.000000000000000236e-02 2.091419999999999946e-01 1.250479999999999947e+01 6.159924999999999784e+01 2.192039999999999964e+03
3.099999999999999978e-02 2.090845000000000065e-01 1.137413500000000077e+01 5.991320000000000334e+01 2.191699999999999818e+03
3.200000000000000067e-02 2.090154999999999930e-01 1.020281999999999911e+01 5.791174999999999784e+01 2.191284999999999854e+03
3.300000000000000155e-02 2.089444999999999775e-01 9.147209999999999397e+00 5.602559999999999718e+01 2.190849999999999909e+03
3.400000000000000244e-02 2.088869999999999894e-01 8.372650000000000148e+00 5.478260000000000218e+01 2.190489999999999782e+03
3.500000000000000333e-02 2.088575000000000015e-01 7.998459999999999681e+00 5.461785000000000423e+01 2.190300000000000182e+03
3.600000000000000422e-02 2.088674999999999837e-01 8.058894999999999698e+00 5.571800000000000352e+01 2.190340000000000146e+03
3.700000000000000511e-02 2.089179999999999926e-01 8.491429999999999367e+00 5.795139999999999958e+01 2.190625000000000000e+03
3.799999999999999906e-02 2.090015000000000067e-01 9.153069999999999595e+00 6.089874999999999972e+01 2.191114999999999782e+03
3.899999999999999994e-02 2.091014999999999957e-01 9.855409999999999116e+00 6.396179999999999666e+01 2.191710000000000036e+03
4.000000000000000083e-02 2.091985000000000094e-01 1.040591500000000025e+01 6.650614999999999100e+01 2.192300000000000182e+03
4.100000000000000172e-02 2.092725000000000002e-01 1.064365000000000094e+01 6.799569999999999936e+01 2.192760000000000218e+03
4.200000000000000261e-02 2.093079999999999941e-01 1.046294999999999931e+01 6.808525000000000205e+01 2.192985000000000127e+03
4.300000000000000350e-02 2.092954999999999954e-01 9.821339999999999293e+00 6.665744999999999720e+01 2.192925000000000182e+03
4.400000000000000439e-02 2.092315000000000147e-01 8.733785000000001020e+00 6.380544999999999334e+01 2.192555000000000291e+03
4.499999999999999833e-02 2.091200000000000003e-01 7.258634999999999948e+00 5.977719999999999345e+01 2.191889999999999873e+03
4.599999999999999922e-02 2.089679999999999871e-01 5.479490000000000194e+00 5.490310000000000201e+01 2.190984999999999673e+03
4.700000000000000011e-02 2.087880000000000014e-01 3.489414499999999641e+00 4.952915000000000134e+01 2.189890000000000327e+03
4.800000000000000100e-02 2.085895000000000110e-01 1.380005000000000148e+00 4.396859999999999502e+01 2.188680000000000291e+03
4.900000000000000189e-02 2.083825000000000260e-01 -7.636949999999997907e-01 3.848040000000000305e+01 2.187425000000000182e+03
5.000000000000000278e-02 2.081770000000000009e-01 -2.863629999999999676e+00 3.326854999999999762e+01 2.186170000000000073e+03
5.100000000000000366e-02 2.079799999999999982e-01 -4.846662000000000248e+00 2.849569999999999936e+01 2.184965000000000146e+03
5.200000000000000455e-02 2.077984999999999971e-01 -6.642339999999999911e+00 2.430089999999999861e+01 2.183850000000000364e+03
5.300000000000000544e-02 2.076375000000000026e-01 -8.182214999999999350e+00 2.081295000000000073e+01 2.182860000000000127e+03
5.399999999999999939e-02 2.075039999999999940e-01 -9.401020000000000820e+00 1.815554999999999808e+01 2.182025000000000091e+03
5.500000000000000028e-02 2.074020000000000030e-01 -1.024060000000000059e+01 1.644314999999999927e+01 2.181389999999999873e+03
5.600000000000000117e-02 2.073360000000000203e-01 -1.065459999999999852e+01 1.576909999999999812e+01 2.180965000000000146e+03
5.700000000000000205e-02 2.073099999999999943e-01 -1.061319999999999908e+01 1.619205000000000183e+01 2.180779999999999745e+03
5.800000000000000294e-02 2.073249999999999815e-01 -1.010698000000000008e+01 1.772319999999999851e+01 2.180840000000000146e+03
5.900000000000000383e-02 2.073824999999999974e-01 -9.148455000000000226e+00 2.031899999999999906e+01 2.181159999999999854e+03
6.000000000000000472e-02 2.074789999999999968e-01 -7.771509999999999252e+00 2.388195000000000334e+01 2.181724999999999909e+03
6.099999999999999867e-02 2.076119999999999910e-01 -6.028635000000000410e+00 2.826695000000000135e+01 2.182505000000000109e+03
6.199999999999999956e-02 2.077749999999999875e-01 -3.986794999999999867e+00 3.329390000000000072e+01 2.183485000000000127e+03
6.300000000000000044e-02 2.079619999999999802e-01 -1.722644999999999982e+00 3.876225000000000165e+01 2.184609999999999673e+03
6.400000000000000133e-02 2.081669999999999909e-01 6.824350000000001248e-01 4.446559999999999491e+01 2.185840000000000146e+03
6.500000000000000222e-02 2.083804999999999963e-01 3.146955000000000169e+00 5.020544999999999902e+01 2.187140000000000327e+03
6.600000000000000311e-02 2.085965000000000180e-01 5.593490000000000073e+00 5.580199999999999250e+01 2.188465000000000146e+03
6.700000000000000400e-02 2.088085000000000080e-01 7.952515000000000001e+00 6.110309999999999775e+01 2.189765000000000327e+03
6.800000000000000488e-02 2.090115000000000167e-01 1.016559999999999953e+01 6.599169999999999447e+01 2.191014999999999873e+03
6.900000000000000577e-02 2.091999999999999971e-01 1.218838500000000025e+01 7.039064999999999372e+01 2.192179999999999836e+03
7.000000000000000666e-02 2.093714999999999882e-01 1.399204999999999899e+01 7.426570000000000960e+01 2.193244999999999891e+03
7.100000000000000755e-02 2.095255000000000034e-01 1.556460000000000043e+01 7.762569999999999482e+01 2.194204999999999927e+03
7.200000000000000844e-02 2.096615000000000006e-01 1.691000000000000014e+01 8.051904999999999291e+01 2.195065000000000055e+03
7.300000000000000933e-02 2.097819999999999963e-01 1.804650000000000176e+01 8.302715000000000600e+01 2.195819999999999709e+03
7.399999999999999634e-02 2.098889999999999922e-01 1.900370000000000203e+01 8.525489999999999213e+01 2.196500000000000000e+03
7.499999999999999722e-02 2.099864999999999926e-01 1.981879999999999953e+01 8.731954999999999245e+01 2.197114999999999782e+03
7.599999999999999811e-02 2.100790000000000157e-01 2.053275000000000006e+01 8.933824999999998795e+01 2.197699999999999818e+03
7.699999999999999900e-02 2.101695000000000091e-01 2.118570000000000064e+01 9.141759999999999309e+01 2.198269999999999982e+03
7.799999999999999989e-02 2.102625000000000188e-01 2.181405000000000172e+01 9.364409999999999457e+01 2.198855000000000018e+03
7.900000000000000078e-02 2.103610000000000202e-01 2.244689999999999941e+01 9.607784999999999798e+01 2.199465000000000146e+03
8.000000000000000167e-02 2.104654999999999998e-01 2.310479999999999734e+01 9.874915000000000020e+01 2.200125000000000000e+03
8.100000000000000255e-02 2.105790000000000162e-01 2.379809999999999803e+01 1.016574499999999972e+02 2.200829999999999927e+03
8.200000000000000344e-02 2.106999999999999984e-01 2.452759999999999962e+01 1.047750000000000057e+02 2.201579999999999927e+03
8.300000000000000433e-02 2.108275000000000010e-01 2.528434999999999988e+01 1.080480000000000018e+02 2.202375000000000000e+03
8.400000000000000522e-02 2.109599999999999809e-01 2.605160000000000053e+01 1.114060000000000059e+02 2.203195000000000164e+03
8.500000000000000611e-02 2.110954999999999915e-01 2.680630000000000024e+01 1.147655000000000030e+02 2.204034999999999854e+03
8.600000000000000699e-02 2.112290000000000001e-01 2.752125000000000199e+01 1.180345000000000084e+02 2.204869999999999891e+03
8.700000000000000788e-02 2.113590000000000191e-01 2.816734999999999900e+01 1.211250000000000000e+02 2.205680000000000291e+03
8.800000000000000877e-02 2.114814999999999889e-01 2.871539999999999893e+01 1.239514999999999958e+02 2.206444999999999709e+03
8.899999999999999578e-02 2.115940000000000043e-01 2.913844999999999885e+01 1.264424999999999955e+02 2.207149999999999636e+03
8.999999999999999667e-02 2.116939999999999933e-01 2.941349999999999909e+01 1.285370000000000061e+02 2.207775000000000091e+03
9.099999999999999756e-02 2.117779999999999940e-01 2.952275000000000205e+01 1.301945000000000050e+02 2.208305000000000291e+03
9.199999999999999845e-02 2.118455000000000199e-01 2.945510000000000161e+01 1.313930000000000007e+02 2.208739999999999782e+03
9.299999999999999933e-02 2.118960000000000010e-01 2.920635000000000048e+01 1.321279999999999859e+02 2.209065000000000055e+03
9.400000000000000022e-02 2.119290000000000063e-01 2.877969999999999828e+01 1.324170000000000016e+02 2.209279999999999745e+03
9.500000000000000111e-02 2.119444999999999801e-01 2.818529999999999802e+01 1.322925000000000182e+02 2.209394999999999982e+03
9.600000000000000200e-02 2.119449999999999945e-01 2.743959999999999866e+01 1.318025000000000091e+02 2.209404999999999745e+03
9.700000000000000289e-02 2.119314999999999949e-01 2.656450000000000244e+01 1.310065000000000168e+02 2.209335000000000036e+03
9.800000000000000377e-02 2.119059999999999833e-01 2.558585000000000065e+01 1.299714999999999918e+02 2.209184999999999945e+03
9.900000000000000466e-02 2.118720000000000048e-01 2.453229999999999933e+01 1.287690000000000055e+02 2.208980000000000018e+03
1.000000000000000056e-01 2.118304999999999771e-01 2.343365000000000009e+01 1.274704999999999870e+02 2.208730000000000018e+03
1.010000000000000064e-01 2.117855000000000154e-01 2.231940000000000168e+01 1.261440000000000055e+02 2.208449999999999818e+03
1.020000000000000073e-01 2.117384999999999962e-01 2.121770000000000067e+01 1.248509999999999991e+02 2.208164999999999964e+03
1.030000000000000082e-01 2.116919999999999913e-01 2.015359999999999729e+01 1.236465000000000032e+02 2.207875000000000000e+03
1.040000000000000091e-01 2.116485000000000172e-01 1.914860000000000184e+01 1.225724999999999909e+02 2.207605000000000018e+03
1.050000000000000100e-01 2.116095000000000059e-01 1.821920000000000073e+01 1.216589999999999918e+02 2.207355000000000018e+03
1.059999999999999970e-01 2.115754999999999997e-01 1.737685000000000102e+01 1.209240000000000066e+02 2.207144999999999982e+03
1.069999999999999979e-01 2.115474999999999994e-01 1.662700000000000244e+01 1.203694999999999879e+02 2.206965000000000146e+03
1.079999999999999988e-01 2.115265000000000062e-01 1.596959999999999980e+01 1.199855000000000018e+02 2.206824999999999818e+03
1.089999999999999997e-01 2.115104999999999902e-01 1.539894999999999925e+01 1.197500000000000000e+02 2.206720000000000255e+03
1.100000000000000006e-01 2.115000000000000213e-01 1.490445000000000064e+01 1.196285000000000025e+02 2.206649999999999636e+03
1.110000000000000014e-01 2.114929999999999866e-01 1.447160000000000046e+01 1.195784999999999911e+02 2.206599999999999909e+03
1.120000000000000023e-01 2.114884999999999959e-01 1.408265000000000100e+01 1.195529999999999973e+02 2.206569999999999709e+03
1.130000000000000032e-01 2.114840000000000053e-01 1.371809999999999974e+01 1.195014999999999930e+02 2.206534999999999854e+03
1.140000000000000041e-01 2.114785000000000137e-01 1.335800000000000054e+01 1.193735000000000070e+02 2.206494999999999891e+03
1.150000000000000050e-01 2.114705000000000057e-01 1.298329999999999984e+01 1.191244999999999976e+02 2.206445000000000164e+03
1.160000000000000059e-01 2.114575000000000204e-01 1.257679999999999865e+01 1.187164999999999964e+02 2.206359999999999673e+03
1.170000000000000068e-01 2.114385000000000014e-01 1.212475000000000058e+01 1.181210000000000093e+02 2.206244999999999891e+03
1.180000000000000077e-01 2.114125000000000032e-01 1.161739999999999995e+01 1.173199999999999932e+02 2.206085000000000036e+03
1.190000000000000085e-01 2.113789999999999836e-01 1.104966999999999899e+01 1.163114999999999952e+02 2.205875000000000000e+03
1.200000000000000094e-01 2.113375000000000115e-01 1.042165500000000122e+01 1.151045000000000016e+02 2.205625000000000000e+03
1.209999999999999964e-01 2.112895000000000190e-01 9.738450000000000273e+00 1.137205000000000013e+02 2.205329999999999927e+03
1.219999999999999973e-01 2.112350000000000061e-01 9.009824999999999307e+00 1.121935000000000002e+02 2.204989999999999782e+03
1.229999999999999982e-01 2.111755000000000160e-01 8.249575000000000102e+00 1.105664999999999907e+02 2.204625000000000000e+03
1.239999999999999991e-01 2.111119999999999941e-01 7.474639999999999951e+00 1.088884999999999934e+02 2.204235000000000127e+03
1.250000000000000000e-01 2.110469999999999846e-01 6.704099999999999504e+00 1.072125000000000057e+02 2.203829999999999927e+03
1.260000000000000009e-01 2.109824999999999895e-01 5.957884999999999209e+00 1.055914999999999964e+02 2.203430000000000291e+03
1.270000000000000018e-01 2.109199999999999964e-01 5.255645000000000344e+00 1.040764999999999958e+02 2.203045000000000073e+03
1.280000000000000027e-01 2.108615000000000073e-01 4.615655000000000285e+00 1.027125999999999948e+02 2.202675000000000182e+03
1.290000000000000036e-01 2.108079999999999954e-01 4.053799999999999848e+00 1.015366999999999962e+02 2.202340000000000146e+03
1.300000000000000044e-01 2.107620000000000049e-01 3.582810000000000272e+00 1.005773000000000081e+02 2.202055000000000291e+03
1.310000000000000053e-01 2.107244999999999813e-01 3.211685000000000123e+00 9.985150000000000148e+01 2.201814999999999600e+03
1.320000000000000062e-01 2.106950000000000212e-01 2.945359999999999978e+00 9.936674999999999613e+01 2.201625000000000000e+03
1.330000000000000071e-01 2.106750000000000012e-01 2.784629999999999939e+00 9.911914999999999054e+01 2.201489999999999782e+03
1.340000000000000080e-01 2.106629999999999892e-01 2.726294999999999913e+00 9.909629999999999939e+01 2.201414999999999964e+03
1.350000000000000089e-01 2.106600000000000139e-01 2.763479999999999936e+00 9.927645000000001119e+01 2.201389999999999873e+03
1.360000000000000098e-01 2.106645000000000045e-01 2.886135000000000339e+00 9.963145000000000095e+01 2.201409999999999854e+03
1.370000000000000107e-01 2.106760000000000022e-01 3.081640000000000157e+00 1.001283999999999992e+02 2.201475000000000364e+03
1.380000000000000115e-01 2.106925000000000048e-01 3.335494999999999877e+00 1.007304000000000030e+02 2.201570000000000164e+03
1.390000000000000124e-01 2.107129999999999836e-01 3.632035000000000124e+00 1.014004999999999939e+02 2.201694999999999709e+03
1.400000000000000133e-01 2.107364999999999933e-01 3.955129999999999590e+00 1.021009999999999991e+02 2.201829999999999927e+03
1.410000000000000142e-01 2.107614999999999905e-01 4.288904999999999745e+00 1.027965000000000089e+02 2.201985000000000127e+03
1.420000000000000151e-01 2.107860000000000011e-01 4.618370000000000530e+00 1.034555000000000007e+02 2.202135000000000218e+03
1.430000000000000160e-01 2.108094999999999830e-01 4.929945000000000022e+00 1.040499999999999972e+02 2.202279999999999745e+03
1.440000000000000169e-01 2.108315000000000050e-01 5.211985000000000312e+00 1.045575000000000045e+02 2.202414999999999964e+03
1.450000000000000178e-01 2.108499999999999819e-01 5.455104999999999649e+00 1.049615000000000009e+02 2.202529999999999745e+03
1.459999999999999909e-01 2.108645000000000103e-01 5.652445000000000164e+00 1.052514999999999930e+02 2.202619999999999891e+03
1.469999999999999918e-01 2.108754999999999935e-01 5.799784999999999968e+00 1.054240000000000066e+02 2.202690000000000055e+03
1.479999999999999927e-01 2.108820000000000139e-01 5.895545000000000258e+00 1.054800000000000040e+02 2.202735000000000127e+03
1.489999999999999936e-01 2.108845000000000025e-01 5.940654999999999575e+00 1.054265000000000043e+02 2.202755000000000109e+03
1.499999999999999944e-01 2.108829999999999871e-01 5.938270000000000159e+00 1.052764999999999986e+02 2.202750000000000000e+03
1.509999999999999953e-01 2.108780000000000099e-01 5.893435000000000201e+00 1.050440000000000111e+02 2.202724999999999909e+03
1.519999999999999962e-01 2.108700000000000019e-01 5.812630000000000408e+00 1.047480000000000047e+02 2.202675000000000182e+03
1.529999999999999971e-01 2.108594999999999775e-01 5.703279999999999461e+00 1.044074999999999989e+02 2.202614999999999782e+03
1.539999999999999980e-01 2.108475000000000210e-01 5.573240000000000194e+00 1.040404999999999944e+02 2.202545000000000073e+03
1.549999999999999989e-01 2.108339999999999936e-01 5.430305000000000604e+00 1.036655000000000086e+02 2.202460000000000036e+03
1.559999999999999998e-01 2.108204999999999940e-01 5.281755000000000422e+00 1.032974999999999994e+02 2.202380000000000109e+03
1.570000000000000007e-01 2.108075000000000088e-01 5.134009999999999962e+00 1.029489999999999981e+02 2.202295000000000073e+03
1.580000000000000016e-01 2.107944999999999958e-01 4.992304999999999993e+00 1.026295000000000073e+02 2.202215000000000146e+03
1.590000000000000024e-01 2.107824999999999838e-01 4.860549999999999926e+00 1.023435000000000059e+02 2.202144999999999982e+03
