# t [s], A [cm^2], U [cm/s], P [cPa], c [cm/s]
1.000000000000000021e-03 7.925105000000000066e-01 5.279999999999999971e-03 9.473685000000000400e+01 1.747925000000000182e+03
2.000000000000000042e-03 7.925035000000000274e-01 8.372500000000001469e-03 9.470844999999999914e+01 1.747920000000000073e+03
3.000000000000000062e-03 7.925955000000000084e-01 1.590798999999999963e-01 9.488299999999999557e+01 1.747954999999999927e+03
4.000000000000000083e-03 7.926245000000000651e-01 2.327354999999999841e-01 9.496410000000000196e+01 1.747970000000000027e+03
5.000000000000000104e-03 7.925349999999999895e-01 1.276070000000000260e-01 9.473385000000000389e+01 1.747924999999999955e+03
6.000000000000000125e-03 7.924375000000000169e-01 -2.639500000000016833e-03 9.435755000000000337e+01 1.747859999999999900e+03
7.000000000000000146e-03 7.923160000000000203e-01 -1.863000000000000211e-01 9.383655000000000257e+01 1.747755000000000109e+03
8.000000000000000167e-03 7.920944999999999236e-01 -5.485149999999999748e-01 9.298824999999999363e+01 1.747599999999999909e+03
9.000000000000001055e-03 7.917730000000000601e-01 -1.088834999999999997e+00 9.175135000000000218e+01 1.747365000000000009e+03
1.000000000000000194e-02 7.913274999999999615e-01 -1.827159999999999673e+00 9.004460000000000264e+01 1.747039999999999964e+03
1.099999999999999936e-02 7.907349999999999657e-01 -2.777689999999999770e+00 8.778419999999999845e+01 1.746599999999999909e+03
1.200000000000000025e-02 7.900555000000000216e-01 -3.815095000000000347e+00 8.508365000000000578e+01 1.746059999999999945e+03
1.300000000000000114e-02 7.894179999999999531e-01 -4.691902999999999935e+00 8.228794999999999504e+01 1.745485000000000127e+03
1.400000000000000203e-02 7.889299999999999091e-01 -5.187381499999999868e+00 7.978685000000000116e+01 1.744940000000000055e+03
1.499999999999999944e-02 7.886204999999999465e-01 -5.221074999999999910e+00 7.781225000000000591e+01 1.744474999999999909e+03
1.600000000000000033e-02 7.884345000000000381e-01 -4.863319999999999865e+00 7.636115000000000919e+01 1.744095000000000027e+03
1.700000000000000122e-02 7.882810000000000095e-01 -4.275949999999999918e+00 7.524084999999999468e+01 1.743779999999999973e+03
1.800000000000000211e-02 7.880724999999999536e-01 -3.630984999999999907e+00 7.418080000000000496e+01 1.743485000000000127e+03
1.900000000000000300e-02 7.877635000000000609e-01 -3.040617499999999751e+00 7.295660000000000878e+01 1.743164999999999964e+03
2.000000000000000042e-02 7.873604999999999077e-01 -2.524441500000000005e+00 7.147565000000000168e+01 1.742800000000000182e+03
2.100000000000000130e-02 7.869095000000000395e-01 -2.027085000000000026e+00 6.978700000000000614e+01 1.742404999999999973e+03
2.200000000000000219e-02 7.864645000000000108e-01 -1.472165000000000168e+00 6.801970000000000027e+01 1.741985000000000127e+03
2.299999999999999961e-02 7.860555000000000181e-01 -8.191899999999998627e-01 6.629200000000000159e+01 1.741575000000000045e+03
2.400000000000000050e-02 7.856745000000000534e-01 -9.597999999999995424e-02 6.463925000000000409e+01 1.741170000000000073e+03
2.500000000000000139e-02 7.852799999999999780e-01 6.009649999999999714e-01 6.298564999999999969e+01 1.740764999999999873e+03
2.600000000000000228e-02 7.848085000000000200e-01 1.131895000000000095e+00 6.116140000000000043e+01 1.740329999999999927e+03
2.700000000000000316e-02 7.841985000000000205e-01 1.353955000000000020e+00 5.895454999999999757e+01 1.739829999999999927e+03
2.800000000000000058e-02 7.834094999999999809e-01 1.163975000000000204e+00 5.618084999999999951e+01 1.739224999999999909e+03
2.900000000000000147e-02 7.824389999999999956e-01 5.311250000000002913e-01 5.275029999999999575e+01 1.738500000000000000e+03
3.000000000000000236e-02 7.813229999999999897e-01 -4.922150000000007353e-01 4.870659999999999457e+01 1.737650000000000091e+03
3.099999999999999978e-02 7.801314999999999777e-01 -1.784975000000000200e+00 4.422664999999999935e+01 1.736710000000000036e+03
3.200000000000000067e-02 7.789464999999999861e-01 -3.189590000000000369e+00 3.958229999999999649e+01 1.735724999999999909e+03
3.300000000000000155e-02 7.778490000000000126e-01 -4.548024999999999096e+00 3.508334999999999582e+01 1.734750000000000000e+03
3.400000000000000244e-02 7.769019999999999815e-01 -5.729400000000000048e+00 3.102100000000000080e+01 1.733844999999999800e+03
3.500000000000000333e-02 7.761474999999999902e-01 -6.644229499999999788e+00 2.762685000000000102e+01 1.733049999999999955e+03
3.600000000000000422e-02 7.756035000000000013e-01 -7.245745000000000324e+00 2.505160000000000053e+01 1.732424999999999955e+03
3.700000000000000511e-02 7.752719999999999612e-01 -7.522304999999999353e+00 2.336379999999999768e+01 1.731965000000000146e+03
3.799999999999999906e-02 7.751419999999999977e-01 -7.484379999999999811e+00 2.256349999999999767e+01 1.731694999999999936e+03
3.899999999999999994e-02 7.751974999999999838e-01 -7.151764999999999262e+00 2.260369999999999990e+01 1.731605000000000018e+03
4.000000000000000083e-02 7.754214999999999858e-01 -6.543784999999999741e+00 2.341394999999999982e+01 1.731690000000000055e+03
4.100000000000000172e-02 7.757985000000000575e-01 -5.675011999999999723e+00 2.491720000000000113e+01 1.731934999999999945e+03
4.200000000000000261e-02 7.763170000000000348e-01 -4.556694999999999496e+00 2.703930000000000078e+01 1.732315000000000055e+03
4.300000000000000350e-02 7.769619999999999305e-01 -3.201894999999999936e+00 2.970894999999999797e+01 1.732829999999999927e+03
4.400000000000000439e-02 7.777180000000000204e-01 -1.631429999999999936e+00 3.285210000000000008e+01 1.733449999999999818e+03
4.499999999999999833e-02 7.785634999999999639e-01 1.216249999999998721e-01 3.638620000000000232e+01 1.734164999999999964e+03
4.599999999999999922e-02 7.794745000000000701e-01 2.011349999999999749e+00 4.021594999999999942e+01 1.734960000000000036e+03
4.700000000000000011e-02 7.804225000000000190e-01 3.981219999999999537e+00 4.423400000000000176e+01 1.735809999999999945e+03
4.800000000000000100e-02 7.813775000000000581e-01 5.969554999999999723e+00 4.832624999999999460e+01 1.736684999999999945e+03
4.900000000000000189e-02 7.823119999999998964e-01 7.915309000000000594e+00 5.237945000000000562e+01 1.737574999999999818e+03
5.000000000000000278e-02 7.832034999999999414e-01 9.764079999999999870e+00 5.629119999999999635e+01 1.738440000000000055e+03
5.100000000000000366e-02 7.840340000000000087e-01 1.147256499999999946e+01 5.997759999999999536e+01 1.739275000000000091e+03
5.200000000000000455e-02 7.847935000000000327e-01 1.301100499999999904e+01 6.337944999999999851e+01 1.740055000000000064e+03
5.300000000000000544e-02 7.854784999999999684e-01 1.436358000000000068e+01 6.646500000000000341e+01 1.740784999999999854e+03
5.399999999999999939e-02 7.860914999999999431e-01 1.552740000000000009e+01 6.922905000000000086e+01 1.741445000000000164e+03
5.500000000000000028e-02 7.866400000000000059e-01 1.651040000000000063e+01 7.169030000000000769e+01 1.742045000000000073e+03
5.600000000000000117e-02 7.871350000000000291e-01 1.732880000000000109e+01 7.388644999999999641e+01 1.742590000000000146e+03
5.700000000000000205e-02 7.875894999999999424e-01 1.800489999999999924e+01 7.586910000000000309e+01 1.743089999999999918e+03
5.800000000000000294e-02 7.880179999999999962e-01 1.856495000000000317e+01 7.769845000000000823e+01 1.743545000000000073e+03
5.900000000000000383e-02 7.884360000000000257e-01 1.903734999999999999e+01 7.943834999999999980e+01 1.743980000000000018e+03
6.000000000000000472e-02 7.888555000000000428e-01 1.945074999999999932e+01 8.115129999999999200e+01 1.744400000000000091e+03
6.099999999999999867e-02 7.892905000000000060e-01 1.983194999999999908e+01 8.289424999999999955e+01 1.744829999999999927e+03
6.199999999999999956e-02 7.897505000000000219e-01 2.020425000000000182e+01 8.471389999999999532e+01 1.745264999999999873e+03
6.300000000000000044e-02 7.902409999999999712e-01 2.058534999999999826e+01 8.664320000000000732e+01 1.745715000000000146e+03
6.400000000000000133e-02 7.907634999999999525e-01 2.098590000000000089e+01 8.869849999999999568e+01 1.746195000000000164e+03
6.500000000000000222e-02 7.913160000000000194e-01 2.140910000000000224e+01 9.087774999999999181e+01 1.746690000000000055e+03
6.600000000000000311e-02 7.918910000000000116e-01 2.185024999999999906e+01 9.316105000000000302e+01 1.747210000000000036e+03
6.700000000000000400e-02 7.924784999999999746e-01 2.229795000000000016e+01 9.551245000000000118e+01 1.747750000000000000e+03
6.800000000000000488e-02 7.930660000000000487e-01 2.273545000000000016e+01 9.788320000000000221e+01 1.748295000000000073e+03
6.900000000000000577e-02 7.936385000000000245e-01 2.314280000000000115e+01 1.002156999999999982e+02 1.748835000000000036e+03
7.000000000000000666e-02 7.941819999999999435e-01 2.349844999999999828e+01 1.024499999999999886e+02 1.749355000000000018e+03
7.100000000000000755e-02 7.946819999999999995e-01 2.378164999999999907e+01 1.045270000000000010e+02 1.749845000000000027e+03
7.200000000000000844e-02 7.951269999999999172e-01 2.397375000000000256e+01 1.063925000000000125e+02 1.750289999999999964e+03
7.300000000000000933e-02 7.955075000000000340e-01 2.405949999999999989e+01 1.080010000000000048e+02 1.750684999999999945e+03
7.399999999999999634e-02 7.958169999999999966e-01 2.402799999999999869e+01 1.093205000000000098e+02 1.751019999999999982e+03
7.499999999999999722e-02 7.960515000000000230e-01 2.387340000000000018e+01 1.103290000000000077e+02 1.751289999999999964e+03
7.599999999999999811e-02 7.962104999999999322e-01 2.359479999999999933e+01 1.110204999999999984e+02 1.751490000000000009e+03
7.699999999999999900e-02 7.962970000000000326e-01 2.319634999999999891e+01 1.113994999999999891e+02 1.751619999999999891e+03
7.799999999999999989e-02 7.963154999999999539e-01 2.268719999999999715e+01 1.114849999999999994e+02 1.751684999999999945e+03
7.900000000000000078e-02 7.962734999999999674e-01 2.208050000000000068e+01 1.113054999999999950e+02 1.751684999999999945e+03
8.000000000000000167e-02 7.961814999999999864e-01 2.139310000000000045e+01 1.108990000000000009e+02 1.751634999999999991e+03
8.100000000000000255e-02 7.960484999999999367e-01 2.064460000000000051e+01 1.103085000000000093e+02 1.751539999999999964e+03
8.200000000000000344e-02 7.958870000000000111e-01 1.985609999999999786e+01 1.095835000000000008e+02 1.751404999999999973e+03
8.300000000000000433e-02 7.957080000000000819e-01 1.904939999999999856e+01 1.087719999999999914e+02 1.751250000000000000e+03
8.400000000000000522e-02 7.955235000000000500e-01 1.824564999999999770e+01 1.079240000000000066e+02 1.751070000000000164e+03
8.500000000000000611e-02 7.953430000000000222e-01 1.746444999999999936e+01 1.070835000000000008e+02 1.750894999999999982e+03
8.600000000000000699e-02 7.951749999999999652e-01 1.672254999999999825e+01 1.062909999999999968e+02 1.750724999999999909e+03
8.700000000000000788e-02 7.950265000000000803e-01 1.603340000000000032e+01 1.055784500000000037e+02 1.750559999999999945e+03
8.800000000000000877e-02 7.949029999999999152e-01 1.540634999999999977e+01 1.049687999999999874e+02 1.750414999999999964e+03
8.899999999999999578e-02 7.948055000000000536e-01 1.484649999999999892e+01 1.044765000000000015e+02 1.750295000000000073e+03
8.999999999999999667e-02 7.947355000000000391e-01 1.435435000000000016e+01 1.041069999999999993e+02 1.750200000000000045e+03
9.099999999999999756e-02 7.946904999999999664e-01 1.392660000000000053e+01 1.038550000000000040e+02 1.750125000000000000e+03
9.199999999999999845e-02 7.946675000000000821e-01 1.355590000000000117e+01 1.037074999999999960e+02 1.750075000000000045e+03
9.299999999999999933e-02 7.946604999999999919e-01 1.323189999999999955e+01 1.036460000000000008e+02 1.750039999999999964e+03
9.400000000000000022e-02 7.946640000000000370e-01 1.294180000000000064e+01 1.036450000000000102e+02 1.750029999999999973e+03
9.500000000000000111e-02 7.946714999999999751e-01 1.267125000000000057e+01 1.036769999999999925e+02 1.750025000000000091e+03
9.600000000000000200e-02 7.946750000000000203e-01 1.240524999999999878e+01 1.037109999999999985e+02 1.750014999999999873e+03
9.700000000000000289e-02 7.946684999999999999e-01 1.212890000000000157e+01 1.037175000000000011e+02 1.750014999999999873e+03
9.800000000000000377e-02 7.946455000000000046e-01 1.182865499999999948e+01 1.036689999999999969e+02 1.750000000000000000e+03
9.900000000000000466e-02 7.946014999999999606e-01 1.149271500000000046e+01 1.035414999999999992e+02 1.749970000000000027e+03
1.000000000000000056e-01 7.945329999999999337e-01 1.111223999999999990e+01 1.033179999999999978e+02 1.749920000000000073e+03
1.010000000000000064e-01 7.944374999999999076e-01 1.068146499999999932e+01 1.029865000000000066e+02 1.749855000000000018e+03
1.020000000000000073e-01 7.943154999999999522e-01 1.019844499999999954e+01 1.025433999999999912e+02 1.749764999999999873e+03
1.030000000000000082e-01 7.941694999999999727e-01 9.664979999999999905e+00 1.019924000000000035e+02 1.749650000000000091e+03
1.040000000000000091e-01 7.940019999999999856e-01 9.086645000000000749e+00 1.013453999999999979e+02 1.749514999999999873e+03
1.050000000000000100e-01 7.938179999999999126e-01 8.472300000000000608e+00 1.006214999999999975e+02 1.749365000000000009e+03
1.059999999999999970e-01 7.936254999999999837e-01 7.833814999999999529e+00 9.984449999999999648e+01 1.749200000000000045e+03
1.069999999999999979e-01 7.934300000000000797e-01 7.185134999999999827e+00 9.904390000000000782e+01 1.749025000000000091e+03
1.079999999999999988e-01 7.932410000000000849e-01 6.541574999999999918e+00 9.825209999999999866e+01 1.748849999999999909e+03
1.089999999999999997e-01 7.930650000000000199e-01 5.919014999999999915e+00 9.750159999999999627e+01 1.748684999999999945e+03
1.100000000000000006e-01 7.929104999999999626e-01 5.332810000000000272e+00 9.682384999999999309e+01 1.748529999999999973e+03
1.110000000000000014e-01 7.927824999999999456e-01 4.797039999999999971e+00 9.624784999999999968e+01 1.748394999999999982e+03
1.120000000000000023e-01 7.926869999999999195e-01 4.323710000000000164e+00 9.579784999999999684e+01 1.748284999999999854e+03
1.130000000000000032e-01 7.926279999999999992e-01 3.922145000000000437e+00 9.549250000000000682e+01 1.748199999999999818e+03
1.140000000000000041e-01 7.926064999999999916e-01 3.598519999999999719e+00 9.534319999999999595e+01 1.748154999999999973e+03
1.150000000000000050e-01 7.926239999999999952e-01 3.355655000000000054e+00 9.535435000000001082e+01 1.748134999999999991e+03
1.160000000000000059e-01 7.926779999999999937e-01 3.193000000000000060e+00 9.552295000000000869e+01 1.748154999999999973e+03
1.170000000000000068e-01 7.927664999999999296e-01 3.106790000000000163e+00 9.583930000000000859e+01 1.748204999999999927e+03
1.180000000000000077e-01 7.928835000000000743e-01 3.090424999999999756e+00 9.628735000000000355e+01 1.748284999999999854e+03
1.190000000000000085e-01 7.930260000000000087e-01 3.134929999999999772e+00 9.684659999999999513e+01 1.748389999999999873e+03
1.200000000000000094e-01 7.931854999999999878e-01 3.229554999999999509e+00 9.749260000000001014e+01 1.748519999999999982e+03
1.209999999999999964e-01 7.933574999999999378e-01 3.362359999999999793e+00 9.819910000000000139e+01 1.748664999999999964e+03
1.219999999999999973e-01 7.935345000000000315e-01 3.520855000000000068e+00 9.893874999999999886e+01 1.748815000000000055e+03
1.229999999999999982e-01 7.937110000000000554e-01 3.692569999999999908e+00 9.968559999999999377e+01 1.748974999999999909e+03
1.239999999999999991e-01 7.938814999999999067e-01 3.865600000000000147e+00 1.004137999999999948e+02 1.749139999999999873e+03
1.250000000000000000e-01 7.940409999999999968e-01 4.029054999999999609e+00 1.011025500000000079e+02 1.749295000000000073e+03
1.260000000000000009e-01 7.941849999999999188e-01 4.173420000000000130e+00 1.017330000000000041e+02 1.749434999999999945e+03
1.270000000000000018e-01 7.943109999999999893e-01 4.290849999999999831e+00 1.022899999999999920e+02 1.749565000000000055e+03
1.280000000000000027e-01 7.944169999999999288e-01 4.375379999999999825e+00 1.027634999999999934e+02 1.749679999999999836e+03
1.290000000000000036e-01 7.945010000000000128e-01 4.422954999999999970e+00 1.031469999999999914e+02 1.749775000000000091e+03
1.300000000000000044e-01 7.945645000000000069e-01 4.431530000000000413e+00 1.034399999999999977e+02 1.749849999999999909e+03
1.310000000000000053e-01 7.946070000000000633e-01 4.400940000000000296e+00 1.036425000000000125e+02 1.749909999999999854e+03
1.320000000000000062e-01 7.946309999999999762e-01 4.332765000000000200e+00 1.037615000000000123e+02 1.749945000000000164e+03
1.330000000000000071e-01 7.946379999999999555e-01 4.230159999999999698e+00 1.038040000000000020e+02 1.749970000000000027e+03
1.340000000000000080e-01 7.946309999999999762e-01 4.097534999999999705e+00 1.037805000000000035e+02 1.749974999999999909e+03
1.350000000000000089e-01 7.946124999999999439e-01 3.940284999999999815e+00 1.037034999999999911e+02 1.749969999999999800e+03
1.360000000000000098e-01 7.945854999999999446e-01 3.764434999999999754e+00 1.035845000000000056e+02 1.749954999999999927e+03
1.370000000000000107e-01 7.945530000000000648e-01 3.576265000000000249e+00 1.034375000000000000e+02 1.749930000000000064e+03
1.380000000000000115e-01 7.945189999999999753e-01 3.381984999999999797e+00 1.032734999999999985e+02 1.749905000000000200e+03
1.390000000000000124e-01 7.944839999999999680e-01 3.187400000000000233e+00 1.031045000000000016e+02 1.749869999999999891e+03
1.400000000000000133e-01 7.944504999999999484e-01 2.997609999999999886e+00 1.029380000000000024e+02 1.749835000000000036e+03
1.410000000000000142e-01 7.944204999999999739e-01 2.816799999999999748e+00 1.027819999999999965e+02 1.749804999999999836e+03
1.420000000000000151e-01 7.943940000000000445e-01 2.648080000000000211e+00 1.026405000000000030e+02 1.749775000000000091e+03
1.430000000000000160e-01 7.943709999999999383e-01 2.493430000000000035e+00 1.025155000000000030e+02 1.749744999999999891e+03
1.440000000000000169e-01 7.943519999999999470e-01 2.353690000000000282e+00 1.024070000000000107e+02 1.749719999999999800e+03
1.450000000000000178e-01 7.943355000000000832e-01 2.228665000000000340e+00 1.023114999999999952e+02 1.749700000000000045e+03
1.459999999999999909e-01 7.943204999999999849e-01 2.117264999999999731e+00 1.022245000000000061e+02 1.749675000000000182e+03
1.469999999999999918e-01 7.943050000000000388e-01 2.017694999999999794e+00 1.021405000000000030e+02 1.749655000000000200e+03
1.479999999999999927e-01 7.942880000000001051e-01 1.927685000000000093e+00 1.020534999999999997e+02 1.749634999999999991e+03
1.489999999999999936e-01 7.942675000000000152e-01 1.844710000000000072e+00 1.019569999999999936e+02 1.749615000000000009e+03
1.499999999999999944e-01 7.942424999999999624e-01 1.766194999999999959e+00 1.018445000000000107e+02 1.749585000000000036e+03
1.509999999999999953e-01 7.942115000000000702e-01 1.689744999999999830e+00 1.017104999999999961e+02 1.749554999999999836e+03
1.519999999999999962e-01 7.941739999999999355e-01 1.613285000000000080e+00 1.015510000000000019e+02 1.749519999999999982e+03
1.529999999999999971e-01 7.941290000000000848e-01 1.535209500000000116e+00 1.013629999999999995e+02 1.749474999999999909e+03
1.539999999999999980e-01 7.940760000000000041e-01 1.454453499999999844e+00 1.011450000000000102e+02 1.749429999999999836e+03
1.549999999999999989e-01 7.940165000000000139e-01 1.370570499999999914e+00 1.008984999999999985e+02 1.749375000000000000e+03
1.559999999999999998e-01 7.939499999999999336e-01 1.283726000000000145e+00 1.006250000000000000e+02 1.749315000000000055e+03
1.570000000000000007e-01 7.938784999999999314e-01 1.194714500000000124e+00 1.003283500000000004e+02 1.749250000000000000e+03
1.580000000000000016e-01 7.938024999999999665e-01 1.104913000000000034e+00 1.000136500000000126e+02 1.749180000000000064e+03
1.590000000000000024e-01 7.937235000000000262e-01 1.016194599999999948e+00 9.968770000000000664e+01 1.749105000000000018e+03
