# t [s], A [cm^2], U [cm/s], P [cPa], c [cm/s]
1.000000000000000021e-03 1.789689999999999892e-01 3.677130000000000121e-01 9.433395000000000152e+01 2.068385000000000218e+03
2.000000000000000042e-03 1.789209999999999967e-01 1.916239500000000096e+00 9.092054999999999154e+01 2.067965000000000146e+03
3.000000000000000062e-03 1.787920000000000065e-01 3.797490000000000254e+00 8.631239999999999668e+01 2.066880000000000109e+03
4.000000000000000083e-03 1.786159999999999970e-01 5.902422500000000127e+00 8.144749999999999091e+01 2.065425000000000182e+03
5.000000000000000104e-03 1.784290000000000043e-01 8.152214999999999989e+00 7.721405000000000030e+01 2.063885000000000218e+03
6.000000000000000125e-03 1.782495000000000052e-01 1.035120000000000040e+01 7.380644999999999811e+01 2.062425000000000182e+03
7.000000000000000146e-03 1.780809999999999893e-01 1.228843499999999977e+01 7.089539999999999509e+01 2.061079999999999927e+03
8.000000000000000167e-03 1.779264999999999874e-01 1.390915000000000035e+01 6.827080000000000837e+01 2.059880000000000109e+03
9.000000000000001055e-03 1.777914999999999912e-01 1.526229999999999976e+01 6.601644999999999186e+01 2.058829999999999927e+03
1.000000000000000194e-02 1.776774999999999882e-01 1.637829999999999941e+01 6.419209999999999638e+01 2.057954999999999927e+03
1.099999999999999936e-02 1.775840000000000196e-01 1.726899999999999835e+01 6.275234999999999985e+01 2.057250000000000000e+03
1.200000000000000025e-02 1.775090000000000001e-01 1.794585000000000008e+01 6.162120000000000175e+01 2.056690000000000055e+03
1.300000000000000114e-02 1.774479999999999946e-01 1.841189999999999927e+01 6.068909999999999627e+01 2.056244999999999891e+03
1.400000000000000203e-02 1.773974999999999858e-01 1.868800000000000239e+01 5.985799999999999699e+01 2.055885000000000218e+03
1.499999999999999944e-02 1.773565000000000003e-01 1.885920000000000130e+01 5.918795000000000073e+01 2.055590000000000146e+03
1.600000000000000033e-02 1.773305000000000020e-01 1.907434999999999903e+01 5.896705000000000041e+01 2.055414999999999964e+03
1.700000000000000122e-02 1.773299999999999876e-01 1.947910000000000252e+01 5.957339999999999947e+01 2.055420000000000073e+03
1.800000000000000211e-02 1.773620000000000196e-01 2.013380000000000081e+01 6.121989999999999554e+01 2.055675000000000182e+03
1.900000000000000300e-02 1.774264999999999870e-01 2.097545000000000215e+01 6.377224999999999966e+01 2.056164999999999964e+03
2.000000000000000042e-02 1.775144999999999917e-01 2.184260000000000090e+01 6.675440000000000396e+01 2.056850000000000364e+03
2.100000000000000130e-02 1.776094999999999757e-01 2.254214999999999947e+01 6.952020000000000266e+01 2.057579999999999927e+03
2.200000000000000219e-02 1.776925000000000032e-01 2.292204999999999870e+01 7.148940000000000339e+01 2.058244999999999891e+03
2.299999999999999961e-02 1.777500000000000191e-01 2.291980000000000217e+01 7.233944999999999936e+01 2.058715000000000146e+03
2.400000000000000050e-02 1.777765000000000040e-01 2.257094999999999985e+01 7.208249999999999602e+01 2.058944999999999709e+03
2.500000000000000139e-02 1.777739999999999876e-01 2.198185000000000144e+01 7.101220000000000709e+01 2.058949999999999818e+03
2.600000000000000228e-02 1.777500000000000191e-01 2.128119999999999834e+01 6.955875000000000341e+01 2.058789999999999964e+03
2.700000000000000316e-02 1.777164999999999995e-01 2.057339999999999947e+01 6.812080000000000268e+01 2.058534999999999854e+03
2.800000000000000058e-02 1.776820000000000066e-01 1.990930000000000177e+01 6.693959999999999866e+01 2.058265000000000327e+03
2.900000000000000147e-02 1.776504999999999890e-01 1.928350000000000009e+01 6.605480000000000018e+01 2.058024999999999636e+03
3.000000000000000236e-02 1.776225000000000165e-01 1.865174999999999983e+01 6.534040000000000248e+01 2.057809999999999945e+03
3.099999999999999978e-02 1.775944999999999885e-01 1.796055000000000135e+01 6.459380000000000166e+01 2.057594999999999800e+03
3.200000000000000067e-02 1.775625000000000120e-01 1.717640000000000100e+01 6.363949999999999818e+01 2.057349999999999909e+03
3.300000000000000155e-02 1.775224999999999997e-01 1.630590000000000117e+01 6.241250000000000142e+01 2.057050000000000182e+03
3.400000000000000244e-02 1.774759999999999949e-01 1.540119999999999933e+01 6.099595000000000056e+01 2.056695000000000164e+03
3.500000000000000333e-02 1.774264999999999870e-01 1.454874999999999829e+01 5.960519999999999641e+01 2.056319999999999709e+03
3.600000000000000422e-02 1.773824999999999985e-01 1.384704999999999941e+01 5.852524999999999977e+01 2.055969999999999800e+03
3.700000000000000511e-02 1.773509999999999809e-01 1.337904999999999944e+01 5.802429999999999666e+01 2.055719999999999800e+03
3.799999999999999906e-02 1.773394999999999833e-01 1.318929999999999936e+01 5.827190000000000225e+01 2.055619999999999891e+03
3.899999999999999994e-02 1.773514999999999953e-01 1.327195000000000036e+01 5.928714999999999691e+01 2.055695000000000164e+03
4.000000000000000083e-02 1.773870000000000169e-01 1.357089999999999996e+01 6.092779999999999774e+01 2.055949999999999818e+03
4.100000000000000172e-02 1.774399999999999866e-01 1.399239999999999995e+01 6.292154999999999632e+01 2.056345000000000255e+03
4.200000000000000261e-02 1.775019999999999931e-01 1.442330000000000112e+01 6.492320000000000846e+01 2.056809999999999945e+03
4.300000000000000350e-02 1.775619999999999976e-01 1.475169999999999959e+01 6.658320000000000505e+01 2.057279999999999745e+03
4.400000000000000439e-02 1.776110000000000189e-01 1.488374999999999915e+01 6.760779999999999745e+01 2.057650000000000091e+03
4.499999999999999833e-02 1.776385000000000047e-01 1.475489999999999924e+01 6.780105000000000359e+01 2.057880000000000109e+03
4.599999999999999922e-02 1.776405000000000067e-01 1.433419999999999916e+01 6.708135000000000048e+01 2.057904999999999745e+03
4.700000000000000011e-02 1.776130000000000209e-01 1.362195000000000000e+01 6.547575000000000500e+01 2.057704999999999927e+03
4.800000000000000100e-02 1.775575000000000070e-01 1.264390000000000036e+01 6.309629999999999939e+01 2.057284999999999854e+03
4.900000000000000189e-02 1.774764999999999815e-01 1.144254000000000104e+01 6.010835000000000150e+01 2.056670000000000073e+03
5.000000000000000278e-02 1.773744999999999905e-01 1.006956499999999899e+01 5.669875000000000398e+01 2.055894999999999982e+03
5.100000000000000366e-02 1.772569999999999979e-01 8.579534999999999911e+00 5.305109999999999815e+01 2.054990000000000236e+03
5.200000000000000455e-02 1.771294999999999953e-01 7.026444999999999830e+00 4.933074999999999477e+01 2.054010000000000218e+03
5.300000000000000544e-02 1.769979999999999887e-01 5.462424999999999642e+00 4.567990000000000350e+01 2.052994999999999891e+03
5.399999999999999939e-02 1.768664999999999821e-01 3.937602500000000116e+00 4.221994999999999720e+01 2.051980000000000018e+03
5.500000000000000028e-02 1.767400000000000082e-01 2.501134500000000038e+00 3.905780000000000030e+01 2.051005000000000109e+03
5.600000000000000117e-02 1.766230000000000022e-01 1.201589999999999936e+00 3.629214999999999947e+01 2.050100000000000364e+03
5.700000000000000205e-02 1.765194999999999959e-01 8.671499999999987551e-02 3.401769999999999783e+01 2.049289999999999964e+03
5.800000000000000294e-02 1.764324999999999921e-01 -7.978599999999999026e-01 3.232554999999999978e+01 2.048605000000000018e+03
5.900000000000000383e-02 1.763664999999999816e-01 -1.410731750000000062e+00 3.129950000000000188e+01 2.048085000000000036e+03
6.000000000000000472e-02 1.763239999999999807e-01 -1.717398499999999828e+00 3.101050000000000040e+01 2.047735000000000127e+03
6.099999999999999867e-02 1.763080000000000203e-01 -1.692874999999999908e+00 3.150894999999999868e+01 2.047595000000000027e+03
6.199999999999999956e-02 1.763195000000000179e-01 -1.323903500000000122e+00 3.281855000000000189e+01 2.047664999999999964e+03
6.300000000000000044e-02 1.763609999999999900e-01 -6.102080000000000837e-01 3.493195000000000050e+01 2.047965000000000146e+03
6.400000000000000133e-02 1.764310000000000045e-01 4.352399999999999602e-01 3.780920000000000414e+01 2.048480000000000018e+03
6.500000000000000222e-02 1.765295000000000059e-01 1.787034999999999929e+00 4.137989999999999924e+01 2.049215000000000146e+03
6.600000000000000311e-02 1.766530000000000045e-01 3.409091949999999649e+00 4.554784999999999684e+01 2.050144999999999982e+03
6.700000000000000400e-02 1.767989999999999839e-01 5.256974999999999731e+00 5.019785000000000252e+01 2.051255000000000109e+03
6.800000000000000488e-02 1.769629999999999814e-01 7.280655000000000321e+00 5.520340000000000202e+01 2.052514999999999873e+03
6.900000000000000577e-02 1.771415000000000073e-01 9.427395000000000636e+00 6.043510000000000559e+01 2.053885000000000218e+03
7.000000000000000666e-02 1.773295000000000010e-01 1.164451999999999998e+01 6.576789999999999736e+01 2.055335000000000036e+03
7.100000000000000755e-02 1.775240000000000151e-01 1.388200499999999948e+01 7.108830000000000382e+01 2.056835000000000036e+03
7.200000000000000844e-02 1.777195000000000025e-01 1.609495000000000076e+01 7.629949999999999477e+01 2.058349999999999909e+03
7.300000000000000933e-02 1.779129999999999878e-01 1.824514999999999887e+01 8.132589999999999009e+01 2.059860000000000127e+03
7.399999999999999634e-02 1.781020000000000103e-01 2.030299999999999727e+01 8.611570000000000391e+01 2.061340000000000146e+03
7.499999999999999722e-02 1.782845000000000124e-01 2.224779999999999802e+01 9.064170000000000016e+01 2.062769999999999982e+03
7.599999999999999811e-02 1.784589999999999788e-01 2.406830000000000069e+01 9.490045000000000641e+01 2.064144999999999982e+03
7.699999999999999900e-02 1.786254999999999926e-01 2.576185000000000258e+01 9.891100000000000136e+01 2.065465000000000146e+03
7.799999999999999989e-02 1.787845000000000129e-01 2.733360000000000056e+01 1.027076500000000010e+02 2.066720000000000255e+03
7.900000000000000078e-02 1.789359999999999840e-01 2.879469999999999885e+01 1.063388500000000079e+02 2.067925000000000182e+03
8.000000000000000167e-02 1.790829999999999922e-01 3.016055000000000064e+01 1.098575000000000017e+02 2.069090000000000146e+03
8.100000000000000255e-02 1.792254999999999820e-01 3.144845000000000113e+01 1.133179999999999978e+02 2.070224999999999909e+03
8.200000000000000344e-02 1.793659999999999977e-01 3.267605000000000359e+01 1.167699999999999960e+02 2.071345000000000255e+03
8.300000000000000433e-02 1.795059999999999989e-01 3.385930000000000462e+01 1.202530000000000001e+02 2.072460000000000036e+03
8.400000000000000522e-02 1.796470000000000011e-01 3.501094999999999402e+01 1.237940000000000111e+02 2.073574999999999818e+03
8.500000000000000611e-02 1.797894999999999910e-01 3.613984999999999559e+01 1.274060000000000059e+02 2.074704999999999927e+03
8.600000000000000699e-02 1.799334999999999962e-01 3.725014999999999787e+01 1.310869999999999891e+02 2.075849999999999909e+03
8.700000000000000788e-02 1.800795000000000035e-01 3.834104999999999563e+01 1.348199999999999932e+02 2.077014999999999873e+03
8.800000000000000877e-02 1.802265000000000117e-01 3.940735000000000099e+01 1.385774999999999864e+02 2.078190000000000055e+03
8.899999999999999578e-02 1.803744999999999932e-01 4.043959999999999866e+01 1.423205000000000098e+02 2.079364999999999782e+03
8.999999999999999667e-02 1.805209999999999870e-01 4.142520000000000380e+01 1.460014999999999930e+02 2.080534999999999854e+03
9.099999999999999756e-02 1.806654999999999789e-01 4.234924999999999784e+01 1.495729999999999791e+02 2.081680000000000291e+03
9.199999999999999845e-02 1.808055000000000079e-01 4.319545000000000101e+01 1.529825000000000159e+02 2.082800000000000182e+03
9.299999999999999933e-02 1.809395000000000031e-01 4.394715000000000060e+01 1.561804999999999950e+02 2.083875000000000000e+03
9.400000000000000022e-02 1.810660000000000047e-01 4.458845000000000169e+01 1.591215000000000259e+02 2.084889999999999873e+03
9.500000000000000111e-02 1.811830000000000107e-01 4.510500000000000398e+01 1.617674999999999841e+02 2.085824999999999818e+03
9.600000000000000200e-02 1.812890000000000057e-01 4.548489999999999611e+01 1.640855000000000246e+02 2.086685000000000400e+03
9.700000000000000289e-02 1.813839999999999897e-01 4.571925000000000239e+01 1.660544999999999902e+02 2.087449999999999818e+03
9.800000000000000377e-02 1.814655000000000018e-01 4.580275000000000318e+01 1.676610000000000014e+02 2.088110000000000127e+03
9.900000000000000466e-02 1.815340000000000009e-01 4.573409999999999798e+01 1.689044999999999845e+02 2.088670000000000073e+03
1.000000000000000056e-01 1.815890000000000004e-01 4.551574999999999704e+01 1.697925000000000182e+02 2.089125000000000000e+03
1.010000000000000064e-01 1.816309999999999869e-01 4.515449999999999875e+01 1.703425000000000011e+02 2.089474999999999909e+03
1.020000000000000073e-01 1.816610000000000169e-01 4.466060000000000230e+01 1.705805000000000007e+02 2.089720000000000255e+03
1.030000000000000082e-01 1.816785000000000205e-01 4.404774999999999352e+01 1.705425000000000182e+02 2.089880000000000109e+03
1.040000000000000091e-01 1.816854999999999998e-01 4.333220000000000027e+01 1.702655000000000030e+02 2.089949999999999818e+03
1.050000000000000100e-01 1.816834999999999978e-01 4.253204999999999814e+01 1.697940000000000111e+02 2.089940000000000055e+03
1.059999999999999970e-01 1.816744999999999888e-01 4.166669999999999874e+01 1.691725000000000136e+02 2.089875000000000000e+03
1.069999999999999979e-01 1.816579999999999862e-01 4.075589999999999691e+01 1.684449999999999932e+02 2.089750000000000000e+03
1.079999999999999988e-01 1.816375000000000073e-01 3.981860000000000355e+01 1.676539999999999964e+02 2.089595000000000255e+03
1.089999999999999997e-01 1.816139999999999977e-01 3.887279999999999802e+01 1.668374999999999773e+02 2.089404999999999745e+03
1.100000000000000006e-01 1.815879999999999994e-01 3.793455000000000155e+01 1.660289999999999964e+02 2.089204999999999927e+03
1.110000000000000014e-01 1.815614999999999868e-01 3.701735000000000042e+01 1.652535000000000025e+02 2.088994999999999891e+03
1.120000000000000023e-01 1.815355000000000163e-01 3.613204999999999956e+01 1.645314999999999941e+02 2.088789999999999964e+03
1.130000000000000032e-01 1.815105000000000190e-01 3.528629999999999711e+01 1.638754999999999882e+02 2.088585000000000036e+03
1.140000000000000041e-01 1.814874999999999960e-01 3.448445000000000249e+01 1.632884999999999991e+02 2.088399999999999636e+03
1.150000000000000050e-01 1.814655000000000018e-01 3.372780000000000200e+01 1.627680000000000007e+02 2.088224999999999909e+03
1.160000000000000059e-01 1.814459999999999962e-01 3.301454999999999984e+01 1.623050000000000068e+02 2.088064999999999600e+03
1.170000000000000068e-01 1.814275000000000193e-01 3.234035000000000082e+01 1.618845000000000027e+02 2.087914999999999964e+03
1.180000000000000077e-01 1.814109999999999889e-01 3.169829999999999970e+01 1.614864999999999782e+02 2.087775000000000091e+03
1.190000000000000085e-01 1.813945000000000141e-01 3.107985000000000042e+01 1.610879999999999939e+02 2.087644999999999982e+03
1.200000000000000094e-01 1.813774999999999971e-01 3.047524999999999906e+01 1.606639999999999873e+02 2.087505000000000109e+03
1.209999999999999964e-01 1.813599999999999934e-01 2.987405000000000044e+01 1.601889999999999930e+02 2.087360000000000127e+03
1.219999999999999973e-01 1.813405000000000156e-01 2.926590000000000202e+01 1.596384999999999934e+02 2.087199999999999818e+03
1.229999999999999982e-01 1.813180000000000069e-01 2.864099999999999824e+01 1.589915000000000020e+02 2.087025000000000091e+03
1.239999999999999991e-01 1.812924999999999953e-01 2.799085000000000178e+01 1.582300000000000182e+02 2.086814999999999600e+03
1.250000000000000000e-01 1.812624999999999931e-01 2.730855000000000032e+01 1.573405000000000200e+02 2.086579999999999927e+03
1.260000000000000009e-01 1.812285000000000146e-01 2.658950000000000102e+01 1.563154999999999859e+02 2.086304999999999836e+03
1.270000000000000018e-01 1.811889999999999890e-01 2.583145000000000024e+01 1.551539999999999964e+02 2.085994999999999891e+03
1.280000000000000027e-01 1.811450000000000005e-01 2.503470000000000084e+01 1.538615000000000066e+02 2.085649999999999636e+03
1.290000000000000036e-01 1.810970000000000080e-01 2.420224999999999937e+01 1.524505000000000052e+02 2.085264999999999873e+03
1.300000000000000044e-01 1.810439999999999827e-01 2.333984999999999843e+01 1.509385000000000048e+02 2.084845000000000255e+03
1.310000000000000053e-01 1.809874999999999956e-01 2.245514999999999972e+01 1.493489999999999895e+02 2.084394999999999982e+03
1.320000000000000062e-01 1.809284999999999921e-01 2.155810000000000315e+01 1.477090000000000032e+02 2.083925000000000182e+03
1.330000000000000071e-01 1.808664999999999856e-01 2.065995000000000203e+01 1.460484999999999900e+02 2.083434999999999945e+03
1.340000000000000080e-01 1.808049999999999935e-01 1.977289999999999992e+01 1.444004999999999939e+02 2.082940000000000055e+03
1.350000000000000089e-01 1.807425000000000004e-01 1.890950000000000131e+01 1.427959999999999923e+02 2.082449999999999818e+03
1.360000000000000098e-01 1.806814999999999949e-01 1.808205000000000240e+01 1.412644999999999982e+02 2.081965000000000146e+03
1.370000000000000107e-01 1.806240000000000068e-01 1.730195000000000149e+01 1.398344999999999914e+02 2.081500000000000000e+03
1.380000000000000115e-01 1.805684999999999929e-01 1.657929999999999993e+01 1.385289999999999964e+02 2.081060000000000400e+03
1.390000000000000124e-01 1.805180000000000118e-01 1.592244999999999955e+01 1.373665000000000020e+02 2.080654999999999745e+03
1.400000000000000133e-01 1.804720000000000213e-01 1.533774999999999977e+01 1.363594999999999970e+02 2.080284999999999854e+03
1.410000000000000142e-01 1.804319999999999813e-01 1.482905000000000051e+01 1.355165000000000077e+02 2.079965000000000146e+03
1.420000000000000151e-01 1.803970000000000018e-01 1.439804999999999957e+01 1.348369999999999891e+02 2.079684999999999945e+03
1.430000000000000160e-01 1.803684999999999872e-01 1.404405000000000037e+01 1.343174999999999955e+02 2.079445000000000164e+03
1.440000000000000169e-01 1.803454999999999919e-01 1.376415000000000077e+01 1.339495000000000005e+02 2.079260000000000218e+03
1.450000000000000178e-01 1.803279999999999883e-01 1.355344999999999978e+01 1.337185000000000059e+02 2.079110000000000127e+03
1.459999999999999909e-01 1.803150000000000031e-01 1.340559999999999974e+01 1.336080000000000041e+02 2.079010000000000218e+03
1.469999999999999918e-01 1.803069999999999951e-01 1.331289999999999907e+01 1.335994999999999777e+02 2.078940000000000055e+03
1.479999999999999927e-01 1.803035000000000054e-01 1.326654999999999873e+01 1.336705000000000041e+02 2.078900000000000091e+03
1.489999999999999936e-01 1.803024999999999767e-01 1.325750000000000028e+01 1.338019999999999925e+02 2.078885000000000218e+03
1.499999999999999944e-01 1.803040000000000198e-01 1.327655000000000030e+01 1.339730000000000132e+02 2.078894999999999982e+03
1.509999999999999953e-01 1.803075000000000094e-01 1.331449999999999889e+01 1.341634999999999991e+02 2.078920000000000073e+03
1.519999999999999962e-01 1.803115000000000134e-01 1.336284999999999989e+01 1.343564999999999827e+02 2.078949999999999818e+03
1.529999999999999971e-01 1.803164999999999907e-01 1.341385000000000005e+01 1.345364999999999895e+02 2.078989999999999782e+03
1.539999999999999980e-01 1.803215000000000234e-01 1.346075000000000088e+01 1.346904999999999859e+02 2.079020000000000437e+03
1.549999999999999989e-01 1.803254999999999997e-01 1.349790000000000134e+01 1.348095000000000141e+02 2.079055000000000291e+03
1.559999999999999998e-01 1.803290000000000171e-01 1.352100000000000080e+01 1.348870000000000005e+02 2.079079999999999927e+03
1.570000000000000007e-01 1.803309999999999913e-01 1.352700000000000102e+01 1.349190000000000111e+02 2.079095000000000255e+03
1.580000000000000016e-01 1.803319999999999923e-01 1.351415000000000077e+01 1.349044999999999845e+02 2.079105000000000018e+03
1.590000000000000024e-01 1.803314999999999779e-01 1.348195000000000121e+01 1.348460000000000036e+02 2.079100000000000364e+03
