# t [s], A [cm^2], U [cm/s], P [cPa], c [cm/s]
1.000000000000000021e-03 7.599020000000000774e-01 4.702149999999995222e-03 9.646750000000000114e+01 1.592300000000000182e+03
2.000000000000000042e-03 7.598899999999999544e-01 -1.630265000000000099e-03 9.644030000000000769e+01 1.592289999999999964e+03
3.000000000000000062e-03 7.599575000000000635e-01 9.795134999999999259e-02 9.654370000000000118e+01 1.592315000000000055e+03
4.000000000000000083e-03 7.600160000000000249e-01 1.944865454999999965e-01 9.666015000000000157e+01 1.592340000000000146e+03
5.000000000000000104e-03 7.599815000000000875e-01 1.663858219999999888e-01 9.659714999999999918e+01 1.592329999999999927e+03
6.000000000000000125e-03 7.598975000000000035e-01 6.344899999999997764e-02 9.637035000000000196e+01 1.592289999999999964e+03
7.000000000000000146e-03 7.598229999999999151e-01 -3.523999999999999355e-02 9.608115000000000805e+01 1.592230000000000018e+03
8.000000000000000167e-03 7.597069999999999101e-01 -2.069300000000000583e-01 9.565510000000000446e+01 1.592144999999999982e+03
9.000000000000001055e-03 7.595125000000000348e-01 -5.093800000000000550e-01 9.499844999999999118e+01 1.592014999999999873e+03
1.000000000000000194e-02 7.592389999999999972e-01 -9.415099999999999580e-01 9.407229999999999848e+01 1.591835000000000036e+03
1.099999999999999936e-02 7.588654999999999706e-01 -1.519694999999999796e+00 9.281834999999999525e+01 1.591579999999999927e+03
1.200000000000000025e-02 7.583779999999999966e-01 -2.248599999999999710e+00 9.118630000000000280e+01 1.591244999999999891e+03
1.300000000000000114e-02 7.578099999999999836e-01 -3.054170000000000051e+00 8.922719999999999629e+01 1.590835000000000036e+03
1.400000000000000203e-02 7.572410000000000529e-01 -3.787895000000000234e+00 8.711549999999999727e+01 1.590380000000000109e+03
1.499999999999999944e-02 7.567494999999999639e-01 -4.297798000000000229e+00 8.507474999999999454e+01 1.589920000000000073e+03
1.600000000000000033e-02 7.563750000000000195e-01 -4.495674000000000170e+00 8.327824999999999989e+01 1.589490000000000009e+03
1.700000000000000122e-02 7.561059999999999448e-01 -4.379770999999999859e+00 8.179200000000000159e+01 1.589115000000000009e+03
1.800000000000000211e-02 7.558970000000000411e-01 -4.017694999999999794e+00 8.057264999999999588e+01 1.588780000000000200e+03
1.900000000000000300e-02 7.556905000000000427e-01 -3.510125000000000384e+00 7.950310000000000343e+01 1.588480000000000018e+03
2.000000000000000042e-02 7.554385000000000128e-01 -2.952076499999999992e+00 7.844594999999999629e+01 1.588174999999999955e+03
2.100000000000000130e-02 7.551185000000000258e-01 -2.403173499999999851e+00 7.729394999999999527e+01 1.587860000000000127e+03
2.200000000000000219e-02 7.547349999999999337e-01 -1.875704999999999734e+00 7.600310000000000343e+01 1.587519999999999982e+03
2.299999999999999961e-02 7.543155000000000276e-01 -1.343920000000000003e+00 7.459485000000000809e+01 1.587159999999999854e+03
2.400000000000000050e-02 7.538925000000000765e-01 -7.686000000000001720e-01 7.313194999999998913e+01 1.586784999999999854e+03
2.500000000000000139e-02 7.534874999999999767e-01 -1.243650000000000588e-01 7.168000000000000682e+01 1.586409999999999854e+03
2.600000000000000228e-02 7.531049999999999134e-01 5.816799999999999748e-01 7.027379999999999427e+01 1.586045000000000073e+03
2.700000000000000316e-02 7.527265000000000761e-01 1.304910000000000014e+00 6.889799999999999613e+01 1.585674999999999955e+03
2.800000000000000058e-02 7.523195000000000299e-01 1.970835000000000115e+00 6.748685000000000400e+01 1.585309999999999945e+03
2.900000000000000147e-02 7.518454999999999444e-01 2.491630000000000233e+00 6.593959999999999866e+01 1.584914999999999964e+03
3.000000000000000236e-02 7.512710000000000221e-01 2.786654999999999660e+00 6.414735000000000298e+01 1.584474999999999909e+03
3.099999999999999978e-02 7.505760000000000209e-01 2.802140000000000075e+00 6.202400000000000091e+01 1.583969999999999800e+03
3.200000000000000067e-02 7.497635000000000272e-01 2.524780000000000246e+00 5.953294999999999959e+01 1.583400000000000091e+03
3.300000000000000155e-02 7.488569999999999949e-01 1.985450000000000159e+00 5.670264999999999844e+01 1.582750000000000000e+03
3.400000000000000244e-02 7.478994999999999393e-01 1.252139999999999809e+00 5.362579999999999814e+01 1.582055000000000064e+03
3.500000000000000333e-02 7.469429999999999126e-01 4.153249999999992781e-01 5.044460000000000122e+01 1.581329999999999927e+03
3.600000000000000422e-02 7.460385000000000488e-01 -4.295850000000003277e-01 4.732635000000000502e+01 1.580605000000000018e+03
3.700000000000000511e-02 7.452330000000000343e-01 -1.196614999999999984e+00 4.443850000000000477e+01 1.579920000000000073e+03
3.799999999999999906e-02 7.445589999999999709e-01 -1.818824999999999914e+00 4.192759999999999820e+01 1.579305000000000064e+03
3.899999999999999994e-02 7.440385000000000471e-01 -2.251685000000000159e+00 3.990579999999999927e+01 1.578795000000000073e+03
4.000000000000000083e-02 7.436810000000000365e-01 -2.471585000000000143e+00 3.844545000000000101e+01 1.578389999999999873e+03
4.100000000000000172e-02 7.434875000000000789e-01 -2.471065999999999985e+00 3.758115000000000094e+01 1.578119999999999891e+03
4.200000000000000261e-02 7.434534999999999894e-01 -2.252664999999999917e+00 3.731624999999999659e+01 1.577980000000000018e+03
4.300000000000000350e-02 7.435705000000000231e-01 -1.823013499999999842e+00 3.763275000000000148e+01 1.577980000000000018e+03
4.400000000000000439e-02 7.438299999999999912e-01 -1.188699999999999868e+00 3.850050000000000239e+01 1.578110000000000127e+03
4.499999999999999833e-02 7.442249999999999144e-01 -3.545099999999998808e-01 3.988445000000000107e+01 1.578360000000000127e+03
4.599999999999999922e-02 7.447479999999999656e-01 6.758699999999997488e-01 4.174840000000000373e+01 1.578730000000000018e+03
4.700000000000000011e-02 7.453905000000000669e-01 1.897469999999999768e+00 4.405549999999999500e+01 1.579204999999999927e+03
4.800000000000000100e-02 7.461435000000000706e-01 3.301029999999999465e+00 4.676640000000000441e+01 1.579779999999999973e+03
4.900000000000000189e-02 7.469934999999999770e-01 4.870445000000000135e+00 4.983639999999999759e+01 1.580449999999999818e+03
5.000000000000000278e-02 7.479264999999999386e-01 6.581739999999999924e+00 5.321314999999999884e+01 1.581190000000000055e+03
5.100000000000000366e-02 7.489230000000000054e-01 8.403239999999998489e+00 5.683630000000000138e+01 1.582005000000000109e+03
5.200000000000000455e-02 7.499620000000000175e-01 1.029739599999999911e+01 6.063824999999999932e+01 1.582869999999999891e+03
5.300000000000000544e-02 7.510235000000000660e-01 1.222358999999999973e+01 6.454744999999999777e+01 1.583769999999999982e+03
5.399999999999999939e-02 7.520869999999999500e-01 1.414121500000000076e+01 6.849209999999999354e+01 1.584690000000000055e+03
5.500000000000000028e-02 7.531339999999999701e-01 1.601251500000000050e+01 7.240460000000000207e+01 1.585610000000000127e+03
5.600000000000000117e-02 7.541504999999999459e-01 1.780514499999999956e+01 7.622570000000000334e+01 1.586525000000000091e+03
5.700000000000000205e-02 7.551250000000000462e-01 1.949354999999999905e+01 7.990770000000000550e+01 1.587420000000000073e+03
5.800000000000000294e-02 7.560504999999999587e-01 2.105964999999999776e+01 8.341620000000000346e+01 1.588280000000000200e+03
5.900000000000000383e-02 7.569255000000000289e-01 2.249285000000000068e+01 8.673105000000001041e+01 1.589110000000000127e+03
6.000000000000000472e-02 7.577479999999999771e-01 2.378920000000000101e+01 8.984515000000000384e+01 1.589894999999999982e+03
6.099999999999999867e-02 7.585230000000000583e-01 2.495060000000000144e+01 9.276380000000000337e+01 1.590634999999999991e+03
6.199999999999999956e-02 7.592554999999999721e-01 2.598339999999999961e+01 9.550135000000000218e+01 1.591340000000000146e+03
6.300000000000000044e-02 7.599515000000000020e-01 2.689755000000000251e+01 9.808044999999999902e+01 1.592010000000000218e+03
6.400000000000000133e-02 7.606189999999999340e-01 2.770530000000000115e+01 1.005280999999999949e+02 1.592639999999999873e+03
6.500000000000000222e-02 7.612664999999999571e-01 2.842030000000000101e+01 1.028738999999999919e+02 1.593250000000000000e+03
6.600000000000000311e-02 7.619004999999999805e-01 2.905669999999999931e+01 1.051470000000000056e+02 1.593845000000000027e+03
6.700000000000000400e-02 7.625284999999999425e-01 2.962794999999999845e+01 1.073755000000000024e+02 1.594420000000000073e+03
6.800000000000000488e-02 7.631554999999999866e-01 3.014600000000000080e+01 1.095819999999999936e+02 1.594990000000000009e+03
6.900000000000000577e-02 7.637844999999999773e-01 3.062044999999999817e+01 1.117835000000000036e+02 1.595554999999999836e+03
7.000000000000000666e-02 7.644174999999999720e-01 3.105809999999999960e+01 1.139900000000000091e+02 1.596115000000000009e+03
7.100000000000000755e-02 7.650535000000000529e-01 3.146205000000000140e+01 1.162030000000000030e+02 1.596679999999999836e+03
7.200000000000000844e-02 7.656890000000000640e-01 3.183210000000000406e+01 1.184155000000000086e+02 1.597240000000000009e+03
7.300000000000000933e-02 7.663195000000000423e-01 3.216505000000000081e+01 1.206140000000000043e+02 1.597799999999999955e+03
7.399999999999999634e-02 7.669380000000000086e-01 3.245485000000000042e+01 1.227770000000000010e+02 1.598345000000000027e+03
7.499999999999999722e-02 7.675374999999999837e-01 3.269360000000000355e+01 1.248795000000000073e+02 1.598880000000000109e+03
7.599999999999999811e-02 7.681089999999999307e-01 3.287260000000000559e+01 1.268935000000000031e+02 1.599400000000000091e+03
7.699999999999999900e-02 7.686454999999999815e-01 3.298264999999999958e+01 1.287900000000000205e+02 1.599889999999999873e+03
7.799999999999999989e-02 7.691384999999999472e-01 3.301554999999999751e+01 1.305400000000000205e+02 1.600349999999999909e+03
7.900000000000000078e-02 7.695825000000000582e-01 3.296394999999999698e+01 1.321195000000000164e+02 1.600765000000000100e+03
8.000000000000000167e-02 7.699724999999999486e-01 3.282250000000000512e+01 1.335074999999999932e+02 1.601139999999999873e+03
8.100000000000000255e-02 7.703035000000000299e-01 3.258785000000000309e+01 1.346879999999999882e+02 1.601465000000000146e+03
8.200000000000000344e-02 7.705744999999999401e-01 3.225894999999999868e+01 1.356514999999999986e+02 1.601740000000000009e+03
8.300000000000000433e-02 7.707850000000000534e-01 3.183715000000000117e+01 1.363935000000000173e+02 1.601965000000000146e+03
8.400000000000000522e-02 7.709360000000000657e-01 3.132605000000000217e+01 1.369164999999999850e+02 1.602134999999999991e+03
8.500000000000000611e-02 7.710299999999999931e-01 3.073174999999999812e+01 1.372289999999999850e+02 1.602255000000000109e+03
8.600000000000000699e-02 7.710700000000000331e-01 3.006210000000000093e+01 1.373429999999999893e+02 1.602324999999999818e+03
8.700000000000000788e-02 7.710635000000000128e-01 2.932719999999999771e+01 1.372769999999999868e+02 1.602349999999999909e+03
8.800000000000000877e-02 7.710139999999999771e-01 2.853845000000000098e+01 1.370529999999999973e+02 1.602329999999999927e+03
8.899999999999999578e-02 7.709300000000000042e-01 2.770834999999999937e+01 1.366949999999999932e+02 1.602280000000000200e+03
8.999999999999999667e-02 7.708180000000000032e-01 2.685024999999999906e+01 1.362299999999999898e+02 1.602195000000000164e+03
9.099999999999999756e-02 7.706855000000000233e-01 2.597765000000000057e+01 1.356845000000000141e+02 1.602085000000000036e+03
9.199999999999999845e-02 7.705400000000000027e-01 2.510379999999999967e+01 1.350875000000000057e+02 1.601960000000000036e+03
9.299999999999999933e-02 7.703884999999999206e-01 2.424105000000000132e+01 1.344635000000000105e+02 1.601819999999999936e+03
9.400000000000000022e-02 7.702364999999999906e-01 2.340050000000000097e+01 1.338385000000000105e+02 1.601679999999999836e+03
9.500000000000000111e-02 7.700905000000000111e-01 2.259149999999999991e+01 1.332319999999999993e+02 1.601539999999999964e+03
9.600000000000000200e-02 7.699540000000000273e-01 2.182135000000000247e+01 1.326614999999999895e+02 1.601405000000000200e+03
9.700000000000000289e-02 7.698300000000000143e-01 2.109485000000000099e+01 1.321415000000000077e+02 1.601275000000000091e+03
9.800000000000000377e-02 7.697205000000000297e-01 2.041440000000000055e+01 1.316784999999999854e+02 1.601155000000000200e+03
9.900000000000000466e-02 7.696254999999999624e-01 1.978010000000000090e+01 1.312764999999999986e+02 1.601050000000000182e+03
1.000000000000000056e-01 7.695450000000000346e-01 1.918934999999999746e+01 1.309350000000000023e+02 1.600954999999999927e+03
1.010000000000000064e-01 7.694760000000000488e-01 1.863785000000000025e+01 1.306490000000000009e+02 1.600875000000000000e+03
1.020000000000000073e-01 7.694170000000000176e-01 1.811929999999999907e+01 1.304089999999999918e+02 1.600805000000000064e+03
1.030000000000000082e-01 7.693645000000000067e-01 1.762610000000000099e+01 1.302040000000000077e+02 1.600740000000000009e+03
1.040000000000000091e-01 7.693145000000000122e-01 1.714969999999999928e+01 1.300194999999999936e+02 1.600684999999999945e+03
1.050000000000000100e-01 7.692624999999999602e-01 1.668120000000000047e+01 1.298410000000000082e+02 1.600630000000000109e+03
1.059999999999999970e-01 7.692054999999999865e-01 1.621155000000000257e+01 1.296535000000000082e+02 1.600575000000000045e+03
1.069999999999999979e-01 7.691390000000000171e-01 1.573215000000000074e+01 1.294414999999999907e+02 1.600519999999999982e+03
1.079999999999999988e-01 7.690600000000000769e-01 1.523525000000000063e+01 1.291920000000000073e+02 1.600460000000000036e+03
1.089999999999999997e-01 7.689660000000000384e-01 1.471440000000000126e+01 1.288940000000000055e+02 1.600384999999999991e+03
1.100000000000000006e-01 7.688550000000000662e-01 1.416460000000000008e+01 1.285395000000000039e+02 1.600299999999999955e+03
1.110000000000000014e-01 7.687260000000000204e-01 1.358275000000000077e+01 1.281214999999999975e+02 1.600204999999999927e+03
1.120000000000000023e-01 7.685794999999999710e-01 1.296742499999999865e+01 1.276394999999999982e+02 1.600095000000000027e+03
1.130000000000000032e-01 7.684159999999999879e-01 1.231958500000000001e+01 1.270949999999999989e+02 1.599970000000000027e+03
1.140000000000000041e-01 7.682379999999999765e-01 1.164187000000000083e+01 1.264925000000000068e+02 1.599829999999999927e+03
1.150000000000000050e-01 7.680480000000000640e-01 1.093896499999999961e+01 1.258419999999999845e+02 1.599679999999999836e+03
1.160000000000000059e-01 7.678499999999999215e-01 1.021721499999999949e+01 1.251544999999999987e+02 1.599519999999999982e+03
1.170000000000000068e-01 7.676479999999999970e-01 9.484320000000000306e+00 1.244439999999999884e+02 1.599355000000000018e+03
1.180000000000000077e-01 7.674464999999999204e-01 8.748960000000000292e+00 1.237270000000000039e+02 1.599184999999999945e+03
1.190000000000000085e-01 7.672510000000000163e-01 8.020634999999998627e+00 1.230204999999999984e+02 1.599014999999999873e+03
1.200000000000000094e-01 7.670654999999999557e-01 7.308880000000000265e+00 1.223420000000000130e+02 1.598849999999999909e+03
1.209999999999999964e-01 7.668949999999999934e-01 6.623210000000000264e+00 1.217085000000000008e+02 1.598695000000000164e+03
1.219999999999999973e-01 7.667424999999999935e-01 5.972409999999999997e+00 1.211349999999999909e+02 1.598554999999999836e+03
1.229999999999999982e-01 7.666135000000000588e-01 5.364304999999999879e+00 1.206355000000000075e+02 1.598424999999999955e+03
1.239999999999999991e-01 7.665089999999999959e-01 4.805400000000000560e+00 1.202210000000000036e+02 1.598315000000000055e+03
1.250000000000000000e-01 7.664309999999999734e-01 4.300605000000000011e+00 1.198985000000000127e+02 1.598224999999999909e+03
1.260000000000000009e-01 7.663805000000000200e-01 3.853089999999999904e+00 1.196734999999999900e+02 1.598154999999999973e+03
1.270000000000000018e-01 7.663564999999999960e-01 3.464195000000000135e+00 1.195455000000000041e+02 1.598115000000000009e+03
1.280000000000000027e-01 7.663584999999999425e-01 3.133440000000000225e+00 1.195130000000000052e+02 1.598085000000000036e+03
1.290000000000000036e-01 7.663839999999999542e-01 2.858614999999999906e+00 1.195685000000000002e+02 1.598085000000000036e+03
1.300000000000000044e-01 7.664310000000000844e-01 2.635995000000000310e+00 1.197044999999999959e+02 1.598099999999999909e+03
1.310000000000000053e-01 7.664949999999999264e-01 2.460519999999999818e+00 1.199089999999999918e+02 1.598134999999999991e+03
1.320000000000000062e-01 7.665724999999999900e-01 2.326139999999999652e+00 1.201680000000000064e+02 1.598184999999999945e+03
1.330000000000000071e-01 7.666600000000000081e-01 2.226065000000000182e+00 1.204679999999999893e+02 1.598244999999999891e+03
1.340000000000000080e-01 7.667530000000000179e-01 2.153100000000000236e+00 1.207944999999999993e+02 1.598315000000000055e+03
1.350000000000000089e-01 7.668470000000000564e-01 2.099944999999999951e+00 1.211315000000000026e+02 1.598384999999999991e+03
1.360000000000000098e-01 7.669384999999999675e-01 2.059465000000000323e+00 1.214654999999999916e+02 1.598460000000000036e+03
1.370000000000000107e-01 7.670250000000000679e-01 2.024904999999999955e+00 1.217835000000000036e+02 1.598529999999999973e+03
1.380000000000000115e-01 7.671025000000000205e-01 1.990105000000000013e+00 1.220745000000000005e+02 1.598595000000000027e+03
1.390000000000000124e-01 7.671695000000000597e-01 1.949669999999999792e+00 1.223284999999999911e+02 1.598659999999999854e+03
1.400000000000000133e-01 7.672235000000000582e-01 1.899024999999999963e+00 1.225374999999999943e+02 1.598710000000000036e+03
1.410000000000000142e-01 7.672634999999999872e-01 1.834544999999999870e+00 1.226959999999999980e+02 1.598755000000000109e+03
1.420000000000000151e-01 7.672885000000000399e-01 1.753525000000000000e+00 1.228010000000000019e+02 1.598784999999999854e+03
1.430000000000000160e-01 7.672980000000000356e-01 1.654214999999999991e+00 1.228499999999999943e+02 1.598799999999999955e+03
1.440000000000000169e-01 7.672930000000000028e-01 1.535789999999999988e+00 1.228435000000000059e+02 1.598809999999999945e+03
1.450000000000000178e-01 7.672740000000000116e-01 1.398264999999999869e+00 1.227824999999999989e+02 1.598800000000000182e+03
1.459999999999999909e-01 7.672410000000000618e-01 1.242449499999999984e+00 1.226709999999999923e+02 1.598779999999999973e+03
1.469999999999999918e-01 7.671965000000000590e-01 1.069847999999999910e+00 1.225130000000000052e+02 1.598750000000000000e+03
1.479999999999999927e-01 7.671410000000000728e-01 8.825450000000000239e-01 1.223130000000000024e+02 1.598710000000000036e+03
1.489999999999999936e-01 7.670770000000000088e-01 6.830974999999999131e-01 1.220775000000000006e+02 1.598660000000000082e+03
1.499999999999999944e-01 7.670049999999999368e-01 4.744109999999999716e-01 1.218114999999999952e+02 1.598599999999999909e+03
1.509999999999999953e-01 7.669269999999999143e-01 2.596025000000000138e-01 1.215215000000000032e+02 1.598534999999999854e+03
1.519999999999999962e-01 7.668449999999999989e-01 4.187000000000001831e-02 1.212134999999999962e+02 1.598465000000000146e+03
1.529999999999999971e-01 7.667604999999999560e-01 -1.756300000000000083e-01 1.208930000000000007e+02 1.598394999999999982e+03
1.539999999999999980e-01 7.666745000000000365e-01 -3.899139999999999828e-01 1.205660000000000025e+02 1.598320000000000164e+03
1.549999999999999989e-01 7.665880000000000472e-01 -5.982635000000000591e-01 1.202359999999999900e+02 1.598240000000000009e+03
1.559999999999999998e-01 7.665025000000000865e-01 -7.983447000000000182e-01 1.199070000000000107e+02 1.598164999999999964e+03
1.570000000000000007e-01 7.664180000000000437e-01 -9.882509999999999906e-01 1.195815000000000055e+02 1.598085000000000036e+03
1.580000000000000016e-01 7.663349999999999884e-01 -1.166546000000000083e+00 1.192614999999999981e+02 1.598005000000000109e+03
1.590000000000000024e-01 7.662535000000000318e-01 -1.332299499999999970e+00 1.189480000000000075e+02 1.597930000000000064e+03
