# t [s], A [cm^2], U [cm/s], P [cPa], c [cm/s]
1.000000000000000021e-03 1.342669999999999975e-01 3.976800000000000335e-01 1.045799999999999983e+02 1.884275000000000091e+03
2.000000000000000042e-03 1.342329999999999912e-01 2.147329000000000043e+00 1.011076500000000067e+02 1.883889999999999873e+03
3.000000000000000062e-03 1.341259999999999952e-01 4.262606000000000783e+00 9.651534999999999798e+01 1.882740000000000009e+03
4.000000000000000083e-03 1.339734999999999954e-01 6.601335500000000245e+00 9.155095000000000027e+01 1.881125000000000000e+03
5.000000000000000104e-03 1.338035000000000196e-01 9.092285000000000394e+00 8.706425000000000125e+01 1.879340000000000146e+03
6.000000000000000125e-03 1.336360000000000048e-01 1.157855499999999971e+01 8.337515000000000498e+01 1.877590000000000146e+03
7.000000000000000146e-03 1.334764999999999979e-01 1.386011500000000041e+01 8.030594999999999573e+01 1.875954999999999927e+03
8.000000000000000167e-03 1.333284999999999887e-01 1.582789999999999964e+01 7.759364999999999668e+01 1.874460000000000036e+03
9.000000000000001055e-03 1.331944999999999935e-01 1.749640000000000128e+01 7.520380000000000109e+01 1.873130000000000109e+03
1.000000000000000194e-02 1.330784999999999885e-01 1.890615000000000023e+01 7.320494999999999663e+01 1.871990000000000009e+03
1.099999999999999936e-02 1.329799999999999871e-01 2.007580000000000098e+01 7.159489999999999554e+01 1.871034999999999854e+03
1.200000000000000025e-02 1.328995000000000037e-01 2.102060000000000173e+01 7.032380000000000564e+01 1.870259999999999991e+03
1.300000000000000114e-02 1.328340000000000076e-01 2.175580000000000069e+01 6.933350000000000080e+01 1.869634999999999991e+03
1.400000000000000203e-02 1.327814999999999968e-01 2.229050000000000153e+01 6.854470000000000596e+01 1.869150000000000091e+03
1.499999999999999944e-02 1.327385000000000093e-01 2.264605000000000246e+01 6.788710000000000377e+01 1.868755000000000109e+03
1.600000000000000033e-02 1.327045000000000030e-01 2.288729999999999976e+01 6.738880000000000337e+01 1.868454999999999927e+03
1.700000000000000122e-02 1.326819999999999944e-01 2.312474999999999881e+01 6.722514999999999930e+01 1.868259999999999991e+03
1.800000000000000211e-02 1.326765000000000028e-01 2.347505000000000308e+01 6.764974999999999739e+01 1.868224999999999909e+03
1.900000000000000300e-02 1.326935000000000198e-01 2.400594999999999857e+01 6.884489999999999554e+01 1.868404999999999973e+03
2.000000000000000042e-02 1.327335000000000043e-01 2.470190000000000197e+01 7.079214999999999236e+01 1.868799999999999955e+03
2.100000000000000130e-02 1.327935000000000088e-01 2.546719999999999828e+01 7.323754999999999882e+01 1.869394999999999982e+03
2.200000000000000219e-02 1.328650000000000109e-01 2.616165000000000163e+01 7.576249999999998863e+01 1.870105000000000018e+03
2.299999999999999961e-02 1.329365000000000130e-01 2.664949999999999974e+01 7.791750000000000398e+01 1.870820000000000164e+03
2.400000000000000050e-02 1.329980000000000051e-01 2.684094999999999942e+01 7.935869999999999891e+01 1.871445000000000164e+03
2.500000000000000139e-02 1.330410000000000204e-01 2.671484999999999843e+01 7.993919999999999959e+01 1.871889999999999873e+03
2.600000000000000228e-02 1.330629999999999868e-01 2.631629999999999825e+01 7.972905000000000086e+01 1.872134999999999991e+03
2.700000000000000316e-02 1.330660000000000176e-01 2.573409999999999798e+01 7.896479999999999677e+01 1.872190000000000055e+03
2.800000000000000058e-02 1.330560000000000076e-01 2.506810000000000116e+01 7.795519999999999072e+01 1.872110000000000127e+03
2.900000000000000147e-02 1.330395000000000050e-01 2.439880000000000138e+01 7.697925000000000750e+01 1.871960000000000036e+03
3.000000000000000236e-02 1.330215000000000147e-01 2.376899999999999835e+01 7.621165000000000589e+01 1.871785000000000082e+03
3.099999999999999978e-02 1.330064999999999997e-01 2.318015000000000114e+01 7.569370000000000687e+01 1.871639999999999873e+03
3.200000000000000067e-02 1.329945000000000155e-01 2.260334999999999894e+01 7.535099999999999909e+01 1.871519999999999982e+03
3.300000000000000155e-02 1.329834999999999767e-01 2.199664999999999893e+01 7.504320000000001301e+01 1.871414999999999964e+03
3.400000000000000244e-02 1.329715000000000202e-01 2.132560000000000144e+01 7.462690000000000623e+01 1.871295000000000073e+03
3.500000000000000333e-02 1.329549999999999899e-01 2.057849999999999824e+01 7.401160000000000139e+01 1.871139999999999873e+03
3.600000000000000422e-02 1.329334999999999822e-01 1.977475000000000094e+01 7.319509999999999650e+01 1.870940000000000055e+03
3.700000000000000511e-02 1.329075000000000117e-01 1.896309999999999718e+01 7.227044999999999675e+01 1.870684999999999945e+03
3.799999999999999906e-02 1.328805000000000125e-01 1.821164999999999878e+01 7.140380000000000393e+01 1.870424999999999955e+03
3.899999999999999994e-02 1.328570000000000029e-01 1.759205000000000041e+01 7.079170000000000584e+01 1.870194999999999936e+03
4.000000000000000083e-02 1.328415000000000012e-01 1.716225000000000023e+01 7.060925000000000296e+01 1.870034999999999854e+03
4.100000000000000172e-02 1.328389999999999849e-01 1.695270000000000010e+01 7.096359999999999957e+01 1.870000000000000000e+03
4.200000000000000261e-02 1.328515000000000112e-01 1.695884999999999820e+01 7.186589999999999634e+01 1.870105000000000018e+03
4.300000000000000350e-02 1.328779999999999961e-01 1.714179999999999993e+01 7.322530000000000427e+01 1.870355000000000018e+03
4.400000000000000439e-02 1.329175000000000217e-01 1.743500000000000227e+01 7.486529999999999063e+01 1.870724999999999909e+03
4.499999999999999833e-02 1.329629999999999979e-01 1.775594999999999857e+01 7.655660000000000309e+01 1.871170000000000073e+03
4.599999999999999922e-02 1.330105000000000037e-01 1.801890000000000214e+01 7.805629999999999313e+01 1.871630000000000109e+03
4.700000000000000011e-02 1.330525000000000180e-01 1.814710000000000178e+01 7.914579999999999416e+01 1.872045000000000073e+03
4.800000000000000100e-02 1.330830000000000068e-01 1.808129999999999882e+01 7.966015000000000157e+01 1.872344999999999800e+03
4.900000000000000189e-02 1.330979999999999941e-01 1.778464999999999918e+01 7.950415000000000987e+01 1.872505000000000109e+03
5.000000000000000278e-02 1.330939999999999901e-01 1.724360000000000070e+01 7.865579999999999927e+01 1.872470000000000027e+03
5.100000000000000366e-02 1.330700000000000216e-01 1.646555000000000035e+01 7.715825000000000955e+01 1.872250000000000000e+03
5.200000000000000455e-02 1.330274999999999930e-01 1.547449999999999903e+01 7.510365000000000180e+01 1.871840000000000146e+03
5.300000000000000544e-02 1.329675000000000162e-01 1.430535000000000068e+01 7.261379999999999768e+01 1.871255000000000109e+03
5.399999999999999939e-02 1.328934999999999977e-01 1.299956999999999852e+01 6.982280000000000086e+01 1.870534999999999854e+03
5.500000000000000028e-02 1.328090000000000104e-01 1.160094499999999940e+01 6.686214999999999975e+01 1.869710000000000036e+03
5.600000000000000117e-02 1.327170000000000016e-01 1.015338999999999992e+01 6.385240000000000293e+01 1.868809999999999945e+03
5.700000000000000205e-02 1.326220000000000176e-01 8.699764999999999304e+00 6.089974999999999739e+01 1.867880000000000109e+03
5.800000000000000294e-02 1.325264999999999915e-01 7.281604999999999883e+00 5.809685000000000343e+01 1.866945000000000164e+03
5.900000000000000383e-02 1.324345000000000105e-01 5.939535000000000231e+00 5.552564999999999884e+01 1.866039999999999964e+03
6.000000000000000472e-02 1.323485000000000078e-01 4.713414999999999466e+00 5.326125000000000398e+01 1.865184999999999945e+03
6.099999999999999867e-02 1.322705000000000131e-01 3.642217999999999734e+00 5.137465000000000259e+01 1.864420000000000073e+03
6.199999999999999956e-02 1.322039999999999882e-01 2.763400999999999996e+00 4.993330000000000268e+01 1.863755000000000109e+03
6.300000000000000044e-02 1.321515000000000051e-01 2.111635999999999846e+00 4.900029999999999575e+01 1.863224999999999909e+03
6.400000000000000133e-02 1.321140000000000092e-01 1.717192999999999969e+00 4.863114999999999810e+01 1.862849999999999909e+03
6.500000000000000222e-02 1.320955000000000046e-01 1.604144999999999932e+00 4.886974999999999625e+01 1.862639999999999873e+03
6.600000000000000311e-02 1.320955000000000046e-01 1.788689999999999891e+00 4.974430000000000263e+01 1.862625000000000000e+03
6.700000000000000400e-02 1.321154999999999968e-01 2.277845000000000120e+00 5.126354999999999507e+01 1.862804999999999836e+03
6.800000000000000488e-02 1.321574999999999833e-01 3.068789999999999907e+00 5.341490000000000293e+01 1.863194999999999936e+03
6.900000000000000577e-02 1.322194999999999898e-01 4.148830000000000240e+00 5.616370000000000573e+01 1.863785000000000082e+03
7.000000000000000666e-02 1.323010000000000019e-01 5.496105000000000018e+00 5.945524999999999949e+01 1.864565000000000055e+03
7.100000000000000755e-02 1.324015000000000053e-01 7.080775000000000041e+00 6.321755000000000280e+01 1.865534999999999854e+03
7.200000000000000844e-02 1.325175000000000103e-01 8.866785000000000139e+00 6.736594999999999800e+01 1.866659999999999854e+03
7.300000000000000933e-02 1.326479999999999881e-01 1.081363499999999966e+01 7.180809999999999604e+01 1.867924999999999955e+03
7.399999999999999634e-02 1.327889999999999904e-01 1.287847000000000008e+01 7.644874999999998977e+01 1.869309999999999945e+03
7.499999999999999722e-02 1.329385000000000150e-01 1.501790000000000092e+01 8.119490000000000407e+01 1.870775000000000091e+03
7.599999999999999811e-02 1.330934999999999757e-01 1.718975000000000009e+01 8.595985000000000298e+01 1.872299999999999955e+03
7.699999999999999900e-02 1.332504999999999939e-01 1.935470000000000113e+01 9.066660000000000252e+01 1.873855000000000018e+03
7.799999999999999989e-02 1.334079999999999988e-01 2.147785000000000011e+01 9.525069999999999482e+01 1.875414999999999964e+03
7.900000000000000078e-02 1.335625000000000007e-01 2.352924999999999756e+01 9.966179999999999950e+01 1.876954999999999927e+03
8.000000000000000167e-02 1.337134999999999851e-01 2.548550000000000182e+01 1.038656500000000023e+02 1.878465000000000146e+03
8.100000000000000255e-02 1.338595000000000201e-01 2.732965000000000089e+01 1.078439999999999941e+02 1.879924999999999955e+03
8.200000000000000344e-02 1.339994999999999936e-01 2.905140000000000100e+01 1.115925000000000011e+02 1.881340000000000146e+03
8.300000000000000433e-02 1.341335000000000166e-01 3.064714999999999989e+01 1.151225000000000023e+02 1.882684999999999945e+03
8.400000000000000522e-02 1.342605000000000048e-01 3.211905000000000143e+01 1.184559999999999889e+02 1.883969999999999800e+03
8.500000000000000611e-02 1.343820000000000014e-01 3.347419999999999618e+01 1.216235000000000070e+02 1.885200000000000045e+03
8.600000000000000699e-02 1.344984999999999931e-01 3.472350000000000136e+01 1.246640000000000015e+02 1.886384999999999991e+03
8.700000000000000788e-02 1.346104999999999940e-01 3.588034999999999997e+01 1.276134999999999877e+02 1.887525000000000091e+03
8.800000000000000877e-02 1.347200000000000064e-01 3.695900000000000318e+01 1.305120000000000005e+02 1.888639999999999873e+03
8.899999999999999578e-02 1.348274999999999890e-01 3.797360000000000468e+01 1.333919999999999959e+02 1.889735000000000127e+03
8.999999999999999667e-02 1.349339999999999984e-01 3.893670000000000186e+01 1.362789999999999964e+02 1.890819999999999936e+03
9.099999999999999756e-02 1.350395000000000068e-01 3.985860000000000269e+01 1.391920000000000073e+02 1.891900000000000091e+03
9.199999999999999845e-02 1.351459999999999884e-01 4.074634999999999962e+01 1.421370000000000005e+02 1.892985000000000127e+03
9.299999999999999933e-02 1.352524999999999977e-01 4.160360000000000014e+01 1.451134999999999877e+02 1.894070000000000164e+03
9.400000000000000022e-02 1.353604999999999947e-01 4.243035000000000423e+01 1.481075000000000159e+02 1.895170000000000073e+03
9.500000000000000111e-02 1.354674999999999907e-01 4.322315000000000396e+01 1.510994999999999777e+02 1.896259999999999991e+03
9.600000000000000200e-02 1.355750000000000011e-01 4.397525000000000261e+01 1.540610000000000070e+02 1.897355000000000018e+03
9.700000000000000289e-02 1.356800000000000228e-01 4.467764999999999986e+01 1.569590000000000032e+02 1.898440000000000055e+03
9.800000000000000377e-02 1.357840000000000158e-01 4.531920000000000215e+01 1.597574999999999932e+02 1.899500000000000000e+03
9.900000000000000466e-02 1.358844999999999914e-01 4.588765000000000072e+01 1.624189999999999827e+02 1.900529999999999973e+03
1.000000000000000056e-01 1.359805000000000041e-01 4.637049999999999983e+01 1.649070000000000107e+02 1.901510000000000218e+03
1.010000000000000064e-01 1.360705000000000109e-01 4.675540000000000163e+01 1.671870000000000118e+02 1.902440000000000055e+03
1.020000000000000073e-01 1.361539999999999973e-01 4.703099999999999881e+01 1.692299999999999898e+02 1.903300000000000182e+03
1.030000000000000082e-01 1.362304999999999766e-01 4.718775000000000119e+01 1.710099999999999909e+02 1.904085000000000036e+03
1.040000000000000091e-01 1.362980000000000025e-01 4.721784999999999854e+01 1.725090000000000146e+02 1.904784999999999854e+03
1.050000000000000100e-01 1.363564999999999916e-01 4.711639999999999873e+01 1.737144999999999868e+02 1.905394999999999982e+03
1.059999999999999970e-01 1.364049999999999985e-01 4.688100000000000023e+01 1.746220000000000141e+02 1.905909999999999854e+03
1.069999999999999979e-01 1.364440000000000097e-01 4.651230000000000331e+01 1.752334999999999923e+02 1.906315000000000055e+03
1.079999999999999988e-01 1.364734999999999976e-01 4.601390000000000668e+01 1.755564999999999998e+02 1.906630000000000109e+03
1.089999999999999997e-01 1.364930000000000032e-01 4.539249999999999829e+01 1.756084999999999923e+02 1.906839999999999918e+03
1.100000000000000006e-01 1.365034999999999998e-01 4.465720000000000312e+01 1.754085000000000036e+02 1.906960000000000036e+03
1.110000000000000014e-01 1.365049999999999875e-01 4.381980000000000075e+01 1.749830000000000041e+02 1.906990000000000009e+03
1.120000000000000023e-01 1.364984999999999948e-01 4.289395000000000380e+01 1.743625000000000114e+02 1.906934999999999945e+03
1.130000000000000032e-01 1.364854999999999818e-01 4.189489999999999981e+01 1.735780000000000030e+02 1.906805000000000064e+03
1.140000000000000041e-01 1.364659999999999762e-01 4.083884999999999366e+01 1.726645000000000039e+02 1.906615000000000009e+03
1.150000000000000050e-01 1.364420000000000077e-01 3.974240000000000350e+01 1.716555000000000177e+02 1.906380000000000109e+03
1.160000000000000059e-01 1.364135000000000209e-01 3.862205000000000155e+01 1.705835000000000150e+02 1.906095000000000027e+03
1.170000000000000068e-01 1.363820000000000032e-01 3.749339999999999407e+01 1.694799999999999898e+02 1.905779999999999973e+03
1.180000000000000077e-01 1.363495000000000124e-01 3.637109999999999843e+01 1.683725000000000023e+02 1.905445000000000164e+03
1.190000000000000085e-01 1.363154999999999784e-01 3.526800000000000068e+01 1.672839999999999918e+02 1.905099999999999909e+03
1.200000000000000094e-01 1.362810000000000132e-01 3.419514999999999816e+01 1.662340000000000089e+02 1.904750000000000000e+03
1.209999999999999964e-01 1.362475000000000214e-01 3.316105000000000302e+01 1.652359999999999900e+02 1.904400000000000091e+03
1.219999999999999973e-01 1.362140000000000017e-01 3.217200000000000415e+01 1.642989999999999782e+02 1.904065000000000055e+03
1.229999999999999982e-01 1.361829999999999985e-01 3.123179999999999978e+01 1.634265000000000043e+02 1.903740000000000009e+03
1.239999999999999991e-01 1.361529999999999963e-01 3.034175000000000111e+01 1.626165000000000020e+02 1.903429999999999836e+03
1.250000000000000000e-01 1.361244999999999816e-01 2.950094999999999956e+01 1.618640000000000043e+02 1.903139999999999873e+03
1.260000000000000009e-01 1.360979999999999968e-01 2.870620000000000260e+01 1.611574999999999989e+02 1.902864999999999782e+03
1.270000000000000018e-01 1.360719999999999985e-01 2.795264999999999844e+01 1.604844999999999970e+02 1.902595000000000027e+03
1.280000000000000027e-01 1.360474999999999879e-01 2.723384999999999678e+01 1.598284999999999911e+02 1.902340000000000146e+03
1.290000000000000036e-01 1.360235000000000194e-01 2.654220000000000113e+01 1.591730000000000018e+02 1.902090000000000146e+03
1.300000000000000044e-01 1.359994999999999954e-01 2.586950000000000216e+01 1.584989999999999952e+02 1.901835000000000036e+03
1.310000000000000053e-01 1.359744999999999981e-01 2.520720000000000027e+01 1.577884999999999991e+02 1.901574999999999818e+03
1.320000000000000062e-01 1.359484999999999999e-01 2.454684999999999917e+01 1.570240000000000009e+02 1.901309999999999945e+03
1.330000000000000071e-01 1.359210000000000140e-01 2.388054999999999950e+01 1.561910000000000025e+02 1.901025000000000091e+03
1.340000000000000080e-01 1.358914999999999984e-01 2.320139999999999958e+01 1.552769999999999868e+02 1.900719999999999800e+03
1.350000000000000089e-01 1.358590000000000075e-01 2.250355000000000061e+01 1.542715000000000032e+02 1.900389999999999873e+03
1.360000000000000098e-01 1.358245000000000147e-01 2.178265000000000029e+01 1.531699999999999875e+02 1.900039999999999964e+03
1.370000000000000107e-01 1.357864999999999767e-01 2.103620000000000090e+01 1.519695000000000107e+02 1.899654999999999973e+03
1.380000000000000115e-01 1.357455000000000189e-01 2.026335000000000264e+01 1.506725000000000136e+02 1.899230000000000018e+03
1.390000000000000124e-01 1.357015000000000027e-01 1.946524999999999750e+01 1.492860000000000014e+02 1.898784999999999854e+03
1.400000000000000133e-01 1.356545000000000112e-01 1.864474999999999838e+01 1.478189999999999884e+02 1.898309999999999945e+03
1.410000000000000142e-01 1.356045000000000167e-01 1.780664999999999765e+01 1.462870000000000061e+02 1.897800000000000182e+03
1.420000000000000151e-01 1.355525000000000202e-01 1.695714999999999861e+01 1.447055000000000007e+02 1.897280000000000200e+03
1.430000000000000160e-01 1.354990000000000083e-01 1.610395000000000110e+01 1.430955000000000155e+02 1.896730000000000018e+03
1.440000000000000169e-01 1.354440000000000088e-01 1.525560000000000116e+01 1.414770000000000039e+02 1.896179999999999836e+03
1.450000000000000178e-01 1.353889999999999816e-01 1.442139999999999844e+01 1.398729999999999905e+02 1.895619999999999891e+03
1.459999999999999909e-01 1.353334999999999955e-01 1.361094999999999899e+01 1.383060000000000116e+02 1.895059999999999945e+03
1.469999999999999918e-01 1.352800000000000114e-01 1.283365000000000045e+01 1.367965000000000089e+02 1.894509999999999991e+03
1.479999999999999927e-01 1.352275000000000005e-01 1.209856500000000068e+01 1.353650000000000091e+02 1.893974999999999909e+03
1.489999999999999936e-01 1.351769999999999916e-01 1.141388500000000050e+01 1.340289999999999964e+02 1.893460000000000036e+03
1.499999999999999944e-01 1.351295000000000135e-01 1.078673999999999999e+01 1.328034999999999854e+02 1.892980000000000018e+03
1.509999999999999953e-01 1.350854999999999972e-01 1.022280500000000103e+01 1.316984999999999957e+02 1.892529999999999973e+03
1.519999999999999962e-01 1.350450000000000261e-01 9.726285000000000736e+00 1.307230000000000132e+02 1.892115000000000009e+03
1.529999999999999971e-01 1.350085000000000035e-01 9.299770000000000536e+00 1.298795000000000073e+02 1.891740000000000009e+03
1.539999999999999980e-01 1.349764999999999993e-01 8.944005000000000649e+00 1.291700000000000159e+02 1.891410000000000082e+03
1.549999999999999989e-01 1.349485000000000268e-01 8.658245000000000857e+00 1.285889999999999986e+02 1.891119999999999891e+03
1.559999999999999998e-01 1.349250000000000171e-01 8.440155000000000740e+00 1.281315000000000168e+02 1.890875000000000000e+03
1.570000000000000007e-01 1.349055000000000115e-01 8.285904999999999632e+00 1.277874999999999943e+02 1.890670000000000073e+03
1.580000000000000016e-01 1.348894999999999955e-01 8.190535000000000565e+00 1.275455000000000041e+02 1.890505000000000109e+03
1.590000000000000024e-01 1.348769999999999969e-01 8.148060000000000969e+00 1.273915000000000077e+02 1.890375000000000000e+03
