# t [s], A [cm^2], U [cm/s], P [cPa], c [cm/s]
1.000000000000000021e-03 5.793420000000000236e-01 2.191300000000000192e-03 9.191429999999999723e+01 1.385565000000000055e+03
2.000000000000000042e-03 5.793344999999999745e-01 -8.290500000000030484e-05 9.190024999999999977e+01 1.385559999999999945e+03
3.000000000000000062e-03 5.793679999999999941e-01 5.426765000000000061e-02 9.194490000000000407e+01 1.385575000000000045e+03
4.000000000000000083e-03 5.794205000000000050e-01 1.386142499999999944e-01 9.203820000000000334e+01 1.385605000000000018e+03
5.000000000000000104e-03 5.794304999999999595e-01 1.581564500000000040e-01 9.206395000000000550e+01 1.385615000000000009e+03
6.000000000000000125e-03 5.793975000000000097e-01 1.075170000000000015e-01 9.198409999999999798e+01 1.385595000000000027e+03
7.000000000000000146e-03 5.793544999999999945e-01 3.759550000000000392e-02 9.183644999999999925e+01 1.385565000000000055e+03
8.000000000000000167e-03 5.793089999999999629e-01 -4.074400000000000244e-02 9.163814999999999600e+01 1.385514999999999873e+03
9.000000000000001055e-03 5.792349999999999444e-01 -1.723840000000000372e-01 9.134440000000000737e+01 1.385445000000000164e+03
1.000000000000000194e-02 5.791155000000000053e-01 -3.860250000000000625e-01 9.090879999999999939e+01 1.385340000000000146e+03
1.099999999999999936e-02 5.789455000000000018e-01 -6.855950000000000655e-01 9.030365000000000464e+01 1.385184999999999945e+03
1.200000000000000025e-02 5.787170000000000369e-01 -1.077319999999999833e+00 8.949954999999999927e+01 1.384980000000000018e+03
1.300000000000000114e-02 5.784209999999999630e-01 -1.564644999999999841e+00 8.846875000000000000e+01 1.384704999999999927e+03
1.400000000000000203e-02 5.780644999999999811e-01 -2.123369999999999980e+00 8.721375000000000455e+01 1.384369999999999891e+03
1.499999999999999944e-02 5.776719999999999633e-01 -2.692210000000000214e+00 8.578589999999999804e+01 1.383970000000000027e+03
1.600000000000000033e-02 5.772804999999999742e-01 -3.189445000000000086e+00 8.427620000000000289e+01 1.383539999999999964e+03
1.700000000000000122e-02 5.769230000000000746e-01 -3.540890000000000093e+00 8.278620000000000800e+01 1.383099999999999909e+03
1.800000000000000211e-02 5.766164999999999763e-01 -3.701475999999999988e+00 8.139740000000000464e+01 1.382670000000000073e+03
1.900000000000000300e-02 5.763614999999999711e-01 -3.662590999999999930e+00 8.015340000000000487e+01 1.382259999999999991e+03
2.000000000000000042e-02 5.761445000000000594e-01 -3.447218000000000337e+00 7.905604999999999905e+01 1.381880000000000109e+03
2.100000000000000130e-02 5.759434999999999416e-01 -3.098028000000000226e+00 7.807349999999999568e+01 1.381529999999999973e+03
2.200000000000000219e-02 5.757385000000000419e-01 -2.663432000000000244e+00 7.715489999999999782e+01 1.381184999999999945e+03
2.299999999999999961e-02 5.755120000000000235e-01 -2.185074999999999878e+00 7.624649999999999750e+01 1.380849999999999909e+03
2.400000000000000050e-02 5.752574999999999772e-01 -1.689595000000000180e+00 7.530639999999999645e+01 1.380505000000000109e+03
2.500000000000000139e-02 5.749744999999999440e-01 -1.186260000000000092e+00 7.431270000000000664e+01 1.380144999999999982e+03
2.600000000000000228e-02 5.746715000000000018e-01 -6.705149999999999721e-01 7.326425000000000409e+01 1.379775000000000091e+03
2.700000000000000316e-02 5.743564999999999365e-01 -1.316350000000001685e-01 7.217515000000000214e+01 1.379390000000000100e+03
2.800000000000000058e-02 5.740399999999999947e-01 4.386550000000002392e-01 7.106470000000000198e+01 1.379005000000000109e+03
2.900000000000000147e-02 5.737235000000000529e-01 1.039244999999999974e+00 6.994759999999999422e+01 1.378610000000000127e+03
3.000000000000000236e-02 5.734059999999999713e-01 1.656284999999999785e+00 6.882649999999999579e+01 1.378214999999999918e+03
3.099999999999999978e-02 5.730785000000000462e-01 2.263600000000000279e+00 6.768914999999999793e+01 1.377815000000000055e+03
3.200000000000000067e-02 5.727299999999999613e-01 2.826310000000000322e+00 6.650934999999999775e+01 1.377405000000000200e+03
3.300000000000000155e-02 5.723469999999999391e-01 3.306515000000000093e+00 6.525190000000000623e+01 1.376974999999999909e+03
3.400000000000000244e-02 5.719189999999999552e-01 3.669785000000000075e+00 6.388040000000000163e+01 1.376509999999999991e+03
3.500000000000000333e-02 5.714390000000000303e-01 3.891295000000000393e+00 6.236480000000000246e+01 1.376009999999999991e+03
3.600000000000000422e-02 5.709060000000000246e-01 3.960085000000000299e+00 6.068954999999999700e+01 1.375474999999999909e+03
3.700000000000000511e-02 5.703264999999999585e-01 3.881270000000000220e+00 5.885849999999999937e+01 1.374900000000000091e+03
3.799999999999999906e-02 5.697130000000000249e-01 3.675254999999999939e+00 5.689679999999999893e+01 1.374289999999999964e+03
3.899999999999999994e-02 5.690834999999999644e-01 3.374814999999999898e+00 5.484955000000000069e+01 1.373650000000000091e+03
4.000000000000000083e-02 5.684584999999999777e-01 3.020189999999999930e+00 5.277700000000000102e+01 1.373000000000000000e+03
4.100000000000000172e-02 5.678594999999999615e-01 2.654314999999999536e+00 5.074854999999999450e+01 1.372355000000000018e+03
4.200000000000000261e-02 5.673055000000000181e-01 2.318159999999999776e+00 4.883539999999999992e+01 1.371744999999999891e+03
4.300000000000000350e-02 5.668144999999999989e-01 2.047374999999999723e+00 4.710495000000000232e+01 1.371174999999999955e+03
4.400000000000000439e-02 5.663989999999999858e-01 1.870260000000000034e+00 4.561554999999999893e+01 1.370664999999999964e+03
4.499999999999999833e-02 5.660695000000000032e-01 1.807444999999999968e+00 4.441369999999999862e+01 1.370240000000000009e+03
4.599999999999999922e-02 5.658309999999999729e-01 1.872389999999999999e+00 4.353270000000000550e+01 1.369900000000000091e+03
4.700000000000000011e-02 5.656870000000000509e-01 2.072750000000000092e+00 4.299320000000000164e+01 1.369660000000000082e+03
4.800000000000000100e-02 5.656390000000000029e-01 2.411999000000000226e+00 4.280464999999999520e+01 1.369519999999999982e+03
4.900000000000000189e-02 5.656844999999999235e-01 2.890979999999999883e+00 4.296734999999999616e+01 1.369494999999999891e+03
5.000000000000000278e-02 5.658225000000000060e-01 3.509024999999999839e+00 4.347494999999999976e+01 1.369569999999999936e+03
5.100000000000000366e-02 5.660499999999999421e-01 4.264574999999999783e+00 4.431600000000000250e+01 1.369755000000000109e+03
5.200000000000000455e-02 5.663639999999999786e-01 5.155219999999999914e+00 4.547590000000000288e+01 1.370035000000000082e+03
5.300000000000000544e-02 5.667590000000000128e-01 6.177305000000000490e+00 4.693724999999999881e+01 1.370414999999999964e+03
5.399999999999999939e-02 5.672310000000000407e-01 7.325334999999999930e+00 4.868000000000000682e+01 1.370889999999999873e+03
5.500000000000000028e-02 5.677740000000000009e-01 8.591255000000000308e+00 5.068169999999999931e+01 1.371445000000000164e+03
5.600000000000000117e-02 5.683804999999999552e-01 9.964169999999999305e+00 5.291680000000000206e+01 1.372089999999999918e+03
5.700000000000000205e-02 5.690429999999999655e-01 1.143006000000000100e+01 5.535694999999999766e+01 1.372795000000000073e+03
5.800000000000000294e-02 5.697524999999999951e-01 1.297205500000000100e+01 5.797095000000000198e+01 1.373565000000000055e+03
5.900000000000000383e-02 5.704985000000000195e-01 1.457107500000000044e+01 6.072514999999999930e+01 1.374394999999999982e+03
6.000000000000000472e-02 5.712714999999999321e-01 1.620672000000000068e+01 6.358480000000000132e+01 1.375260000000000218e+03
6.099999999999999867e-02 5.720615000000000006e-01 1.785804000000000258e+01 6.651470000000000482e+01 1.376164999999999964e+03
6.199999999999999956e-02 5.728600000000000358e-01 1.950465000000000160e+01 6.948085000000000377e+01 1.377085000000000036e+03
6.300000000000000044e-02 5.736575000000000424e-01 2.112774999999999892e+01 7.245154999999999745e+01 1.378019999999999982e+03
6.400000000000000133e-02 5.744474999999999998e-01 2.271059999999999945e+01 7.539869999999999095e+01 1.378954999999999927e+03
6.500000000000000222e-02 5.752249999999999863e-01 2.423920000000000030e+01 7.829855000000000587e+01 1.379894999999999982e+03
6.600000000000000311e-02 5.759845000000000104e-01 2.570254999999999868e+01 8.113259999999999650e+01 1.380815000000000055e+03
6.700000000000000400e-02 5.767235000000000555e-01 2.709280000000000044e+01 8.388745000000000118e+01 1.381724999999999909e+03
6.800000000000000488e-02 5.774414999999999409e-01 2.840500000000000114e+01 8.655529999999998836e+01 1.382610000000000127e+03
6.900000000000000577e-02 5.781380000000000408e-01 2.963684999999999903e+01 8.913310000000001310e+01 1.383474999999999909e+03
7.000000000000000666e-02 5.788134999999999808e-01 3.078839999999999932e+01 9.162239999999999895e+01 1.384315000000000055e+03
7.100000000000000755e-02 5.794694999999999707e-01 3.186164999999999736e+01 9.402764999999999418e+01 1.385134999999999991e+03
7.200000000000000844e-02 5.801095000000000557e-01 3.285994999999999777e+01 9.635750000000000171e+01 1.385934999999999945e+03
7.300000000000000933e-02 5.807345000000000423e-01 3.378775000000000261e+01 9.862170000000000414e+01 1.386715000000000146e+03
7.399999999999999634e-02 5.813490000000000046e-01 3.464985000000000070e+01 1.008297000000000025e+02 1.387474999999999909e+03
7.499999999999999722e-02 5.819544999999999302e-01 3.545149999999999579e+01 1.029931500000000000e+02 1.388224999999999909e+03
7.599999999999999811e-02 5.825529999999999875e-01 3.619750000000000512e+01 1.051217000000000041e+02 1.388960000000000036e+03
7.699999999999999900e-02 5.831474999999999298e-01 3.689220000000000255e+01 1.072229999999999990e+02 1.389684999999999945e+03
7.799999999999999989e-02 5.837379999999999791e-01 3.753910000000000480e+01 1.093034999999999997e+02 1.390405000000000200e+03
7.900000000000000078e-02 5.843249999999999833e-01 3.814069999999999538e+01 1.113679999999999950e+02 1.391119999999999891e+03
8.000000000000000167e-02 5.849090000000000122e-01 3.869835000000000491e+01 1.134149999999999920e+02 1.391829999999999927e+03
8.100000000000000255e-02 5.854885000000000783e-01 3.921209999999999951e+01 1.154440000000000026e+02 1.392530000000000200e+03
8.200000000000000344e-02 5.860615000000000130e-01 3.968104999999999905e+01 1.174489999999999981e+02 1.393224999999999909e+03
8.300000000000000433e-02 5.866264999999999397e-01 4.010300000000000153e+01 1.194235000000000042e+02 1.393904999999999973e+03
8.400000000000000522e-02 5.871785000000000476e-01 4.047494999999999976e+01 1.213565000000000111e+02 1.394574999999999818e+03
8.500000000000000611e-02 5.877164999999999750e-01 4.079335000000000377e+01 1.232369999999999948e+02 1.395230000000000018e+03
8.600000000000000699e-02 5.882344999999999935e-01 4.105414999999999992e+01 1.250519999999999925e+02 1.395864999999999782e+03
8.700000000000000788e-02 5.887310000000000043e-01 4.125325000000000131e+01 1.267884999999999991e+02 1.396480000000000018e+03
8.800000000000000877e-02 5.892005000000000159e-01 4.138665000000000305e+01 1.284325000000000045e+02 1.397059999999999945e+03
8.899999999999999578e-02 5.896409999999999707e-01 4.145080000000000098e+01 1.299725000000000250e+02 1.397615000000000009e+03
8.999999999999999667e-02 5.900495000000000045e-01 4.144275000000000375e+01 1.313960000000000150e+02 1.398134999999999991e+03
9.099999999999999756e-02 5.904225000000000723e-01 4.136045000000000016e+01 1.326949999999999932e+02 1.398615000000000009e+03
9.199999999999999845e-02 5.907590000000000341e-01 4.120270000000000010e+01 1.338614999999999782e+02 1.399050000000000182e+03
9.299999999999999933e-02 5.910579999999999723e-01 4.096940000000000026e+01 1.348894999999999982e+02 1.399444999999999936e+03
9.400000000000000022e-02 5.913180000000000103e-01 4.066150000000000375e+01 1.357769999999999868e+02 1.399795000000000073e+03
9.500000000000000111e-02 5.915394999999999959e-01 4.028119999999999834e+01 1.365224999999999795e+02 1.400094999999999800e+03
9.600000000000000200e-02 5.917235000000000689e-01 3.983164999999999623e+01 1.371295000000000073e+02 1.400355000000000018e+03
9.700000000000000289e-02 5.918704999999999661e-01 3.931719999999999970e+01 1.376014999999999873e+02 1.400565000000000055e+03
9.800000000000000377e-02 5.919829999999999259e-01 3.874280000000000257e+01 1.379449999999999932e+02 1.400734999999999900e+03
9.900000000000000466e-02 5.920630000000000059e-01 3.811469999999999914e+01 1.381684999999999945e+02 1.400865000000000009e+03
1.000000000000000056e-01 5.921130000000000004e-01 3.743959999999999866e+01 1.382820000000000107e+02 1.400954999999999927e+03
1.010000000000000064e-01 5.921370000000000244e-01 3.672469999999999857e+01 1.382975000000000136e+02 1.401005000000000109e+03
1.020000000000000073e-01 5.921370000000000244e-01 3.597765000000000413e+01 1.382259999999999991e+02 1.401025000000000091e+03
1.030000000000000082e-01 5.921170000000000044e-01 3.520624999999999716e+01 1.380805000000000007e+02 1.401019999999999982e+03
1.040000000000000091e-01 5.920809999999999684e-01 3.441839999999999833e+01 1.378745000000000118e+02 1.400990000000000009e+03
1.050000000000000100e-01 5.920315000000000438e-01 3.362160000000000082e+01 1.376200000000000045e+02 1.400940000000000055e+03
1.059999999999999970e-01 5.919719999999999427e-01 3.282314999999999827e+01 1.373305000000000007e+02 1.400875000000000000e+03
1.069999999999999979e-01 5.919054999999999733e-01 3.202955000000000041e+01 1.370160000000000196e+02 1.400795000000000073e+03
1.079999999999999988e-01 5.918345000000000411e-01 3.124669999999999703e+01 1.366879999999999882e+02 1.400704999999999927e+03
1.089999999999999997e-01 5.917620000000000102e-01 3.047959999999999781e+01 1.363555000000000064e+02 1.400610000000000127e+03
1.100000000000000006e-01 5.916894999999999794e-01 2.973209999999999908e+01 1.360250000000000057e+02 1.400509999999999991e+03
1.110000000000000014e-01 5.916175000000000184e-01 2.900714999999999932e+01 1.357030000000000030e+02 1.400409999999999854e+03
1.120000000000000023e-01 5.915470000000000450e-01 2.830619999999999692e+01 1.353924999999999841e+02 1.400315000000000055e+03
1.130000000000000032e-01 5.914794999999999359e-01 2.763009999999999877e+01 1.350949999999999989e+02 1.400220000000000027e+03
1.140000000000000041e-01 5.914139999999999953e-01 2.697814999999999941e+01 1.348120000000000118e+02 1.400119999999999891e+03
1.150000000000000050e-01 5.913500000000000423e-01 2.634895000000000209e+01 1.345409999999999968e+02 1.400029999999999973e+03
1.160000000000000059e-01 5.912870000000000070e-01 2.574014999999999986e+01 1.342789999999999964e+02 1.399940000000000055e+03
1.170000000000000068e-01 5.912235000000000129e-01 2.514869999999999806e+01 1.340219999999999914e+02 1.399845000000000027e+03
1.180000000000000077e-01 5.911580000000000723e-01 2.457099999999999795e+01 1.337649999999999864e+02 1.399759999999999991e+03
1.190000000000000085e-01 5.910889999999999755e-01 2.400305000000000177e+01 1.335010000000000048e+02 1.399664999999999964e+03
1.200000000000000094e-01 5.910149999999999570e-01 2.344085000000000107e+01 1.332255000000000109e+02 1.399574999999999818e+03
1.209999999999999964e-01 5.909345000000000292e-01 2.288015000000000043e+01 1.329310000000000116e+02 1.399470000000000027e+03
1.219999999999999973e-01 5.908455000000000235e-01 2.231709999999999994e+01 1.326129999999999995e+02 1.399365000000000009e+03
1.229999999999999982e-01 5.907470000000000221e-01 2.174820000000000064e+01 1.322649999999999864e+02 1.399250000000000000e+03
1.239999999999999991e-01 5.906390000000000251e-01 2.117014999999999958e+01 1.318820000000000050e+02 1.399125000000000000e+03
1.250000000000000000e-01 5.905190000000000161e-01 2.058054999999999879e+01 1.314625000000000057e+02 1.398990000000000009e+03
1.260000000000000009e-01 5.903880000000000239e-01 1.997745000000000104e+01 1.310020000000000095e+02 1.398839999999999918e+03
1.270000000000000018e-01 5.902450000000000196e-01 1.935985000000000156e+01 1.305004999999999882e+02 1.398679999999999836e+03
1.280000000000000027e-01 5.900905000000000733e-01 1.872729999999999961e+01 1.299584999999999866e+02 1.398510000000000218e+03
1.290000000000000036e-01 5.899254999999999916e-01 1.808030000000000115e+01 1.293770000000000095e+02 1.398325000000000045e+03
1.300000000000000044e-01 5.897499999999999964e-01 1.742004999999999981e+01 1.287580000000000098e+02 1.398130000000000109e+03
1.310000000000000053e-01 5.895660000000000345e-01 1.674855000000000160e+01 1.281065000000000111e+02 1.397925000000000182e+03
1.320000000000000062e-01 5.893749999999999822e-01 1.606850000000000023e+01 1.274275000000000091e+02 1.397704999999999927e+03
1.330000000000000071e-01 5.891785000000000494e-01 1.538305000000000078e+01 1.267259999999999991e+02 1.397480000000000018e+03
1.340000000000000080e-01 5.889785000000000714e-01 1.469605999999999923e+01 1.260095000000000027e+02 1.397250000000000000e+03
1.350000000000000089e-01 5.887769999999999948e-01 1.401173999999999964e+01 1.252854999999999848e+02 1.397019999999999982e+03
1.360000000000000098e-01 5.885765000000000580e-01 1.333445000000000036e+01 1.245610000000000070e+02 1.396780000000000200e+03
1.370000000000000107e-01 5.883785000000000265e-01 1.266890499999999875e+01 1.238444999999999965e+02 1.396545000000000073e+03
1.380000000000000115e-01 5.881855000000000278e-01 1.201974000000000053e+01 1.231430000000000007e+02 1.396315000000000055e+03
1.390000000000000124e-01 5.879995000000000083e-01 1.139139000000000124e+01 1.224639999999999986e+02 1.396089999999999918e+03
1.400000000000000133e-01 5.878224999999999145e-01 1.078824999999999967e+01 1.218149999999999977e+02 1.395869999999999891e+03
1.410000000000000142e-01 5.876559999999999562e-01 1.021413000000000082e+01 1.212025000000000006e+02 1.395659999999999854e+03
1.420000000000000151e-01 5.875015000000000098e-01 9.672489999999999810e+00 1.206310000000000002e+02 1.395465000000000146e+03
1.430000000000000160e-01 5.873595000000000343e-01 9.166254999999999598e+00 1.201050000000000040e+02 1.395279999999999973e+03
1.440000000000000169e-01 5.872315000000000174e-01 8.697594999999999743e+00 1.196289999999999907e+02 1.395110000000000127e+03
1.450000000000000178e-01 5.871174999999999589e-01 8.268085000000001017e+00 1.192035000000000053e+02 1.394950000000000045e+03
1.459999999999999909e-01 5.870180000000000398e-01 7.878429999999999822e+00 1.188305000000000007e+02 1.394815000000000055e+03
1.469999999999999918e-01 5.869324999999999681e-01 7.528764999999999930e+00 1.185084999999999980e+02 1.394690000000000055e+03
1.479999999999999927e-01 5.868609999999999660e-01 7.218445000000000888e+00 1.182374999999999972e+02 1.394579999999999927e+03
1.489999999999999936e-01 5.868014999999999759e-01 6.946175000000000210e+00 1.180144999999999982e+02 1.394490000000000009e+03
1.499999999999999944e-01 5.867534999999999279e-01 6.710045000000000037e+00 1.178350000000000080e+02 1.394409999999999854e+03
1.509999999999999953e-01 5.867160000000000153e-01 6.507645000000000124e+00 1.176959999999999980e+02 1.394345000000000027e+03
1.519999999999999962e-01 5.866879999999999873e-01 6.336114999999999498e+00 1.175914999999999964e+02 1.394295000000000073e+03
1.529999999999999971e-01 5.866670000000000496e-01 6.192280000000000229e+00 1.175169999999999959e+02 1.394255000000000109e+03
1.539999999999999980e-01 5.866519999999999513e-01 6.072744999999999393e+00 1.174664999999999964e+02 1.394220000000000027e+03
1.549999999999999989e-01 5.866419999999999968e-01 5.973985000000000767e+00 1.174339999999999975e+02 1.394195000000000164e+03
1.559999999999999998e-01 5.866339999999999888e-01 5.892464999999999620e+00 1.174140000000000015e+02 1.394170000000000073e+03
1.570000000000000007e-01 5.866274999999999684e-01 5.824709999999999610e+00 1.174014999999999986e+02 1.394154999999999973e+03
1.580000000000000016e-01 5.866215000000000179e-01 5.767409999999999926e+00 1.173905000000000030e+02 1.394144999999999982e+03
1.590000000000000024e-01 5.866145000000000387e-01 5.717465000000000686e+00 1.173774999999999977e+02 1.394130000000000109e+03
