# t [s], A [cm^2], U [cm/s], P [cPa], c [cm/s]
1.000000000000000021e-03 6.452455000000000274e-01 4.151000000000001910e-03 9.401275000000001114e+01 1.609819999999999936e+03
2.000000000000000042e-03 6.452369999999999495e-01 3.548530000000000260e-03 9.398595000000000255e+01 1.609809999999999945e+03
3.000000000000000062e-03 6.453090000000000215e-01 1.325244999999999895e-01 9.412080000000000268e+01 1.609845000000000027e+03
4.000000000000000083e-03 6.453474999999999628e-01 2.199406500000000153e-01 9.422145000000000437e+01 1.609875000000000000e+03
5.000000000000000104e-03 6.452940000000000342e-01 1.516444999999999876e-01 9.408435000000000059e+01 1.609845000000000027e+03
6.000000000000000125e-03 6.452119999999998967e-01 2.563900000000002288e-02 9.378219999999998890e+01 1.609775000000000091e+03
7.000000000000000146e-03 6.451275000000000759e-01 -1.177850000000000286e-01 9.338354999999999961e+01 1.609679999999999836e+03
8.000000000000000167e-03 6.449774999999999814e-01 -3.911600000000000632e-01 9.275604999999998768e+01 1.609534999999999854e+03
9.000000000000001055e-03 6.447490000000000165e-01 -8.207600000000000451e-01 9.182184999999999775e+01 1.609315000000000055e+03
1.000000000000000194e-02 6.444389999999999841e-01 -1.399279999999999857e+00 9.054345000000000709e+01 1.609014999999999873e+03
1.099999999999999936e-02 6.440215000000000245e-01 -2.153370000000000228e+00 8.884354999999999336e+01 1.608605000000000018e+03
1.200000000000000025e-02 6.434975000000000556e-01 -3.059650000000000425e+00 8.669904999999999973e+01 1.608079999999999927e+03
1.300000000000000114e-02 6.429285000000000139e-01 -3.974809999999999732e+00 8.425735000000000241e+01 1.607465000000000146e+03
1.400000000000000203e-02 6.424110000000000653e-01 -4.688303499999999957e+00 8.180809999999999604e+01 1.606819999999999936e+03
1.499999999999999944e-02 6.420170000000000599e-01 -5.034438000000000635e+00 7.964140000000000441e+01 1.606224999999999909e+03
1.600000000000000033e-02 6.417589999999999684e-01 -4.962569999999999482e+00 7.792115000000001146e+01 1.605704999999999927e+03
1.700000000000000122e-02 6.415980000000000016e-01 -4.538179999999999659e+00 7.664034999999999798e+01 1.605284999999999854e+03
1.800000000000000211e-02 6.414670000000000094e-01 -3.899214999999999876e+00 7.565100000000001046e+01 1.604920000000000073e+03
1.900000000000000300e-02 6.412989999999999524e-01 -3.196460000000000079e+00 7.473830000000000950e+01 1.604590000000000146e+03
2.000000000000000042e-02 6.410530000000000950e-01 -2.539517499999999650e+00 7.370730000000000359e+01 1.604240000000000009e+03
2.100000000000000130e-02 6.407224999999999726e-01 -1.966199999999999948e+00 7.245045000000000357e+01 1.603849999999999909e+03
2.200000000000000219e-02 6.403349999999999875e-01 -1.446849999999999969e+00 7.096980000000000643e+01 1.603400000000000091e+03
2.299999999999999961e-02 6.399284999999999002e-01 -9.184099999999999486e-01 6.934870000000000800e+01 1.602925000000000182e+03
2.400000000000000050e-02 6.395359999999999934e-01 -3.280400000000001093e-01 6.769360000000000355e+01 1.602440000000000055e+03
2.500000000000000139e-02 6.391690000000000982e-01 3.344100000000000961e-01 6.607665000000000077e+01 1.601950000000000045e+03
2.600000000000000228e-02 6.388125000000000053e-01 1.024929999999999897e+00 6.450079999999999814e+01 1.601460000000000036e+03
2.700000000000000316e-02 6.384335000000000981e-01 1.653920000000000057e+00 6.289294999999999902e+01 1.600969999999999800e+03
2.800000000000000058e-02 6.379889999999999173e-01 2.108664999999999790e+00 6.112334999999999496e+01 1.600445000000000164e+03
2.900000000000000147e-02 6.374400000000000066e-01 2.282594999999999708e+00 5.904319999999999879e+01 1.599849999999999909e+03
3.000000000000000236e-02 6.367620000000000502e-01 2.103854999999999809e+00 5.652984999999999616e+01 1.599159999999999854e+03
3.099999999999999978e-02 6.359555000000000069e-01 1.555679999999999730e+00 5.352769999999999584e+01 1.598355000000000018e+03
3.200000000000000067e-02 6.350459999999999994e-01 6.824099999999999611e-01 5.007264999999999588e+01 1.597440000000000055e+03
3.300000000000000155e-02 6.340814999999999646e-01 -4.204499999999997684e-01 4.629220000000000113e+01 1.596434999999999945e+03
3.400000000000000244e-02 6.331195000000000572e-01 -1.627180000000000071e+00 4.238335000000000008e+01 1.595394999999999982e+03
3.500000000000000333e-02 6.322174999999999878e-01 -2.806360000000000188e+00 3.857835000000000036e+01 1.594349999999999909e+03
3.600000000000000422e-02 6.314275000000000304e-01 -3.841439999999999966e+00 3.510739999999999839e+01 1.593380000000000109e+03
3.700000000000000511e-02 6.307869999999999866e-01 -4.643634999999999735e+00 3.216899999999999693e+01 1.592529999999999973e+03
3.799999999999999906e-02 6.303190000000000737e-01 -5.156661499999999343e+00 2.990994999999999848e+01 1.591835000000000036e+03
3.899999999999999994e-02 6.300314999999999666e-01 -5.354279999999999262e+00 2.841815000000000424e+01 1.591325000000000045e+03
4.000000000000000083e-02 6.299239999999999284e-01 -5.233615000000000350e+00 2.772530000000000072e+01 1.591019999999999982e+03
4.100000000000000172e-02 6.299859999999999349e-01 -4.806499999999999773e+00 2.781745000000000090e+01 1.590924999999999955e+03
4.200000000000000261e-02 6.302069999999999617e-01 -4.091281500000000015e+00 2.864945000000000164e+01 1.591034999999999854e+03
4.300000000000000350e-02 6.305709999999999926e-01 -3.107219999999999871e+00 3.015905000000000058e+01 1.591335000000000036e+03
4.400000000000000439e-02 6.310664999999999747e-01 -1.872250000000000192e+00 3.227745000000000175e+01 1.591809999999999945e+03
4.499999999999999833e-02 6.316785000000000316e-01 -4.040850000000002495e-01 3.493455000000000155e+01 1.592445000000000164e+03
4.599999999999999922e-02 6.323944999999999705e-01 1.276765000000000150e+00 3.806024999999999636e+01 1.593215000000000146e+03
4.700000000000000011e-02 6.331974999999999687e-01 3.143604999999999983e+00 4.158200000000000074e+01 1.594110000000000127e+03
4.800000000000000100e-02 6.340704999999999814e-01 5.161419999999999675e+00 4.542175000000000296e+01 1.595105000000000018e+03
4.900000000000000189e-02 6.349924999999999597e-01 7.286620000000000985e+00 4.949510000000000076e+01 1.596179999999999836e+03
5.000000000000000278e-02 6.359410000000000895e-01 9.469160999999999717e+00 5.371164999999999168e+01 1.597309999999999945e+03
5.100000000000000366e-02 6.368945000000000300e-01 1.165578499999999984e+01 5.797839999999999350e+01 1.598470000000000027e+03
5.200000000000000455e-02 6.378319999999999546e-01 1.379438000000000031e+01 6.220539999999999736e+01 1.599634999999999991e+03
5.300000000000000544e-02 6.387355000000000116e-01 1.583811999999999998e+01 6.631074999999999875e+01 1.600789999999999964e+03
5.399999999999999939e-02 6.395910000000000206e-01 1.774853500000000039e+01 7.022690000000000055e+01 1.601900000000000091e+03
5.500000000000000028e-02 6.403904999999999736e-01 1.949784999999999968e+01 7.390409999999999968e+01 1.602970000000000027e+03
5.600000000000000117e-02 6.411299999999999777e-01 2.106940000000000168e+01 7.731284999999999741e+01 1.603974999999999909e+03
5.700000000000000205e-02 6.418089999999999629e-01 2.245734999999999815e+01 8.044384999999999764e+01 1.604914999999999964e+03
5.800000000000000294e-02 6.424335000000001017e-01 2.366505000000000081e+01 8.330625000000000568e+01 1.605785000000000082e+03
5.900000000000000383e-02 6.430084999999999829e-01 2.470345000000000013e+01 8.592459999999999809e+01 1.606595000000000027e+03
6.000000000000000472e-02 6.435450000000000337e-01 2.558905000000000030e+01 8.833500000000000796e+01 1.607345000000000027e+03
6.099999999999999867e-02 6.440520000000000689e-01 2.634244999999999948e+01 9.058169999999999789e+01 1.608049999999999955e+03
6.199999999999999956e-02 6.445400000000000018e-01 2.698659999999999926e+01 9.271280000000000143e+01 1.608720000000000027e+03
6.300000000000000044e-02 6.450204999999999966e-01 2.754554999999999865e+01 9.477750000000000341e+01 1.609365000000000009e+03
6.400000000000000133e-02 6.455035000000000078e-01 2.804339999999999833e+01 9.682300000000000750e+01 1.609994999999999891e+03
6.500000000000000222e-02 6.459969999999999324e-01 2.850284999999999869e+01 9.889124999999999943e+01 1.610630000000000109e+03
6.600000000000000311e-02 6.465079999999999716e-01 2.894395000000000095e+01 1.010174999999999983e+02 1.611275000000000091e+03
6.700000000000000400e-02 6.470415000000000472e-01 2.938260000000000005e+01 1.032265000000000015e+02 1.611934999999999945e+03
6.800000000000000488e-02 6.475984999999999658e-01 2.982985000000000042e+01 1.055330000000000013e+02 1.612610000000000127e+03
6.900000000000000577e-02 6.481784999999999908e-01 3.029044999999999987e+01 1.079364999999999952e+02 1.613320000000000164e+03
7.000000000000000666e-02 6.487775000000000070e-01 3.076299999999999812e+01 1.104250000000000114e+02 1.614045000000000073e+03
7.100000000000000755e-02 6.493875000000000064e-01 3.123989999999999867e+01 1.129735000000000014e+02 1.614784999999999854e+03
7.200000000000000844e-02 6.500000000000000222e-01 3.170830000000000126e+01 1.155455000000000041e+02 1.615539999999999964e+03
7.300000000000000933e-02 6.506030000000000424e-01 3.215129999999999910e+01 1.180964999999999918e+02 1.616284999999999854e+03
7.399999999999999634e-02 6.511860000000000426e-01 3.254935000000000400e+01 1.205755000000000052e+02 1.617014999999999873e+03
7.499999999999999722e-02 6.517360000000000930e-01 3.288204999999999956e+01 1.229320000000000022e+02 1.617715000000000146e+03
7.599999999999999811e-02 6.522425000000000583e-01 3.312959999999999638e+01 1.251140000000000043e+02 1.618375000000000000e+03
7.699999999999999900e-02 6.526944999999999553e-01 3.327450000000000330e+01 1.270775000000000148e+02 1.618980000000000018e+03
7.799999999999999989e-02 6.530854999999999855e-01 3.330225000000000080e+01 1.287835000000000036e+02 1.619514999999999873e+03
7.900000000000000078e-02 6.534094999999999764e-01 3.320255000000000223e+01 1.302030000000000030e+02 1.619974999999999909e+03
8.000000000000000167e-02 6.536634999999999529e-01 3.296970000000000312e+01 1.313199999999999932e+02 1.620360000000000127e+03
8.100000000000000255e-02 6.538474999999999149e-01 3.260280000000000200e+01 1.321264999999999930e+02 1.620655000000000200e+03
8.200000000000000344e-02 6.539625000000000021e-01 3.210569999999999879e+01 1.326274999999999977e+02 1.620860000000000127e+03
8.300000000000000433e-02 6.540129999999999555e-01 3.148669999999999902e+01 1.328385000000000105e+02 1.620985000000000127e+03
8.400000000000000522e-02 6.540049999999999475e-01 3.075804999999999723e+01 1.327839999999999918e+02 1.621029999999999973e+03
8.500000000000000611e-02 6.539464999999999861e-01 2.993554999999999922e+01 1.324959999999999809e+02 1.621005000000000109e+03
8.600000000000000699e-02 6.538454999999999684e-01 2.903750000000000142e+01 1.320120000000000005e+02 1.620924999999999955e+03
8.700000000000000788e-02 6.537129999999999885e-01 2.808384999999999820e+01 1.313735000000000070e+02 1.620789999999999964e+03
8.800000000000000877e-02 6.535564999999999847e-01 2.709564999999999912e+01 1.306250000000000000e+02 1.620615000000000009e+03
8.899999999999999578e-02 6.533875000000000099e-01 2.609384999999999977e+01 1.298100000000000023e+02 1.620414999999999964e+03
8.999999999999999667e-02 6.532150000000001011e-01 2.509850000000000136e+01 1.289695000000000107e+02 1.620200000000000045e+03
9.099999999999999756e-02 6.530454999999999455e-01 2.412784999999999869e+01 1.281424999999999841e+02 1.619985000000000127e+03
9.199999999999999845e-02 6.528880000000000239e-01 2.319774999999999920e+01 1.273615000000000066e+02 1.619764999999999873e+03
9.299999999999999933e-02 6.527469999999999661e-01 2.232079999999999842e+01 1.266525000000000034e+02 1.619559999999999945e+03
9.400000000000000022e-02 6.526259999999999284e-01 2.150639999999999930e+01 1.260365000000000038e+02 1.619384999999999991e+03
9.500000000000000111e-02 6.525279999999999969e-01 2.075985000000000014e+01 1.255240000000000009e+02 1.619220000000000027e+03
9.600000000000000200e-02 6.524524999999999908e-01 2.008290000000000219e+01 1.251209999999999951e+02 1.619095000000000027e+03
9.700000000000000289e-02 6.523995000000000211e-01 1.947350000000000136e+01 1.248230000000000075e+02 1.618985000000000127e+03
9.800000000000000377e-02 6.523655000000000426e-01 1.892640000000000100e+01 1.246219999999999999e+02 1.618910000000000082e+03
9.900000000000000466e-02 6.523464999999999403e-01 1.843319999999999936e+01 1.245024999999999977e+02 1.618849999999999909e+03
1.000000000000000056e-01 6.523390000000000022e-01 1.798335000000000150e+01 1.244445000000000050e+02 1.618815000000000055e+03
1.010000000000000064e-01 6.523369999999999447e-01 1.756455000000000055e+01 1.244244999999999948e+02 1.618789999999999964e+03
1.020000000000000073e-01 6.523345000000000393e-01 1.716325000000000145e+01 1.244184999999999945e+02 1.618775000000000091e+03
1.030000000000000082e-01 6.523265000000000313e-01 1.676590000000000202e+01 1.244000000000000057e+02 1.618755000000000109e+03
1.040000000000000091e-01 6.523075000000000401e-01 1.635909999999999798e+01 1.243444999999999965e+02 1.618730000000000018e+03
1.050000000000000100e-01 6.522719999999999629e-01 1.593064999999999998e+01 1.242289999999999992e+02 1.618695000000000164e+03
1.059999999999999970e-01 6.522170000000000467e-01 1.547009999999999863e+01 1.240349999999999966e+02 1.618639999999999873e+03
1.069999999999999979e-01 6.521394999999999831e-01 1.496920000000000073e+01 1.237469999999999999e+02 1.618559999999999945e+03
1.079999999999999988e-01 6.520375000000000476e-01 1.442239999999999966e+01 1.233559999999999945e+02 1.618460000000000036e+03
1.089999999999999997e-01 6.519114999999999771e-01 1.382720000000000127e+01 1.228569999999999993e+02 1.618329999999999927e+03
1.100000000000000006e-01 6.517614999999999936e-01 1.318400499999999909e+01 1.222535000000000025e+02 1.618170000000000073e+03
1.110000000000000014e-01 6.515904999999999614e-01 1.249647999999999826e+01 1.215519999999999925e+02 1.617985000000000127e+03
1.120000000000000023e-01 6.514014999999999667e-01 1.177118000000000109e+01 1.207659999999999911e+02 1.617775000000000091e+03
1.130000000000000032e-01 6.512005000000000710e-01 1.101707000000000036e+01 1.199134999999999991e+02 1.617545000000000073e+03
1.140000000000000041e-01 6.509905000000000275e-01 1.024545499999999976e+01 1.190169999999999959e+02 1.617299999999999955e+03
1.150000000000000050e-01 6.507799999999999141e-01 9.469004999999999228e+00 1.181004999999999967e+02 1.617049999999999955e+03
1.160000000000000059e-01 6.505724999999999980e-01 8.701539999999999608e+00 1.171910000000000025e+02 1.616789999999999964e+03
1.170000000000000068e-01 6.503754999999999953e-01 7.956944999999999268e+00 1.163149999999999977e+02 1.616545000000000073e+03
1.180000000000000077e-01 6.501949999999999674e-01 7.248804999999999943e+00 1.154975000000000023e+02 1.616309999999999945e+03
1.190000000000000085e-01 6.500344999999999596e-01 6.589584999999999582e+00 1.147630000000000052e+02 1.616095000000000027e+03
1.200000000000000094e-01 6.499000000000000332e-01 5.990045000000000286e+00 1.141304999999999978e+02 1.615900000000000091e+03
1.209999999999999964e-01 6.497930000000000650e-01 5.458790000000000475e+00 1.136154999999999973e+02 1.615740000000000009e+03
1.219999999999999973e-01 6.497159999999999602e-01 5.001884999999999692e+00 1.132284999999999968e+02 1.615605000000000018e+03
1.229999999999999982e-01 6.496695000000000109e-01 4.622625000000000206e+00 1.129745000000000061e+02 1.615514999999999873e+03
1.239999999999999991e-01 6.496524999999999661e-01 4.321509999999999962e+00 1.128524999999999920e+02 1.615454999999999927e+03
1.250000000000000000e-01 6.496640000000000192e-01 4.096299999999999386e+00 1.128569999999999993e+02 1.615429999999999836e+03
1.260000000000000009e-01 6.496999999999999442e-01 3.942239999999999966e+00 1.129770000000000039e+02 1.615434999999999945e+03
1.270000000000000018e-01 6.497574999999999878e-01 3.852409999999999890e+00 1.131970000000000027e+02 1.615474999999999909e+03
1.280000000000000027e-01 6.498319999999999652e-01 3.818109999999999893e+00 1.135000000000000000e+02 1.615539999999999964e+03
1.290000000000000036e-01 6.499185000000000656e-01 3.829355000000000064e+00 1.138649999999999949e+02 1.615615000000000009e+03
1.300000000000000044e-01 6.500124999999999931e-01 3.875325000000000131e+00 1.142709999999999866e+02 1.615715000000000146e+03
1.310000000000000053e-01 6.501090000000000479e-01 3.944910000000000139e+00 1.146954999999999956e+02 1.615824999999999818e+03
1.320000000000000062e-01 6.502034999999999343e-01 4.027090000000000281e+00 1.151179999999999950e+02 1.615930000000000064e+03
1.330000000000000071e-01 6.502915000000000223e-01 4.111435000000000173e+00 1.155199999999999960e+02 1.616034999999999854e+03
1.340000000000000080e-01 6.503689999999999749e-01 4.188410000000000188e+00 1.158830000000000098e+02 1.616139999999999873e+03
1.350000000000000089e-01 6.504345000000000265e-01 4.249690000000000190e+00 1.161935000000000002e+02 1.616224999999999909e+03
1.360000000000000098e-01 6.504844999999999100e-01 4.288364999999999760e+00 1.164410000000000025e+02 1.616300000000000182e+03
1.370000000000000107e-01 6.505180000000000407e-01 4.299125000000000085e+00 1.166159999999999997e+02 1.616355000000000018e+03
1.380000000000000115e-01 6.505339999999999456e-01 4.278299999999999770e+00 1.167154999999999916e+02 1.616390000000000100e+03
1.390000000000000124e-01 6.505330000000000279e-01 4.223874999999999602e+00 1.167369999999999948e+02 1.616409999999999854e+03
1.400000000000000133e-01 6.505155000000000243e-01 4.135460000000000136e+00 1.166835000000000093e+02 1.616404999999999973e+03
1.410000000000000142e-01 6.504824999999999635e-01 4.014139999999999375e+00 1.165585000000000093e+02 1.616384999999999991e+03
1.420000000000000151e-01 6.504354999999999443e-01 3.862334999999999852e+00 1.163689999999999998e+02 1.616340000000000146e+03
1.430000000000000160e-01 6.503769999999999829e-01 3.683610000000000273e+00 1.161229999999999905e+02 1.616284999999999854e+03
1.440000000000000169e-01 6.503090000000000259e-01 3.482429999999999914e+00 1.158310000000000031e+02 1.616210000000000036e+03
1.450000000000000178e-01 6.502334999999999088e-01 3.263889999999999958e+00 1.155024999999999977e+02 1.616125000000000000e+03
1.459999999999999909e-01 6.501540000000000097e-01 3.033484999999999765e+00 1.151490000000000009e+02 1.616039999999999964e+03
1.469999999999999918e-01 6.500719999999999832e-01 2.796809999999999796e+00 1.147800000000000011e+02 1.615940000000000055e+03
1.479999999999999927e-01 6.499894999999999978e-01 2.559320000000000039e+00 1.144064999999999941e+02 1.615840000000000146e+03
1.489999999999999936e-01 6.499085000000000001e-01 2.326080999999999843e+00 1.140364999999999895e+02 1.615740000000000009e+03
1.499999999999999944e-01 6.498310000000000475e-01 2.101585000000000036e+00 1.136774999999999949e+02 1.615639999999999873e+03
1.509999999999999953e-01 6.497574999999999878e-01 1.889564999999999939e+00 1.133345000000000056e+02 1.615539999999999964e+03
1.519999999999999962e-01 6.496889999999999610e-01 1.692902499999999977e+00 1.130120000000000005e+02 1.615450000000000045e+03
1.529999999999999971e-01 6.496250000000000080e-01 1.513565999999999967e+00 1.127109999999999985e+02 1.615360000000000127e+03
1.539999999999999980e-01 6.495664999999999356e-01 1.352611500000000078e+00 1.124329999999999927e+02 1.615275000000000091e+03
1.549999999999999989e-01 6.495119999999999783e-01 1.210213999999999901e+00 1.121754999999999995e+02 1.615194999999999936e+03
1.559999999999999998e-01 6.494610000000000660e-01 1.085796999999999901e+00 1.119364999999999952e+02 1.615125000000000000e+03
1.570000000000000007e-01 6.494130000000000180e-01 9.781245000000000633e-01 1.117119999999999891e+02 1.615054999999999836e+03
1.580000000000000016e-01 6.493664999999999576e-01 8.854784999999999462e-01 1.114964999999999975e+02 1.614990000000000009e+03
1.590000000000000024e-01 6.493200000000000083e-01 8.058104999999999851e-01 1.112870000000000061e+02 1.614924999999999955e+03
