# t [s], A [cm^2], U [cm/s], P [cPa], c [cm/s]
1.000000000000000021e-03 1.433690000000000242e-01 1.382586999999999844e-01 9.046074999999999022e+01 1.781574999999999818e+03
2.000000000000000042e-03 1.433554999999999968e-01 1.340357500000000091e+00 8.819800000000000750e+01 1.781414999999999964e+03
3.000000000000000062e-03 1.432829999999999937e-01 2.873999000000000414e+00 8.524110000000000298e+01 1.780674999999999955e+03
4.000000000000000083e-03 1.431669999999999887e-01 4.589629999999999654e+00 8.174410000000000309e+01 1.779505000000000109e+03
5.000000000000000104e-03 1.430250000000000132e-01 6.444073500000000010e+00 7.821224999999999739e+01 1.778095000000000027e+03
6.000000000000000125e-03 1.428760000000000030e-01 8.379915000000000447e+00 7.502304999999999779e+01 1.776615000000000009e+03
7.000000000000000146e-03 1.427275000000000071e-01 1.029523000000000010e+01 7.230004999999999882e+01 1.775175000000000182e+03
8.000000000000000167e-03 1.425865000000000049e-01 1.207382500000000114e+01 6.995660000000000878e+01 1.773804999999999836e+03
9.000000000000001055e-03 1.424539999999999973e-01 1.364645000000000152e+01 6.786484999999998990e+01 1.772545000000000073e+03
1.000000000000000194e-02 1.423314999999999997e-01 1.500847500000000068e+01 6.599165000000000703e+01 1.771400000000000091e+03
1.099999999999999936e-02 1.422224999999999739e-01 1.618064999999999998e+01 6.437035000000000196e+01 1.770384999999999991e+03
1.200000000000000025e-02 1.421280000000000043e-01 1.717835000000000178e+01 6.302060000000000173e+01 1.769519999999999982e+03
1.300000000000000114e-02 1.420480000000000076e-01 1.801064999999999827e+01 6.192924999999999613e+01 1.768789999999999964e+03
1.400000000000000203e-02 1.419814999999999827e-01 1.868459999999999965e+01 6.106439999999999912e+01 1.768195000000000164e+03
1.499999999999999944e-02 1.419265000000000110e-01 1.920354999999999990e+01 6.037874999999999659e+01 1.767710000000000036e+03
1.600000000000000033e-02 1.418814999999999937e-01 1.957100000000000151e+01 5.981504999999999939e+01 1.767315000000000055e+03
1.700000000000000122e-02 1.418444999999999845e-01 1.980404999999999660e+01 5.933445000000000391e+01 1.766994999999999891e+03
1.800000000000000211e-02 1.418134999999999812e-01 1.994474999999999909e+01 5.895550000000000068e+01 1.766750000000000000e+03
1.900000000000000300e-02 1.417924999999999880e-01 2.005794999999999817e+01 5.876725000000000421e+01 1.766575000000000045e+03
2.000000000000000042e-02 1.417829999999999924e-01 2.021320000000000050e+01 5.890035000000000309e+01 1.766505000000000109e+03
2.100000000000000130e-02 1.417895000000000127e-01 2.046135000000000304e+01 5.946880000000000166e+01 1.766574999999999818e+03
2.200000000000000219e-02 1.418119999999999936e-01 2.081714999999999804e+01 6.051394999999999413e+01 1.766800000000000182e+03
2.299999999999999961e-02 1.418524999999999925e-01 2.125525000000000020e+01 6.197639999999999816e+01 1.767174999999999955e+03
2.400000000000000050e-02 1.419060000000000044e-01 2.171985000000000099e+01 6.370459999999999923e+01 1.767674999999999955e+03
2.500000000000000139e-02 1.419670000000000099e-01 2.214184999999999803e+01 6.549285000000000423e+01 1.768244999999999891e+03
2.600000000000000228e-02 1.420295000000000030e-01 2.245779999999999887e+01 6.713245000000000573e+01 1.768840000000000146e+03
2.700000000000000316e-02 1.420879999999999921e-01 2.262465000000000259e+01 6.845910000000000650e+01 1.769389999999999873e+03
2.800000000000000058e-02 1.421375000000000000e-01 2.262725000000000009e+01 6.938320000000000221e+01 1.769865000000000009e+03
2.900000000000000147e-02 1.421749999999999958e-01 2.247749999999999915e+01 6.989914999999999168e+01 1.770235000000000127e+03
3.000000000000000236e-02 1.422014999999999807e-01 2.220700000000000074e+01 7.007189999999999941e+01 1.770500000000000000e+03
3.099999999999999978e-02 1.422174999999999967e-01 2.185624999999999929e+01 7.000945000000000107e+01 1.770670000000000073e+03
3.200000000000000067e-02 1.422265000000000057e-01 2.146284999999999954e+01 6.982874999999999943e+01 1.770759999999999991e+03
3.300000000000000155e-02 1.422309999999999963e-01 2.105310000000000059e+01 6.962560000000000571e+01 1.770815000000000055e+03
3.400000000000000244e-02 1.422335000000000127e-01 2.063795000000000002e+01 6.945515000000000327e+01 1.770835000000000036e+03
3.500000000000000333e-02 1.422339999999999993e-01 2.021330000000000027e+01 6.932644999999999413e+01 1.770849999999999909e+03
3.600000000000000422e-02 1.422344999999999859e-01 1.976480000000000103e+01 6.920980000000000132e+01 1.770849999999999909e+03
3.700000000000000511e-02 1.422320000000000251e-01 1.927459999999999951e+01 6.905310000000000059e+01 1.770840000000000146e+03
3.799999999999999906e-02 1.422275000000000067e-01 1.872885000000000133e+01 6.880330000000000723e+01 1.770800000000000182e+03
3.899999999999999994e-02 1.422184999999999977e-01 1.812335000000000207e+01 6.842520000000000380e+01 1.770720000000000027e+03
4.000000000000000083e-02 1.422039999999999971e-01 1.746734999999999971e+01 6.791610000000000014e+01 1.770599999999999909e+03
4.100000000000000172e-02 1.421864999999999934e-01 1.678375000000000128e+01 6.731104999999999450e+01 1.770440000000000055e+03
4.200000000000000261e-02 1.421660000000000146e-01 1.610599999999999810e+01 6.667895000000000039e+01 1.770255000000000109e+03
4.300000000000000350e-02 1.421450000000000213e-01 1.547259999999999991e+01 6.611039999999999850e+01 1.770065000000000055e+03
4.400000000000000439e-02 1.421270000000000033e-01 1.492055000000000042e+01 6.570019999999999527e+01 1.769900000000000091e+03
4.499999999999999833e-02 1.421149999999999913e-01 1.447874999999999979e+01 6.552930000000000632e+01 1.769779999999999973e+03
4.599999999999999922e-02 1.421109999999999873e-01 1.416350000000000087e+01 6.564865000000000350e+01 1.769735000000000127e+03
4.700000000000000011e-02 1.421164999999999790e-01 1.397569999999999979e+01 6.607030000000000314e+01 1.769779999999999973e+03
4.800000000000000100e-02 1.421315000000000217e-01 1.390135000000000076e+01 6.676470000000000482e+01 1.769909999999999854e+03
4.900000000000000189e-02 1.421554999999999902e-01 1.391414999999999935e+01 6.766620000000000346e+01 1.770119999999999891e+03
5.000000000000000278e-02 1.421870000000000078e-01 1.397959999999999958e+01 6.868344999999999345e+01 1.770400000000000091e+03
5.100000000000000366e-02 1.422215000000000007e-01 1.405979999999999919e+01 6.971280000000000143e+01 1.770715000000000146e+03
5.200000000000000455e-02 1.422565000000000079e-01 1.411795000000000044e+01 7.065219999999999345e+01 1.771039999999999964e+03
5.300000000000000544e-02 1.422895000000000132e-01 1.412225000000000108e+01 7.141274999999998840e+01 1.771340000000000146e+03
5.399999999999999939e-02 1.423165000000000124e-01 1.404840000000000089e+01 7.192760000000001241e+01 1.771595000000000027e+03
5.500000000000000028e-02 1.423360000000000181e-01 1.388049999999999962e+01 7.215585000000000093e+01 1.771779999999999973e+03
5.600000000000000117e-02 1.423455000000000137e-01 1.361105000000000054e+01 7.208279999999999177e+01 1.771875000000000000e+03
5.700000000000000205e-02 1.423455000000000137e-01 1.323995000000000033e+01 7.171680000000000632e+01 1.771875000000000000e+03
5.800000000000000294e-02 1.423345000000000027e-01 1.277275000000000027e+01 7.108414999999999395e+01 1.771785000000000082e+03
5.900000000000000383e-02 1.423145000000000104e-01 1.221894999999999953e+01 7.022270000000000323e+01 1.771605000000000018e+03
6.000000000000000472e-02 1.422860000000000236e-01 1.159057999999999922e+01 6.917619999999999436e+01 1.771345000000000027e+03
6.099999999999999867e-02 1.422499999999999876e-01 1.090090999999999966e+01 6.798975000000000080e+01 1.771009999999999991e+03
6.199999999999999956e-02 1.422074999999999867e-01 1.016393499999999861e+01 6.670685000000000286e+01 1.770625000000000000e+03
6.300000000000000044e-02 1.421604999999999952e-01 9.394294999999999618e+00 6.536804999999999666e+01 1.770190000000000055e+03
6.400000000000000133e-02 1.421109999999999873e-01 8.607205000000000439e+00 6.401134999999999309e+01 1.769730000000000018e+03
6.500000000000000222e-02 1.420595000000000052e-01 7.818999999999999950e+00 6.267309999999999803e+01 1.769255000000000109e+03
6.600000000000000311e-02 1.420075000000000087e-01 7.047344999999999970e+00 6.138979999999999393e+01 1.768779999999999973e+03
6.700000000000000400e-02 1.419569999999999999e-01 6.311585000000000889e+00 6.019904999999999973e+01 1.768309999999999945e+03
6.800000000000000488e-02 1.419094999999999940e-01 5.632519999999999527e+00 5.914085000000000036e+01 1.767865000000000009e+03
6.900000000000000577e-02 1.418670000000000209e-01 5.032144999999999868e+00 5.825740000000000407e+01 1.767465000000000146e+03
7.000000000000000666e-02 1.418304999999999982e-01 4.533065000000000566e+00 5.759234999999999616e+01 1.767119999999999891e+03
7.100000000000000755e-02 1.418019999999999836e-01 4.157644999999999591e+00 5.718959999999999866e+01 1.766845000000000027e+03
7.200000000000000844e-02 1.417829999999999924e-01 3.927039999999999864e+00 5.709085000000000321e+01 1.766664999999999964e+03
7.300000000000000933e-02 1.417754999999999987e-01 3.860209999999999919e+00 5.733384999999999820e+01 1.766589999999999918e+03
7.399999999999999634e-02 1.417809999999999904e-01 3.972929999999999851e+00 5.794984999999999786e+01 1.766625000000000000e+03
7.499999999999999722e-02 1.418004999999999960e-01 4.276989999999999625e+00 5.896139999999999759e+01 1.766795000000000073e+03
7.599999999999999811e-02 1.418355000000000032e-01 4.779600000000000293e+00 6.038134999999999764e+01 1.767099999999999909e+03
7.699999999999999900e-02 1.418860000000000121e-01 5.482994999999999841e+00 6.221164999999999878e+01 1.767555000000000064e+03
7.799999999999999989e-02 1.419524999999999815e-01 6.384389999999999787e+00 6.444319999999999027e+01 1.768154999999999973e+03
7.900000000000000078e-02 1.420345000000000080e-01 7.476110000000000255e+00 6.705625000000000568e+01 1.768900000000000091e+03
8.000000000000000167e-02 1.421320000000000083e-01 8.745874999999999844e+00 7.002150000000000318e+01 1.769789999999999964e+03
8.100000000000000255e-02 1.422439999999999816e-01 1.017770499999999956e+01 7.330185000000000173e+01 1.770815000000000055e+03
8.200000000000000344e-02 1.423679999999999946e-01 1.175211499999999987e+01 7.685380000000000678e+01 1.771954999999999927e+03
8.300000000000000433e-02 1.425039999999999918e-01 1.344749000000000017e+01 8.062985000000000468e+01 1.773214999999999918e+03
8.400000000000000522e-02 1.426494999999999846e-01 1.524050000000000082e+01 8.458089999999999975e+01 1.774570000000000164e+03
8.500000000000000611e-02 1.428034999999999999e-01 1.710729999999999862e+01 8.865770000000000550e+01 1.775994999999999891e+03
8.600000000000000699e-02 1.429630000000000067e-01 1.902409999999999712e+01 9.281325000000001069e+01 1.777490000000000009e+03
8.700000000000000788e-02 1.431274999999999908e-01 2.096804999999999808e+01 9.700499999999999545e+01 1.779025000000000091e+03
8.800000000000000877e-02 1.432950000000000057e-01 2.291789999999999949e+01 1.011942499999999967e+02 1.780594999999999800e+03
8.899999999999999578e-02 1.434630000000000072e-01 2.485450000000000159e+01 1.053498500000000035e+02 1.782179999999999836e+03
8.999999999999999667e-02 1.436314999999999953e-01 2.676100000000000279e+01 1.094459999999999980e+02 1.783775000000000091e+03
9.099999999999999756e-02 1.437990000000000101e-01 2.862310000000000088e+01 1.134639999999999986e+02 1.785365000000000009e+03
9.199999999999999845e-02 1.439644999999999953e-01 3.042920000000000158e+01 1.173924999999999983e+02 1.786934999999999945e+03
9.299999999999999933e-02 1.441275000000000195e-01 3.217005000000000337e+01 1.212235000000000014e+02 1.788490000000000009e+03
9.400000000000000022e-02 1.442875000000000130e-01 3.383865000000000123e+01 1.249549999999999983e+02 1.790019999999999982e+03
9.500000000000000111e-02 1.444444999999999757e-01 3.542995000000000516e+01 1.285869999999999891e+02 1.791525000000000091e+03
9.600000000000000200e-02 1.445974999999999899e-01 3.694039999999999679e+01 1.321229999999999905e+02 1.792994999999999891e+03
9.700000000000000289e-02 1.447479999999999878e-01 3.836775000000000091e+01 1.355674999999999955e+02 1.794445000000000164e+03
9.800000000000000377e-02 1.448944999999999816e-01 3.971059999999999945e+01 1.389240000000000066e+02 1.795860000000000127e+03
9.900000000000000466e-02 1.450380000000000003e-01 4.096800000000000352e+01 1.421959999999999980e+02 1.797250000000000000e+03
1.000000000000000056e-01 1.451780000000000015e-01 4.213944999999999652e+01 1.453855000000000075e+02 1.798605000000000018e+03
1.010000000000000064e-01 1.453154999999999863e-01 4.322449999999999903e+01 1.484914999999999736e+02 1.799934999999999945e+03
1.020000000000000073e-01 1.454495000000000093e-01 4.422274999999999778e+01 1.515144999999999982e+02 1.801240000000000009e+03
1.030000000000000082e-01 1.455799999999999872e-01 4.513365000000000293e+01 1.544499999999999886e+02 1.802509999999999991e+03
1.040000000000000091e-01 1.457065000000000166e-01 4.595655000000000001e+01 1.572925000000000182e+02 1.803744999999999891e+03
1.050000000000000100e-01 1.458300000000000152e-01 4.669084999999999752e+01 1.600364999999999895e+02 1.804950000000000045e+03
1.059999999999999970e-01 1.459489999999999954e-01 4.733549999999999613e+01 1.626750000000000114e+02 1.806115000000000009e+03
1.069999999999999979e-01 1.460639999999999994e-01 4.788970000000000482e+01 1.651990000000000123e+02 1.807244999999999891e+03
1.079999999999999988e-01 1.461744999999999850e-01 4.835244999999999749e+01 1.676014999999999873e+02 1.808329999999999927e+03
1.089999999999999997e-01 1.462800000000000211e-01 4.872284999999999400e+01 1.698734999999999786e+02 1.809365000000000009e+03
1.100000000000000006e-01 1.463804999999999967e-01 4.900000000000000000e+01 1.720060000000000002e+02 1.810355000000000018e+03
1.110000000000000014e-01 1.464749999999999941e-01 4.918330000000000268e+01 1.739920000000000186e+02 1.811289999999999964e+03
1.120000000000000023e-01 1.465639999999999998e-01 4.927219999999999800e+01 1.758245000000000005e+02 1.812170000000000073e+03
1.130000000000000032e-01 1.466465000000000130e-01 4.926635000000000275e+01 1.774959999999999809e+02 1.812985000000000127e+03
1.140000000000000041e-01 1.467229999999999923e-01 4.916610000000000014e+01 1.790024999999999977e+02 1.813750000000000000e+03
1.150000000000000050e-01 1.467930000000000068e-01 4.897190000000000509e+01 1.803385000000000105e+02 1.814440000000000055e+03
1.160000000000000059e-01 1.468554999999999999e-01 4.868504999999999683e+01 1.815024999999999977e+02 1.815065000000000055e+03
1.170000000000000068e-01 1.469115000000000004e-01 4.830745000000000289e+01 1.824920000000000186e+02 1.815625000000000000e+03
1.180000000000000077e-01 1.469600000000000073e-01 4.784170000000000300e+01 1.833095000000000141e+02 1.816110000000000127e+03
1.190000000000000085e-01 1.470020000000000215e-01 4.729139999999999588e+01 1.839569999999999936e+02 1.816529999999999973e+03
1.200000000000000094e-01 1.470370000000000010e-01 4.666089999999999804e+01 1.844399999999999977e+02 1.816884999999999991e+03
1.209999999999999964e-01 1.470644999999999869e-01 4.595555000000000234e+01 1.847655000000000030e+02 1.817170000000000073e+03
1.219999999999999973e-01 1.470859999999999945e-01 4.518149999999999977e+01 1.849435000000000002e+02 1.817389999999999873e+03
1.229999999999999982e-01 1.471014999999999961e-01 4.434574999999999534e+01 1.849844999999999970e+02 1.817550000000000182e+03
1.239999999999999991e-01 1.471109999999999918e-01 4.345589999999999975e+01 1.849019999999999868e+02 1.817654999999999973e+03
1.250000000000000000e-01 1.471149999999999958e-01 4.252009999999999934e+01 1.847094999999999914e+02 1.817700000000000045e+03
1.260000000000000009e-01 1.471144999999999814e-01 4.154684999999999917e+01 1.844225000000000136e+02 1.817704999999999927e+03
1.270000000000000018e-01 1.471095000000000041e-01 4.054460000000000264e+01 1.840554999999999950e+02 1.817660000000000082e+03
1.280000000000000027e-01 1.471009999999999818e-01 3.952174999999999727e+01 1.836245000000000118e+02 1.817585000000000036e+03
1.290000000000000036e-01 1.470889999999999975e-01 3.848645000000000493e+01 1.831419999999999959e+02 1.817469999999999800e+03
1.300000000000000044e-01 1.470744999999999969e-01 3.744625000000000625e+01 1.826220000000000141e+02 1.817335000000000036e+03
1.310000000000000053e-01 1.470580000000000220e-01 3.640794999999999959e+01 1.820760000000000218e+02 1.817174999999999955e+03
1.320000000000000062e-01 1.470400000000000040e-01 3.537754999999999939e+01 1.815135000000000218e+02 1.817000000000000000e+03
1.330000000000000071e-01 1.470199999999999840e-01 3.436014999999999731e+01 1.809415000000000191e+02 1.816809999999999945e+03
1.340000000000000080e-01 1.470000000000000195e-01 3.335970000000000368e+01 1.803665000000000020e+02 1.816610000000000127e+03
1.350000000000000089e-01 1.469789999999999985e-01 3.237914999999999566e+01 1.797905000000000086e+02 1.816400000000000091e+03
1.360000000000000098e-01 1.469574999999999909e-01 3.142034999999999911e+01 1.792144999999999868e+02 1.816190000000000055e+03
1.370000000000000107e-01 1.469354999999999967e-01 3.048425000000000296e+01 1.786390000000000100e+02 1.815974999999999909e+03
1.380000000000000115e-01 1.469135000000000024e-01 2.957074999999999676e+01 1.780610000000000070e+02 1.815750000000000000e+03
1.390000000000000124e-01 1.468905000000000072e-01 2.867889999999999873e+01 1.774764999999999873e+02 1.815529999999999973e+03
1.400000000000000133e-01 1.468674999999999842e-01 2.780709999999999837e+01 1.768799999999999955e+02 1.815299999999999955e+03
1.410000000000000142e-01 1.468430000000000013e-01 2.695309999999999917e+01 1.762665000000000077e+02 1.815059999999999945e+03
1.420000000000000151e-01 1.468185000000000184e-01 2.611424999999999841e+01 1.756284999999999741e+02 1.814815000000000055e+03
1.430000000000000160e-01 1.467924999999999924e-01 2.528760000000000119e+01 1.749600000000000080e+02 1.814559999999999945e+03
1.440000000000000169e-01 1.467654999999999932e-01 2.447005000000000052e+01 1.742554999999999836e+02 1.814289999999999964e+03
1.450000000000000178e-01 1.467370000000000063e-01 2.365850000000000009e+01 1.735074999999999932e+02 1.814005000000000109e+03
1.459999999999999909e-01 1.467065000000000174e-01 2.284989999999999810e+01 1.727115000000000009e+02 1.813710000000000036e+03
1.469999999999999918e-01 1.466744999999999854e-01 2.204155000000000086e+01 1.718619999999999948e+02 1.813390000000000100e+03
1.479999999999999927e-01 1.466394999999999782e-01 2.123104999999999976e+01 1.709565000000000055e+02 1.813049999999999955e+03
1.489999999999999936e-01 1.466030000000000111e-01 2.041629999999999967e+01 1.699919999999999902e+02 1.812695000000000164e+03
1.499999999999999944e-01 1.465644999999999865e-01 1.959590000000000032e+01 1.689669999999999845e+02 1.812309999999999945e+03
1.509999999999999953e-01 1.465230000000000143e-01 1.876894999999999669e+01 1.678824999999999932e+02 1.811909999999999854e+03
1.519999999999999962e-01 1.464794999999999847e-01 1.793515000000000015e+01 1.667384999999999877e+02 1.811480000000000018e+03
1.529999999999999971e-01 1.464329999999999798e-01 1.709465000000000146e+01 1.655389999999999873e+02 1.811030000000000200e+03
1.539999999999999980e-01 1.463849999999999874e-01 1.624844999999999828e+01 1.642870000000000061e+02 1.810559999999999945e+03
1.549999999999999989e-01 1.463340000000000196e-01 1.539805000000000135e+01 1.629879999999999995e+02 1.810070000000000164e+03
1.559999999999999998e-01 1.462815000000000087e-01 1.454564999999999841e+01 1.616479999999999961e+02 1.809559999999999945e+03
1.570000000000000007e-01 1.462275000000000102e-01 1.369385000000000119e+01 1.602740000000000009e+02 1.809030000000000200e+03
1.580000000000000016e-01 1.461715000000000098e-01 1.284574999999999889e+01 1.588739999999999952e+02 1.808490000000000009e+03
1.590000000000000024e-01 1.461149999999999949e-01 1.200488000000000000e+01 1.574569999999999936e+02 1.807934999999999945e+03
