# t [s], A [cm^2], U [cm/s], P [cPa], c [cm/s]
1.000000000000000021e-03 7.730059999999999709e-01 6.306749999999999856e-03 1.053130000000000024e+02 1.623420000000000073e+03
2.000000000000000042e-03 7.729915000000000536e-01 -3.928924999999999779e-03 1.052810000000000059e+02 1.623414999999999964e+03
3.000000000000000062e-03 7.730574999999999530e-01 9.160635000000000305e-02 1.053849999999999909e+02 1.623434999999999945e+03
4.000000000000000083e-03 7.731194999999999595e-01 1.934677999999999953e-01 1.055099999999999909e+02 1.623465000000000146e+03
5.000000000000000104e-03 7.730835000000000345e-01 1.680834499999999954e-01 1.054449999999999932e+02 1.623454999999999927e+03
6.000000000000000125e-03 7.729935000000000000e-01 6.083949999999999081e-02 1.052024999999999864e+02 1.623405000000000200e+03
7.000000000000000146e-03 7.729184999999999528e-01 -3.263349999999998197e-02 1.049085000000000036e+02 1.623339999999999918e+03
8.000000000000000167e-03 7.728030000000000177e-01 -1.991549999999999709e-01 1.044809999999999945e+02 1.623255000000000109e+03
9.000000000000001055e-03 7.726085000000000313e-01 -5.000350000000000072e-01 1.038209999999999980e+02 1.623119999999999891e+03
1.000000000000000194e-02 7.723379999999999690e-01 -9.283000000000000140e-01 1.028950000000000102e+02 1.622929999999999836e+03
1.099999999999999936e-02 7.719685000000000574e-01 -1.503379999999999939e+00 1.016383500000000026e+02 1.622670000000000073e+03
1.200000000000000025e-02 7.714805000000000135e-01 -2.235355000000000203e+00 9.998834999999999695e+01 1.622319999999999936e+03
1.300000000000000114e-02 7.709110000000000129e-01 -3.043840000000000323e+00 9.799745000000000061e+01 1.621889999999999873e+03
1.400000000000000203e-02 7.703480000000000327e-01 -3.764244999999999841e+00 9.585849999999999227e+01 1.621414999999999964e+03
1.499999999999999944e-02 7.698749999999999760e-01 -4.232552500000000606e+00 9.381260000000000332e+01 1.620940000000000055e+03
1.600000000000000033e-02 7.695274999999999199e-01 -4.361280999999999963e+00 9.203225000000000477e+01 1.620500000000000000e+03
1.700000000000000122e-02 7.692835000000000090e-01 -4.160521499999999762e+00 9.056434999999999036e+01 1.620110000000000127e+03
1.800000000000000211e-02 7.690855000000000885e-01 -3.713954999999999895e+00 8.933635000000001014e+01 1.619764999999999873e+03
1.900000000000000300e-02 7.688679999999999959e-01 -3.135175499999999893e+00 8.820425000000000182e+01 1.619440000000000055e+03
2.000000000000000042e-02 7.685815000000000285e-01 -2.523733500000000074e+00 8.701585000000000036e+01 1.619105000000000018e+03
2.100000000000000130e-02 7.682085000000000719e-01 -1.933689999999999909e+00 8.566809999999999548e+01 1.618735000000000127e+03
2.200000000000000219e-02 7.677640000000000020e-01 -1.364225000000000021e+00 8.413785000000000025e+01 1.618335000000000036e+03
2.299999999999999961e-02 7.672860000000000236e-01 -7.747599999999998932e-01 8.247695000000000221e+01 1.617909999999999854e+03
2.400000000000000050e-02 7.668135000000000367e-01 -1.156949999999996592e-01 8.077644999999999698e+01 1.617465000000000146e+03
2.500000000000000139e-02 7.663725000000000120e-01 6.405350000000002986e-01 7.912024999999999864e+01 1.617025000000000091e+03
2.600000000000000228e-02 7.659635000000000193e-01 1.480494999999999894e+00 7.754704999999999870e+01 1.616605000000000018e+03
2.700000000000000316e-02 7.655624999999999236e-01 2.346875000000000266e+00 7.603215000000000146e+01 1.616195000000000164e+03
2.800000000000000058e-02 7.651304999999999357e-01 3.149669999999999970e+00 7.449154999999998950e+01 1.615779999999999973e+03
2.900000000000000147e-02 7.646209999999999951e-01 3.786655000000000548e+00 7.280349999999999966e+01 1.615340000000000146e+03
3.000000000000000236e-02 7.639979999999999549e-01 4.167870000000000630e+00 7.084229999999999450e+01 1.614849999999999909e+03
3.099999999999999978e-02 7.632440000000000335e-01 4.238389999999999880e+00 6.851560000000000628e+01 1.614284999999999854e+03
3.200000000000000067e-02 7.623659999999999881e-01 3.992445000000000466e+00 6.579489999999999839e+01 1.613639999999999873e+03
3.300000000000000155e-02 7.613989999999999370e-01 3.475239999999999885e+00 6.272939999999999827e+01 1.612924999999999955e+03
3.400000000000000244e-02 7.603945000000000842e-01 2.771070000000000366e+00 5.943975000000000364e+01 1.612159999999999854e+03
3.500000000000000333e-02 7.594119999999999759e-01 1.983700000000000685e+00 5.609515000000000384e+01 1.611369999999999891e+03
3.600000000000000422e-02 7.585075000000000012e-01 1.215965000000000629e+00 5.288240000000000407e+01 1.610599999999999909e+03
3.700000000000000511e-02 7.577234999999999943e-01 5.541700000000000514e-01 4.997759999999999536e+01 1.609884999999999991e+03
3.799999999999999906e-02 7.570904999999999996e-01 5.995499999999998053e-02 4.752429999999999666e+01 1.609264999999999873e+03
3.899999999999999994e-02 7.566239999999999633e-01 -2.311100000000001486e-01 4.562239999999999895e+01 1.608759999999999991e+03
4.000000000000000083e-02 7.563269999999999715e-01 -3.055200000000000138e-01 4.432630000000000337e+01 1.608384999999999991e+03
4.100000000000000172e-02 7.561930000000000041e-01 -1.648950000000000138e-01 4.365054999999999552e+01 1.608150000000000091e+03
4.200000000000000261e-02 7.562145000000000117e-01 1.818812999999999958e-01 4.358069999999999311e+01 1.608059999999999945e+03
4.300000000000000350e-02 7.563800000000000523e-01 7.253514999999999269e-01 4.408565000000000111e+01 1.608105000000000018e+03
4.400000000000000439e-02 7.566815000000000069e-01 1.459635000000000016e+00 4.512824999999999420e+01 1.608285000000000082e+03
4.499999999999999833e-02 7.571124999999999661e-01 2.383284999999999876e+00 4.667229999999999990e+01 1.608590000000000146e+03
4.599999999999999922e-02 7.576674999999999383e-01 3.497145000000000614e+00 4.868524999999999636e+01 1.609009999999999991e+03
4.700000000000000011e-02 7.583405000000000840e-01 4.800475000000000492e+00 5.113584999999999781e+01 1.609545000000000073e+03
4.800000000000000100e-02 7.591239999999999100e-01 6.286749999999999616e+00 5.399009999999999820e+01 1.610175000000000182e+03
4.900000000000000189e-02 7.600044999999999717e-01 7.940824999999999356e+00 5.720720000000000027e+01 1.610904999999999973e+03
5.000000000000000278e-02 7.609675000000000189e-01 9.737759000000000498e+00 6.073605000000000587e+01 1.611710000000000036e+03
5.100000000000000366e-02 7.619929999999999204e-01 1.164375000000000071e+01 6.451529999999999632e+01 1.612585000000000036e+03
5.200000000000000455e-02 7.630589999999999318e-01 1.361883000000000088e+01 6.847514999999999930e+01 1.613514999999999873e+03
5.300000000000000544e-02 7.641445000000000043e-01 1.562031499999999973e+01 7.254115000000000180e+01 1.614480000000000018e+03
5.399999999999999939e-02 7.652295000000000069e-01 1.760661999999999949e+01 7.663964999999998895e+01 1.615465000000000146e+03
5.500000000000000028e-02 7.662960000000000882e-01 1.954025000000000034e+01 8.070279999999999632e+01 1.616454999999999927e+03
5.600000000000000117e-02 7.673315000000000552e-01 2.139055000000000106e+01 8.467340000000000089e+01 1.617434999999999945e+03
5.700000000000000205e-02 7.683260000000000645e-01 2.313449999999999918e+01 8.850634999999999764e+01 1.618389999999999873e+03
5.800000000000000294e-02 7.692745000000000832e-01 2.475730000000000075e+01 9.217355000000000587e+01 1.619319999999999936e+03
5.900000000000000383e-02 7.701765000000000416e-01 2.625159999999999982e+01 9.565975000000000250e+01 1.620204999999999927e+03
6.000000000000000472e-02 7.710339999999999971e-01 2.761625000000000085e+01 9.896369999999998868e+01 1.621059999999999945e+03
6.099999999999999867e-02 7.718515000000000237e-01 2.885535000000000139e+01 1.020951000000000022e+02 1.621869999999999891e+03
6.199999999999999956e-02 7.726345000000000018e-01 2.997664999999999935e+01 1.050726500000000101e+02 1.622650000000000091e+03
6.300000000000000044e-02 7.733905000000000918e-01 3.099065000000000225e+01 1.079205000000000041e+02 1.623394999999999982e+03
6.400000000000000133e-02 7.741264999999999397e-01 3.190954999999999941e+01 1.106659999999999968e+02 1.624115000000000009e+03
6.500000000000000222e-02 7.748504999999999976e-01 3.274604999999999677e+01 1.133375000000000057e+02 1.624819999999999936e+03
6.600000000000000311e-02 7.755674999999999653e-01 3.351270000000000238e+01 1.159629999999999939e+02 1.625505000000000109e+03
6.700000000000000400e-02 7.762839999999999741e-01 3.422079999999999700e+01 1.185655000000000001e+02 1.626184999999999945e+03
6.800000000000000488e-02 7.770029999999999992e-01 3.487940000000000396e+01 1.211614999999999895e+02 1.626859999999999900e+03
6.900000000000000577e-02 7.777264999999999873e-01 3.549455000000000382e+01 1.237614999999999981e+02 1.627534999999999854e+03
7.000000000000000666e-02 7.784530000000000616e-01 3.606895000000000095e+01 1.263675000000000068e+02 1.628210000000000036e+03
7.100000000000000755e-02 7.791784999999999961e-01 3.660134999999999650e+01 1.289724999999999966e+02 1.628880000000000109e+03
7.200000000000000844e-02 7.798985000000000500e-01 3.708735000000000070e+01 1.315600000000000023e+02 1.629549999999999955e+03
7.300000000000000933e-02 7.806049999999999933e-01 3.751959999999999695e+01 1.341084999999999923e+02 1.630210000000000036e+03
7.399999999999999634e-02 7.812909999999999577e-01 3.788880000000000337e+01 1.365894999999999868e+02 1.630855000000000018e+03
7.499999999999999722e-02 7.819460000000000299e-01 3.818475000000000108e+01 1.389714999999999918e+02 1.631474999999999909e+03
7.599999999999999811e-02 7.825630000000000086e-01 3.839719999999999800e+01 1.412235000000000014e+02 1.632069999999999936e+03
7.699999999999999900e-02 7.831330000000000791e-01 3.851695000000000135e+01 1.433149999999999977e+02 1.632625000000000000e+03
7.799999999999999989e-02 7.836499999999999577e-01 3.853629999999999711e+01 1.452185000000000059e+02 1.633134999999999991e+03
7.900000000000000078e-02 7.841084999999999861e-01 3.844964999999999833e+01 1.469124999999999943e+02 1.633595000000000027e+03
8.000000000000000167e-02 7.845050000000000079e-01 3.825404999999999944e+01 1.483804999999999836e+02 1.634010000000000218e+03
8.100000000000000255e-02 7.848380000000000356e-01 3.794899999999999807e+01 1.496125000000000114e+02 1.634360000000000127e+03
8.200000000000000344e-02 7.851064999999999294e-01 3.753664999999999452e+01 1.506055000000000064e+02 1.634654999999999973e+03
8.300000000000000433e-02 7.853125000000000799e-01 3.702195000000000391e+01 1.513625000000000114e+02 1.634889999999999873e+03
8.400000000000000522e-02 7.854594999999999771e-01 3.641199999999999903e+01 1.518919999999999959e+02 1.635065000000000055e+03
8.500000000000000611e-02 7.855509999999999993e-01 3.571640000000000015e+01 1.522104999999999961e+02 1.635190000000000055e+03
8.600000000000000699e-02 7.855929999999999858e-01 3.494650000000000034e+01 1.523360000000000127e+02 1.635264999999999873e+03
8.700000000000000788e-02 7.855920000000000680e-01 3.411534999999999940e+01 1.522930000000000064e+02 1.635289999999999964e+03
8.800000000000000877e-02 7.855555000000000732e-01 3.323709999999999809e+01 1.521075000000000159e+02 1.635284999999999854e+03
8.899999999999999578e-02 7.854904999999999804e-01 3.232659999999999911e+01 1.518075000000000045e+02 1.635240000000000009e+03
8.999999999999999667e-02 7.854045000000000609e-01 3.139880000000000138e+01 1.514215000000000089e+02 1.635170000000000073e+03
9.099999999999999756e-02 7.853044999999999609e-01 3.046814999999999785e+01 1.509780000000000086e+02 1.635079999999999927e+03
9.199999999999999845e-02 7.851989999999999803e-01 2.954804999999999637e+01 1.505035000000000025e+02 1.634980000000000018e+03
9.299999999999999933e-02 7.850920000000000121e-01 2.865019999999999811e+01 1.500219999999999914e+02 1.634869999999999891e+03
9.400000000000000022e-02 7.849889999999999368e-01 2.778435000000000343e+01 1.495534999999999854e+02 1.634759999999999991e+03
9.500000000000000111e-02 7.848945000000000505e-01 2.695775000000000077e+01 1.491150000000000091e+02 1.634650000000000091e+03
9.600000000000000200e-02 7.848094999999999377e-01 2.617494999999999905e+01 1.487164999999999964e+02 1.634549999999999955e+03
9.700000000000000289e-02 7.847355000000000302e-01 2.543764999999999787e+01 1.483634999999999877e+02 1.634464999999999918e+03
9.800000000000000377e-02 7.846720000000000361e-01 2.474510000000000076e+01 1.480575000000000045e+02 1.634380000000000109e+03
9.900000000000000466e-02 7.846170000000000089e-01 2.409389999999999787e+01 1.477944999999999993e+02 1.634305000000000064e+03
1.000000000000000056e-01 7.845689999999999609e-01 2.347889999999999944e+01 1.475660000000000025e+02 1.634235000000000127e+03
1.010000000000000064e-01 7.845234999999999292e-01 2.289294999999999902e+01 1.473614999999999782e+02 1.634179999999999836e+03
1.020000000000000073e-01 7.844774999999999388e-01 2.232800000000000296e+01 1.471675000000000182e+02 1.634119999999999891e+03
1.030000000000000082e-01 7.844265000000000265e-01 2.177519999999999811e+01 1.469675000000000011e+02 1.634065000000000055e+03
1.040000000000000091e-01 7.843664999999999665e-01 2.122545000000000215e+01 1.467475000000000023e+02 1.634005000000000109e+03
1.050000000000000100e-01 7.842934999999999768e-01 2.067000000000000171e+01 1.464909999999999854e+02 1.633934999999999945e+03
1.059999999999999970e-01 7.842040000000000122e-01 2.010095000000000098e+01 1.461845000000000141e+02 1.633860000000000127e+03
1.069999999999999979e-01 7.840959999999999042e-01 1.951129999999999853e+01 1.458159999999999741e+02 1.633764999999999873e+03
1.079999999999999988e-01 7.839675000000000393e-01 1.889570000000000149e+01 1.453764999999999930e+02 1.633664999999999964e+03
1.089999999999999997e-01 7.838165000000000271e-01 1.825049999999999883e+01 1.448605000000000018e+02 1.633534999999999854e+03
1.100000000000000006e-01 7.836440000000000072e-01 1.757394999999999996e+01 1.442660000000000196e+02 1.633394999999999982e+03
1.110000000000000014e-01 7.834510000000000085e-01 1.686655000000000015e+01 1.435939999999999941e+02 1.633235000000000127e+03
1.120000000000000023e-01 7.832394999999999774e-01 1.613084999999999880e+01 1.428505000000000109e+02 1.633059999999999945e+03
1.130000000000000032e-01 7.830120000000000413e-01 1.537119999999999997e+01 1.420450000000000159e+02 1.632869999999999891e+03
1.140000000000000041e-01 7.827735000000000110e-01 1.459404499999999949e+01 1.411899999999999977e+02 1.632664999999999964e+03
1.150000000000000050e-01 7.825280000000000014e-01 1.380733000000000033e+01 1.403004999999999995e+02 1.632449999999999818e+03
1.160000000000000059e-01 7.822799999999999754e-01 1.301999499999999976e+01 1.393944999999999936e+02 1.632224999999999909e+03
1.170000000000000068e-01 7.820359999999999534e-01 1.224195999999999884e+01 1.384915000000000020e+02 1.632005000000000109e+03
1.180000000000000077e-01 7.818005000000000093e-01 1.148339499999999980e+01 1.376100000000000136e+02 1.631785000000000082e+03
1.190000000000000085e-01 7.815784999999999538e-01 1.075436499999999995e+01 1.367699999999999818e+02 1.631575000000000045e+03
1.200000000000000094e-01 7.813744999999999719e-01 1.006428499999999993e+01 1.359879999999999995e+02 1.631375000000000000e+03
1.209999999999999964e-01 7.811934999999999851e-01 9.421620000000000772e+00 1.352814999999999941e+02 1.631190000000000055e+03
1.219999999999999973e-01 7.810375000000000512e-01 8.833549999999998903e+00 1.346624999999999943e+02 1.631029999999999973e+03
1.229999999999999982e-01 7.809090000000000753e-01 8.305500000000000327e+00 1.341415000000000077e+02 1.630880000000000109e+03
1.239999999999999991e-01 7.808094999999999342e-01 7.841099999999999959e+00 1.337245000000000061e+02 1.630764999999999873e+03
1.250000000000000000e-01 7.807390000000000718e-01 7.442029999999999923e+00 1.334134999999999991e+02 1.630674999999999955e+03
1.260000000000000009e-01 7.806960000000000566e-01 7.108004999999999463e+00 1.332080000000000268e+02 1.630599999999999909e+03
1.270000000000000018e-01 7.806790000000000118e-01 6.836870000000000225e+00 1.331019999999999754e+02 1.630559999999999945e+03
1.280000000000000027e-01 7.806859999999999911e-01 6.624774999999999636e+00 1.330879999999999939e+02 1.630534999999999854e+03
1.290000000000000036e-01 7.807125000000000314e-01 6.466429999999999900e+00 1.331550000000000011e+02 1.630534999999999854e+03
1.300000000000000044e-01 7.807554999999999357e-01 6.355389999999999873e+00 1.332889999999999873e+02 1.630550000000000182e+03
1.310000000000000053e-01 7.808105000000000739e-01 6.284404999999999575e+00 1.334764999999999873e+02 1.630579999999999927e+03
1.320000000000000062e-01 7.808745000000000269e-01 6.245749999999999247e+00 1.337019999999999982e+02 1.630625000000000000e+03
1.330000000000000071e-01 7.809424999999999839e-01 6.231575000000000308e+00 1.339505000000000052e+02 1.630674999999999955e+03
1.340000000000000080e-01 7.810099999999999820e-01 6.234210000000000029e+00 1.342074999999999818e+02 1.630724999999999909e+03
1.350000000000000089e-01 7.810760000000001035e-01 6.246430000000000149e+00 1.344594999999999914e+02 1.630785000000000082e+03
1.360000000000000098e-01 7.811354999999999826e-01 6.261660000000000004e+00 1.346949999999999932e+02 1.630840000000000146e+03
1.370000000000000107e-01 7.811865000000000059e-01 6.274189999999999934e+00 1.349050000000000011e+02 1.630889999999999873e+03
1.380000000000000115e-01 7.812289999999999512e-01 6.279234999999999900e+00 1.350805000000000007e+02 1.630929999999999836e+03
1.390000000000000124e-01 7.812594999999999956e-01 6.273035000000000139e+00 1.352180000000000177e+02 1.630965000000000146e+03
1.400000000000000133e-01 7.812790000000000568e-01 6.252855000000000274e+00 1.353129999999999882e+02 1.630990000000000009e+03
1.410000000000000142e-01 7.812870000000000648e-01 6.216979999999999507e+00 1.353644999999999925e+02 1.631009999999999991e+03
1.420000000000000151e-01 7.812844999999999374e-01 6.164640000000000342e+00 1.353735000000000070e+02 1.631014999999999873e+03
1.430000000000000160e-01 7.812715000000000076e-01 6.095940000000000580e+00 1.353425000000000011e+02 1.631010000000000218e+03
1.440000000000000169e-01 7.812490000000000823e-01 6.011739999999999640e+00 1.352740000000000009e+02 1.631000000000000000e+03
1.450000000000000178e-01 7.812189999999999968e-01 5.913534999999999542e+00 1.351739999999999782e+02 1.630980000000000018e+03
1.459999999999999909e-01 7.811825000000000019e-01 5.803345000000000198e+00 1.350469999999999970e+02 1.630954999999999927e+03
1.469999999999999918e-01 7.811410000000000853e-01 5.683514999999999873e+00 1.348980000000000246e+02 1.630920000000000073e+03
1.479999999999999927e-01 7.810965000000000824e-01 5.556625000000000369e+00 1.347339999999999804e+02 1.630884999999999991e+03
1.489999999999999936e-01 7.810500000000000220e-01 5.425340000000000273e+00 1.345589999999999975e+02 1.630845000000000027e+03
1.499999999999999944e-01 7.810034999999999616e-01 5.292234999999999800e+00 1.343789999999999907e+02 1.630804999999999836e+03
1.509999999999999953e-01 7.809565000000000534e-01 5.159724999999999895e+00 1.341980000000000075e+02 1.630759999999999991e+03
1.519999999999999962e-01 7.809110000000000218e-01 5.029939999999999856e+00 1.340190000000000055e+02 1.630715000000000146e+03
1.529999999999999971e-01 7.808669999999999778e-01 4.904640000000000555e+00 1.338460000000000036e+02 1.630675000000000182e+03
1.539999999999999980e-01 7.808249999999999913e-01 4.785185000000000244e+00 1.336795000000000186e+02 1.630634999999999991e+03
1.549999999999999989e-01 7.807855000000000212e-01 4.672474999999999490e+00 1.335199999999999818e+02 1.630594999999999800e+03
1.559999999999999998e-01 7.807479999999999976e-01 4.566989999999999661e+00 1.333679999999999950e+02 1.630554999999999836e+03
1.570000000000000007e-01 7.807120000000000726e-01 4.468795000000000073e+00 1.332219999999999800e+02 1.630519999999999982e+03
1.580000000000000016e-01 7.806759999999999255e-01 4.377604999999999968e+00 1.330805000000000007e+02 1.630485000000000127e+03
1.590000000000000024e-01 7.806410000000000293e-01 4.292864999999999931e+00 1.329415000000000191e+02 1.630444999999999936e+03
