# t [s], A [cm^2], U [cm/s], P [cPa], c [cm/s]
1.000000000000000021e-03 1.945780000000000010e-01 2.529155000000000153e-01 1.045734999999999957e+02 2.064664999999999964e+03
2.000000000000000042e-03 1.945350000000000135e-01 1.760736499999999705e+00 1.013962999999999965e+02 2.064295000000000073e+03
3.000000000000000062e-03 1.944015000000000049e-01 3.652588500000000238e+00 9.698140000000000782e+01 2.063220000000000255e+03
4.000000000000000083e-03 1.942105000000000081e-01 5.781508500000000161e+00 9.200919999999999277e+01 2.061715000000000146e+03
5.000000000000000104e-03 1.939980000000000038e-01 8.079089999999998994e+00 8.736435000000000173e+01 2.060059999999999945e+03
6.000000000000000125e-03 1.937895000000000034e-01 1.039691000000000010e+01 8.345840000000001169e+01 2.058440000000000055e+03
7.000000000000000146e-03 1.935919999999999863e-01 1.252843499999999999e+01 8.017144999999999300e+01 2.056935000000000400e+03
8.000000000000000167e-03 1.934089999999999976e-01 1.435220499999999966e+01 7.725614999999999100e+01 2.055569999999999709e+03
9.000000000000001055e-03 1.932460000000000011e-01 1.587605000000000111e+01 7.469265000000000043e+01 2.054364999999999782e+03
1.000000000000000194e-02 1.931059999999999999e-01 1.713824999999999932e+01 7.256450000000000955e+01 2.053350000000000364e+03
1.099999999999999936e-02 1.929899999999999949e-01 1.816019999999999968e+01 7.088409999999998945e+01 2.052519999999999982e+03
1.200000000000000025e-02 1.928980000000000139e-01 1.895680000000000121e+01 6.960479999999999734e+01 2.051865000000000236e+03
1.300000000000000114e-02 1.928249999999999964e-01 1.953515000000000157e+01 6.864029999999999632e+01 2.051359999999999673e+03
1.400000000000000203e-02 1.927679999999999949e-01 1.989864999999999995e+01 6.786990000000000123e+01 2.050970000000000255e+03
1.499999999999999944e-02 1.927214999999999900e-01 2.008140000000000214e+01 6.722145000000000437e+01 2.050664999999999964e+03
1.600000000000000033e-02 1.926875000000000115e-01 2.017665000000000219e+01 6.678419999999999845e+01 2.050444999999999709e+03
1.700000000000000122e-02 1.926720000000000099e-01 2.031820000000000093e+01 6.681595000000000084e+01 2.050350000000000364e+03
1.800000000000000211e-02 1.926829999999999932e-01 2.062144999999999939e+01 6.760625000000000284e+01 2.050444999999999709e+03
1.900000000000000300e-02 1.927260000000000084e-01 2.112655000000000172e+01 6.928979999999999961e+01 2.050764999999999873e+03
2.000000000000000042e-02 1.927999999999999992e-01 2.177890000000000015e+01 7.173545000000000016e+01 2.051300000000000182e+03
2.100000000000000130e-02 1.928949999999999831e-01 2.245345000000000013e+01 7.456735000000000468e+01 2.052000000000000000e+03
2.200000000000000219e-02 1.929974999999999885e-01 2.300489999999999924e+01 7.729234999999999900e+01 2.052759999999999764e+03
2.299999999999999961e-02 1.930914999999999992e-01 2.331864999999999810e+01 7.946485000000001264e+01 2.053470000000000255e+03
2.400000000000000050e-02 1.931654999999999900e-01 2.334389999999999787e+01 8.081829999999999359e+01 2.054034999999999854e+03
2.500000000000000139e-02 1.932145000000000112e-01 2.309964999999999691e+01 8.132009999999999650e+01 2.054414999999999964e+03
2.600000000000000228e-02 1.932379999999999931e-01 2.265674999999999883e+01 8.114279999999999404e+01 2.054619999999999891e+03
2.700000000000000316e-02 1.932429999999999981e-01 2.210510000000000019e+01 8.057179999999999609e+01 2.054670000000000073e+03
2.800000000000000058e-02 1.932359999999999911e-01 2.152130000000000010e+01 7.989320000000000732e+01 2.054630000000000109e+03
2.900000000000000147e-02 1.932254999999999945e-01 2.094634999999999891e+01 7.930199999999999250e+01 2.054559999999999945e+03
3.000000000000000236e-02 1.932139999999999969e-01 2.038054999999999950e+01 7.885859999999999559e+01 2.054480000000000018e+03
3.099999999999999978e-02 1.932030000000000136e-01 1.979299999999999926e+01 7.849869999999999948e+01 2.054394999999999982e+03
3.200000000000000067e-02 1.931900000000000006e-01 1.914089999999999847e+01 7.808484999999998877e+01 2.054304999999999836e+03
3.300000000000000155e-02 1.931704999999999950e-01 1.839179999999999993e+01 7.747679999999999723e+01 2.054170000000000073e+03
3.400000000000000244e-02 1.931430000000000091e-01 1.754080000000000084e+01 7.659720000000000084e+01 2.053974999999999909e+03
3.500000000000000333e-02 1.931059999999999999e-01 1.661840000000000117e+01 7.547259999999999991e+01 2.053710000000000036e+03
3.600000000000000422e-02 1.930624999999999980e-01 1.568750000000000000e+01 7.423930000000000007e+01 2.053400000000000091e+03
3.700000000000000511e-02 1.930195000000000105e-01 1.482959999999999923e+01 7.311230000000000473e+01 2.053079999999999927e+03
3.799999999999999906e-02 1.929830000000000156e-01 1.412495000000000012e+01 7.232914999999999850e+01 2.052809999999999945e+03
3.899999999999999994e-02 1.929615000000000080e-01 1.363305000000000078e+01 7.208615000000000350e+01 2.052639999999999873e+03
4.000000000000000083e-02 1.929595000000000060e-01 1.337920000000000087e+01 7.248645000000000493e+01 2.052619999999999891e+03
4.100000000000000172e-02 1.929794999999999983e-01 1.334884999999999877e+01 7.351335000000000264e+01 2.052750000000000000e+03
4.200000000000000261e-02 1.930199999999999971e-01 1.349210000000000065e+01 7.503390000000000271e+01 2.053029999999999745e+03
4.300000000000000350e-02 1.930759999999999976e-01 1.373430000000000106e+01 7.682740000000001146e+01 2.053420000000000073e+03
4.400000000000000439e-02 1.931390000000000051e-01 1.399024999999999963e+01 7.863044999999999618e+01 2.053875000000000000e+03
4.499999999999999833e-02 1.932004999999999972e-01 1.417859999999999943e+01 8.018430000000000746e+01 2.054324999999999818e+03
4.599999999999999922e-02 1.932520000000000071e-01 1.423254999999999981e+01 8.127524999999999977e+01 2.054704999999999927e+03
4.700000000000000011e-02 1.932875000000000010e-01 1.410655000000000037e+01 8.176120000000000232e+01 2.054974999999999909e+03
4.800000000000000100e-02 1.933015000000000150e-01 1.377834999999999965e+01 8.158039999999999736e+01 2.055090000000000146e+03
4.900000000000000189e-02 1.932925000000000060e-01 1.324640000000000128e+01 8.074599999999999511e+01 2.055030000000000200e+03
5.000000000000000278e-02 1.932599999999999874e-01 1.252524999999999977e+01 7.932820000000000960e+01 2.054804999999999836e+03
5.100000000000000366e-02 1.932070000000000176e-01 1.163960499999999954e+01 7.743240000000000123e+01 2.054425000000000182e+03
5.200000000000000455e-02 1.931355000000000155e-01 1.061906000000000105e+01 7.517725000000000080e+01 2.053909999999999854e+03
5.300000000000000544e-02 1.930505000000000138e-01 9.494564999999999699e+00 7.267834999999999468e+01 2.053289999999999964e+03
5.399999999999999939e-02 1.929549999999999876e-01 8.296305000000000263e+00 7.003829999999999245e+01 2.052594999999999800e+03
5.500000000000000028e-02 1.928525000000000100e-01 7.053525000000000489e+00 6.734459999999999980e+01 2.051845000000000255e+03
5.600000000000000117e-02 1.927464999999999873e-01 5.795589999999999797e+00 6.467204999999999870e+01 2.051065000000000055e+03
5.700000000000000205e-02 1.926404999999999923e-01 4.552945000000000242e+00 6.208865000000000123e+01 2.050289999999999964e+03
5.800000000000000294e-02 1.925370000000000137e-01 3.358218000000000369e+00 5.966155000000000541e+01 2.049529999999999745e+03
5.900000000000000383e-02 1.924389999999999989e-01 2.246472500000000316e+00 5.746110000000000184e+01 2.048805000000000291e+03
6.000000000000000472e-02 1.923495000000000066e-01 1.254554999999999865e+00 5.556230000000000047e+01 2.048140000000000327e+03
6.099999999999999867e-02 1.922719999999999985e-01 4.196599999999999220e-01 5.404299999999999926e+01 2.047565000000000055e+03
6.199999999999999956e-02 1.922099999999999920e-01 -2.228550000000000253e-01 5.297934999999999661e+01 2.047100000000000136e+03
6.300000000000000044e-02 1.921654999999999891e-01 -6.418230000000000324e-01 5.243970000000000198e+01 2.046755000000000109e+03
6.400000000000000133e-02 1.921419999999999795e-01 -8.125899999999999235e-01 5.247830000000000439e+01 2.046570000000000164e+03
6.500000000000000222e-02 1.921410000000000062e-01 -7.188999999999999835e-01 5.312955000000000183e+01 2.046545000000000073e+03
6.600000000000000311e-02 1.921650000000000025e-01 -3.540895000000000570e-01 5.440429999999999922e+01 2.046695000000000164e+03
6.700000000000000400e-02 1.922125000000000083e-01 2.784699999999999953e-01 5.628830000000000666e+01 2.047030000000000200e+03
6.800000000000000488e-02 1.922840000000000105e-01 1.165714499999999987e+00 5.874309999999999832e+01 2.047534999999999854e+03
6.900000000000000577e-02 1.923785000000000078e-01 2.285897000000000290e+00 6.170865000000000578e+01 2.048199999999999818e+03
7.000000000000000666e-02 1.924929999999999974e-01 3.610120000000000218e+00 6.510835000000000150e+01 2.049025000000000091e+03
7.100000000000000755e-02 1.926255000000000051e-01 5.104214999999999947e+00 6.885420000000000584e+01 2.049985000000000127e+03
7.200000000000000844e-02 1.927719999999999989e-01 6.730825000000000280e+00 7.285280000000000200e+01 2.051050000000000182e+03
7.300000000000000933e-02 1.929295000000000038e-01 8.451494999999999536e+00 7.701160000000000139e+01 2.052194999999999709e+03
7.399999999999999634e-02 1.930945000000000022e-01 1.022870999999999952e+01 8.124410000000000309e+01 2.053404999999999745e+03
7.499999999999999722e-02 1.932639999999999914e-01 1.202766499999999894e+01 8.547435000000000116e+01 2.054649999999999636e+03
7.599999999999999811e-02 1.934345000000000092e-01 1.381769999999999854e+01 8.964085000000000036e+01 2.055909999999999854e+03
7.699999999999999900e-02 1.936039999999999983e-01 1.557334999999999958e+01 9.369825000000000159e+01 2.057164999999999964e+03
7.799999999999999989e-02 1.937705000000000122e-01 1.727499999999999858e+01 9.761830000000000496e+01 2.058404999999999745e+03
7.900000000000000078e-02 1.939330000000000220e-01 1.890879999999999939e+01 1.013892500000000041e+02 2.059614999999999782e+03
8.000000000000000167e-02 1.940915000000000001e-01 2.046640000000000015e+01 1.050129500000000036e+02 2.060795000000000073e+03
8.100000000000000255e-02 1.942440000000000000e-01 2.194405000000000072e+01 1.085019999999999953e+02 2.061945000000000164e+03
8.200000000000000344e-02 1.943929999999999825e-01 2.334189999999999898e+01 1.118774999999999977e+02 2.063059999999999945e+03
8.300000000000000433e-02 1.945385000000000031e-01 2.466255000000000308e+01 1.151634999999999991e+02 2.064154999999999745e+03
8.400000000000000522e-02 1.946805000000000063e-01 2.590990000000000038e+01 1.183830000000000098e+02 2.065220000000000255e+03
8.500000000000000611e-02 1.948199999999999932e-01 2.708845000000000169e+01 1.215564999999999998e+02 2.066275000000000091e+03
8.600000000000000699e-02 1.949575000000000058e-01 2.820219999999999771e+01 1.247005000000000052e+02 2.067315000000000055e+03
8.700000000000000788e-02 1.950939999999999896e-01 2.925400000000000134e+01 1.278220000000000027e+02 2.068345000000000255e+03
8.800000000000000877e-02 1.952295000000000003e-01 3.024530000000000030e+01 1.309219999999999970e+02 2.069369999999999891e+03
8.899999999999999578e-02 1.953634999999999955e-01 3.117589999999999861e+01 1.339935000000000116e+02 2.070385000000000218e+03
8.999999999999999667e-02 1.954965000000000175e-01 3.204390000000000072e+01 1.370249999999999773e+02 2.071390000000000327e+03
9.099999999999999756e-02 1.956275000000000097e-01 3.284595000000000198e+01 1.399979999999999905e+02 2.072385000000000218e+03
9.199999999999999845e-02 1.957554999999999990e-01 3.357734999999999559e+01 1.428910000000000196e+02 2.073359999999999673e+03
9.299999999999999933e-02 1.958809999999999996e-01 3.423255000000000337e+01 1.456790000000000020e+02 2.074305000000000291e+03
9.400000000000000022e-02 1.960014999999999952e-01 3.480514999999999759e+01 1.483369999999999891e+02 2.075220000000000255e+03
9.500000000000000111e-02 1.961164999999999992e-01 3.528849999999999909e+01 1.508394999999999868e+02 2.076095000000000255e+03
9.600000000000000200e-02 1.962249999999999828e-01 3.567595000000000027e+01 1.531619999999999777e+02 2.076925000000000182e+03
9.700000000000000289e-02 1.963265000000000149e-01 3.596115000000000350e+01 1.552810000000000059e+02 2.077699999999999818e+03
9.800000000000000377e-02 1.964195000000000246e-01 3.613835000000000264e+01 1.571775000000000091e+02 2.078420000000000073e+03
9.900000000000000466e-02 1.965040000000000120e-01 3.620305000000000462e+01 1.588340000000000032e+02 2.079065000000000055e+03
1.000000000000000056e-01 1.965780000000000027e-01 3.615189999999999770e+01 1.602379999999999995e+02 2.079635000000000218e+03
1.010000000000000064e-01 1.966419999999999835e-01 3.598344999999999771e+01 1.613815000000000168e+02 2.080130000000000109e+03
1.020000000000000073e-01 1.966955000000000231e-01 3.569800000000000040e+01 1.622620000000000005e+02 2.080545000000000073e+03
1.030000000000000082e-01 1.967380000000000240e-01 3.529824999999999591e+01 1.628820000000000050e+02 2.080880000000000109e+03
1.040000000000000091e-01 1.967705000000000148e-01 3.478900000000000148e+01 1.632510000000000048e+02 2.081135000000000218e+03
1.050000000000000100e-01 1.967919999999999947e-01 3.417735000000000412e+01 1.633820000000000050e+02 2.081309999999999945e+03
1.059999999999999970e-01 1.968039999999999790e-01 3.347254999999999825e+01 1.632965000000000089e+02 2.081414999999999964e+03
1.069999999999999979e-01 1.968070000000000097e-01 3.268554999999999922e+01 1.630165000000000077e+02 2.081444999999999709e+03
1.079999999999999988e-01 1.968019999999999770e-01 3.182884999999999920e+01 1.625699999999999932e+02 2.081414999999999964e+03
1.089999999999999997e-01 1.967895000000000061e-01 3.091594999999999871e+01 1.619859999999999900e+02 2.081329999999999927e+03
1.100000000000000006e-01 1.967714999999999881e-01 2.996074999999999733e+01 1.612944999999999993e+02 2.081199999999999818e+03
1.110000000000000014e-01 1.967484999999999928e-01 2.897719999999999985e+01 1.605249999999999773e+02 2.081034999999999854e+03
1.120000000000000023e-01 1.967214999999999936e-01 2.797885000000000133e+01 1.597059999999999889e+02 2.080835000000000036e+03
1.130000000000000032e-01 1.966924999999999923e-01 2.697804999999999964e+01 1.588619999999999948e+02 2.080614999999999782e+03
1.140000000000000041e-01 1.966610000000000025e-01 2.598610000000000042e+01 1.580140000000000100e+02 2.080380000000000109e+03
1.150000000000000050e-01 1.966295000000000126e-01 2.501249999999999929e+01 1.571804999999999950e+02 2.080140000000000327e+03
1.160000000000000059e-01 1.965974999999999806e-01 2.406484999999999985e+01 1.563729999999999905e+02 2.079900000000000091e+03
1.170000000000000068e-01 1.965655000000000041e-01 2.314874999999999972e+01 1.556000000000000227e+02 2.079659999999999854e+03
1.180000000000000077e-01 1.965349999999999875e-01 2.226790000000000092e+01 1.548650000000000091e+02 2.079425000000000182e+03
1.190000000000000085e-01 1.965054999999999996e-01 2.142364999999999853e+01 1.541649999999999920e+02 2.079199999999999818e+03
1.200000000000000094e-01 1.964770000000000127e-01 2.061560000000000059e+01 1.534965000000000259e+02 2.078980000000000018e+03
1.209999999999999964e-01 1.964489999999999847e-01 1.984170000000000300e+01 1.528494999999999777e+02 2.078765000000000327e+03
1.219999999999999973e-01 1.964214999999999989e-01 1.909805000000000064e+01 1.522119999999999891e+02 2.078555000000000291e+03
1.229999999999999982e-01 1.963940000000000130e-01 1.837975000000000136e+01 1.515699999999999932e+02 2.078345000000000255e+03
1.239999999999999991e-01 1.963664999999999994e-01 1.768110000000000070e+01 1.509085000000000036e+02 2.078130000000000109e+03
1.250000000000000000e-01 1.963374999999999981e-01 1.699569999999999936e+01 1.502119999999999891e+02 2.077909999999999854e+03
1.260000000000000009e-01 1.963075000000000236e-01 1.631714999999999804e+01 1.494655000000000200e+02 2.077679999999999836e+03
1.270000000000000018e-01 1.962750000000000050e-01 1.563925000000000054e+01 1.486550000000000011e+02 2.077430000000000291e+03
1.280000000000000027e-01 1.962404999999999844e-01 1.495635000000000048e+01 1.477699999999999818e+02 2.077164999999999964e+03
1.290000000000000036e-01 1.962025000000000019e-01 1.426385000000000147e+01 1.468000000000000114e+02 2.076880000000000109e+03
1.300000000000000044e-01 1.961610000000000020e-01 1.355835000000000079e+01 1.457415000000000020e+02 2.076570000000000164e+03
1.310000000000000053e-01 1.961160000000000125e-01 1.283779999999999966e+01 1.445925000000000011e+02 2.076224999999999909e+03
1.320000000000000062e-01 1.960680000000000200e-01 1.210200000000000031e+01 1.433564999999999827e+02 2.075864999999999782e+03
1.330000000000000071e-01 1.960165000000000102e-01 1.135212500000000091e+01 1.420395000000000039e+02 2.075474999999999909e+03
1.340000000000000080e-01 1.959615000000000107e-01 1.059135500000000008e+01 1.406539999999999964e+02 2.075059999999999945e+03
1.350000000000000089e-01 1.959039999999999948e-01 9.824279999999999902e+00 1.392135000000000105e+02 2.074625000000000000e+03
1.360000000000000098e-01 1.958439999999999903e-01 9.057019999999999627e+00 1.377375000000000114e+02 2.074175000000000182e+03
1.370000000000000107e-01 1.957824999999999982e-01 8.296635000000000204e+00 1.362450000000000045e+02 2.073719999999999800e+03
1.380000000000000115e-01 1.957210000000000061e-01 7.551309999999999079e+00 1.347590000000000146e+02 2.073250000000000000e+03
1.390000000000000124e-01 1.956594999999999862e-01 6.829439999999999955e+00 1.333014999999999759e+02 2.072784999999999854e+03
1.400000000000000133e-01 1.955985000000000085e-01 6.139599999999999724e+00 1.318944999999999936e+02 2.072329999999999927e+03
1.410000000000000142e-01 1.955399999999999916e-01 5.490009999999999835e+00 1.305594999999999857e+02 2.071885000000000218e+03
1.420000000000000151e-01 1.954839999999999911e-01 4.888200000000000323e+00 1.293139999999999930e+02 2.071460000000000036e+03
1.430000000000000160e-01 1.954309999999999936e-01 4.340685000000000571e+00 1.281730000000000018e+02 2.071060000000000400e+03
1.440000000000000169e-01 1.953830000000000011e-01 3.852710000000000079e+00 1.271500000000000057e+02 2.070689999999999600e+03
1.450000000000000178e-01 1.953384999999999982e-01 3.428060000000000329e+00 1.262519999999999953e+02 2.070355000000000018e+03
1.459999999999999909e-01 1.952990000000000004e-01 3.068945000000000256e+00 1.254830000000000041e+02 2.070050000000000182e+03
1.469999999999999918e-01 1.952650000000000219e-01 2.775994999999999990e+00 1.248425000000000011e+02 2.069789999999999964e+03
1.479999999999999927e-01 1.952359999999999929e-01 2.548290000000000166e+00 1.243280000000000030e+02 2.069565000000000055e+03
1.489999999999999936e-01 1.952119999999999966e-01 2.383469999999999978e+00 1.239314999999999998e+02 2.069375000000000000e+03
1.499999999999999944e-01 1.951924999999999910e-01 2.277880000000000127e+00 1.236444999999999936e+02 2.069224999999999909e+03
1.509999999999999953e-01 1.951769999999999894e-01 2.226795000000000080e+00 1.234544999999999959e+02 2.069110000000000127e+03
1.519999999999999962e-01 1.951664999999999928e-01 2.224604999999999944e+00 1.233489999999999895e+02 2.069019999999999982e+03
1.529999999999999971e-01 1.951585000000000125e-01 2.265089999999999826e+00 1.233139999999999930e+02 2.068954999999999927e+03
1.539999999999999980e-01 1.951539999999999941e-01 2.341600000000000126e+00 1.233349999999999937e+02 2.068914999999999964e+03
1.549999999999999989e-01 1.951525000000000065e-01 2.447320000000000384e+00 1.233975000000000080e+02 2.068894999999999982e+03
1.559999999999999998e-01 1.951525000000000065e-01 2.575474999999999959e+00 1.234879999999999995e+02 2.068890000000000327e+03
1.570000000000000007e-01 1.951535000000000075e-01 2.719495000000000218e+00 1.235945000000000107e+02 2.068894999999999982e+03
1.580000000000000016e-01 1.951554999999999818e-01 2.873230000000000395e+00 1.237055000000000007e+02 2.068909999999999854e+03
1.590000000000000024e-01 1.951579999999999981e-01 3.031035000000000146e+00 1.238104999999999905e+02 2.068929999999999836e+03
