# t [s], A [cm^2], U [cm/s], P [cPa], c [cm/s]
1.000000000000000021e-03 6.553074999999999317e-01 5.583999999999998687e-03 1.042125000000000057e+02 1.609595000000000027e+03
2.000000000000000042e-03 6.552970000000000184e-01 -2.911000000000016005e-05 1.041825000000000045e+02 1.609590000000000146e+03
3.000000000000000062e-03 6.553645000000000165e-01 1.163095500000000115e-01 1.043064999999999998e+02 1.609615000000000009e+03
4.000000000000000083e-03 6.554104999999998959e-01 2.109118999999999855e-01 1.044190000000000111e+02 1.609644999999999982e+03
5.000000000000000104e-03 6.553640000000000576e-01 1.577739999999999976e-01 1.043079999999999927e+02 1.609625000000000000e+03
6.000000000000000125e-03 6.552815000000000722e-01 3.737599999999996481e-02 1.040245000000000033e+02 1.609559999999999945e+03
7.000000000000000146e-03 6.552050000000000374e-01 -8.476049999999996087e-02 1.036659999999999968e+02 1.609485000000000127e+03
8.000000000000000167e-03 6.550724999999999465e-01 -3.173750000000000737e-01 1.031135000000000019e+02 1.609365000000000009e+03
9.000000000000001055e-03 6.548644999999999605e-01 -6.996449999999998504e-01 1.022780000000000058e+02 1.609180000000000064e+03
1.000000000000000194e-02 6.545799999999999397e-01 -1.220239999999999991e+00 1.011276000000000010e+02 1.608924999999999955e+03
1.099999999999999936e-02 6.541959999999999997e-01 -1.903195000000000192e+00 9.958744999999998981e+01 1.608590000000000146e+03
1.200000000000000025e-02 6.537034999999999929e-01 -2.741104999999999681e+00 9.761195000000000732e+01 1.608134999999999991e+03
1.300000000000000114e-02 6.531510000000000371e-01 -3.615920000000000467e+00 9.530549999999999500e+01 1.607599999999999909e+03
1.400000000000000203e-02 6.526294999999999735e-01 -4.331349499999999964e+00 9.292019999999999413e+01 1.607019999999999982e+03
1.499999999999999944e-02 6.522129999999999317e-01 -4.716473549999999904e+00 9.073029999999999973e+01 1.606464999999999918e+03
1.600000000000000033e-02 6.519234999999999891e-01 -4.701329499999999939e+00 8.890994999999999493e+01 1.605970000000000027e+03
1.700000000000000122e-02 6.517295000000000726e-01 -4.327644999999999520e+00 8.747790000000000532e+01 1.605545000000000073e+03
1.800000000000000211e-02 6.515684999999999949e-01 -3.713319999999999954e+00 8.631739999999999213e+01 1.605180000000000064e+03
1.900000000000000300e-02 6.513770000000000948e-01 -2.998750499999999874e+00 8.523939999999998918e+01 1.604835000000000036e+03
2.000000000000000042e-02 6.511099999999999666e-01 -2.295107000000000230e+00 8.406100000000000705e+01 1.604465000000000146e+03
2.100000000000000130e-02 6.507574999999999887e-01 -1.650824999999999987e+00 8.267185000000000628e+01 1.604059999999999945e+03
2.200000000000000219e-02 6.503404999999999880e-01 -1.048480000000000301e+00 8.106319999999999482e+01 1.603615000000000009e+03
2.299999999999999961e-02 6.498995000000000744e-01 -4.315349999999997799e-01 7.930940000000001078e+01 1.603134999999999991e+03
2.400000000000000050e-02 6.494694999999999219e-01 2.550900000000000389e-01 7.751744999999999663e+01 1.602634999999999991e+03
2.500000000000000139e-02 6.490675000000000194e-01 1.030794999999999906e+00 7.577060000000000173e+01 1.602139999999999873e+03
2.600000000000000228e-02 6.486855000000000260e-01 1.863514999999999810e+00 7.408995000000000175e+01 1.601659999999999854e+03
2.700000000000000316e-02 6.482944999999999958e-01 2.673390000000000377e+00 7.242185000000000628e+01 1.601180000000000064e+03
2.800000000000000058e-02 6.478515000000000246e-01 3.351359999999999673e+00 7.065094999999999459e+01 1.600684999999999945e+03
2.900000000000000147e-02 6.473165000000000724e-01 3.786030000000000229e+00 6.863230000000000075e+01 1.600135000000000218e+03
3.000000000000000236e-02 6.466585000000000250e-01 3.892229999999999634e+00 6.623400000000000887e+01 1.599505000000000109e+03
3.099999999999999978e-02 6.458720000000000017e-01 3.633939999999999504e+00 6.337899999999999778e+01 1.598785000000000082e+03
3.200000000000000067e-02 6.449754999999999239e-01 3.034685000000000077e+00 6.007394999999999641e+01 1.597954999999999927e+03
3.300000000000000155e-02 6.440105000000000413e-01 2.172225000000000072e+00 5.641595000000000226e+01 1.597049999999999955e+03
3.400000000000000244e-02 6.430320000000000480e-01 1.160250000000000448e+00 5.257620000000000005e+01 1.596095000000000027e+03
3.500000000000000333e-02 6.420979999999999466e-01 1.242499999999999716e-01 4.876869999999999550e+01 1.595130000000000109e+03
3.600000000000000422e-02 6.412615000000000398e-01 -8.198799999999994981e-01 4.521399999999999864e+01 1.594210000000000036e+03
3.700000000000000511e-02 6.405600000000000183e-01 -1.580675000000000274e+00 4.210849999999999937e+01 1.593375000000000000e+03
3.799999999999999906e-02 6.400185000000000457e-01 -2.097420000000000062e+00 3.960325000000000273e+01 1.592680000000000064e+03
3.899999999999999994e-02 6.396490000000000231e-01 -2.338935000000000208e+00 3.779429999999999978e+01 1.592134999999999991e+03
4.000000000000000083e-02 6.394504999999999217e-01 -2.297825500000000076e+00 3.672419999999999618e+01 1.591769999999999982e+03
4.100000000000000172e-02 6.394165000000000543e-01 -1.981929999999999970e+00 3.639050000000000296e+01 1.591585000000000036e+03
4.200000000000000261e-02 6.395349999999999646e-01 -1.405876934999999994e+00 3.675979999999999848e+01 1.591579999999999927e+03
4.300000000000000350e-02 6.397939999999999738e-01 -5.846700000000000230e-01 3.778125000000000000e+01 1.591740000000000009e+03
4.400000000000000439e-02 6.401829999999999465e-01 4.694450000000003342e-01 3.939815000000000111e+01 1.592059999999999945e+03
4.499999999999999833e-02 6.406914999999999694e-01 1.746534999999999727e+00 4.155434999999999945e+01 1.592530000000000200e+03
4.599999999999999922e-02 6.413100000000000467e-01 3.235920000000000130e+00 4.419514999999999816e+01 1.593130000000000109e+03
4.700000000000000011e-02 6.420265000000000555e-01 4.922324999999999839e+00 4.726510000000000389e+01 1.593845000000000027e+03
4.800000000000000100e-02 6.428270000000000373e-01 6.782215000000000771e+00 5.070420000000000016e+01 1.594675000000000182e+03
4.900000000000000189e-02 6.436950000000000172e-01 8.782813499999999607e+00 5.444455000000000666e+01 1.595579999999999927e+03
5.000000000000000278e-02 6.446100000000000163e-01 1.088247999999999927e+01 5.840975000000000250e+01 1.596565000000000055e+03
5.100000000000000366e-02 6.455515000000000558e-01 1.303356999999999921e+01 6.251684999999999803e+01 1.597590000000000146e+03
5.200000000000000455e-02 6.464990000000000459e-01 1.518640000000000079e+01 6.668045000000000755e+01 1.598650000000000091e+03
5.300000000000000544e-02 6.474324999999999664e-01 1.729329999999999856e+01 7.081815000000000282e+01 1.599719999999999800e+03
5.399999999999999939e-02 6.483365000000000933e-01 1.931250000000000000e+01 7.485644999999999527e+01 1.600775000000000091e+03
5.500000000000000028e-02 6.491995000000000404e-01 2.121074999999999733e+01 7.873579999999999757e+01 1.601805000000000064e+03
5.600000000000000117e-02 6.500139999999999807e-01 2.296464999999999890e+01 8.241344999999999743e+01 1.602795000000000073e+03
5.700000000000000205e-02 6.507764999999999800e-01 2.456114999999999782e+01 8.586535000000000650e+01 1.603740000000000009e+03
5.800000000000000294e-02 6.514895000000000547e-01 2.599640000000000128e+01 8.908549999999999613e+01 1.604634999999999991e+03
5.900000000000000383e-02 6.521565000000000278e-01 2.727430000000000021e+01 9.208299999999999841e+01 1.605474999999999909e+03
6.000000000000000472e-02 6.527844999999999898e-01 2.840469999999999828e+01 9.488139999999999930e+01 1.606264999999999873e+03
6.099999999999999867e-02 6.533809999999999896e-01 2.940234999999999843e+01 9.751170000000000471e+01 1.607014999999999873e+03
6.199999999999999956e-02 6.539550000000000640e-01 3.028484999999999872e+01 1.000129499999999894e+02 1.607730000000000018e+03
6.300000000000000044e-02 6.545170000000000154e-01 3.107164999999999822e+01 1.024268000000000001e+02 1.608424999999999955e+03
6.400000000000000133e-02 6.550750000000000739e-01 3.178300000000000125e+01 1.047944999999999993e+02 1.609095000000000027e+03
6.500000000000000222e-02 6.556374999999999842e-01 3.243885000000000218e+01 1.071554999999999893e+02 1.609764999999999873e+03
6.600000000000000311e-02 6.562114999999999476e-01 3.305745000000000289e+01 1.095444999999999993e+02 1.610434999999999945e+03
6.700000000000000400e-02 6.568024999999999558e-01 3.365420000000000300e+01 1.119885000000000019e+02 1.611115000000000009e+03
6.800000000000000488e-02 6.574130000000000251e-01 3.424035000000000650e+01 1.145040000000000049e+02 1.611805000000000064e+03
6.900000000000000577e-02 6.580429999999999335e-01 3.482229999999999848e+01 1.170979999999999990e+02 1.612514999999999873e+03
7.000000000000000666e-02 6.586899999999999977e-01 3.540075000000000216e+01 1.197655000000000030e+02 1.613244999999999891e+03
7.100000000000000755e-02 6.593489999999999629e-01 3.597090000000000032e+01 1.224885000000000019e+02 1.613989999999999782e+03
7.200000000000000844e-02 6.600114999999999732e-01 3.652289999999999992e+01 1.252374999999999972e+02 1.614734999999999900e+03
7.300000000000000933e-02 6.606684999999999919e-01 3.704294999999999760e+01 1.279765000000000015e+02 1.615480000000000018e+03
7.399999999999999634e-02 6.613080000000000069e-01 3.751460000000000150e+01 1.306624999999999943e+02 1.616220000000000027e+03
7.499999999999999722e-02 6.619209999999999816e-01 3.792010000000000502e+01 1.332485000000000070e+02 1.616940000000000055e+03
7.599999999999999811e-02 6.624955000000000149e-01 3.824184999999999945e+01 1.356885000000000048e+02 1.617615000000000009e+03
7.699999999999999900e-02 6.630224999999999591e-01 3.846394999999999698e+01 1.379399999999999977e+02 1.618255000000000109e+03
7.799999999999999989e-02 6.634945000000000981e-01 3.857285000000000252e+01 1.399660000000000082e+02 1.618840000000000146e+03
7.900000000000000078e-02 6.639049999999999674e-01 3.855845000000000056e+01 1.417365000000000066e+02 1.619360000000000127e+03
8.000000000000000167e-02 6.642509999999999248e-01 3.841460000000000008e+01 1.432314999999999827e+02 1.619809999999999945e+03
8.100000000000000255e-02 6.645299999999999541e-01 3.813909999999999911e+01 1.444395000000000095e+02 1.620190000000000055e+03
8.200000000000000344e-02 6.647434999999999317e-01 3.773409999999999798e+01 1.453600000000000136e+02 1.620490000000000009e+03
8.300000000000000433e-02 6.648935000000000262e-01 3.720550000000000068e+01 1.460004999999999882e+02 1.620719999999999800e+03
8.400000000000000522e-02 6.649845000000000894e-01 3.656309999999999860e+01 1.463785000000000025e+02 1.620880000000000109e+03
8.500000000000000611e-02 6.650220000000000020e-01 3.581990000000000407e+01 1.465169999999999959e+02 1.620974999999999909e+03
8.600000000000000699e-02 6.650139999999999940e-01 3.499139999999999873e+01 1.464474999999999909e+02 1.621005000000000109e+03
8.700000000000000788e-02 6.649680000000000035e-01 3.409535000000000338e+01 1.462024999999999864e+02 1.620990000000000009e+03
8.800000000000000877e-02 6.648935000000000262e-01 3.315039999999999765e+01 1.458195000000000050e+02 1.620930000000000064e+03
8.899999999999999578e-02 6.647974999999999302e-01 3.217584999999999695e+01 1.453369999999999891e+02 1.620840000000000146e+03
8.999999999999999667e-02 6.646894999999999332e-01 3.119064999999999799e+01 1.447920000000000016e+02 1.620724999999999909e+03
9.099999999999999756e-02 6.645769999999999733e-01 3.021255000000000024e+01 1.442189999999999941e+02 1.620595000000000027e+03
9.199999999999999845e-02 6.644660000000000011e-01 2.925740000000000052e+01 1.436494999999999891e+02 1.620454999999999927e+03
9.299999999999999933e-02 6.643634999999999957e-01 2.833865000000000123e+01 1.431100000000000136e+02 1.620320000000000164e+03
9.400000000000000022e-02 6.642725000000000435e-01 2.746659999999999968e+01 1.426214999999999975e+02 1.620195000000000164e+03
9.500000000000000111e-02 6.641954999999999387e-01 2.664835000000000065e+01 1.421974999999999909e+02 1.620075000000000045e+03
9.600000000000000200e-02 6.641345000000000720e-01 2.588754999999999740e+01 1.418449999999999989e+02 1.619980000000000018e+03
9.700000000000000289e-02 6.640880000000000116e-01 2.518435000000000201e+01 1.415665000000000191e+02 1.619889999999999873e+03
9.800000000000000377e-02 6.640550000000000619e-01 2.453575000000000017e+01 1.413550000000000182e+02 1.619825000000000045e+03
9.900000000000000466e-02 6.640325000000000255e-01 2.393609999999999971e+01 1.411999999999999886e+02 1.619769999999999982e+03
1.000000000000000056e-01 6.640170000000000794e-01 2.337705000000000055e+01 1.410865000000000009e+02 1.619724999999999909e+03
1.010000000000000064e-01 6.640030000000000099e-01 2.284870000000000090e+01 1.409954999999999927e+02 1.619694999999999936e+03
1.020000000000000073e-01 6.639855000000000063e-01 2.233984999999999843e+01 1.409060000000000059e+02 1.619660000000000082e+03
1.030000000000000082e-01 6.639610000000000234e-01 2.183869999999999933e+01 1.407965000000000089e+02 1.619625000000000000e+03
1.040000000000000091e-01 6.639234999999999998e-01 2.133360000000000056e+01 1.406435000000000173e+02 1.619575000000000045e+03
1.050000000000000100e-01 6.638684999999999725e-01 2.081354999999999933e+01 1.404279999999999973e+02 1.619514999999999873e+03
1.059999999999999970e-01 6.637925000000000075e-01 2.026885000000000048e+01 1.401315000000000168e+02 1.619440000000000055e+03
1.069999999999999979e-01 6.636934999999999363e-01 1.969144999999999968e+01 1.397404999999999973e+02 1.619340000000000146e+03
1.079999999999999988e-01 6.635685000000000056e-01 1.907564999999999955e+01 1.392445000000000164e+02 1.619215000000000146e+03
1.089999999999999997e-01 6.634174999999999933e-01 1.841830000000000211e+01 1.386390000000000100e+02 1.619065000000000055e+03
1.100000000000000006e-01 6.632409999999999695e-01 1.771904999999999930e+01 1.379240000000000066e+02 1.618884999999999991e+03
1.110000000000000014e-01 6.630409999999999915e-01 1.698010000000000019e+01 1.371050000000000182e+02 1.618680000000000064e+03
1.120000000000000023e-01 6.628209999999999935e-01 1.620674999999999955e+01 1.361929999999999836e+02 1.618449999999999818e+03
1.130000000000000032e-01 6.625844999999999096e-01 1.540644999999999953e+01 1.352030000000000030e+02 1.618199999999999818e+03
1.140000000000000041e-01 6.623360000000000358e-01 1.458913499999999885e+01 1.341555000000000177e+02 1.617930000000000064e+03
1.150000000000000050e-01 6.620820000000000594e-01 1.376607999999999876e+01 1.330724999999999909e+02 1.617650000000000091e+03
1.160000000000000059e-01 6.618284999999999307e-01 1.295004999999999917e+01 1.319795000000000016e+02 1.617369999999999891e+03
1.170000000000000068e-01 6.615804999999999048e-01 1.215418499999999824e+01 1.309014999999999986e+02 1.617079999999999927e+03
1.180000000000000077e-01 6.613450000000000717e-01 1.139162500000000122e+01 1.298650000000000091e+02 1.616804999999999836e+03
1.190000000000000085e-01 6.611264999999999503e-01 1.067470499999999944e+01 1.288940000000000055e+02 1.616539999999999964e+03
1.200000000000000094e-01 6.609300000000000175e-01 1.001476000000000077e+01 1.280095000000000027e+02 1.616295000000000073e+03
1.209999999999999964e-01 6.607594999999999441e-01 9.421025000000000205e+00 1.272300000000000040e+02 1.616075000000000045e+03
1.219999999999999973e-01 6.606175000000000797e-01 8.900824999999999321e+00 1.265695000000000050e+02 1.615880000000000109e+03
1.229999999999999982e-01 6.605054999999999676e-01 8.458895000000000053e+00 1.260364999999999895e+02 1.615715000000000146e+03
1.239999999999999991e-01 6.604239999999999000e-01 8.097390000000000754e+00 1.256350000000000051e+02 1.615585000000000036e+03
1.250000000000000000e-01 6.603719999999999590e-01 7.815889999999999560e+00 1.253640000000000043e+02 1.615490000000000009e+03
1.260000000000000009e-01 6.603480000000000461e-01 7.611425000000000551e+00 1.252175000000000011e+02 1.615425000000000182e+03
1.270000000000000018e-01 6.603489999999999638e-01 7.478825000000000500e+00 1.251855000000000047e+02 1.615394999999999982e+03
1.280000000000000027e-01 6.603710000000000413e-01 7.411009999999999209e+00 1.252535000000000025e+02 1.615384999999999991e+03
1.290000000000000036e-01 6.604105000000000114e-01 7.399404999999999788e+00 1.254060000000000059e+02 1.615400000000000091e+03
1.300000000000000044e-01 6.604640000000000510e-01 7.434375000000000178e+00 1.256235000000000070e+02 1.615434999999999945e+03
1.310000000000000053e-01 6.605254999999999876e-01 7.505694999999999339e+00 1.258884999999999934e+02 1.615490000000000009e+03
1.320000000000000062e-01 6.605909999999999282e-01 7.603010000000000268e+00 1.261809999999999974e+02 1.615554999999999836e+03
1.330000000000000071e-01 6.606579999999999675e-01 7.716204999999999536e+00 1.264824999999999875e+02 1.615615000000000009e+03
1.340000000000000080e-01 6.607214999999999616e-01 7.835815000000000197e+00 1.267775000000000034e+02 1.615684999999999945e+03
1.350000000000000089e-01 6.607785000000000464e-01 7.953305000000000291e+00 1.270515000000000043e+02 1.615755000000000109e+03
1.360000000000000098e-01 6.608270000000000532e-01 8.061294999999999433e+00 1.272920000000000016e+02 1.615809999999999945e+03
1.370000000000000107e-01 6.608659999999999535e-01 8.153745000000000687e+00 1.274915000000000020e+02 1.615865000000000009e+03
1.380000000000000115e-01 6.608929999999999527e-01 8.226020000000000110e+00 1.276430000000000007e+02 1.615905000000000200e+03
1.390000000000000124e-01 6.609089999999999687e-01 8.274974999999999525e+00 1.277439999999999998e+02 1.615940000000000055e+03
1.400000000000000133e-01 6.609130000000000837e-01 8.298880000000000479e+00 1.277934999999999945e+02 1.615960000000000036e+03
1.410000000000000142e-01 6.609065000000000634e-01 8.297364999999999213e+00 1.277944999999999993e+02 1.615960000000000036e+03
1.420000000000000151e-01 6.608899999999999775e-01 8.271300000000000097e+00 1.277500000000000000e+02 1.615960000000000036e+03
1.430000000000000160e-01 6.608659999999999535e-01 8.222644999999999982e+00 1.276670000000000016e+02 1.615944999999999936e+03
1.440000000000000169e-01 6.608355000000000201e-01 8.154254999999999143e+00 1.275519999999999925e+02 1.615920000000000073e+03
1.450000000000000178e-01 6.608009999999999717e-01 8.069665000000000532e+00 1.274134999999999991e+02 1.615889999999999873e+03
1.459999999999999909e-01 6.607635000000000591e-01 7.972914999999999530e+00 1.272600000000000051e+02 1.615855000000000018e+03
1.469999999999999918e-01 6.607264999999999944e-01 7.868270000000000763e+00 1.270999999999999943e+02 1.615815000000000055e+03
1.479999999999999927e-01 6.606894999999999296e-01 7.760040000000000049e+00 1.269410000000000025e+02 1.615779999999999973e+03
1.489999999999999936e-01 6.606570000000000498e-01 7.652350000000000207e+00 1.267909999999999968e+02 1.615740000000000009e+03
1.499999999999999944e-01 6.606274999999999231e-01 7.548944999999999794e+00 1.266564999999999941e+02 1.615704999999999927e+03
1.509999999999999953e-01 6.606035000000000101e-01 7.453044999999999476e+00 1.265415000000000134e+02 1.615680000000000064e+03
1.519999999999999962e-01 6.605855000000000476e-01 7.367205000000000226e+00 1.264505000000000052e+02 1.615655000000000200e+03
1.529999999999999971e-01 6.605745000000000644e-01 7.293235000000000134e+00 1.263845000000000027e+02 1.615634999999999991e+03
1.539999999999999980e-01 6.605685000000000029e-01 7.232154999999999667e+00 1.263444999999999965e+02 1.615619999999999891e+03
1.549999999999999989e-01 6.605685000000000029e-01 7.184235000000000149e+00 1.263294999999999959e+02 1.615615000000000009e+03
1.559999999999999998e-01 6.605730000000000768e-01 7.149015000000000342e+00 1.263359999999999985e+02 1.615610000000000127e+03
1.570000000000000007e-01 6.605814999999999326e-01 7.125394999999999257e+00 1.263610000000000042e+02 1.615615000000000009e+03
1.580000000000000016e-01 6.605929999999999858e-01 7.111805000000000376e+00 1.264004999999999939e+02 1.615619999999999891e+03
1.590000000000000024e-01 6.606054999999999566e-01 7.106284999999999741e+00 1.264484999999999957e+02 1.615634999999999991e+03
