# t [s], A [cm^2], U [cm/s], P [cPa], c [cm/s]
1.000000000000000021e-03 1.515814999999999801e-01 1.934819999999999873e-01 9.593999999999999773e+01 2.030695000000000164e+03
2.000000000000000042e-03 1.515519999999999923e-01 1.544845999999999941e+00 9.313094999999999857e+01 2.030375000000000000e+03
3.000000000000000062e-03 1.514564999999999939e-01 3.267394499999999979e+00 8.918395000000001005e+01 2.029400000000000091e+03
4.000000000000000083e-03 1.513174999999999937e-01 5.219302500000000400e+00 8.464194999999999425e+01 2.028009999999999991e+03
5.000000000000000104e-03 1.511609999999999898e-01 7.344260000000000232e+00 8.029635000000000389e+01 2.026460000000000036e+03
6.000000000000000125e-03 1.510055000000000147e-01 9.522475000000000023e+00 7.657675000000000409e+01 2.024940000000000055e+03
7.000000000000000146e-03 1.508589999999999931e-01 1.156508499999999984e+01 7.343039999999999168e+01 2.023514999999999873e+03
8.000000000000000167e-03 1.507209999999999939e-01 1.333724499999999935e+01 7.061560000000000059e+01 2.022210000000000036e+03
9.000000000000001055e-03 1.505954999999999933e-01 1.483226000000000155e+01 6.808110000000000639e+01 2.021049999999999955e+03
1.000000000000000194e-02 1.504869999999999819e-01 1.608845000000000169e+01 6.591294999999999504e+01 2.020045000000000073e+03
1.099999999999999936e-02 1.503955000000000153e-01 1.712804999999999822e+01 6.414520000000000266e+01 2.019210000000000036e+03
1.200000000000000025e-02 1.503204999999999958e-01 1.796640000000000015e+01 6.275115000000000265e+01 2.018535000000000082e+03
1.300000000000000114e-02 1.502605000000000190e-01 1.861360000000000170e+01 6.167190000000000083e+01 2.018000000000000000e+03
1.400000000000000203e-02 1.502124999999999988e-01 1.906909999999999883e+01 6.080575000000000330e+01 2.017579999999999927e+03
1.499999999999999944e-02 1.501730000000000009e-01 1.934619999999999962e+01 6.005320000000000391e+01 2.017240000000000009e+03
1.600000000000000033e-02 1.501409999999999967e-01 1.950880000000000081e+01 5.943040000000000589e+01 2.016970000000000027e+03
1.700000000000000122e-02 1.501195000000000168e-01 1.967354999999999876e+01 5.912715000000000032e+01 2.016795000000000073e+03
1.800000000000000211e-02 1.501159999999999994e-01 1.996490000000000009e+01 5.942780000000000484e+01 2.016775000000000091e+03
1.900000000000000300e-02 1.501354999999999773e-01 2.045414999999999850e+01 6.054059999999999775e+01 2.016960000000000036e+03
2.000000000000000042e-02 1.501784999999999926e-01 2.112385000000000090e+01 6.245395000000000607e+01 2.017355000000000018e+03
2.100000000000000130e-02 1.502415000000000000e-01 2.187424999999999997e+01 6.490164999999998940e+01 2.017940000000000055e+03
2.200000000000000219e-02 1.503144999999999898e-01 2.256380000000000052e+01 6.744570000000000221e+01 2.018615000000000009e+03
2.299999999999999961e-02 1.503849999999999909e-01 2.306085000000000207e+01 6.962385000000000446e+01 2.019284999999999854e+03
2.400000000000000050e-02 1.504435000000000078e-01 2.328539999999999921e+01 7.109510000000000218e+01 2.019840000000000146e+03
2.500000000000000139e-02 1.504825000000000190e-01 2.322760000000000247e+01 7.172870000000000346e+01 2.020230000000000018e+03
2.600000000000000228e-02 1.505009999999999959e-01 2.294024999999999892e+01 7.161404999999999177e+01 2.020430000000000064e+03
2.700000000000000316e-02 1.505024999999999835e-01 2.251200000000000045e+01 7.099784999999999968e+01 2.020470000000000027e+03
2.800000000000000058e-02 1.504929999999999879e-01 2.203275000000000006e+01 7.018039999999999168e+01 2.020394999999999982e+03
2.900000000000000147e-02 1.504800000000000026e-01 2.156530000000000058e+01 6.941140000000000043e+01 2.020275000000000091e+03
3.000000000000000236e-02 1.504659999999999886e-01 2.113009999999999877e+01 6.882019999999999982e+01 2.020150000000000091e+03
3.099999999999999978e-02 1.504544999999999910e-01 2.070714999999999861e+01 6.839730000000000132e+01 2.020034999999999854e+03
3.200000000000000067e-02 1.504429999999999934e-01 2.025099999999999767e+01 6.802405000000000257e+01 2.019934999999999945e+03
3.300000000000000155e-02 1.504289999999999794e-01 1.971260000000000190e+01 6.753480000000000416e+01 2.019809999999999945e+03
3.400000000000000244e-02 1.504090000000000149e-01 1.906139999999999901e+01 6.678909999999999059e+01 2.019625000000000000e+03
3.500000000000000333e-02 1.503809999999999869e-01 1.830045000000000144e+01 6.573144999999999527e+01 2.019375000000000000e+03
3.600000000000000422e-02 1.503450000000000064e-01 1.747180000000000177e+01 6.442255000000000109e+01 2.019049999999999955e+03
3.700000000000000511e-02 1.503039999999999932e-01 1.664884999999999948e+01 6.303340000000000032e+01 2.018679999999999836e+03
3.799999999999999906e-02 1.502644999999999953e-01 1.591990000000000016e+01 6.180409999999999826e+01 2.018315000000000055e+03
3.899999999999999994e-02 1.502330000000000054e-01 1.536634999999999884e+01 6.098160000000000025e+01 2.018010000000000218e+03
4.000000000000000083e-02 1.502140000000000142e-01 1.504354999999999976e+01 6.075489999999999924e+01 2.017819999999999936e+03
4.100000000000000172e-02 1.502134999999999998e-01 1.496809999999999974e+01 6.120725000000000193e+01 2.017795000000000073e+03
4.200000000000000261e-02 1.502304999999999890e-01 1.511534999999999940e+01 6.229635000000000389e+01 2.017940000000000055e+03
4.300000000000000350e-02 1.502649999999999819e-01 1.542579999999999885e+01 6.386469999999999914e+01 2.018240000000000009e+03
4.400000000000000439e-02 1.503099999999999992e-01 1.581735000000000113e+01 6.567439999999999145e+01 2.018644999999999982e+03
4.499999999999999833e-02 1.503605000000000080e-01 1.620129999999999981e+01 6.745410000000001105e+01 2.019105000000000018e+03
4.599999999999999922e-02 1.504085000000000005e-01 1.649579999999999913e+01 6.894705000000000439e+01 2.019550000000000182e+03
4.700000000000000011e-02 1.504475000000000118e-01 1.663710000000000022e+01 6.995005000000000450e+01 2.019920000000000073e+03
4.800000000000000100e-02 1.504729999999999956e-01 1.658500000000000085e+01 7.033650000000000091e+01 2.020164999999999964e+03
4.900000000000000189e-02 1.504809999999999759e-01 1.632370000000000232e+01 7.006270000000000664e+01 2.020244999999999891e+03
5.000000000000000278e-02 1.504699999999999926e-01 1.585829999999999984e+01 6.915885000000000105e+01 2.020164999999999964e+03
5.100000000000000366e-02 1.504415000000000058e-01 1.520940000000000047e+01 6.770945000000000391e+01 2.019909999999999854e+03
5.200000000000000455e-02 1.503975000000000173e-01 1.440605000000000047e+01 6.582900000000000773e+01 2.019514999999999873e+03
5.300000000000000544e-02 1.503404999999999880e-01 1.348085000000000022e+01 6.364045000000000130e+01 2.018990000000000009e+03
5.399999999999999939e-02 1.502740000000000187e-01 1.246525499999999909e+01 6.125804999999999723e+01 2.018380000000000109e+03
5.500000000000000028e-02 1.502000000000000002e-01 1.138870499999999986e+01 5.877884999999999849e+01 2.017699999999999818e+03
5.600000000000000117e-02 1.501224999999999921e-01 1.027835999999999927e+01 5.628155000000000285e+01 2.016980000000000018e+03
5.700000000000000205e-02 1.500434999999999963e-01 9.160619999999999763e+00 5.383060000000000400e+01 2.016244999999999891e+03
5.800000000000000294e-02 1.499645000000000006e-01 8.062754999999999228e+00 5.148369999999999891e+01 2.015509999999999991e+03
5.900000000000000383e-02 1.498879999999999935e-01 7.014434999999999754e+00 4.929874999999999829e+01 2.014809999999999945e+03
6.000000000000000472e-02 1.498169999999999780e-01 6.048334999999999795e+00 4.733919999999999817e+01 2.014139999999999873e+03
6.099999999999999867e-02 1.497530000000000250e-01 5.199714999999999421e+00 4.567579999999999529e+01 2.013539999999999964e+03
6.199999999999999956e-02 1.496985000000000121e-01 4.505024999999999835e+00 4.438540000000000418e+01 2.013025000000000091e+03
6.300000000000000044e-02 1.496560000000000112e-01 3.999749999999999694e+00 4.354574999999999818e+01 2.012625000000000000e+03
6.400000000000000133e-02 1.496284999999999976e-01 3.715899999999999981e+00 4.322964999999999947e+01 2.012349999999999909e+03
6.500000000000000222e-02 1.496174999999999866e-01 3.679535000000000000e+00 4.349729999999999563e+01 2.012235000000000127e+03
6.600000000000000311e-02 1.496254999999999946e-01 3.908724999999999561e+00 4.439054999999999751e+01 2.012284999999999854e+03
6.700000000000000400e-02 1.496534999999999949e-01 4.412209999999999965e+00 4.592820000000000391e+01 2.012525000000000091e+03
6.800000000000000488e-02 1.497014999999999874e-01 5.188794999999999824e+00 4.810415000000000418e+01 2.012949999999999818e+03
6.900000000000000577e-02 1.497705000000000009e-01 6.227610000000000312e+00 5.088750000000000284e+01 2.013565000000000055e+03
7.000000000000000666e-02 1.498579999999999912e-01 7.508980000000000210e+00 5.422520000000000095e+01 2.014360000000000127e+03
7.100000000000000755e-02 1.499639999999999862e-01 9.005865000000000009e+00 5.804600000000000648e+01 2.015324999999999818e+03
7.200000000000000844e-02 1.500854999999999828e-01 1.068563500000000133e+01 6.226575000000000415e+01 2.016440000000000055e+03
7.300000000000000933e-02 1.502204999999999790e-01 1.251196000000000197e+01 6.679294999999999050e+01 2.017684999999999945e+03
7.399999999999999634e-02 1.503659999999999997e-01 1.444695000000000107e+01 7.153475000000000250e+01 2.019029999999999973e+03
7.499999999999999722e-02 1.505190000000000139e-01 1.645299999999999940e+01 7.640179999999999438e+01 2.020450000000000045e+03
7.599999999999999811e-02 1.506764999999999910e-01 1.849474999999999980e+01 8.131364999999999554e+01 2.021920000000000073e+03
7.699999999999999900e-02 1.508369999999999989e-01 2.054059999999999775e+01 8.620220000000000482e+01 2.023420000000000073e+03
7.799999999999999989e-02 1.509979999999999933e-01 2.256390000000000029e+01 9.101470000000000482e+01 2.024930000000000064e+03
7.900000000000000078e-02 1.511580000000000146e-01 2.454380000000000095e+01 9.571529999999999916e+01 2.026434999999999945e+03
8.000000000000000167e-02 1.513154999999999917e-01 2.646549999999999869e+01 1.002842500000000001e+02 2.027920000000000073e+03
8.100000000000000255e-02 1.514694999999999792e-01 2.831974999999999909e+01 1.047181500000000085e+02 2.029380000000000109e+03
8.200000000000000344e-02 1.516204999999999914e-01 3.010260000000000247e+01 1.090250000000000057e+02 2.030815000000000055e+03
8.300000000000000433e-02 1.517680000000000140e-01 3.181414999999999793e+01 1.132235000000000014e+02 2.032215000000000146e+03
8.400000000000000522e-02 1.519135000000000069e-01 3.345730000000000359e+01 1.173359999999999985e+02 2.033599999999999909e+03
8.500000000000000611e-02 1.520559999999999967e-01 3.503654999999999831e+01 1.213870000000000005e+02 2.034960000000000036e+03
8.600000000000000699e-02 1.521969999999999990e-01 3.655695000000000050e+01 1.253979999999999961e+02 2.036304999999999836e+03
8.700000000000000788e-02 1.523370000000000002e-01 3.802280000000000371e+01 1.293849999999999909e+02 2.037644999999999982e+03
8.800000000000000877e-02 1.524754999999999860e-01 3.943720000000000425e+01 1.333575000000000159e+02 2.038974999999999909e+03
8.899999999999999578e-02 1.526139999999999997e-01 4.080140000000000100e+01 1.373174999999999955e+02 2.040295000000000073e+03
8.999999999999999667e-02 1.527519999999999989e-01 4.211475000000000080e+01 1.412574999999999932e+02 2.041619999999999891e+03
9.099999999999999756e-02 1.528885000000000105e-01 4.337460000000000093e+01 1.451655000000000086e+02 2.042934999999999945e+03
9.199999999999999845e-02 1.530239999999999934e-01 4.457645000000000124e+01 1.490199999999999818e+02 2.044230000000000018e+03
9.299999999999999933e-02 1.531575000000000020e-01 4.571424999999999983e+01 1.527980000000000018e+02 2.045519999999999982e+03
9.400000000000000022e-02 1.532879999999999798e-01 4.678074999999999761e+01 1.564719999999999800e+02 2.046775000000000091e+03
9.500000000000000111e-02 1.534155000000000102e-01 4.776789999999999736e+01 1.600130000000000052e+02 2.048000000000000000e+03
9.600000000000000200e-02 1.535380000000000078e-01 4.866714999999999947e+01 1.633924999999999841e+02 2.049184999999999945e+03
9.700000000000000289e-02 1.536555000000000004e-01 4.946979999999999933e+01 1.665815000000000055e+02 2.050324999999999818e+03
9.800000000000000377e-02 1.537665000000000004e-01 5.016734999999999900e+01 1.695534999999999854e+02 2.051400000000000091e+03
9.900000000000000466e-02 1.538700000000000068e-01 5.075209999999999866e+01 1.722835000000000036e+02 2.052409999999999854e+03
1.000000000000000056e-01 1.539659999999999918e-01 5.121719999999999828e+01 1.747520000000000095e+02 2.053340000000000146e+03
1.010000000000000064e-01 1.540535000000000099e-01 5.155720000000000169e+01 1.769415000000000191e+02 2.054194999999999709e+03
1.020000000000000073e-01 1.541314999999999769e-01 5.176850000000000307e+01 1.788389999999999986e+02 2.054954999999999927e+03
1.030000000000000082e-01 1.542000000000000037e-01 5.184945000000000448e+01 1.804389999999999930e+02 2.055630000000000109e+03
1.040000000000000091e-01 1.542585000000000206e-01 5.180089999999999861e+01 1.817404999999999973e+02 2.056210000000000036e+03
1.050000000000000100e-01 1.543069999999999997e-01 5.162610000000000099e+01 1.827495000000000118e+02 2.056699999999999818e+03
1.059999999999999970e-01 1.543464999999999976e-01 5.133095000000000141e+01 1.834775000000000205e+02 2.057085000000000036e+03
1.069999999999999979e-01 1.543769999999999865e-01 5.092365000000000208e+01 1.839440000000000168e+02 2.057394999999999982e+03
1.079999999999999988e-01 1.543980000000000075e-01 5.041474999999999795e+01 1.841709999999999923e+02 2.057610000000000127e+03
1.089999999999999997e-01 1.544115000000000071e-01 4.981664999999999566e+01 1.841875000000000000e+02 2.057750000000000000e+03
1.100000000000000006e-01 1.544174999999999853e-01 4.914300000000000068e+01 1.840235000000000127e+02 2.057819999999999709e+03
1.110000000000000014e-01 1.544174999999999853e-01 4.840840000000000032e+01 1.837119999999999891e+02 2.057829999999999927e+03
1.120000000000000023e-01 1.544125000000000081e-01 4.762760000000000105e+01 1.832855000000000132e+02 2.057789999999999964e+03
1.130000000000000032e-01 1.544030000000000125e-01 4.681499999999999773e+01 1.827764999999999986e+02 2.057704999999999927e+03
1.140000000000000041e-01 1.543904999999999861e-01 4.598430000000000462e+01 1.822130000000000223e+02 2.057590000000000146e+03
1.150000000000000050e-01 1.543760000000000132e-01 4.514789999999999992e+01 1.816204999999999927e+02 2.057449999999999818e+03
1.160000000000000059e-01 1.543594999999999828e-01 4.431654999999999944e+01 1.810215000000000032e+02 2.057295000000000073e+03
1.170000000000000068e-01 1.543424999999999936e-01 4.349904999999999688e+01 1.804314999999999998e+02 2.057130000000000109e+03
1.180000000000000077e-01 1.543255000000000043e-01 4.270215000000000316e+01 1.798625000000000114e+02 2.056965000000000146e+03
1.190000000000000085e-01 1.543085000000000151e-01 4.193039999999999878e+01 1.793204999999999814e+02 2.056795000000000073e+03
1.200000000000000094e-01 1.542914999999999981e-01 4.118609999999999616e+01 1.788075000000000045e+02 2.056635000000000218e+03
1.209999999999999964e-01 1.542749999999999955e-01 4.046959999999999980e+01 1.783195000000000050e+02 2.056474999999999909e+03
1.219999999999999973e-01 1.542589999999999795e-01 3.977915000000000134e+01 1.778495000000000061e+02 2.056320000000000164e+03
1.229999999999999982e-01 1.542430000000000190e-01 3.911129999999999995e+01 1.773870000000000005e+02 2.056164999999999964e+03
1.239999999999999991e-01 1.542274999999999896e-01 3.846115000000000350e+01 1.769180000000000064e+02 2.056010000000000218e+03
1.250000000000000000e-01 1.542115000000000014e-01 3.782280000000000086e+01 1.764275000000000091e+02 2.055849999999999909e+03
1.260000000000000009e-01 1.541945000000000121e-01 3.718954999999999700e+01 1.758980000000000246e+02 2.055679999999999836e+03
1.270000000000000018e-01 1.541754999999999931e-01 3.655450000000000443e+01 1.753139999999999930e+02 2.055500000000000000e+03
1.280000000000000027e-01 1.541555000000000009e-01 3.591060000000000230e+01 1.746595000000000084e+02 2.055300000000000182e+03
1.290000000000000036e-01 1.541325000000000056e-01 3.525160000000000338e+01 1.739200000000000159e+02 2.055079999999999927e+03
1.300000000000000044e-01 1.541065000000000074e-01 3.457189999999999941e+01 1.730854999999999961e+02 2.054840000000000146e+03
1.310000000000000053e-01 1.540785000000000071e-01 3.386715000000000231e+01 1.721469999999999914e+02 2.054565000000000055e+03
1.320000000000000062e-01 1.540465000000000029e-01 3.313445000000000107e+01 1.711005000000000109e+02 2.054255000000000109e+03
1.330000000000000071e-01 1.540110000000000090e-01 3.237245000000000061e+01 1.699449999999999932e+02 2.053914999999999964e+03
1.340000000000000080e-01 1.539719999999999978e-01 3.158165000000000333e+01 1.686859999999999786e+02 2.053545000000000073e+03
1.350000000000000089e-01 1.539300000000000113e-01 3.076435000000000031e+01 1.673319999999999936e+02 2.053139999999999873e+03
1.360000000000000098e-01 1.538849999999999940e-01 2.992454999999999998e+01 1.658950000000000102e+02 2.052710000000000036e+03
1.370000000000000107e-01 1.538370000000000015e-01 2.906794999999999618e+01 1.643910000000000196e+02 2.052250000000000000e+03
1.380000000000000115e-01 1.537875000000000214e-01 2.820159999999999911e+01 1.628405000000000200e+02 2.051769999999999982e+03
1.390000000000000124e-01 1.537360000000000115e-01 2.733359999999999701e+01 1.612655000000000030e+02 2.051280000000000200e+03
1.400000000000000133e-01 1.536839999999999873e-01 2.647299999999999898e+01 1.596884999999999764e+02 2.050775000000000091e+03
1.410000000000000142e-01 1.536315000000000042e-01 2.562910000000000110e+01 1.581329999999999814e+02 2.050269999999999982e+03
1.420000000000000151e-01 1.535799999999999943e-01 2.481125000000000114e+01 1.566225000000000023e+02 2.049775000000000091e+03
1.430000000000000160e-01 1.535295000000000132e-01 2.402819999999999823e+01 1.551784999999999854e+02 2.049289999999999964e+03
1.440000000000000169e-01 1.534804999999999919e-01 2.328810000000000002e+01 1.538204999999999814e+02 2.048824999999999818e+03
1.450000000000000178e-01 1.534345000000000014e-01 2.259799999999999898e+01 1.525645000000000095e+02 2.048380000000000109e+03
1.459999999999999909e-01 1.533920000000000006e-01 2.196340000000000003e+01 1.514225000000000136e+02 2.047964999999999918e+03
1.469999999999999918e-01 1.533530000000000171e-01 2.138824999999999932e+01 1.504025000000000034e+02 2.047585000000000036e+03
1.479999999999999927e-01 1.533174999999999955e-01 2.087500000000000000e+01 1.495095000000000027e+02 2.047240000000000236e+03
1.489999999999999936e-01 1.532860000000000056e-01 2.042439999999999856e+01 1.487429999999999950e+02 2.046934999999999945e+03
1.499999999999999944e-01 1.532589999999999786e-01 2.003549999999999898e+01 1.480989999999999895e+02 2.046664999999999964e+03
1.509999999999999953e-01 1.532350000000000101e-01 1.970604999999999762e+01 1.475715000000000146e+02 2.046434999999999945e+03
1.519999999999999962e-01 1.532155000000000045e-01 1.943254999999999910e+01 1.471510000000000105e+02 2.046235000000000127e+03
1.529999999999999971e-01 1.531990000000000018e-01 1.921039999999999992e+01 1.468254999999999768e+02 2.046070000000000164e+03
1.539999999999999980e-01 1.531855000000000022e-01 1.903440000000000154e+01 1.465830000000000268e+02 2.045940000000000055e+03
1.549999999999999989e-01 1.531750000000000056e-01 1.889880000000000138e+01 1.464094999999999800e+02 2.045829999999999927e+03
1.559999999999999998e-01 1.531669999999999976e-01 1.879755000000000109e+01 1.462930000000000064e+02 2.045750000000000000e+03
1.570000000000000007e-01 1.531604999999999772e-01 1.872469999999999857e+01 1.462189999999999941e+02 2.045684999999999945e+03
1.580000000000000016e-01 1.531560000000000143e-01 1.867439999999999856e+01 1.461769999999999925e+02 2.045640000000000100e+03
1.590000000000000024e-01 1.531524999999999970e-01 1.864104999999999990e+01 1.461560000000000059e+02 2.045599999999999909e+03
