# t [s], A [cm^2], U [cm/s], P [cPa], c [cm/s]
1.000000000000000021e-03 6.031720000000000415e-01 4.108300000000002228e-03 1.066700000000000017e+02 1.406964999999999918e+03
2.000000000000000042e-03 6.031625000000000458e-01 -1.098864499999999914e-03 1.066520000000000010e+02 1.406954999999999927e+03
3.000000000000000062e-03 6.032009999999999872e-01 5.693559999999999593e-02 1.067034999999999911e+02 1.406980000000000018e+03
4.000000000000000083e-03 6.032589999999999897e-01 1.487487500000000129e-01 1.068075000000000045e+02 1.407009999999999991e+03
5.000000000000000104e-03 6.032660000000000800e-01 1.673320000000000085e-01 1.068265000000000100e+02 1.407019999999999982e+03
6.000000000000000125e-03 6.032180000000000319e-01 1.014489999999999975e-01 1.067139999999999986e+02 1.406994999999999891e+03
7.000000000000000146e-03 6.031615000000000171e-01 1.849000000000000643e-02 1.065254999999999939e+02 1.406944999999999936e+03
8.000000000000000167e-03 6.031024999999999858e-01 -7.420149999999997581e-02 1.062814999999999941e+02 1.406880000000000109e+03
9.000000000000001055e-03 6.030050000000000132e-01 -2.372104999999999353e-01 1.059194999999999993e+02 1.406784999999999854e+03
1.000000000000000194e-02 6.028544999999999598e-01 -4.950999999999998735e-01 1.053909999999999911e+02 1.406639999999999873e+03
1.099999999999999936e-02 6.026485000000000314e-01 -8.440000000000000835e-01 1.046724999999999994e+02 1.406445000000000164e+03
1.200000000000000025e-02 6.023760000000000225e-01 -1.292520000000000113e+00 1.037259999999999991e+02 1.406184999999999945e+03
1.300000000000000114e-02 6.020214999999999872e-01 -1.847055000000000113e+00 1.025150999999999897e+02 1.405839999999999918e+03
1.400000000000000203e-02 6.015975000000000072e-01 -2.472655000000000047e+00 1.010459000000000032e+02 1.405414999999999964e+03
1.499999999999999944e-02 6.011414999999999953e-01 -3.082190000000000207e+00 9.939544999999999675e+01 1.404920000000000073e+03
1.600000000000000033e-02 6.007044999999999746e-01 -3.565449999999999786e+00 9.769110000000000582e+01 1.404390000000000100e+03
1.700000000000000122e-02 6.003270000000000550e-01 -3.831709999999999727e+00 9.606170000000000186e+01 1.403865000000000009e+03
1.800000000000000211e-02 6.000229999999999730e-01 -3.837676000000000087e+00 9.459655000000000769e+01 1.403369999999999891e+03
1.900000000000000300e-02 5.997820000000000373e-01 -3.592721999999999749e+00 9.332470000000000709e+01 1.402909999999999854e+03
2.000000000000000042e-02 5.995749999999999691e-01 -3.146984999999999921e+00 9.221649999999999636e+01 1.402490000000000009e+03
2.100000000000000130e-02 5.993669999999999831e-01 -2.571144999999999570e+00 9.120199999999999818e+01 1.402085000000000036e+03
2.200000000000000219e-02 5.991269999999999651e-01 -1.934849999999999959e+00 9.019634999999999536e+01 1.401684999999999945e+03
2.299999999999999961e-02 5.988370000000000637e-01 -1.289075000000000193e+00 8.912584999999999980e+01 1.401269999999999982e+03
2.400000000000000050e-02 5.984929999999999417e-01 -6.565549999999999997e-01 8.794724999999999682e+01 1.400829999999999927e+03
2.500000000000000139e-02 5.981064999999999854e-01 -3.271499999999960551e-02 8.665524999999999523e+01 1.400355000000000018e+03
2.600000000000000228e-02 5.976964999999999639e-01 6.042550000000002086e-01 8.527660000000000196e+01 1.399849999999999909e+03
2.700000000000000316e-02 5.972815000000000207e-01 1.278760000000000119e+00 8.385484999999999900e+01 1.399335000000000036e+03
2.800000000000000058e-02 5.968750000000000444e-01 2.004274999999999807e+00 8.243225000000001046e+01 1.398819999999999936e+03
2.900000000000000147e-02 5.964804999999999691e-01 2.774770000000000181e+00 8.103419999999999845e+01 1.398305000000000064e+03
3.000000000000000236e-02 5.960909999999999265e-01 3.562635000000000218e+00 7.966089999999999804e+01 1.397789999999999964e+03
3.099999999999999978e-02 5.956905000000000117e-01 4.322314999999999685e+00 7.828605000000000302e+01 1.397275000000000091e+03
3.200000000000000067e-02 5.952589999999999826e-01 4.998310000000000031e+00 7.686249999999999716e+01 1.396750000000000000e+03
3.300000000000000155e-02 5.947770000000000001e-01 5.534950000000000259e+00 7.533285000000000764e+01 1.396204999999999927e+03
3.400000000000000244e-02 5.942294999999999661e-01 5.887095000000000411e+00 7.364310000000000400e+01 1.395615000000000009e+03
3.500000000000000333e-02 5.936105000000000409e-01 6.028805000000000192e+00 7.175575000000000614e+01 1.394970000000000027e+03
3.600000000000000422e-02 5.929250000000000353e-01 5.958175000000000665e+00 6.966060000000000230e+01 1.394269999999999982e+03
3.700000000000000511e-02 5.921874999999999778e-01 5.698069999999999524e+00 6.738009999999999877e+01 1.393525000000000091e+03
3.799999999999999906e-02 5.914234999999999909e-01 5.292210000000000747e+00 6.496850000000000591e+01 1.392735000000000127e+03
3.899999999999999994e-02 5.906620000000000203e-01 4.797629999999999839e+00 6.250534999999999997e+01 1.391929999999999836e+03
4.000000000000000083e-02 5.899339999999999584e-01 4.276529999999999276e+00 6.008539999999999281e+01 1.391130000000000109e+03
4.100000000000000172e-02 5.892665000000000264e-01 3.788330000000000197e+00 5.780764999999999532e+01 1.390360000000000127e+03
4.200000000000000261e-02 5.886850000000000138e-01 3.384100000000000108e+00 5.576480000000000103e+01 1.389654999999999973e+03
4.300000000000000350e-02 5.882070000000000354e-01 3.103019999999999889e+00 5.403575000000000017e+01 1.389039999999999964e+03
4.400000000000000439e-02 5.878424999999999345e-01 2.971824999999999939e+00 5.268030000000000257e+01 1.388530000000000200e+03
4.499999999999999833e-02 5.875989999999999824e-01 3.005475000000000119e+00 5.173794999999999789e+01 1.388144999999999982e+03
4.599999999999999922e-02 5.874764999999999571e-01 3.209743500000000083e+00 5.122820000000000107e+01 1.387889999999999873e+03
4.700000000000000011e-02 5.874730000000000230e-01 3.584064999999999834e+00 5.115364999999999895e+01 1.387775000000000091e+03
4.800000000000000100e-02 5.875835000000000363e-01 4.124394999999999811e+00 5.150444999999999851e+01 1.387799999999999955e+03
4.900000000000000189e-02 5.878030000000000754e-01 4.825409999999999755e+00 5.226180000000000092e+01 1.387960000000000036e+03
5.000000000000000278e-02 5.881244999999999390e-01 5.681779999999999831e+00 5.340224999999999511e+01 1.388244999999999891e+03
5.100000000000000366e-02 5.885430000000000383e-01 6.688349999999999795e+00 5.489979999999999905e+01 1.388654999999999973e+03
5.200000000000000455e-02 5.890520000000000200e-01 7.839389999999999858e+00 5.672745000000000459e+01 1.389184999999999945e+03
5.300000000000000544e-02 5.896434999999999871e-01 9.127620000000000289e+00 5.885675000000000523e+01 1.389820000000000164e+03
5.399999999999999939e-02 5.903104999999999603e-01 1.054269999999999996e+01 6.125780000000000314e+01 1.390549999999999955e+03
5.500000000000000028e-02 5.910440000000000138e-01 1.207056499999999843e+01 6.389775000000000205e+01 1.391365000000000009e+03
5.600000000000000117e-02 5.918329999999999425e-01 1.369301000000000101e+01 6.674080000000000723e+01 1.392265000000000100e+03
5.700000000000000205e-02 5.926649999999999974e-01 1.538786999999999949e+01 6.974764999999999304e+01 1.393219999999999800e+03
5.800000000000000294e-02 5.935289999999999733e-01 1.713034999999999997e+01 7.287645000000000550e+01 1.394230000000000018e+03
5.900000000000000383e-02 5.944104999999999528e-01 1.889397000000000304e+01 7.608404999999999063e+01 1.395275000000000091e+03
6.000000000000000472e-02 5.952990000000000226e-01 2.065214999999999890e+01 7.932765000000000555e+01 1.396349999999999909e+03
6.099999999999999867e-02 5.961819999999999897e-01 2.237985000000000113e+01 8.256659999999999400e+01 1.397434999999999945e+03
6.199999999999999956e-02 5.970509999999999984e-01 2.405494999999999806e+01 8.576435000000000741e+01 1.398509999999999991e+03
6.300000000000000044e-02 5.978984999999999994e-01 2.565885000000000105e+01 8.889054999999999040e+01 1.399585000000000036e+03
6.400000000000000133e-02 5.987180000000000835e-01 2.717729999999999890e+01 9.192134999999998968e+01 1.400634999999999991e+03
6.500000000000000222e-02 5.995074999999999710e-01 2.860045000000000215e+01 9.483934999999999604e+01 1.401654999999999973e+03
6.600000000000000311e-02 6.002655000000000074e-01 2.992285000000000039e+01 9.763644999999999641e+01 1.402644999999999982e+03
6.700000000000000400e-02 6.009915000000000118e-01 3.114280000000000115e+01 1.003099500000000006e+02 1.403605000000000018e+03
6.800000000000000488e-02 6.016885000000000705e-01 3.226165000000000305e+01 1.028630500000000012e+02 1.404525000000000091e+03
6.900000000000000577e-02 6.023594999999999366e-01 3.328370000000000317e+01 1.053053000000000026e+02 1.405409999999999854e+03
7.000000000000000666e-02 6.030085000000000583e-01 3.421495000000000175e+01 1.076490000000000009e+02 1.406264999999999873e+03
7.100000000000000755e-02 6.036379999999998969e-01 3.506284999999999741e+01 1.099085000000000036e+02 1.407095000000000027e+03
7.200000000000000844e-02 6.042534999999999989e-01 3.583550000000000324e+01 1.121004999999999967e+02 1.407900000000000091e+03
7.300000000000000933e-02 6.048599999999999532e-01 3.654155000000000086e+01 1.142409999999999997e+02 1.408690000000000055e+03
7.399999999999999634e-02 6.054595000000000393e-01 3.718925000000000125e+01 1.163455000000000013e+02 1.409460000000000036e+03
7.499999999999999722e-02 6.060560000000000391e-01 3.778634999999999877e+01 1.184274999999999949e+02 1.410220000000000027e+03
7.599999999999999811e-02 6.066525000000000389e-01 3.833950000000000102e+01 1.204979999999999905e+02 1.410980000000000018e+03
7.699999999999999900e-02 6.072494999999999976e-01 3.885394999999999754e+01 1.225639999999999930e+02 1.411730000000000018e+03
7.799999999999999989e-02 6.078474999999999850e-01 3.933324999999999960e+01 1.246295000000000073e+02 1.412480000000000018e+03
7.900000000000000078e-02 6.084460000000000424e-01 3.977885000000000559e+01 1.266929999999999836e+02 1.413235000000000127e+03
8.000000000000000167e-02 6.090424999999999311e-01 4.019029999999999347e+01 1.287504999999999882e+02 1.413980000000000018e+03
8.100000000000000255e-02 6.096344999999999681e-01 4.056510000000000105e+01 1.307924999999999898e+02 1.414719999999999800e+03
8.200000000000000344e-02 6.102164999999999395e-01 4.089900000000000091e+01 1.328060000000000116e+02 1.415450000000000045e+03
8.300000000000000433e-02 6.107854999999999812e-01 4.118630000000000280e+01 1.347744999999999891e+02 1.416170000000000073e+03
8.400000000000000522e-02 6.113345000000000029e-01 4.142014999999999958e+01 1.366804999999999950e+02 1.416865000000000009e+03
8.500000000000000611e-02 6.118585000000000829e-01 4.159340000000000259e+01 1.385040000000000191e+02 1.417535000000000082e+03
8.600000000000000699e-02 6.123524999999999663e-01 4.169870000000000232e+01 1.402264999999999873e+02 1.418175000000000182e+03
8.700000000000000788e-02 6.128109999999999946e-01 4.172914999999999708e+01 1.418269999999999982e+02 1.418775000000000091e+03
8.800000000000000877e-02 6.132290000000000241e-01 4.167895000000000039e+01 1.432905000000000086e+02 1.419329999999999927e+03
8.899999999999999578e-02 6.136034999999999684e-01 4.154335000000000377e+01 1.445999999999999943e+02 1.419840000000000146e+03
8.999999999999999667e-02 6.139315000000000744e-01 4.131924999999999670e+01 1.457454999999999927e+02 1.420295000000000073e+03
9.099999999999999756e-02 6.142110000000000625e-01 4.100520000000000209e+01 1.467180000000000177e+02 1.420690000000000055e+03
9.199999999999999845e-02 6.144414999999999738e-01 4.060164999999999935e+01 1.475144999999999982e+02 1.421025000000000091e+03
9.299999999999999933e-02 6.146225000000000716e-01 4.011100000000000421e+01 1.481340000000000146e+02 1.421304999999999836e+03
9.400000000000000022e-02 6.147564999999999280e-01 3.953719999999999857e+01 1.485805000000000007e+02 1.421519999999999982e+03
9.500000000000000111e-02 6.148455000000000448e-01 3.888615000000000066e+01 1.488609999999999900e+02 1.421680000000000064e+03
9.600000000000000200e-02 6.148919999999999941e-01 3.816495000000000459e+01 1.489855000000000018e+02 1.421779999999999973e+03
9.700000000000000289e-02 6.149005000000000720e-01 3.738224999999999909e+01 1.489685000000000059e+02 1.421829999999999927e+03
9.800000000000000377e-02 6.148744999999999905e-01 3.654755000000000109e+01 1.488245000000000005e+02 1.421835000000000036e+03
9.900000000000000466e-02 6.148194999999999633e-01 3.567110000000000269e+01 1.485704999999999814e+02 1.421795000000000073e+03
1.000000000000000056e-01 6.147409999999999819e-01 3.476375000000000171e+01 1.482255000000000109e+02 1.421720000000000027e+03
1.010000000000000064e-01 6.146424999999999805e-01 3.383630000000000138e+01 1.478079999999999927e+02 1.421615000000000009e+03
1.020000000000000073e-01 6.145300000000000207e-01 3.289950000000000330e+01 1.473374999999999773e+02 1.421485000000000127e+03
1.030000000000000082e-01 6.144084999999999130e-01 3.196349999999999625e+01 1.468299999999999841e+02 1.421335000000000036e+03
1.040000000000000091e-01 6.142815000000000358e-01 3.103774999999999906e+01 1.463044999999999902e+02 1.421170000000000073e+03
1.050000000000000100e-01 6.141535000000000188e-01 3.013064999999999927e+01 1.457744999999999891e+02 1.421005000000000109e+03
1.059999999999999970e-01 6.140280000000000182e-01 2.924929999999999808e+01 1.452534999999999741e+02 1.420835000000000036e+03
1.069999999999999979e-01 6.139080000000000092e-01 2.839929999999999666e+01 1.447524999999999977e+02 1.420664999999999964e+03
1.079999999999999988e-01 6.137934999999999919e-01 2.758460000000000178e+01 1.442785000000000082e+02 1.420505000000000109e+03
1.089999999999999997e-01 6.136874999999999414e-01 2.680754999999999910e+01 1.438375000000000057e+02 1.420345000000000027e+03
1.100000000000000006e-01 6.135895000000000099e-01 2.606875000000000142e+01 1.434309999999999832e+02 1.420200000000000045e+03
1.110000000000000014e-01 6.134999999999999343e-01 2.536720000000000041e+01 1.430584999999999809e+02 1.420059999999999945e+03
1.120000000000000023e-01 6.134165000000000312e-01 2.470049999999999812e+01 1.427180000000000177e+02 1.419930000000000064e+03
1.130000000000000032e-01 6.133375000000000909e-01 2.406475000000000009e+01 1.424030000000000200e+02 1.419809999999999945e+03
1.140000000000000041e-01 6.132619999999999738e-01 2.345515000000000327e+01 1.421064999999999827e+02 1.419695000000000164e+03
1.150000000000000050e-01 6.131869999999999266e-01 2.286610000000000298e+01 1.418204999999999814e+02 1.419579999999999927e+03
1.160000000000000059e-01 6.131100000000000438e-01 2.229139999999999944e+01 1.415355000000000132e+02 1.419474999999999909e+03
1.170000000000000068e-01 6.130280000000000173e-01 2.172460000000000235e+01 1.412404999999999973e+02 1.419365000000000009e+03
1.180000000000000077e-01 6.129385000000000527e-01 2.115944999999999965e+01 1.409269999999999925e+02 1.419244999999999891e+03
1.190000000000000085e-01 6.128389999999999116e-01 2.058990000000000009e+01 1.405844999999999914e+02 1.419125000000000000e+03
1.200000000000000094e-01 6.127274999999999805e-01 2.001040000000000063e+01 1.402055000000000007e+02 1.418985000000000127e+03
1.209999999999999964e-01 6.126030000000000086e-01 1.941629999999999967e+01 1.397814999999999941e+02 1.418840000000000146e+03
1.219999999999999973e-01 6.124635000000000495e-01 1.880379999999999896e+01 1.393079999999999927e+02 1.418679999999999836e+03
1.229999999999999982e-01 6.123085000000000333e-01 1.817020000000000124e+01 1.387810000000000059e+02 1.418500000000000000e+03
1.239999999999999991e-01 6.121370000000000422e-01 1.751405000000000101e+01 1.381990000000000123e+02 1.418304999999999836e+03
1.250000000000000000e-01 6.119514999999999816e-01 1.683494999999999919e+01 1.375620000000000118e+02 1.418095000000000027e+03
1.260000000000000009e-01 6.117504999999999749e-01 1.613400000000000034e+01 1.368720000000000141e+02 1.417860000000000127e+03
1.270000000000000018e-01 6.115369999999999973e-01 1.541344999999999921e+01 1.361340000000000146e+02 1.417614999999999782e+03
1.280000000000000027e-01 6.113129999999999953e-01 1.467643499999999968e+01 1.353539999999999850e+02 1.417355000000000018e+03
1.290000000000000036e-01 6.110800000000000676e-01 1.392750000000000021e+01 1.345395000000000039e+02 1.417079999999999927e+03
1.300000000000000044e-01 6.108420000000001071e-01 1.317192000000000007e+01 1.337005000000000052e+02 1.416795000000000073e+03
1.310000000000000053e-01 6.106009999999999494e-01 1.241560999999999915e+01 1.328464999999999918e+02 1.416505000000000109e+03
1.320000000000000062e-01 6.103600000000000136e-01 1.166511000000000031e+01 1.319890000000000043e+02 1.416215000000000146e+03
1.330000000000000071e-01 6.101229999999999709e-01 1.092720500000000072e+01 1.311399999999999864e+02 1.415920000000000073e+03
1.340000000000000080e-01 6.098930000000000184e-01 1.020886999999999922e+01 1.303110000000000070e+02 1.415630000000000109e+03
1.350000000000000089e-01 6.096725000000000616e-01 9.516804999999999737e+00 1.295120000000000005e+02 1.415349999999999909e+03
1.360000000000000098e-01 6.094654999999999934e-01 8.857409999999999783e+00 1.287545000000000073e+02 1.415079999999999927e+03
1.370000000000000107e-01 6.092729999999999535e-01 8.236454999999999416e+00 1.280475000000000136e+02 1.414825000000000045e+03
1.380000000000000115e-01 6.090980000000000283e-01 7.659065000000000012e+00 1.273994999999999891e+02 1.414590000000000146e+03
1.390000000000000124e-01 6.089420000000000943e-01 7.129410000000000025e+00 1.268164999999999907e+02 1.414369999999999891e+03
1.400000000000000133e-01 6.088054999999999994e-01 6.650604999999999656e+00 1.263034999999999997e+02 1.414175000000000182e+03
1.410000000000000142e-01 6.086899999999999533e-01 6.224709999999999965e+00 1.258634999999999877e+02 1.414000000000000000e+03
1.420000000000000151e-01 6.085940000000000794e-01 5.852649999999999686e+00 1.254975000000000023e+02 1.413849999999999909e+03
1.430000000000000160e-01 6.085190000000000321e-01 5.534189999999999721e+00 1.252040000000000077e+02 1.413724999999999909e+03
1.440000000000000169e-01 6.084629999999999761e-01 5.268035000000000245e+00 1.249809999999999945e+02 1.413630000000000109e+03
1.450000000000000178e-01 6.084244999999999237e-01 5.051890000000000214e+00 1.248239999999999981e+02 1.413549999999999955e+03
1.459999999999999909e-01 6.084009999999999696e-01 4.882565000000000488e+00 1.247270000000000039e+02 1.413490000000000009e+03
1.469999999999999918e-01 6.083920000000000439e-01 4.756120000000000125e+00 1.246835000000000093e+02 1.413450000000000045e+03
1.479999999999999927e-01 6.083944999999999492e-01 4.668025000000000091e+00 1.246860000000000070e+02 1.413429999999999836e+03
1.489999999999999936e-01 6.084065000000000722e-01 4.613329999999999487e+00 1.247254999999999967e+02 1.413420000000000073e+03
1.499999999999999944e-01 6.084255000000000635e-01 4.586814999999999642e+00 1.247934999999999945e+02 1.413424999999999955e+03
1.509999999999999953e-01 6.084484999999999477e-01 4.583164999999999267e+00 1.248815000000000026e+02 1.413434999999999945e+03
1.519999999999999962e-01 6.084745000000000292e-01 4.597129999999999939e+00 1.249819999999999993e+02 1.413454999999999927e+03
1.529999999999999971e-01 6.085000000000000409e-01 4.623649999999999594e+00 1.250859999999999985e+02 1.413480000000000018e+03
1.539999999999999980e-01 6.085245000000000237e-01 4.657994999999999663e+00 1.251875000000000000e+02 1.413505000000000109e+03
1.549999999999999989e-01 6.085460000000000313e-01 4.695825000000000138e+00 1.252800000000000011e+02 1.413530000000000200e+03
1.559999999999999998e-01 6.085629999999999651e-01 4.733324999999999783e+00 1.253575000000000017e+02 1.413550000000000182e+03
1.570000000000000007e-01 6.085739999999999483e-01 4.767200000000000770e+00 1.254174999999999898e+02 1.413565000000000055e+03
1.580000000000000016e-01 6.085800000000000098e-01 4.794760000000000133e+00 1.254555000000000007e+02 1.413579999999999927e+03
1.590000000000000024e-01 6.085789999999999811e-01 4.813900000000000290e+00 1.254704999999999870e+02 1.413579999999999927e+03
