# t [s], A [cm^2], U [cm/s], P [cPa], c [cm/s]
1.000000000000000021e-03 1.602339999999999876e-01 3.004215000000000080e-01 1.017522000000000020e+02 1.771500000000000000e+03
2.000000000000000042e-03 1.602005000000000234e-01 1.936697000000000113e+00 9.873239999999999839e+01 1.771184999999999945e+03
3.000000000000000062e-03 1.600805000000000144e-01 3.953689000000000231e+00 9.471985000000000809e+01 1.770115000000000009e+03
4.000000000000000083e-03 1.598999999999999866e-01 6.191226000000000340e+00 9.018834999999999980e+01 1.768545000000000073e+03
5.000000000000000104e-03 1.596920000000000006e-01 8.593085000000000306e+00 8.587899999999999068e+01 1.766744999999999891e+03
6.000000000000000125e-03 1.594804999999999973e-01 1.104721499999999956e+01 8.219339999999999691e+01 1.764934999999999945e+03
7.000000000000000146e-03 1.592764999999999875e-01 1.338406499999999966e+01 7.911684999999999945e+01 1.763215000000000146e+03
8.000000000000000167e-03 1.590849999999999764e-01 1.546526000000000067e+01 7.643370000000000175e+01 1.761619999999999891e+03
9.000000000000001055e-03 1.589085000000000081e-01 1.725760000000000005e+01 7.402700000000000102e+01 1.760170000000000073e+03
1.000000000000000194e-02 1.587510000000000032e-01 1.879210000000000136e+01 7.193014999999999759e+01 1.758894999999999982e+03
1.099999999999999936e-02 1.586144999999999916e-01 2.009570000000000078e+01 7.018055000000001087e+01 1.757805000000000064e+03
1.200000000000000025e-02 1.584995000000000154e-01 2.118329999999999913e+01 6.876040000000000418e+01 1.756884999999999991e+03
1.300000000000000114e-02 1.584035000000000026e-01 2.207100000000000151e+01 6.763214999999999577e+01 1.756134999999999991e+03
1.400000000000000203e-02 1.583260000000000223e-01 2.277230000000000132e+01 6.674984999999999502e+01 1.755534999999999854e+03
1.499999999999999944e-02 1.582635000000000014e-01 2.329469999999999885e+01 6.604744999999999777e+01 1.755059999999999945e+03
1.600000000000000033e-02 1.582125000000000059e-01 2.365709999999999980e+01 6.546739999999999782e+01 1.754679999999999836e+03
1.700000000000000122e-02 1.581714999999999927e-01 2.391300000000000026e+01 6.502615000000000123e+01 1.754385000000000218e+03
1.800000000000000211e-02 1.581444999999999934e-01 2.415224999999999866e+01 6.484834999999999638e+01 1.754190000000000055e+03
1.900000000000000300e-02 1.581354999999999844e-01 2.447299999999999898e+01 6.512420000000000186e+01 1.754134999999999991e+03
2.000000000000000042e-02 1.581494999999999984e-01 2.494109999999999872e+01 6.600945000000000107e+01 1.754269999999999982e+03
2.100000000000000130e-02 1.581909999999999983e-01 2.556065000000000254e+01 6.752969999999999118e+01 1.754599999999999909e+03
2.200000000000000219e-02 1.582554999999999934e-01 2.627009999999999934e+01 6.953950000000000387e+01 1.755125000000000000e+03
2.299999999999999961e-02 1.583370000000000055e-01 2.696300000000000097e+01 7.175124999999999886e+01 1.755784999999999854e+03
2.400000000000000050e-02 1.584234999999999949e-01 2.752205000000000013e+01 7.381659999999999400e+01 1.756490000000000009e+03
2.500000000000000139e-02 1.585030000000000050e-01 2.785354999999999848e+01 7.542340000000000089e+01 1.757150000000000091e+03
2.600000000000000228e-02 1.585670000000000135e-01 2.791094999999999970e+01 7.637559999999999150e+01 1.757684999999999945e+03
2.700000000000000316e-02 1.586079999999999990e-01 2.770279999999999987e+01 7.663354999999999961e+01 1.758039999999999964e+03
2.800000000000000058e-02 1.586265000000000036e-01 2.728354999999999819e+01 7.630590000000000828e+01 1.758220000000000027e+03
2.900000000000000147e-02 1.586265000000000036e-01 2.673339999999999961e+01 7.560195000000000221e+01 1.758240000000000009e+03
3.000000000000000236e-02 1.586135000000000184e-01 2.613405000000000200e+01 7.476229999999999620e+01 1.758150000000000091e+03
3.099999999999999978e-02 1.585944999999999994e-01 2.554735000000000156e+01 7.399195000000000277e+01 1.758009999999999991e+03
3.200000000000000067e-02 1.585765000000000091e-01 2.500430000000000064e+01 7.341379999999999484e+01 1.757865000000000009e+03
3.300000000000000155e-02 1.585614999999999941e-01 2.450354999999999706e+01 7.305279999999999063e+01 1.757744999999999891e+03
3.400000000000000244e-02 1.585505000000000109e-01 2.401959999999999695e+01 7.284914999999999452e+01 1.757655000000000200e+03
3.500000000000000333e-02 1.585420000000000162e-01 2.351604999999999990e+01 7.269245000000000800e+01 1.757589999999999918e+03
3.600000000000000422e-02 1.585330000000000072e-01 2.296025000000000205e+01 7.246430000000000859e+01 1.757519999999999982e+03
3.700000000000000511e-02 1.585194999999999799e-01 2.233554999999999779e+01 7.207829999999999870e+01 1.757409999999999854e+03
3.799999999999999906e-02 1.585000000000000020e-01 2.164884999999999948e+01 7.150825000000000387e+01 1.757264999999999873e+03
3.899999999999999994e-02 1.584750000000000048e-01 2.093120000000000047e+01 7.079840000000000089e+01 1.757069999999999936e+03
4.000000000000000083e-02 1.584464999999999901e-01 2.023274999999999935e+01 7.005540000000000589e+01 1.756840000000000146e+03
4.100000000000000172e-02 1.584180000000000033e-01 1.961245000000000260e+01 6.942404999999999404e+01 1.756615000000000009e+03
4.200000000000000261e-02 1.583959999999999813e-01 1.912559999999999860e+01 6.905355000000000132e+01 1.756434999999999945e+03
4.300000000000000350e-02 1.583844999999999836e-01 1.881184999999999974e+01 6.906270000000000664e+01 1.756335000000000036e+03
4.400000000000000439e-02 1.583880000000000010e-01 1.868735000000000213e+01 6.951279999999999859e+01 1.756349999999999909e+03
4.499999999999999833e-02 1.584074999999999789e-01 1.874080000000000013e+01 7.039275000000000659e+01 1.756494999999999891e+03
4.599999999999999922e-02 1.584424999999999861e-01 1.893534999999999968e+01 7.162010000000000787e+01 1.756764999999999873e+03
4.700000000000000011e-02 1.584904999999999786e-01 1.921474999999999866e+01 7.305420000000000869e+01 1.757139999999999873e+03
4.800000000000000100e-02 1.585459999999999925e-01 1.951154999999999973e+01 7.451984999999999104e+01 1.757575000000000045e+03
4.900000000000000189e-02 1.586020000000000207e-01 1.975694999999999979e+01 7.583350000000000080e+01 1.758025000000000091e+03
5.000000000000000278e-02 1.586525000000000019e-01 1.988870000000000005e+01 7.682909999999999684e+01 1.758430000000000064e+03
5.100000000000000366e-02 1.586909999999999987e-01 1.985810000000000031e+01 7.737770000000000437e+01 1.758744999999999891e+03
5.200000000000000455e-02 1.587129999999999930e-01 1.963320000000000221e+01 7.739955000000000496e+01 1.758934999999999945e+03
5.300000000000000544e-02 1.587149999999999950e-01 1.920029999999999859e+01 7.686780000000000257e+01 1.758960000000000036e+03
5.399999999999999939e-02 1.586960000000000037e-01 1.856224999999999881e+01 7.580414999999999281e+01 1.758815000000000055e+03
5.500000000000000028e-02 1.586555000000000049e-01 1.773545000000000016e+01 7.426914999999999623e+01 1.758500000000000000e+03
5.600000000000000117e-02 1.585955000000000004e-01 1.674634999999999962e+01 7.234985000000000355e+01 1.758029999999999973e+03
5.700000000000000205e-02 1.585195000000000076e-01 1.562740000000000151e+01 7.014654999999999063e+01 1.757425000000000182e+03
5.800000000000000294e-02 1.584305000000000019e-01 1.441404999999999959e+01 6.776210000000000377e+01 1.756710000000000036e+03
5.900000000000000383e-02 1.583315000000000139e-01 1.314245000000000019e+01 6.529400000000001114e+01 1.755920000000000073e+03
6.000000000000000472e-02 1.582274999999999932e-01 1.184810000000000052e+01 6.283010000000000161e+01 1.755085000000000036e+03
6.099999999999999867e-02 1.581210000000000115e-01 1.056548499999999891e+01 6.044785000000000252e+01 1.754230000000000018e+03
6.199999999999999956e-02 1.580170000000000186e-01 9.328015000000000612e+00 5.821515000000000128e+01 1.753389999999999873e+03
6.300000000000000044e-02 1.579165000000000152e-01 8.168459999999999610e+00 5.619315000000000282e+01 1.752579999999999927e+03
6.400000000000000133e-02 1.578240000000000198e-01 7.118924999999999947e+00 5.443845000000000312e+01 1.751829999999999927e+03
6.500000000000000222e-02 1.577419999999999933e-01 6.210850000000000648e+00 5.300475000000000136e+01 1.751159999999999854e+03
6.600000000000000311e-02 1.576724999999999932e-01 5.474369999999999514e+00 5.194355000000000189e+01 1.750594999999999800e+03
6.700000000000000400e-02 1.576190000000000091e-01 4.937490000000000379e+00 5.130299999999999727e+01 1.750154999999999973e+03
6.800000000000000488e-02 1.575834999999999875e-01 4.624835000000000029e+00 5.112595000000000312e+01 1.749855000000000018e+03
6.900000000000000577e-02 1.575674999999999992e-01 4.556314999999999671e+00 5.144709999999999894e+01 1.749710000000000036e+03
7.000000000000000666e-02 1.575730000000000186e-01 4.745915000000000106e+00 5.229009999999999536e+01 1.749740000000000009e+03
7.100000000000000755e-02 1.576015000000000055e-01 5.200619999999999798e+00 5.366494999999999749e+01 1.749950000000000045e+03
7.200000000000000844e-02 1.576529999999999876e-01 5.919869999999999521e+00 5.556609999999999872e+01 1.750344999999999800e+03
7.300000000000000933e-02 1.577279999999999793e-01 6.895419999999999661e+00 5.797200000000000131e+01 1.750925000000000182e+03
7.399999999999999634e-02 1.578260000000000218e-01 8.111644999999999328e+00 6.084590000000000032e+01 1.751690000000000055e+03
7.499999999999999722e-02 1.579450000000000021e-01 9.546435000000000670e+00 6.413729999999999620e+01 1.752625000000000000e+03
7.599999999999999811e-02 1.580825000000000147e-01 1.117228000000000065e+01 6.778504999999999825e+01 1.753724999999999909e+03
7.699999999999999900e-02 1.582379999999999898e-01 1.295744499999999988e+01 7.172034999999999627e+01 1.754965000000000146e+03
7.799999999999999989e-02 1.584069999999999923e-01 1.486780000000000079e+01 7.587059999999999604e+01 1.756315000000000055e+03
7.900000000000000078e-02 1.585874999999999924e-01 1.686780000000000257e+01 8.016254999999999598e+01 1.757769999999999982e+03
8.000000000000000167e-02 1.587764999999999871e-01 1.892214999999999847e+01 8.452559999999999718e+01 1.759289999999999964e+03
8.100000000000000255e-02 1.589705000000000146e-01 2.099690000000000012e+01 8.889454999999999529e+01 1.760860000000000127e+03
8.200000000000000344e-02 1.591664999999999885e-01 2.306050000000000111e+01 9.321125000000000682e+01 1.762460000000000036e+03
8.300000000000000433e-02 1.593630000000000047e-01 2.508484999999999943e+01 9.742770000000000152e+01 1.764059999999999945e+03
8.400000000000000522e-02 1.595559999999999756e-01 2.704589999999999961e+01 1.015053499999999929e+02 1.765639999999999873e+03
8.500000000000000611e-02 1.597459999999999991e-01 2.892445000000000022e+01 1.054165500000000009e+02 1.767200000000000045e+03
8.600000000000000699e-02 1.599295000000000022e-01 3.070604999999999762e+01 1.091459999999999866e+02 1.768715000000000146e+03
8.700000000000000788e-02 1.601069999999999993e-01 3.238159999999999883e+01 1.126880000000000024e+02 1.770179999999999836e+03
8.800000000000000877e-02 1.602770000000000028e-01 3.394695000000000107e+01 1.160485000000000042e+02 1.771590000000000146e+03
8.899999999999999578e-02 1.604400000000000270e-01 3.540245000000000175e+01 1.192400000000000091e+02 1.772944999999999936e+03
8.999999999999999667e-02 1.605965000000000031e-01 3.675260000000000105e+01 1.222854999999999990e+02 1.774250000000000000e+03
9.099999999999999756e-02 1.607465000000000144e-01 3.800480000000000302e+01 1.252085000000000150e+02 1.775505000000000109e+03
9.199999999999999845e-02 1.608920000000000072e-01 3.916895000000000238e+01 1.280384999999999991e+02 1.776715000000000146e+03
9.299999999999999933e-02 1.610329999999999817e-01 4.025600000000000023e+01 1.308029999999999973e+02 1.777900000000000091e+03
9.400000000000000022e-02 1.611710000000000087e-01 4.127729999999999677e+01 1.335280000000000200e+02 1.779049999999999955e+03
9.500000000000000111e-02 1.613065000000000193e-01 4.224340000000000117e+01 1.362370000000000232e+02 1.780190000000000055e+03
9.600000000000000200e-02 1.614410000000000012e-01 4.316340000000000288e+01 1.389459999999999980e+02 1.781319999999999936e+03
9.700000000000000289e-02 1.615745000000000098e-01 4.404444999999999766e+01 1.416639999999999873e+02 1.782440000000000055e+03
9.800000000000000377e-02 1.617084999999999773e-01 4.489100000000000534e+01 1.443949999999999818e+02 1.783565000000000055e+03
9.900000000000000466e-02 1.618419999999999859e-01 4.570475000000000421e+01 1.471340000000000146e+02 1.784690000000000055e+03
1.000000000000000056e-01 1.619754999999999945e-01 4.648469999999999658e+01 1.498689999999999998e+02 1.785809999999999945e+03
1.010000000000000064e-01 1.621080000000000021e-01 4.722724999999999795e+01 1.525819999999999936e+02 1.786925000000000182e+03
1.020000000000000073e-01 1.622389999999999943e-01 4.792629999999999768e+01 1.552510000000000048e+02 1.788035000000000082e+03
1.030000000000000082e-01 1.623684999999999989e-01 4.857410000000000139e+01 1.578494999999999777e+02 1.789115000000000009e+03
1.040000000000000091e-01 1.624944999999999862e-01 4.916134999999999877e+01 1.603495000000000061e+02 1.790180000000000064e+03
1.050000000000000100e-01 1.626155000000000239e-01 4.967815000000000225e+01 1.627214999999999918e+02 1.791204999999999927e+03
1.059999999999999970e-01 1.627315000000000011e-01 5.011404999999999887e+01 1.649379999999999882e+02 1.792190000000000055e+03
1.069999999999999979e-01 1.628399999999999848e-01 5.045929999999999893e+01 1.669710000000000036e+02 1.793110000000000127e+03
1.079999999999999988e-01 1.629410000000000025e-01 5.070465000000000089e+01 1.687994999999999948e+02 1.793970000000000027e+03
1.089999999999999997e-01 1.630334999999999979e-01 5.084224999999999994e+01 1.704019999999999868e+02 1.794755000000000109e+03
1.100000000000000006e-01 1.631155000000000244e-01 5.086584999999999468e+01 1.717644999999999982e+02 1.795460000000000036e+03
1.110000000000000014e-01 1.631874999999999853e-01 5.077120000000000033e+01 1.728765000000000214e+02 1.796075000000000045e+03
1.120000000000000023e-01 1.632474999999999898e-01 5.055604999999999905e+01 1.737334999999999923e+02 1.796599999999999909e+03
1.130000000000000032e-01 1.632969999999999977e-01 5.022050000000000125e+01 1.743360000000000127e+02 1.797025000000000091e+03
1.140000000000000041e-01 1.633344999999999936e-01 4.976715000000000089e+01 1.746895000000000095e+02 1.797355000000000018e+03
1.150000000000000050e-01 1.633609999999999784e-01 4.920064999999999600e+01 1.748040000000000020e+02 1.797590000000000146e+03
1.160000000000000059e-01 1.633764999999999801e-01 4.852800000000000580e+01 1.746945000000000050e+02 1.797730000000000018e+03
1.170000000000000068e-01 1.633815000000000128e-01 4.775820000000000221e+01 1.743795000000000073e+02 1.797784999999999854e+03
1.180000000000000077e-01 1.633769999999999945e-01 4.690205000000000268e+01 1.738820000000000050e+02 1.797759999999999991e+03
1.190000000000000085e-01 1.633640000000000092e-01 4.597155000000000058e+01 1.732259999999999991e+02 1.797659999999999854e+03
1.200000000000000094e-01 1.633430000000000160e-01 4.498010000000000019e+01 1.724375000000000000e+02 1.797490000000000009e+03
1.209999999999999964e-01 1.633155000000000023e-01 4.394140000000000157e+01 1.715449999999999875e+02 1.797264999999999873e+03
1.219999999999999973e-01 1.632814999999999961e-01 4.286955000000000382e+01 1.705745000000000005e+02 1.796994999999999891e+03
1.229999999999999982e-01 1.632440000000000002e-01 4.177830000000000155e+01 1.695520000000000209e+02 1.796679999999999836e+03
1.239999999999999991e-01 1.632035000000000013e-01 4.068084999999999951e+01 1.685029999999999859e+02 1.796340000000000146e+03
1.250000000000000000e-01 1.631604999999999861e-01 3.958939999999999770e+01 1.674495000000000005e+02 1.795980000000000018e+03
1.260000000000000009e-01 1.631159999999999832e-01 3.851470000000000482e+01 1.664099999999999966e+02 1.795610000000000127e+03
1.270000000000000018e-01 1.630714999999999804e-01 3.746614999999999895e+01 1.654004999999999939e+02 1.795235000000000127e+03
1.280000000000000027e-01 1.630274999999999919e-01 3.645109999999999673e+01 1.644320000000000164e+02 1.794860000000000127e+03
1.290000000000000036e-01 1.629844999999999766e-01 3.547514999999999930e+01 1.635130000000000052e+02 1.794494999999999891e+03
1.300000000000000044e-01 1.629424999999999901e-01 3.454184999999999661e+01 1.626474999999999795e+02 1.794139999999999873e+03
1.310000000000000053e-01 1.629029999999999923e-01 3.365279999999999916e+01 1.618354999999999961e+02 1.793805000000000064e+03
1.320000000000000062e-01 1.628649999999999820e-01 3.280770000000000408e+01 1.610729999999999791e+02 1.793474999999999909e+03
1.330000000000000071e-01 1.628280000000000005e-01 3.200455000000000183e+01 1.603545000000000016e+02 1.793164999999999964e+03
1.340000000000000080e-01 1.627935000000000076e-01 3.123969999999999914e+01 1.596694999999999993e+02 1.792869999999999891e+03
1.350000000000000089e-01 1.627600000000000158e-01 3.050829999999999842e+01 1.590070000000000050e+02 1.792579999999999927e+03
1.360000000000000098e-01 1.627275000000000249e-01 2.980434999999999945e+01 1.583524999999999920e+02 1.792299999999999955e+03
1.370000000000000107e-01 1.626945000000000197e-01 2.912109999999999843e+01 1.576935000000000002e+02 1.792025000000000091e+03
1.380000000000000115e-01 1.626620000000000010e-01 2.845149999999999935e+01 1.570144999999999982e+02 1.791740000000000009e+03
1.390000000000000124e-01 1.626285000000000092e-01 2.778815000000000168e+01 1.563009999999999877e+02 1.791460000000000036e+03
1.400000000000000133e-01 1.625935000000000019e-01 2.712405000000000044e+01 1.555400000000000205e+02 1.791164999999999964e+03
1.410000000000000142e-01 1.625570000000000070e-01 2.645255000000000223e+01 1.547194999999999823e+02 1.790849999999999909e+03
1.420000000000000151e-01 1.625179999999999958e-01 2.576780000000000115e+01 1.538294999999999959e+02 1.790519999999999982e+03
1.430000000000000160e-01 1.624754999999999949e-01 2.506484999999999985e+01 1.528625000000000114e+02 1.790164999999999964e+03
1.440000000000000169e-01 1.624305000000000054e-01 2.434004999999999797e+01 1.518129999999999882e+02 1.789784999999999854e+03
1.450000000000000178e-01 1.623815000000000119e-01 2.359094999999999942e+01 1.506794999999999902e+02 1.789375000000000000e+03
1.459999999999999909e-01 1.623290000000000011e-01 2.281660000000000110e+01 1.494619999999999891e+02 1.788934999999999945e+03
1.469999999999999918e-01 1.622730000000000006e-01 2.201745000000000019e+01 1.481655000000000086e+02 1.788465000000000146e+03
1.479999999999999927e-01 1.622135000000000105e-01 2.119555000000000078e+01 1.467964999999999804e+02 1.787970000000000027e+03
1.489999999999999936e-01 1.621505000000000030e-01 2.035415000000000063e+01 1.453650000000000091e+02 1.787444999999999936e+03
1.499999999999999944e-01 1.620854999999999935e-01 1.949799999999999756e+01 1.438820000000000050e+02 1.786894999999999982e+03
1.509999999999999953e-01 1.620174999999999810e-01 1.863284999999999769e+01 1.423634999999999877e+02 1.786329999999999927e+03
1.519999999999999962e-01 1.619474999999999942e-01 1.776549999999999940e+01 1.408234999999999957e+02 1.785750000000000000e+03
1.529999999999999971e-01 1.618765000000000065e-01 1.690330000000000155e+01 1.392800000000000011e+02 1.785154999999999973e+03
1.539999999999999980e-01 1.618050000000000044e-01 1.605420000000000158e+01 1.377500000000000000e+02 1.784559999999999945e+03
1.549999999999999989e-01 1.617345000000000033e-01 1.522625000000000028e+01 1.362509999999999764e+02 1.783964999999999918e+03
1.559999999999999998e-01 1.616640000000000021e-01 1.442739999999999867e+01 1.348000000000000114e+02 1.783384999999999991e+03
1.570000000000000007e-01 1.615960000000000174e-01 1.366525000000000034e+01 1.334125000000000227e+02 1.782809999999999945e+03
1.580000000000000016e-01 1.615304999999999935e-01 1.294679999999999964e+01 1.321020000000000039e+02 1.782259999999999991e+03
1.590000000000000024e-01 1.614674999999999860e-01 1.227806999999999960e+01 1.308815000000000168e+02 1.781730000000000018e+03
