# t [s], A [cm^2], U [cm/s], P [cPa], c [cm/s]
1.000000000000000021e-03 1.940439999999999943e-01 3.870466500000000476e-01 9.716955000000000098e+01 2.138644999999999982e+03
2.000000000000000042e-03 1.939865000000000061e-01 1.996610999999999914e+00 9.350069999999999482e+01 2.138164999999999964e+03
3.000000000000000062e-03 1.938380000000000103e-01 3.958616999999999830e+00 8.850679999999999836e+01 2.136980000000000018e+03
4.000000000000000083e-03 1.936419999999999808e-01 6.164316499999999976e+00 8.329529999999999745e+01 2.135435000000000400e+03
5.000000000000000104e-03 1.934369999999999978e-01 8.516455000000000553e+00 7.883235000000000525e+01 2.133835000000000036e+03
6.000000000000000125e-03 1.932424999999999837e-01 1.078064000000000000e+01 7.524754999999998972e+01 2.132335000000000036e+03
7.000000000000000146e-03 1.930609999999999826e-01 1.273470999999999975e+01 7.213615000000000066e+01 2.130970000000000255e+03
8.000000000000000167e-03 1.928969999999999851e-01 1.435097499999999826e+01 6.933769999999999811e+01 2.129750000000000000e+03
9.000000000000001055e-03 1.927559999999999829e-01 1.568849999999999945e+01 6.698019999999999641e+01 2.128715000000000146e+03
1.000000000000000194e-02 1.926384999999999903e-01 1.677359999999999829e+01 6.510075000000000500e+01 2.127869999999999891e+03
1.099999999999999936e-02 1.925439999999999929e-01 1.762164999999999893e+01 6.363660000000000139e+01 2.127190000000000055e+03
1.200000000000000025e-02 1.924690000000000012e-01 1.824324999999999974e+01 6.249269999999999925e+01 2.126659999999999854e+03
1.300000000000000114e-02 1.924089999999999967e-01 1.864114999999999966e+01 6.152715000000000600e+01 2.126244999999999891e+03
1.400000000000000203e-02 1.923584999999999878e-01 1.886005000000000109e+01 6.066680000000000206e+01 2.125904999999999745e+03
1.499999999999999944e-02 1.923205000000000053e-01 1.903390000000000271e+01 6.009659999999999513e+01 2.125649999999999636e+03
1.600000000000000033e-02 1.923055000000000181e-01 1.934799999999999898e+01 6.024689999999999657e+01 2.125555000000000291e+03
1.700000000000000122e-02 1.923254999999999826e-01 1.993500000000000227e+01 6.151940000000000452e+01 2.125710000000000036e+03
1.800000000000000211e-02 1.923850000000000005e-01 2.079009999999999891e+01 6.397064999999999912e+01 2.126140000000000327e+03
1.900000000000000300e-02 1.924774999999999958e-01 2.176389999999999958e+01 6.719124999999999659e+01 2.126820000000000164e+03
2.000000000000000042e-02 1.925855000000000206e-01 2.262924999999999898e+01 7.044350000000000023e+01 2.127614999999999782e+03
2.100000000000000130e-02 1.926855000000000095e-01 2.317705000000000126e+01 7.295484999999999332e+01 2.128364999999999782e+03
2.200000000000000219e-02 1.927574999999999983e-01 2.329354999999999976e+01 7.420720000000000027e+01 2.128920000000000073e+03
2.299999999999999961e-02 1.927915000000000045e-01 2.299034999999999940e+01 7.409805000000000064e+01 2.129204999999999927e+03
2.400000000000000050e-02 1.927889999999999882e-01 2.238125000000000142e+01 7.292085000000000150e+01 2.129210000000000036e+03
2.500000000000000139e-02 1.927595000000000003e-01 2.162395000000000067e+01 7.119745000000000346e+01 2.129014999999999873e+03
2.600000000000000228e-02 1.927165000000000128e-01 2.085555000000000092e+01 6.945170000000000243e+01 2.128710000000000036e+03
2.700000000000000316e-02 1.926724999999999965e-01 2.014914999999999878e+01 6.802375000000000682e+01 2.128385000000000218e+03
2.800000000000000058e-02 1.926339999999999997e-01 1.950379999999999825e+01 6.699060000000000059e+01 2.128105000000000018e+03
2.900000000000000147e-02 1.926010000000000222e-01 1.886469999999999914e+01 6.620130000000000337e+01 2.127855000000000018e+03
3.000000000000000236e-02 1.925684999999999758e-01 1.816179999999999950e+01 6.539230000000000587e+01 2.127614999999999782e+03
3.099999999999999978e-02 1.925314999999999943e-01 1.734839999999999804e+01 6.432805000000000462e+01 2.127350000000000364e+03
3.200000000000000067e-02 1.924845000000000028e-01 1.642899999999999849e+01 6.291674999999999329e+01 2.127015000000000327e+03
3.300000000000000155e-02 1.924289999999999889e-01 1.546689999999999898e+01 6.126309999999999434e+01 2.126609999999999673e+03
3.400000000000000244e-02 1.923704999999999998e-01 1.456920000000000037e+01 5.964555000000000007e+01 2.126180000000000291e+03
3.500000000000000333e-02 1.923185000000000033e-01 1.385640000000000072e+01 5.842889999999999873e+01 2.125795000000000073e+03
3.600000000000000422e-02 1.922845000000000248e-01 1.342634999999999934e+01 5.794549999999999557e+01 2.125529999999999745e+03
3.700000000000000511e-02 1.922760000000000025e-01 1.332469999999999999e+01 5.838689999999999714e+01 2.125460000000000036e+03
3.799999999999999906e-02 1.922979999999999967e-01 1.353204999999999991e+01 5.974099999999999966e+01 2.125600000000000364e+03
3.899999999999999994e-02 1.923465000000000036e-01 1.396754999999999924e+01 6.178914999999999935e+01 2.125934999999999945e+03
4.000000000000000083e-02 1.924140000000000017e-01 1.450779999999999959e+01 6.415765000000000384e+01 2.126420000000000073e+03
4.100000000000000172e-02 1.924885000000000068e-01 1.501269999999999882e+01 6.640229999999999677e+01 2.126954999999999927e+03
4.200000000000000261e-02 1.925560000000000049e-01 1.535129999999999839e+01 6.809950000000000614e+01 2.127449999999999818e+03
4.300000000000000350e-02 1.926039999999999974e-01 1.542204999999999870e+01 6.892134999999998968e+01 2.127809999999999945e+03
4.400000000000000439e-02 1.926229999999999887e-01 1.516409999999999947e+01 6.868014999999999759e+01 2.127960000000000036e+03
4.499999999999999833e-02 1.926074999999999871e-01 1.455879999999999974e+01 6.733824999999998795e+01 2.127860000000000127e+03
4.599999999999999922e-02 1.925560000000000049e-01 1.362444999999999951e+01 6.498820000000000618e+01 2.127500000000000000e+03
4.700000000000000011e-02 1.924715000000000176e-01 1.240582500000000010e+01 6.181309999999999860e+01 2.126894999999999982e+03
4.800000000000000100e-02 1.923590000000000022e-01 1.096313999999999922e+01 5.804234999999999900e+01 2.126079999999999927e+03
4.900000000000000189e-02 1.922260000000000080e-01 9.362429999999999808e+00 5.391159999999999997e+01 2.125109999999999673e+03
5.000000000000000278e-02 1.920789999999999997e-01 7.669459999999999944e+00 4.963665000000000305e+01 2.124034999999999854e+03
5.100000000000000366e-02 1.919254999999999989e-01 5.946794999999999831e+00 4.540149999999999864e+01 2.122909999999999854e+03
5.200000000000000455e-02 1.917715000000000114e-01 4.253519500000000342e+00 4.135899999999999466e+01 2.121775000000000091e+03
5.300000000000000544e-02 1.916220000000000145e-01 2.646544999999999703e+00 3.763880000000000337e+01 2.120680000000000291e+03
5.399999999999999939e-02 1.914830000000000143e-01 1.181505000000000027e+00 3.435699999999999932e+01 2.119654999999999745e+03
5.500000000000000028e-02 1.913595000000000157e-01 -8.694500000000005002e-02 3.162354999999999805e+01 2.118734999999999673e+03
5.600000000000000117e-02 1.912550000000000083e-01 -1.106289999999999996e+00 2.954459999999999908e+01 2.117960000000000036e+03
5.700000000000000205e-02 1.911749999999999838e-01 -1.828650999999999804e+00 2.821920000000000073e+01 2.117355000000000018e+03
5.800000000000000294e-02 1.911220000000000141e-01 -2.213994999999999713e+00 2.773174999999999812e+01 2.116944999999999709e+03
5.900000000000000383e-02 1.910999999999999921e-01 -2.233569999999999833e+00 2.814249999999999829e+01 2.116765000000000327e+03
6.000000000000000472e-02 1.911110000000000031e-01 -1.872724999999999973e+00 2.947915000000000063e+01 2.116820000000000164e+03
6.099999999999999867e-02 1.911559999999999926e-01 -1.132544999999999913e+00 3.173024999999999807e+01 2.117125000000000000e+03
6.199999999999999956e-02 1.912340000000000151e-01 -3.015999999999996461e-02 3.484375000000000000e+01 2.117670000000000073e+03
6.300000000000000044e-02 1.913440000000000141e-01 1.402495000000000047e+00 3.872990000000000066e+01 2.118460000000000036e+03
6.400000000000000133e-02 1.914830000000000143e-01 3.120959000000000039e+00 4.326729999999999876e+01 2.119449999999999818e+03
6.500000000000000222e-02 1.916460000000000108e-01 5.071390000000000065e+00 4.831260000000000332e+01 2.120635000000000218e+03
6.600000000000000311e-02 1.918285000000000129e-01 7.194074999999999775e+00 5.371065000000000111e+01 2.121960000000000036e+03
6.700000000000000400e-02 1.920254999999999879e-01 9.427025000000000432e+00 5.930489999999999640e+01 2.123404999999999745e+03
6.800000000000000488e-02 1.922309999999999852e-01 1.170944499999999877e+01 6.494704999999999018e+01 2.124909999999999854e+03
6.900000000000000577e-02 1.924399999999999999e-01 1.398482500000000073e+01 7.050534999999999286e+01 2.126454999999999927e+03
7.000000000000000666e-02 1.926485000000000003e-01 1.620364999999999966e+01 7.587104999999999677e+01 2.127994999999999891e+03
7.100000000000000755e-02 1.928509999999999946e-01 1.832564999999999955e+01 8.096354999999999791e+01 2.129500000000000000e+03
7.200000000000000844e-02 1.930459999999999954e-01 2.032135000000000247e+01 8.573274999999999579e+01 2.130949999999999818e+03
7.300000000000000933e-02 1.932315000000000005e-01 2.217275000000000063e+01 9.016005000000001246e+01 2.132340000000000146e+03
7.399999999999999634e-02 1.934055000000000080e-01 2.387335000000000207e+01 9.425634999999999764e+01 2.133644999999999982e+03
7.499999999999999722e-02 1.935695000000000054e-01 2.542689999999999984e+01 9.805830000000000268e+01 2.134880000000000109e+03
7.599999999999999811e-02 1.937234999999999929e-01 2.684609999999999985e+01 1.016212999999999909e+02 2.136039999999999964e+03
7.699999999999999900e-02 1.938699999999999868e-01 2.814995000000000047e+01 1.050145499999999998e+02 2.137150000000000091e+03
7.799999999999999989e-02 1.940105000000000024e-01 2.936129999999999995e+01 1.083100000000000023e+02 2.138210000000000036e+03
7.900000000000000078e-02 1.941475000000000006e-01 3.050430000000000064e+01 1.115784999999999911e+02 2.139250000000000000e+03
8.000000000000000167e-02 1.942840000000000122e-01 3.160155000000000314e+01 1.148789999999999907e+02 2.140274999999999636e+03
8.100000000000000255e-02 1.944204999999999961e-01 3.267239999999999611e+01 1.182570000000000050e+02 2.141315000000000055e+03
8.200000000000000344e-02 1.945600000000000107e-01 3.373114999999999952e+01 1.217394999999999925e+02 2.142359999999999673e+03
8.300000000000000433e-02 1.947014999999999996e-01 3.478620000000000090e+01 1.253340000000000032e+02 2.143435000000000400e+03
8.400000000000000522e-02 1.948475000000000068e-01 3.583939999999999770e+01 1.290275000000000034e+02 2.144529999999999745e+03
8.500000000000000611e-02 1.949954999999999883e-01 3.688644999999999641e+01 1.327920000000000016e+02 2.145654999999999745e+03
8.600000000000000699e-02 1.951455000000000273e-01 3.791745000000000232e+01 1.365824999999999818e+02 2.146784999999999854e+03
8.700000000000000788e-02 1.952959999999999974e-01 3.891790000000000305e+01 1.403445000000000107e+02 2.147920000000000073e+03
8.800000000000000877e-02 1.954444999999999932e-01 3.986979999999999791e+01 1.440159999999999911e+02 2.149050000000000182e+03
8.899999999999999578e-02 1.955894999999999995e-01 4.075305000000000177e+01 1.475345000000000084e+02 2.150144999999999982e+03
8.999999999999999667e-02 1.957284999999999997e-01 4.154694999999999538e+01 1.508355000000000246e+02 2.151199999999999818e+03
9.099999999999999756e-02 1.958594999999999919e-01 4.223134999999999906e+01 1.538625000000000114e+02 2.152194999999999709e+03
9.199999999999999845e-02 1.959799999999999875e-01 4.278810000000000002e+01 1.565660000000000025e+02 2.153114999999999782e+03
9.299999999999999933e-02 1.960890000000000133e-01 4.320194999999999652e+01 1.589055000000000177e+02 2.153944999999999709e+03
9.400000000000000022e-02 1.961839999999999973e-01 4.346144999999999925e+01 1.608530000000000086e+02 2.154675000000000182e+03
9.500000000000000111e-02 1.962645000000000084e-01 4.355964999999999776e+01 1.623940000000000055e+02 2.155300000000000182e+03
9.600000000000000200e-02 1.963305000000000189e-01 4.349469999999999459e+01 1.635269999999999868e+02 2.155809999999999945e+03
9.700000000000000289e-02 1.963810000000000000e-01 4.326959999999999695e+01 1.642620000000000005e+02 2.156204999999999927e+03
9.800000000000000377e-02 1.964164999999999939e-01 4.289239999999999498e+01 1.646245000000000118e+02 2.156484999999999673e+03
9.900000000000000466e-02 1.964385000000000159e-01 4.237560000000000571e+01 1.646479999999999961e+02 2.156664999999999964e+03
1.000000000000000056e-01 1.964469999999999827e-01 4.173560000000000514e+01 1.643760000000000048e+02 2.156744999999999891e+03
1.010000000000000064e-01 1.964449999999999807e-01 4.099174999999999613e+01 1.638569999999999993e+02 2.156739999999999782e+03
1.020000000000000073e-01 1.964325000000000099e-01 4.016554999999999609e+01 1.631450000000000102e+02 2.156654999999999745e+03
1.030000000000000082e-01 1.964124999999999899e-01 3.927944999999999709e+01 1.622939999999999827e+02 2.156510000000000218e+03
1.040000000000000091e-01 1.963870000000000060e-01 3.835590000000000543e+01 1.613569999999999993e+02 2.156324999999999818e+03
1.050000000000000100e-01 1.963570000000000038e-01 3.741629999999999967e+01 1.603820000000000050e+02 2.156104999999999563e+03
1.059999999999999970e-01 1.963249999999999995e-01 3.648035000000000139e+01 1.594124999999999943e+02 2.155864999999999782e+03
1.069999999999999979e-01 1.962924999999999809e-01 3.556484999999999985e+01 1.584839999999999804e+02 2.155614999999999782e+03
1.079999999999999988e-01 1.962605000000000044e-01 3.468359999999999843e+01 1.576239999999999952e+02 2.155380000000000109e+03
1.089999999999999997e-01 1.962300000000000155e-01 3.384655000000000058e+01 1.568489999999999895e+02 2.155144999999999982e+03
1.100000000000000006e-01 1.962015000000000009e-01 3.305989999999999895e+01 1.561684999999999945e+02 2.154930000000000291e+03
1.110000000000000014e-01 1.961759999999999893e-01 3.232589999999999719e+01 1.555799999999999841e+02 2.154735000000000127e+03
1.120000000000000023e-01 1.961534999999999807e-01 3.164290000000000092e+01 1.550745000000000005e+02 2.154559999999999945e+03
1.130000000000000032e-01 1.961335000000000162e-01 3.100600000000000023e+01 1.546340000000000146e+02 2.154399999999999636e+03
1.140000000000000041e-01 1.961149999999999838e-01 3.040709999999999980e+01 1.542344999999999970e+02 2.154260000000000218e+03
1.150000000000000050e-01 1.960979999999999945e-01 2.983595000000000397e+01 1.538469999999999800e+02 2.154125000000000000e+03
1.160000000000000059e-01 1.960810000000000053e-01 2.928034999999999854e+01 1.534399999999999977e+02 2.153994999999999891e+03
1.170000000000000068e-01 1.960629999999999873e-01 2.872769999999999868e+01 1.529809999999999945e+02 2.153850000000000364e+03
1.180000000000000077e-01 1.960429999999999950e-01 2.816499999999999915e+01 1.524384999999999764e+02 2.153699999999999818e+03
1.190000000000000085e-01 1.960204999999999864e-01 2.758014999999999972e+01 1.517844999999999800e+02 2.153525000000000091e+03
1.200000000000000094e-01 1.959934999999999872e-01 2.696265000000000001e+01 1.509959999999999809e+02 2.153324999999999818e+03
1.209999999999999964e-01 1.959609999999999963e-01 2.630414999999999992e+01 1.500550000000000068e+02 2.153079999999999927e+03
1.219999999999999973e-01 1.959239999999999871e-01 2.559900000000000020e+01 1.489529999999999745e+02 2.152800000000000182e+03
1.229999999999999982e-01 1.958805000000000129e-01 2.484479999999999933e+01 1.476885000000000048e+02 2.152475000000000364e+03
1.239999999999999991e-01 1.958314999999999917e-01 2.404224999999999923e+01 1.462690000000000055e+02 2.152105000000000018e+03
1.250000000000000000e-01 1.957774999999999932e-01 2.319559999999999889e+01 1.447104999999999961e+02 2.151695000000000164e+03
1.260000000000000009e-01 1.957174999999999887e-01 2.231219999999999715e+01 1.430360000000000014e+02 2.151250000000000000e+03
1.270000000000000018e-01 1.956534999999999802e-01 2.140194999999999936e+01 1.412749999999999773e+02 2.150769999999999982e+03
1.280000000000000027e-01 1.955870000000000108e-01 2.047744999999999749e+01 1.394635000000000105e+02 2.150270000000000437e+03
1.290000000000000036e-01 1.955180000000000251e-01 1.955239999999999867e+01 1.376385000000000218e+02 2.149750000000000000e+03
1.300000000000000044e-01 1.954484999999999972e-01 1.864185000000000159e+01 1.358400000000000034e+02 2.149224999999999909e+03
1.310000000000000053e-01 1.953794999999999837e-01 1.776055000000000206e+01 1.341050000000000182e+02 2.148704999999999927e+03
1.320000000000000062e-01 1.953134999999999732e-01 1.692279999999999873e+01 1.324705000000000155e+02 2.148204999999999927e+03
1.330000000000000071e-01 1.952500000000000069e-01 1.614164999999999850e+01 1.309669999999999845e+02 2.147725000000000364e+03
1.340000000000000080e-01 1.951920000000000044e-01 1.542810000000000059e+01 1.296204999999999927e+02 2.147279999999999745e+03
1.350000000000000089e-01 1.951384999999999925e-01 1.479090000000000060e+01 1.284509999999999934e+02 2.146880000000000109e+03
1.360000000000000098e-01 1.950919999999999876e-01 1.423600000000000065e+01 1.274689999999999941e+02 2.146525000000000091e+03
1.370000000000000107e-01 1.950520000000000032e-01 1.376650000000000063e+01 1.266790000000000020e+02 2.146215000000000146e+03
1.380000000000000115e-01 1.950189999999999979e-01 1.338289999999999935e+01 1.260800000000000125e+02 2.145960000000000036e+03
1.390000000000000124e-01 1.949925000000000130e-01 1.308285000000000053e+01 1.256620000000000061e+02 2.145760000000000218e+03
1.400000000000000133e-01 1.949734999999999940e-01 1.286155000000000115e+01 1.254114999999999895e+02 2.145599999999999909e+03
1.410000000000000142e-01 1.949599999999999944e-01 1.271229999999999905e+01 1.253094999999999999e+02 2.145494999999999891e+03
1.420000000000000151e-01 1.949525000000000008e-01 1.262664999999999971e+01 1.253350000000000080e+02 2.145429999999999836e+03
1.430000000000000160e-01 1.949494999999999978e-01 1.259489999999999910e+01 1.254625000000000057e+02 2.145404999999999745e+03
1.440000000000000169e-01 1.949509999999999854e-01 1.260674999999999990e+01 1.256674999999999898e+02 2.145409999999999854e+03
1.450000000000000178e-01 1.949555000000000038e-01 1.265160000000000018e+01 1.259260000000000019e+02 2.145440000000000055e+03
1.459999999999999909e-01 1.949624999999999830e-01 1.271899999999999942e+01 1.262145000000000010e+02 2.145485000000000127e+03
1.469999999999999918e-01 1.949704999999999910e-01 1.279889999999999972e+01 1.265114999999999981e+02 2.145545000000000073e+03
1.479999999999999927e-01 1.949795000000000000e-01 1.288224999999999909e+01 1.267980000000000018e+02 2.145605000000000018e+03
1.489999999999999936e-01 1.949879999999999947e-01 1.296100000000000030e+01 1.270579999999999927e+02 2.145675000000000182e+03
1.499999999999999944e-01 1.949965000000000170e-01 1.302849999999999930e+01 1.272794999999999987e+02 2.145734999999999673e+03
1.509999999999999953e-01 1.950034999999999963e-01 1.307945000000000135e+01 1.274530000000000030e+02 2.145789999999999964e+03
1.519999999999999962e-01 1.950095000000000023e-01 1.311009999999999920e+01 1.275734999999999957e+02 2.145829999999999927e+03
1.529999999999999971e-01 1.950135000000000063e-01 1.311844999999999928e+01 1.276400000000000006e+02 2.145860000000000127e+03
1.539999999999999980e-01 1.950159999999999949e-01 1.310365000000000002e+01 1.276525000000000034e+02 2.145885000000000218e+03
1.549999999999999989e-01 1.950164999999999815e-01 1.306654999999999944e+01 1.276170000000000044e+02 2.145885000000000218e+03
1.559999999999999998e-01 1.950155000000000083e-01 1.300900000000000034e+01 1.275395000000000039e+02 2.145885000000000218e+03
1.570000000000000007e-01 1.950129999999999919e-01 1.293389999999999951e+01 1.274290000000000020e+02 2.145864999999999782e+03
1.580000000000000016e-01 1.950100000000000167e-01 1.284499999999999886e+01 1.272955000000000041e+02 2.145840000000000146e+03
1.590000000000000024e-01 1.950049999999999839e-01 1.274634999999999962e+01 1.271500000000000057e+02 2.145809999999999945e+03
