# t [s], A [cm^2], U [cm/s], P [cPa], c [cm/s]
1.000000000000000021e-03 2.142674999999999996e-01 1.908094999999999930e-01 1.035494999999999948e+02 2.143524999999999636e+03
2.000000000000000042e-03 2.142220000000000235e-01 1.598167500000000185e+00 1.004946000000000055e+02 2.143184999999999945e+03
3.000000000000000062e-03 2.140814999999999801e-01 3.406686500000000173e+00 9.612950000000000728e+01 2.142194999999999709e+03
4.000000000000000083e-03 2.138825000000000032e-01 5.467028949999999554e+00 9.111195000000000732e+01 2.140800000000000182e+03
5.000000000000000104e-03 2.136609999999999898e-01 7.711485000000000589e+00 8.634270000000000778e+01 2.139269999999999982e+03
6.000000000000000125e-03 2.134429999999999938e-01 9.993945000000000078e+00 8.227615000000000123e+01 2.137784999999999854e+03
7.000000000000000146e-03 2.132374999999999965e-01 1.210049000000000063e+01 7.881435000000000457e+01 2.136399999999999636e+03
8.000000000000000167e-03 2.130464999999999998e-01 1.390228000000000108e+01 7.571375000000000455e+01 2.135144999999999982e+03
9.000000000000001055e-03 2.128764999999999963e-01 1.540599999999999881e+01 7.296800000000000352e+01 2.134039999999999964e+03
1.000000000000000194e-02 2.127304999999999890e-01 1.664975000000000094e+01 7.067220000000000368e+01 2.133109999999999673e+03
1.099999999999999936e-02 2.126105000000000078e-01 1.765605000000000047e+01 6.884629999999999939e+01 2.132349999999999909e+03
1.200000000000000025e-02 2.125150000000000095e-01 1.844054999999999822e+01 6.744665000000000532e+01 2.131755000000000109e+03
1.300000000000000114e-02 2.124395000000000033e-01 1.900744999999999862e+01 6.637655000000000882e+01 2.131289999999999964e+03
1.400000000000000203e-02 2.123794999999999988e-01 1.935844999999999771e+01 6.549880000000000280e+01 2.130930000000000291e+03
1.499999999999999944e-02 2.123309999999999920e-01 1.953395000000000081e+01 6.474464999999999293e+01 2.130644999999999982e+03
1.600000000000000033e-02 2.122944999999999971e-01 1.964079999999999870e+01 6.423699999999999477e+01 2.130434999999999945e+03
1.700000000000000122e-02 2.122804999999999831e-01 1.982305000000000206e+01 6.427410000000000423e+01 2.130359999999999673e+03
1.800000000000000211e-02 2.122970000000000135e-01 2.019339999999999691e+01 6.515664999999999907e+01 2.130470000000000255e+03
1.900000000000000300e-02 2.123490000000000100e-01 2.077555000000000263e+01 6.698480000000000700e+01 2.130804999999999836e+03
2.000000000000000042e-02 2.124320000000000097e-01 2.149314999999999998e+01 6.956045000000000300e+01 2.131345000000000255e+03
2.100000000000000130e-02 2.125350000000000017e-01 2.220514999999999972e+01 7.244050000000000011e+01 2.132005000000000109e+03
2.200000000000000219e-02 2.126399999999999957e-01 2.276295000000000002e+01 7.509590000000000032e+01 2.132694999999999709e+03
2.299999999999999961e-02 2.127315000000000178e-01 2.306309999999999860e+01 7.709125000000000227e+01 2.133305000000000291e+03
2.400000000000000050e-02 2.127985000000000015e-01 2.307460000000000022e+01 7.821025000000000205e+01 2.133765000000000327e+03
2.500000000000000139e-02 2.128380000000000272e-01 2.283715000000000117e+01 7.848859999999999104e+01 2.134050000000000182e+03
2.600000000000000228e-02 2.128530000000000144e-01 2.243430000000000035e+01 7.815614999999999668e+01 2.134164999999999964e+03
2.700000000000000316e-02 2.128504999999999980e-01 2.195655000000000001e+01 7.752355000000000018e+01 2.134164999999999964e+03
2.800000000000000058e-02 2.128404999999999880e-01 2.146884999999999977e+01 7.686084999999999923e+01 2.134105000000000018e+03
2.900000000000000147e-02 2.128275000000000028e-01 2.099280000000000257e+01 7.631405000000000882e+01 2.134025000000000091e+03
3.000000000000000236e-02 2.128145000000000175e-01 2.050854999999999961e+01 7.587969999999999970e+01 2.133939999999999600e+03
3.099999999999999978e-02 2.127994999999999748e-01 1.997079999999999700e+01 7.543809999999999150e+01 2.133849999999999909e+03
3.200000000000000067e-02 2.127789999999999959e-01 1.933350000000000080e+01 7.482455000000000211e+01 2.133715000000000146e+03
3.300000000000000155e-02 2.127479999999999927e-01 1.857325000000000159e+01 7.391094999999999970e+01 2.133525000000000091e+03
3.400000000000000244e-02 2.127060000000000062e-01 1.770465000000000089e+01 7.267105000000000814e+01 2.133255000000000109e+03
3.500000000000000333e-02 2.126534999999999953e-01 1.678320000000000078e+01 7.120869999999999322e+01 2.132925000000000182e+03
3.600000000000000422e-02 2.125974999999999948e-01 1.589405000000000001e+01 6.974074999999999136e+01 2.132564999999999600e+03
3.700000000000000511e-02 2.125464999999999993e-01 1.513105000000000189e+01 6.854155000000000086e+01 2.132235000000000127e+03
3.799999999999999906e-02 2.125090000000000034e-01 1.457305000000000206e+01 6.786754999999999427e+01 2.131980000000000018e+03
3.899999999999999994e-02 2.124935000000000018e-01 1.426440000000000019e+01 6.788700000000000045e+01 2.131869999999999891e+03
4.000000000000000083e-02 2.125029999999999974e-01 1.420545000000000080e+01 6.863624999999998977e+01 2.131914999999999964e+03
4.100000000000000172e-02 2.125374999999999903e-01 1.435369999999999990e+01 7.001125000000000398e+01 2.132114999999999782e+03
4.200000000000000261e-02 2.125914999999999888e-01 1.463510000000000133e+01 7.179375000000000284e+01 2.132454999999999927e+03
4.300000000000000350e-02 2.126569999999999849e-01 1.495964999999999989e+01 7.370005000000000450e+01 2.132869999999999891e+03
4.400000000000000439e-02 2.127240000000000242e-01 1.523830000000000062e+01 7.543774999999999409e+01 2.133300000000000182e+03
4.499999999999999833e-02 2.127824999999999855e-01 1.539649999999999963e+01 7.675669999999999504e+01 2.133685000000000400e+03
4.599999999999999922e-02 2.128249999999999864e-01 1.538275000000000148e+01 7.748300000000000409e+01 2.133965000000000146e+03
4.700000000000000011e-02 2.128460000000000074e-01 1.517095000000000127e+01 7.753395000000000437e+01 2.134110000000000127e+03
4.800000000000000100e-02 2.128424999999999900e-01 1.475809999999999889e+01 7.691195000000000448e+01 2.134095000000000255e+03
4.900000000000000189e-02 2.128150000000000042e-01 1.415834999999999866e+01 7.568555000000000632e+01 2.133935000000000400e+03
5.000000000000000278e-02 2.127650000000000097e-01 1.339604999999999890e+01 7.396235000000000070e+01 2.133619999999999891e+03
5.100000000000000366e-02 2.126969999999999972e-01 1.249944999999999951e+01 7.186320000000000618e+01 2.133184999999999945e+03
5.200000000000000455e-02 2.126139999999999974e-01 1.149646500000000060e+01 6.950245000000001028e+01 2.132654999999999745e+03
5.300000000000000544e-02 2.125199999999999867e-01 1.041290500000000030e+01 6.697690000000000055e+01 2.132050000000000182e+03
5.399999999999999939e-02 2.124185000000000101e-01 9.272705000000000197e+00 6.436445000000000505e+01 2.131390000000000327e+03
5.500000000000000028e-02 2.123120000000000007e-01 8.099630000000001218e+00 6.172870000000000346e+01 2.130710000000000036e+03
5.600000000000000117e-02 2.122044999999999904e-01 6.919515000000000526e+00 5.912780000000000058e+01 2.130005000000000109e+03
5.700000000000000205e-02 2.120970000000000077e-01 5.761689999999999756e+00 5.662269999999999470e+01 2.129309999999999945e+03
5.800000000000000294e-02 2.119935000000000014e-01 4.659919999999999618e+00 5.428329999999999700e+01 2.128635000000000218e+03
5.900000000000000383e-02 2.118975000000000164e-01 3.651729999999999698e+00 5.219029999999999347e+01 2.128005000000000109e+03
6.000000000000000472e-02 2.118114999999999859e-01 2.776701000000000086e+00 5.043269999999999698e+01 2.127440000000000055e+03
6.099999999999999867e-02 2.117399999999999838e-01 2.073872500000000230e+00 4.910195000000000221e+01 2.126965000000000146e+03
6.199999999999999956e-02 2.116859999999999853e-01 1.578773500000000052e+00 4.828354999999999819e+01 2.126599999999999909e+03
6.300000000000000044e-02 2.116534999999999944e-01 1.320555000000000145e+00 4.804879999999999995e+01 2.126380000000000109e+03
6.400000000000000133e-02 2.116449999999999998e-01 1.319634999999999891e+00 4.844715000000000060e+01 2.126304999999999836e+03
6.500000000000000222e-02 2.116619999999999890e-01 1.586224999999999996e+00 4.950124999999999886e+01 2.126394999999999982e+03
6.600000000000000311e-02 2.117054999999999909e-01 2.119727500000000209e+00 5.120475000000000421e+01 2.126654999999999745e+03
6.700000000000000400e-02 2.117749999999999910e-01 2.909044999999999881e+00 5.352289999999999992e+01 2.127085000000000036e+03
6.800000000000000488e-02 2.118690000000000018e-01 3.933720000000000105e+00 5.639634999999999820e+01 2.127675000000000182e+03
6.900000000000000577e-02 2.119854999999999934e-01 5.165620000000000545e+00 5.974575000000000102e+01 2.128414999999999964e+03
7.000000000000000666e-02 2.121215000000000184e-01 6.570994999999999919e+00 6.347869999999999635e+01 2.129284999999999854e+03
7.100000000000000755e-02 2.122735000000000039e-01 8.112804999999999822e+00 6.749660000000000082e+01 2.130260000000000218e+03
7.200000000000000844e-02 2.124369999999999870e-01 9.753090000000000259e+00 7.170149999999999579e+01 2.131315000000000055e+03
7.300000000000000933e-02 2.126089999999999924e-01 1.145497999999999905e+01 7.600249999999999773e+01 2.132430000000000291e+03
7.399999999999999634e-02 2.127860000000000029e-01 1.318493999999999922e+01 8.032080000000000553e+01 2.133574999999999818e+03
7.499999999999999722e-02 2.129650000000000154e-01 1.491380000000000017e+01 8.459380000000000166e+01 2.134750000000000000e+03
7.599999999999999811e-02 2.131434999999999858e-01 1.661820000000000164e+01 8.877684999999999604e+01 2.135909999999999854e+03
7.699999999999999900e-02 2.133189999999999809e-01 1.828044999999999831e+01 9.284364999999999668e+01 2.137069999999999709e+03
7.799999999999999989e-02 2.134920000000000151e-01 1.988860000000000028e+01 9.678414999999999679e+01 2.138204999999999927e+03
7.900000000000000078e-02 2.136609999999999898e-01 2.143590000000000018e+01 1.006019000000000005e+02 2.139324999999999818e+03
8.000000000000000167e-02 2.138265000000000027e-01 2.291939999999999955e+01 1.043114999999999952e+02 2.140414999999999964e+03
8.100000000000000255e-02 2.139874999999999972e-01 2.433910000000000196e+01 1.079314999999999998e+02 2.141484999999999673e+03
8.200000000000000344e-02 2.141464999999999896e-01 2.569639999999999702e+01 1.114809999999999945e+02 2.142534999999999854e+03
8.300000000000000433e-02 2.143019999999999925e-01 2.699349999999999739e+01 1.149784999999999968e+02 2.143565000000000055e+03
8.400000000000000522e-02 2.144564999999999944e-01 2.823215000000000074e+01 1.184360000000000070e+02 2.144590000000000146e+03
8.500000000000000611e-02 2.146089999999999942e-01 2.941349999999999909e+01 1.218584999999999923e+02 2.145609999999999673e+03
8.600000000000000699e-02 2.147600000000000064e-01 3.053734999999999999e+01 1.252470000000000141e+02 2.146610000000000127e+03
8.700000000000000788e-02 2.149095000000000033e-01 3.160249999999999915e+01 1.285939999999999941e+02 2.147605000000000018e+03
8.800000000000000877e-02 2.150569999999999982e-01 3.260660000000000025e+01 1.318859999999999957e+02 2.148590000000000146e+03
8.899999999999999578e-02 2.152014999999999900e-01 3.354634999999999678e+01 1.351084999999999923e+02 2.149559999999999945e+03
8.999999999999999667e-02 2.153435000000000210e-01 3.441765000000000185e+01 1.382409999999999854e+02 2.150505000000000109e+03
9.099999999999999756e-02 2.154814999999999925e-01 3.521574999999999989e+01 1.412640000000000100e+02 2.151425000000000182e+03
9.199999999999999845e-02 2.156144999999999867e-01 3.593534999999999968e+01 1.441545000000000130e+02 2.152315000000000055e+03
9.299999999999999933e-02 2.157415000000000027e-01 3.657099999999999795e+01 1.468915000000000077e+02 2.153170000000000073e+03
9.400000000000000022e-02 2.158625000000000127e-01 3.711669999999999447e+01 1.494529999999999745e+02 2.153985000000000127e+03
9.500000000000000111e-02 2.159754999999999869e-01 3.756680000000000064e+01 1.518174999999999955e+02 2.154739999999999782e+03
9.600000000000000200e-02 2.160805000000000087e-01 3.791575000000000273e+01 1.539664999999999964e+02 2.155449999999999818e+03
9.700000000000000289e-02 2.161764999999999937e-01 3.815865000000000151e+01 1.558814999999999884e+02 2.156099999999999909e+03
9.800000000000000377e-02 2.162620000000000098e-01 3.829160000000000252e+01 1.575484999999999900e+02 2.156680000000000291e+03
9.900000000000000466e-02 2.163370000000000015e-01 3.831204999999999927e+01 1.589560000000000173e+02 2.157190000000000055e+03
1.000000000000000056e-01 2.164019999999999833e-01 3.821934999999999860e+01 1.600985000000000014e+02 2.157630000000000109e+03
1.010000000000000064e-01 2.164550000000000085e-01 3.801480000000000103e+01 1.609759999999999991e+02 2.157994999999999891e+03
1.020000000000000073e-01 2.164969999999999950e-01 3.770189999999999486e+01 1.615944999999999823e+02 2.158284999999999854e+03
1.030000000000000082e-01 2.165285000000000126e-01 3.728669999999999618e+01 1.619650000000000034e+02 2.158505000000000109e+03
1.040000000000000091e-01 2.165489999999999915e-01 3.677740000000000009e+01 1.621059999999999945e+02 2.158654999999999745e+03
1.050000000000000100e-01 2.165600000000000025e-01 3.618384999999999962e+01 1.620409999999999968e+02 2.158739999999999782e+03
1.059999999999999970e-01 2.165624999999999911e-01 3.551780000000000115e+01 1.617964999999999804e+02 2.158760000000000218e+03
1.069999999999999979e-01 2.165575000000000139e-01 3.479179999999999495e+01 1.614025000000000034e+02 2.158739999999999782e+03
1.079999999999999988e-01 2.165459999999999885e-01 3.401910000000000167e+01 1.608890000000000100e+02 2.158664999999999964e+03
1.089999999999999997e-01 2.165289999999999992e-01 3.321290000000000475e+01 1.602864999999999895e+02 2.158555000000000291e+03
1.100000000000000006e-01 2.165080000000000060e-01 3.238589999999999947e+01 1.596225000000000023e+02 2.158420000000000073e+03
1.110000000000000014e-01 2.164840000000000098e-01 3.154990000000000094e+01 1.589240000000000066e+02 2.158264999999999873e+03
1.120000000000000023e-01 2.164579999999999838e-01 3.071545000000000059e+01 1.582115000000000009e+02 2.158095000000000255e+03
1.130000000000000032e-01 2.164304999999999979e-01 2.989139999999999731e+01 1.575045000000000073e+02 2.157909999999999854e+03
1.140000000000000041e-01 2.164030000000000120e-01 2.908474999999999966e+01 1.568129999999999882e+02 2.157730000000000018e+03
1.150000000000000050e-01 2.163754999999999984e-01 2.830069999999999908e+01 1.561475000000000080e+02 2.157550000000000182e+03
1.160000000000000059e-01 2.163490000000000135e-01 2.754225000000000279e+01 1.555095000000000027e+02 2.157369999999999891e+03
1.170000000000000068e-01 2.163229999999999875e-01 2.681050000000000111e+01 1.548975000000000080e+02 2.157190000000000055e+03
1.180000000000000077e-01 2.162970000000000170e-01 2.610474999999999923e+01 1.543064999999999998e+02 2.157015000000000327e+03
1.190000000000000085e-01 2.162715000000000054e-01 2.542229999999999990e+01 1.537259999999999991e+02 2.156849999999999909e+03
1.200000000000000094e-01 2.162465000000000082e-01 2.475934999999999775e+01 1.531435000000000173e+02 2.156675000000000182e+03
1.209999999999999964e-01 2.162209999999999965e-01 2.411070000000000135e+01 1.525450000000000159e+02 2.156505000000000109e+03
1.219999999999999973e-01 2.161945000000000117e-01 2.347039999999999793e+01 1.519139999999999873e+02 2.156324999999999818e+03
1.229999999999999982e-01 2.161664999999999837e-01 2.283220000000000027e+01 1.512350000000000136e+02 2.156135000000000218e+03
1.239999999999999991e-01 2.161359999999999948e-01 2.218975000000000009e+01 1.504915000000000020e+02 2.155930000000000291e+03
1.250000000000000000e-01 2.161029999999999895e-01 2.153715000000000046e+01 1.496694999999999993e+02 2.155715000000000146e+03
1.260000000000000009e-01 2.160664999999999947e-01 2.086929999999999907e+01 1.487595000000000027e+02 2.155470000000000255e+03
1.270000000000000018e-01 2.160269999999999968e-01 2.018220000000000169e+01 1.477520000000000095e+02 2.155199999999999818e+03
1.280000000000000027e-01 2.159824999999999939e-01 1.947344999999999970e+01 1.466440000000000055e+02 2.154909999999999854e+03
1.290000000000000036e-01 2.159340000000000148e-01 1.874199999999999733e+01 1.454359999999999786e+02 2.154590000000000146e+03
1.300000000000000044e-01 2.158825000000000049e-01 1.798884999999999934e+01 1.441335000000000264e+02 2.154244999999999891e+03
1.310000000000000053e-01 2.158259999999999901e-01 1.721690000000000254e+01 1.427459999999999809e+02 2.153869999999999891e+03
1.320000000000000062e-01 2.157669999999999866e-01 1.643045000000000044e+01 1.412895000000000039e+02 2.153480000000000018e+03
1.330000000000000071e-01 2.157049999999999801e-01 1.563584999999999958e+01 1.397814999999999941e+02 2.153065000000000055e+03
1.340000000000000080e-01 2.156405000000000127e-01 1.484049999999999869e+01 1.382434999999999832e+02 2.152644999999999982e+03
1.350000000000000089e-01 2.155755000000000032e-01 1.405294999999999916e+01 1.366999999999999886e+02 2.152210000000000036e+03
1.360000000000000098e-01 2.155100000000000071e-01 1.328225000000000122e+01 1.351759999999999877e+02 2.151775000000000091e+03
1.370000000000000107e-01 2.154455000000000120e-01 1.253770000000000095e+01 1.336945000000000050e+02 2.151350000000000364e+03
1.380000000000000115e-01 2.153824999999999767e-01 1.182826999999999984e+01 1.322814999999999941e+02 2.150925000000000182e+03
1.390000000000000124e-01 2.153220000000000134e-01 1.116231499999999954e+01 1.309559999999999889e+02 2.150524999999999636e+03
1.400000000000000133e-01 2.152654999999999985e-01 1.054701500000000003e+01 1.297364999999999782e+02 2.150145000000000437e+03
1.410000000000000142e-01 2.152135000000000020e-01 9.988360000000000127e+00 1.286370000000000005e+02 2.149789999999999964e+03
1.420000000000000151e-01 2.151660000000000239e-01 9.490650000000000475e+00 1.276674999999999898e+02 2.149474999999999909e+03
1.430000000000000160e-01 2.151230000000000087e-01 9.056620000000000559e+00 1.268329999999999984e+02 2.149190000000000055e+03
1.440000000000000169e-01 2.150859999999999994e-01 8.687324999999999520e+00 1.261339999999999861e+02 2.148934999999999945e+03
1.450000000000000178e-01 2.150544999999999818e-01 8.382255000000000678e+00 1.255679999999999978e+02 2.148720000000000255e+03
1.459999999999999909e-01 2.150285000000000113e-01 8.139324999999999477e+00 1.251285000000000025e+02 2.148545000000000073e+03
1.469999999999999918e-01 2.150075000000000180e-01 7.955214999999999925e+00 1.248060000000000116e+02 2.148394999999999982e+03
1.479999999999999927e-01 2.149915000000000020e-01 7.825470000000000148e+00 1.245885000000000105e+02 2.148284999999999854e+03
1.489999999999999936e-01 2.149800000000000044e-01 7.744804999999999495e+00 1.244629999999999939e+02 2.148199999999999818e+03
1.499999999999999944e-01 2.149714999999999820e-01 7.707295000000000229e+00 1.244159999999999968e+02 2.148144999999999982e+03
1.509999999999999953e-01 2.149675000000000058e-01 7.706630000000000535e+00 1.244329999999999927e+02 2.148110000000000127e+03
1.519999999999999962e-01 2.149655000000000038e-01 7.736340000000000217e+00 1.244989999999999952e+02 2.148095000000000255e+03
1.529999999999999971e-01 2.149655000000000038e-01 7.789989999999999526e+00 1.245999999999999943e+02 2.148090000000000146e+03
1.539999999999999980e-01 2.149679999999999924e-01 7.861380000000000479e+00 1.247249999999999943e+02 2.148099999999999909e+03
1.549999999999999989e-01 2.149709999999999954e-01 7.944710000000000605e+00 1.248605000000000018e+02 2.148119999999999891e+03
1.559999999999999998e-01 2.149749999999999994e-01 8.034699999999999065e+00 1.249985000000000070e+02 2.148139999999999873e+03
1.570000000000000007e-01 2.149789999999999757e-01 8.126735000000000042e+00 1.251304999999999978e+02 2.148170000000000073e+03
1.580000000000000016e-01 2.149834999999999940e-01 8.216910000000000380e+00 1.252489999999999952e+02 2.148199999999999818e+03
1.590000000000000024e-01 2.149874999999999980e-01 8.302094999999999558e+00 1.253504999999999967e+02 2.148220000000000255e+03
