# t [s], A [cm^2], U [cm/s], P [cPa], c [cm/s]
1.000000000000000021e-03 5.746080000000000076e-01 3.023900000000002974e-03 9.656300000000000239e+01 1.491634999999999991e+03
2.000000000000000042e-03 5.746010000000000284e-01 1.644604999999999938e-03 9.654169999999999163e+01 1.491630000000000109e+03
3.000000000000000062e-03 5.746565000000000145e-01 1.033866999999999980e-01 9.663855000000000928e+01 1.491659999999999854e+03
4.000000000000000083e-03 5.747025000000000050e-01 1.939362500000000045e-01 9.674385000000000900e+01 1.491694999999999936e+03
5.000000000000000104e-03 5.746780000000000221e-01 1.639667549999999918e-01 9.668819999999999482e+01 1.491680000000000064e+03
6.000000000000000125e-03 5.746154999999999458e-01 6.042999999999998373e-02 9.647899999999999920e+01 1.491630000000000109e+03
7.000000000000000146e-03 5.745525000000000215e-01 -5.096999999999995978e-02 9.618989999999999441e+01 1.491554999999999836e+03
8.000000000000000167e-03 5.744564999999999255e-01 -2.337799999999999878e-01 9.576154999999999973e+01 1.491444999999999936e+03
9.000000000000001055e-03 5.742974999999999053e-01 -5.425300000000000678e-01 9.510784999999999911e+01 1.491275000000000091e+03
1.000000000000000194e-02 5.740735000000000143e-01 -9.731600000000001360e-01 9.419374999999999432e+01 1.491034999999999854e+03
1.099999999999999936e-02 5.737754999999999939e-01 -1.532685000000000297e+00 9.297634999999999650e+01 1.490704999999999927e+03
1.200000000000000025e-02 5.733850000000000335e-01 -2.231810000000000294e+00 9.140614999999999668e+01 1.490280000000000200e+03
1.300000000000000114e-02 5.729174999999999685e-01 -3.023109999999999964e+00 8.950045000000000073e+01 1.489740000000000009e+03
1.400000000000000203e-02 5.724245000000000028e-01 -3.781340000000000590e+00 8.738970000000000482e+01 1.489130000000000109e+03
1.499999999999999944e-02 5.719729999999999537e-01 -4.351987000000000272e+00 8.527975000000000705e+01 1.488500000000000000e+03
1.600000000000000033e-02 5.716090000000000337e-01 -4.619589000000000389e+00 8.336699999999999022e+01 1.487889999999999873e+03
1.700000000000000122e-02 5.713430000000000453e-01 -4.547036499999999926e+00 8.176779999999999404e+01 1.487344999999999800e+03
1.800000000000000211e-02 5.711524999999999519e-01 -4.175764000000000031e+00 8.049215000000000941e+01 1.486875000000000000e+03
1.900000000000000300e-02 5.709944999999999604e-01 -3.599667500000000242e+00 7.945725000000000193e+01 1.486465000000000146e+03
2.000000000000000042e-02 5.708219999999999406e-01 -2.928596999999999895e+00 7.852750000000000341e+01 1.486085000000000036e+03
2.100000000000000130e-02 5.706020000000000536e-01 -2.253443499999999933e+00 7.756404999999999461e+01 1.485700000000000045e+03
2.200000000000000219e-02 5.703209999999999669e-01 -1.623019999999999907e+00 7.646809999999999263e+01 1.485289999999999964e+03
2.299999999999999961e-02 5.699849999999999639e-01 -1.039509999999999934e+00 7.520410000000001105e+01 1.484839999999999918e+03
2.400000000000000050e-02 5.696164999999999701e-01 -4.725899999999998435e-01 7.379595000000000482e+01 1.484355000000000018e+03
2.500000000000000139e-02 5.692389999999999395e-01 1.160999999999998700e-01 7.230169999999999675e+01 1.483840000000000146e+03
2.600000000000000228e-02 5.688670000000000115e-01 7.493449999999999278e-01 7.078069999999999595e+01 1.483315000000000055e+03
2.700000000000000316e-02 5.685044999999999682e-01 1.419869999999999965e+00 6.926590000000000202e+01 1.482784999999999854e+03
2.800000000000000058e-02 5.681384999999999907e-01 2.087654999999999816e+00 6.774889999999999191e+01 1.482250000000000000e+03
2.900000000000000147e-02 5.677480000000000304e-01 2.687355000000000160e+00 6.617990000000000350e+01 1.481699999999999818e+03
3.000000000000000236e-02 5.673060000000000880e-01 3.142564999999999831e+00 6.447960000000000491e+01 1.481119999999999891e+03
3.099999999999999978e-02 5.667900000000000160e-01 3.382875000000000298e+00 6.255995000000000061e+01 1.480485000000000127e+03
3.200000000000000067e-02 5.661850000000000493e-01 3.360015000000000196e+00 6.034839999999999804e+01 1.479775000000000091e+03
3.300000000000000155e-02 5.654900000000000482e-01 3.059319999999999595e+00 5.780949999999999989e+01 1.478974999999999909e+03
3.400000000000000244e-02 5.647199999999999998e-01 2.503919999999999924e+00 5.495889999999999986e+01 1.478089999999999918e+03
3.500000000000000333e-02 5.639020000000000143e-01 1.750935000000000130e+00 5.186619999999999919e+01 1.477134999999999991e+03
3.600000000000000422e-02 5.630720000000000169e-01 8.809650000000006642e-01 4.864674999999999727e+01 1.476139999999999873e+03
3.700000000000000511e-02 5.622694999999999776e-01 -1.510000000000033538e-02 4.544550000000000267e+01 1.475130000000000109e+03
3.799999999999999906e-02 5.615324999999999900e-01 -8.490849999999996456e-01 4.241740000000000066e+01 1.474164999999999964e+03
3.899999999999999994e-02 5.608920000000000572e-01 -1.545479999999999965e+00 3.970889999999999986e+01 1.473269999999999982e+03
4.000000000000000083e-02 5.603730000000000100e-01 -2.047124999999999861e+00 3.744355000000000189e+01 1.472494999999999891e+03
4.100000000000000172e-02 5.599894999999999179e-01 -2.316969999999999974e+00 3.571255000000000024e+01 1.471869999999999891e+03
4.200000000000000261e-02 5.597484999999999822e-01 -2.336349999999999927e+00 3.457189999999999941e+01 1.471404999999999973e+03
4.300000000000000350e-02 5.596505000000000507e-01 -2.101208500000000257e+00 3.404394999999999527e+01 1.471125000000000000e+03
4.400000000000000439e-02 5.596900000000000208e-01 -1.617380000000000040e+00 3.412269999999999470e+01 1.471019999999999982e+03
4.499999999999999833e-02 5.598600000000000243e-01 -8.961949999999999639e-01 3.478139999999999787e+01 1.471110000000000127e+03
4.599999999999999922e-02 5.601499999999999257e-01 4.865500000000011482e-02 3.597979999999999734e+01 1.471360000000000127e+03
4.700000000000000011e-02 5.605510000000000215e-01 1.202649999999999775e+00 3.767034999999999911e+01 1.471779999999999973e+03
4.800000000000000100e-02 5.610509999999999664e-01 2.550314999999999888e+00 3.980160000000000053e+01 1.472349999999999909e+03
4.900000000000000189e-02 5.616410000000000569e-01 4.074104999999999421e+00 4.232050000000000267e+01 1.473050000000000182e+03
5.000000000000000278e-02 5.623059999999999725e-01 5.752805000000000391e+00 4.517175000000000296e+01 1.473869999999999891e+03
5.100000000000000366e-02 5.630340000000000344e-01 7.560649999999999871e+00 4.829744999999999777e+01 1.474789999999999964e+03
5.200000000000000455e-02 5.638110000000000621e-01 9.466666999999999277e+00 5.163669999999999760e+01 1.475784999999999854e+03
5.300000000000000544e-02 5.646195000000000519e-01 1.143578500000000098e+01 5.512580000000000524e+01 1.476845000000000027e+03
5.399999999999999939e-02 5.654445000000000165e-01 1.343038499999999935e+01 5.869979999999999620e+01 1.477950000000000045e+03
5.500000000000000028e-02 5.662709999999999688e-01 1.541225500000000004e+01 6.229469999999999885e+01 1.479079999999999927e+03
5.600000000000000117e-02 5.670849999999999502e-01 1.734534999999999982e+01 6.585044999999999504e+01 1.480215000000000146e+03
5.700000000000000205e-02 5.678739999999999899e-01 1.919780000000000086e+01 6.931425000000000125e+01 1.481335000000000036e+03
5.800000000000000294e-02 5.686299999999999688e-01 2.094384999999999764e+01 7.264300000000000068e+01 1.482424999999999955e+03
5.900000000000000383e-02 5.693470000000000475e-01 2.256459999999999866e+01 7.580540000000000589e+01 1.483480000000000018e+03
6.000000000000000472e-02 5.700214999999999588e-01 2.404865000000000208e+01 7.878315000000000623e+01 1.484494999999999891e+03
6.099999999999999867e-02 5.706549999999999123e-01 2.539185000000000159e+01 8.157059999999999889e+01 1.485449999999999818e+03
6.199999999999999956e-02 5.712494999999999656e-01 2.659629999999999939e+01 8.417400000000000659e+01 1.486355000000000018e+03
6.300000000000000044e-02 5.718104999999999993e-01 2.766945000000000121e+01 8.660970000000000368e+01 1.487215000000000146e+03
6.400000000000000133e-02 5.723430000000000462e-01 2.862304999999999922e+01 8.890184999999999604e+01 1.488029999999999973e+03
6.500000000000000222e-02 5.728550000000000031e-01 2.947140000000000271e+01 9.108039999999999736e+01 1.488805000000000064e+03
6.600000000000000311e-02 5.733544999999999892e-01 3.023100000000000165e+01 9.317825000000000557e+01 1.489554999999999836e+03
6.700000000000000400e-02 5.738474999999999548e-01 3.091915000000000191e+01 9.522925000000000750e+01 1.490284999999999854e+03
6.800000000000000488e-02 5.743430000000000479e-01 3.155300000000000082e+01 9.726634999999998854e+01 1.491009999999999991e+03
6.900000000000000577e-02 5.748455000000000092e-01 3.214909999999999712e+01 9.931919999999999504e+01 1.491730000000000018e+03
7.000000000000000666e-02 5.753614999999999702e-01 3.272199999999999420e+01 1.014137000000000057e+02 1.492460000000000036e+03
7.100000000000000755e-02 5.758950000000000458e-01 3.328414999999999679e+01 1.035689999999999884e+02 1.493204999999999927e+03
7.200000000000000844e-02 5.764469999999999317e-01 3.384480000000000643e+01 1.057980000000000018e+02 1.493970000000000027e+03
7.300000000000000933e-02 5.770189999999999486e-01 3.440930000000000177e+01 1.081045000000000016e+02 1.494755000000000109e+03
7.399999999999999634e-02 5.776080000000000103e-01 3.497910000000000252e+01 1.104865000000000066e+02 1.495559999999999945e+03
7.499999999999999722e-02 5.782114999999999894e-01 3.555149999999999721e+01 1.129304999999999950e+02 1.496384999999999991e+03
7.599999999999999811e-02 5.788229999999999764e-01 3.611965000000000003e+01 1.154174999999999898e+02 1.497224999999999909e+03
7.699999999999999900e-02 5.794364999999999100e-01 3.667319999999999425e+01 1.179205000000000041e+02 1.498070000000000164e+03
7.799999999999999989e-02 5.800429999999999753e-01 3.719910000000000139e+01 1.204070000000000107e+02 1.498914999999999964e+03
7.900000000000000078e-02 5.806344999999999423e-01 3.768240000000000123e+01 1.228410000000000082e+02 1.499750000000000000e+03
8.000000000000000167e-02 5.812019999999999964e-01 3.810719999999999885e+01 1.251859999999999928e+02 1.500555000000000064e+03
8.100000000000000255e-02 5.817369999999999486e-01 3.845794999999999675e+01 1.274039999999999964e+02 1.501329999999999927e+03
8.200000000000000344e-02 5.822315000000000129e-01 3.871994999999999720e+01 1.294600000000000080e+02 1.502054999999999836e+03
8.300000000000000433e-02 5.826784999999999881e-01 3.888080000000000069e+01 1.313245000000000005e+02 1.502724999999999909e+03
8.400000000000000522e-02 5.830729999999999524e-01 3.893054999999999666e+01 1.329724999999999966e+02 1.503329999999999927e+03
8.500000000000000611e-02 5.834120000000000417e-01 3.886249999999999716e+01 1.343854999999999791e+02 1.503860000000000127e+03
8.600000000000000699e-02 5.836925000000000585e-01 3.867334999999999923e+01 1.355534999999999854e+02 1.504320000000000164e+03
8.700000000000000788e-02 5.839155000000000317e-01 3.836319999999999908e+01 1.364724999999999966e+02 1.504695000000000164e+03
8.800000000000000877e-02 5.840815000000000312e-01 3.793580000000000041e+01 1.371469999999999914e+02 1.504990000000000009e+03
8.899999999999999578e-02 5.841939999999999911e-01 3.739799999999999613e+01 1.375885000000000105e+02 1.505214999999999918e+03
8.999999999999999667e-02 5.842574999999999852e-01 3.675965000000000060e+01 1.378134999999999764e+02 1.505360000000000127e+03
9.099999999999999756e-02 5.842764999999999764e-01 3.603305000000000291e+01 1.378444999999999823e+02 1.505440000000000055e+03
9.199999999999999845e-02 5.842585000000000139e-01 3.523245000000000005e+01 1.377090000000000032e+02 1.505465000000000146e+03
9.299999999999999933e-02 5.842089999999999783e-01 3.437339999999999662e+01 1.374339999999999975e+02 1.505434999999999945e+03
9.400000000000000022e-02 5.841365000000000585e-01 3.347249999999999659e+01 1.370525000000000091e+02 1.505360000000000127e+03
9.500000000000000111e-02 5.840469999999999828e-01 3.254619999999999891e+01 1.365939999999999941e+02 1.505255000000000109e+03
9.600000000000000200e-02 5.839474999999999527e-01 3.161084999999999923e+01 1.360889999999999986e+02 1.505125000000000000e+03
9.700000000000000289e-02 5.838444999999999885e-01 3.068164999999999765e+01 1.355654999999999859e+02 1.504980000000000018e+03
9.800000000000000377e-02 5.837434999999999707e-01 2.977224999999999966e+01 1.350490000000000066e+02 1.504835000000000036e+03
9.900000000000000466e-02 5.836489999999999734e-01 2.889444999999999908e+01 1.345604999999999905e+02 1.504684999999999945e+03
1.000000000000000056e-01 5.835645000000000415e-01 2.805754999999999910e+01 1.341165000000000020e+02 1.504545000000000073e+03
1.010000000000000064e-01 5.834924999999999695e-01 2.726839999999999975e+01 1.337299999999999898e+02 1.504420000000000073e+03
1.020000000000000073e-01 5.834350000000000369e-01 2.653094999999999715e+01 1.334074999999999989e+02 1.504309999999999945e+03
1.030000000000000082e-01 5.833909999999999929e-01 2.584645000000000081e+01 1.331505000000000223e+02 1.504210000000000036e+03
1.040000000000000091e-01 5.833599999999999897e-01 2.521359999999999957e+01 1.329569999999999936e+02 1.504134999999999991e+03
1.050000000000000100e-01 5.833395000000000108e-01 2.462845000000000084e+01 1.328185000000000002e+02 1.504070000000000164e+03
1.059999999999999970e-01 5.833274999999999988e-01 2.408514999999999873e+01 1.327255000000000109e+02 1.504029999999999973e+03
1.069999999999999979e-01 5.833199999999999497e-01 2.357600000000000051e+01 1.326624999999999943e+02 1.503990000000000009e+03
1.079999999999999988e-01 5.833139999999999992e-01 2.309219999999999828e+01 1.326140000000000043e+02 1.503960000000000036e+03
1.089999999999999997e-01 5.833040000000000447e-01 2.262395000000000067e+01 1.325629999999999882e+02 1.503934999999999945e+03
1.100000000000000006e-01 5.832869999999999999e-01 2.216134999999999877e+01 1.324909999999999854e+02 1.503900000000000091e+03
1.110000000000000014e-01 5.832595000000000418e-01 2.169460000000000122e+01 1.323804999999999836e+02 1.503860000000000127e+03
1.120000000000000023e-01 5.832169999999999854e-01 2.121460000000000079e+01 1.322160000000000082e+02 1.503800000000000182e+03
1.130000000000000032e-01 5.831570000000000364e-01 2.071334999999999837e+01 1.319839999999999804e+02 1.503724999999999909e+03
1.140000000000000041e-01 5.830774999999999153e-01 2.018430000000000035e+01 1.316734999999999900e+02 1.503630000000000109e+03
1.150000000000000050e-01 5.829765000000000086e-01 1.962255000000000038e+01 1.312760000000000105e+02 1.503505000000000109e+03
1.160000000000000059e-01 5.828545000000000531e-01 1.902520000000000167e+01 1.307884999999999991e+02 1.503355000000000018e+03
1.170000000000000068e-01 5.827109999999999790e-01 1.839154999999999873e+01 1.302100000000000080e+02 1.503180000000000064e+03
1.180000000000000077e-01 5.825469999999999260e-01 1.772279999999999944e+01 1.295444999999999993e+02 1.502974999999999909e+03
1.190000000000000085e-01 5.823654999999999804e-01 1.702234999999999943e+01 1.287994999999999948e+02 1.502740000000000009e+03
1.200000000000000094e-01 5.821680000000000188e-01 1.629540000000000077e+01 1.279860000000000042e+02 1.502490000000000009e+03
1.209999999999999964e-01 5.819590000000000041e-01 1.554915000000000092e+01 1.271159999999999997e+02 1.502210000000000036e+03
1.219999999999999973e-01 5.817425000000000512e-01 1.479186999999999941e+01 1.262085000000000008e+02 1.501925000000000182e+03
1.229999999999999982e-01 5.815224999999999422e-01 1.403305999999999898e+01 1.252789999999999964e+02 1.501630000000000109e+03
1.239999999999999991e-01 5.813034999999999730e-01 1.328301000000000087e+01 1.243474999999999966e+02 1.501324999999999818e+03
1.250000000000000000e-01 5.810899999999999954e-01 1.255219999999999914e+01 1.234329999999999927e+02 1.501025000000000091e+03
1.260000000000000009e-01 5.808864999999999723e-01 1.185096000000000060e+01 1.225550000000000068e+02 1.500730000000000018e+03
1.270000000000000018e-01 5.806964999999999488e-01 1.118900999999999968e+01 1.217299999999999898e+02 1.500454999999999927e+03
1.280000000000000027e-01 5.805244999999999989e-01 1.057525500000000029e+01 1.209759999999999991e+02 1.500195000000000164e+03
1.290000000000000036e-01 5.803730000000000278e-01 1.001720500000000058e+01 1.203040000000000020e+02 1.499954999999999927e+03
1.300000000000000044e-01 5.802439999999999820e-01 9.520724999999998772e+00 1.197254999999999967e+02 1.499744999999999891e+03
1.310000000000000053e-01 5.801385000000000014e-01 9.090009999999999479e+00 1.192475000000000023e+02 1.499565000000000055e+03
1.320000000000000062e-01 5.800570000000000448e-01 8.727304999999999424e+00 1.188729999999999905e+02 1.499414999999999964e+03
1.330000000000000071e-01 5.799999999999999600e-01 8.432954999999999757e+00 1.186034999999999968e+02 1.499300000000000182e+03
1.340000000000000080e-01 5.799659999999999815e-01 8.205449999999999022e+00 1.184344999999999999e+02 1.499215000000000146e+03
1.350000000000000089e-01 5.799535000000000107e-01 8.041565000000000296e+00 1.183599999999999994e+02 1.499160000000000082e+03
1.360000000000000098e-01 5.799600000000000311e-01 7.936474999999999724e+00 1.183709999999999951e+02 1.499130000000000109e+03
1.370000000000000107e-01 5.799830000000000263e-01 7.884164999999999424e+00 1.184569999999999936e+02 1.499130000000000109e+03
1.380000000000000115e-01 5.800184999999999924e-01 7.877610000000000667e+00 1.186049999999999898e+02 1.499155000000000200e+03
1.390000000000000124e-01 5.800644999999999829e-01 7.909114999999999895e+00 1.188009999999999877e+02 1.499194999999999936e+03
1.400000000000000133e-01 5.801169999999999938e-01 7.970629999999999882e+00 1.190314999999999941e+02 1.499244999999999891e+03
1.410000000000000142e-01 5.801735000000000086e-01 8.054024999999999324e+00 1.192820000000000107e+02 1.499309999999999945e+03
1.420000000000000151e-01 5.802305000000000934e-01 8.151395000000000834e+00 1.195405000000000086e+02 1.499380000000000109e+03
1.430000000000000160e-01 5.802855000000000096e-01 8.255269999999999442e+00 1.197939999999999969e+02 1.499449999999999818e+03
1.440000000000000169e-01 5.803365000000000329e-01 8.358869999999999578e+00 1.200320000000000107e+02 1.499525000000000091e+03
1.450000000000000178e-01 5.803810000000000358e-01 8.456220000000000070e+00 1.202464999999999975e+02 1.499585000000000036e+03
1.459999999999999909e-01 5.804179999999999895e-01 8.542315000000000325e+00 1.204300000000000068e+02 1.499644999999999982e+03
1.469999999999999918e-01 5.804464999999999764e-01 8.613160000000000593e+00 1.205775000000000006e+02 1.499690000000000055e+03
1.479999999999999927e-01 5.804669999999999552e-01 8.665824999999999889e+00 1.206864999999999952e+02 1.499735000000000127e+03
1.489999999999999936e-01 5.804774999999999796e-01 8.698454999999999160e+00 1.207560000000000002e+02 1.499760000000000218e+03
1.499999999999999944e-01 5.804789999999999672e-01 8.710219999999999629e+00 1.207864999999999895e+02 1.499775000000000091e+03
1.509999999999999953e-01 5.804734999999999756e-01 8.701190000000000424e+00 1.207804999999999893e+02 1.499779999999999973e+03
1.519999999999999962e-01 5.804599999999999760e-01 8.672435000000000116e+00 1.207409999999999997e+02 1.499769999999999982e+03
1.529999999999999971e-01 5.804415000000000546e-01 8.625564999999999927e+00 1.206734999999999900e+02 1.499760000000000218e+03
1.539999999999999980e-01 5.804179999999999895e-01 8.563010000000000232e+00 1.205829999999999984e+02 1.499740000000000009e+03
1.549999999999999989e-01 5.803909999999999902e-01 8.487540000000000973e+00 1.204759999999999991e+02 1.499715000000000146e+03
1.559999999999999998e-01 5.803625000000000034e-01 8.402350000000000207e+00 1.203569999999999993e+02 1.499680000000000064e+03
1.570000000000000007e-01 5.803329999999999878e-01 8.310705000000000453e+00 1.202340000000000089e+02 1.499644999999999982e+03
1.580000000000000016e-01 5.803050000000000708e-01 8.215955000000001007e+00 1.201115000000000066e+02 1.499610000000000127e+03
1.590000000000000024e-01 5.802789999999999893e-01 8.121359999999999246e+00 1.199954999999999927e+02 1.499575000000000045e+03
