# t [s], A [cm^2], U [cm/s], P [cPa], c [cm/s]
1.000000000000000021e-03 1.768345000000000056e-01 1.949774999999999980e-01 1.051340000000000003e+02 2.016259999999999991e+03
2.000000000000000042e-03 1.767949999999999799e-01 1.686559499999999989e+00 1.021004000000000076e+02 2.015934999999999945e+03
3.000000000000000062e-03 1.766695000000000071e-01 3.601865500000000608e+00 9.779290000000000305e+01 2.014970000000000027e+03
4.000000000000000083e-03 1.764874999999999916e-01 5.777213500000000224e+00 9.279505000000000337e+01 2.013595000000000027e+03
5.000000000000000104e-03 1.762819999999999943e-01 8.145379999999999399e+00 8.797695000000000221e+01 2.012065000000000055e+03
6.000000000000000125e-03 1.760780000000000123e-01 1.057177500000000059e+01 8.381959999999999411e+01 2.010559999999999945e+03
7.000000000000000146e-03 1.758850000000000136e-01 1.284936500000000059e+01 8.028919999999999391e+01 2.009144999999999982e+03
8.000000000000000167e-03 1.757044999999999857e-01 1.482782500000000070e+01 7.713984999999999559e+01 2.007860000000000127e+03
9.000000000000001055e-03 1.755415000000000170e-01 1.649504999999999910e+01 7.431485000000000696e+01 2.006715000000000146e+03
1.000000000000000194e-02 1.754005000000000147e-01 1.789130000000000109e+01 7.190205000000000268e+01 2.005735000000000127e+03
1.099999999999999936e-02 1.752815000000000067e-01 1.904240000000000066e+01 6.993774999999999409e+01 2.004914999999999964e+03
1.200000000000000025e-02 1.751849999999999796e-01 1.996884999999999977e+01 6.839709999999999468e+01 2.004255000000000109e+03
1.300000000000000114e-02 1.751090000000000146e-01 2.068674999999999997e+01 6.722429999999999950e+01 2.003750000000000000e+03
1.400000000000000203e-02 1.750490000000000101e-01 2.120009999999999906e+01 6.631794999999999618e+01 2.003355000000000018e+03
1.499999999999999944e-02 1.750005000000000033e-01 2.152275000000000205e+01 6.556999999999999318e+01 2.003045000000000073e+03
1.600000000000000033e-02 1.749629999999999797e-01 2.171804999999999808e+01 6.497990000000000066e+01 2.002804999999999836e+03
1.700000000000000122e-02 1.749394999999999978e-01 2.190409999999999968e+01 6.472220000000000084e+01 2.002664999999999964e+03
1.800000000000000211e-02 1.749370000000000092e-01 2.221034999999999826e+01 6.507529999999999859e+01 2.002659999999999854e+03
1.900000000000000300e-02 1.749630000000000074e-01 2.271484999999999843e+01 6.625220000000000198e+01 2.002849999999999909e+03
2.000000000000000042e-02 1.750184999999999935e-01 2.340494999999999948e+01 6.824899999999999523e+01 2.003235000000000127e+03
2.100000000000000130e-02 1.750980000000000036e-01 2.418130000000000024e+01 7.080295000000000982e+01 2.003789999999999964e+03
2.200000000000000219e-02 1.751894999999999980e-01 2.489815000000000111e+01 7.346954999999999814e+01 2.004429999999999836e+03
2.299999999999999961e-02 1.752785000000000037e-01 2.541700000000000159e+01 7.577144999999998731e+01 2.005065000000000055e+03
2.400000000000000050e-02 1.753514999999999935e-01 2.565149999999999864e+01 7.734979999999998768e+01 2.005590000000000146e+03
2.500000000000000139e-02 1.754005000000000147e-01 2.558874999999999744e+01 7.806074999999999875e+01 2.005960000000000036e+03
2.600000000000000228e-02 1.754244999999999832e-01 2.528340000000000032e+01 7.799099999999999966e+01 2.006155000000000200e+03
2.700000000000000316e-02 1.754269999999999996e-01 2.482955000000000112e+01 7.739624999999999488e+01 2.006195000000000164e+03
2.800000000000000058e-02 1.754169999999999896e-01 2.432450000000000045e+01 7.659305000000000518e+01 2.006130000000000109e+03
2.900000000000000147e-02 1.754020000000000024e-01 2.383684999999999832e+01 7.584810000000000230e+01 2.006029999999999973e+03
3.000000000000000236e-02 1.753870000000000151e-01 2.338974999999999937e+01 7.530189999999998918e+01 2.005930000000000064e+03
3.099999999999999978e-02 1.753750000000000031e-01 2.296215000000000117e+01 7.494630000000000791e+01 2.005844999999999800e+03
3.200000000000000067e-02 1.753645000000000065e-01 2.250414999999999921e+01 7.465505000000000280e+01 2.005769999999999982e+03
3.300000000000000155e-02 1.753509999999999791e-01 2.196130000000000138e+01 7.424889999999999191e+01 2.005675000000000182e+03
3.400000000000000244e-02 1.753294999999999992e-01 2.129800000000000182e+01 7.357264999999999588e+01 2.005530000000000200e+03
3.500000000000000333e-02 1.752980000000000094e-01 2.051510000000000034e+01 7.256059999999999377e+01 2.005319999999999936e+03
3.600000000000000422e-02 1.752564999999999817e-01 1.965554999999999808e+01 7.127145000000000152e+01 2.005039999999999964e+03
3.700000000000000511e-02 1.752090000000000036e-01 1.879735000000000156e+01 6.988335000000000719e+01 2.004710000000000036e+03
3.799999999999999906e-02 1.751619999999999844e-01 1.803529999999999944e+01 6.865099999999999625e+01 2.004384999999999991e+03
3.899999999999999994e-02 1.751250000000000029e-01 1.745795000000000030e+01 6.783920000000000528e+01 2.004119999999999891e+03
4.000000000000000083e-02 1.751050000000000106e-01 1.712575000000000003e+01 6.765264999999999418e+01 2.003964999999999918e+03
4.100000000000000172e-02 1.751064999999999983e-01 1.705749999999999744e+01 6.818379999999999086e+01 2.003965000000000146e+03
4.200000000000000261e-02 1.751320000000000099e-01 1.722695000000000221e+01 6.939019999999999300e+01 2.004119999999999891e+03
4.300000000000000350e-02 1.751780000000000004e-01 1.756954999999999956e+01 7.110484999999999900e+01 2.004424999999999955e+03
4.400000000000000439e-02 1.752374999999999905e-01 1.799624999999999986e+01 7.307314999999999827e+01 2.004835000000000036e+03
4.499999999999999833e-02 1.753035000000000010e-01 1.841009999999999991e+01 7.500345000000000084e+01 2.005289999999999964e+03
4.599999999999999922e-02 1.753655000000000075e-01 1.872184999999999988e+01 7.661910000000000309e+01 2.005724999999999909e+03
4.700000000000000011e-02 1.754160000000000164e-01 1.886185000000000045e+01 7.770064999999999600e+01 2.006075000000000045e+03
4.800000000000000100e-02 1.754475000000000062e-01 1.878659999999999997e+01 7.811150000000000659e+01 2.006315000000000055e+03
4.900000000000000189e-02 1.754565000000000152e-01 1.847944999999999993e+01 7.780545000000000755e+01 2.006389999999999873e+03
5.000000000000000278e-02 1.754419999999999868e-01 1.794720000000000226e+01 7.681680000000000064e+01 2.006299999999999955e+03
5.100000000000000366e-02 1.754045000000000187e-01 1.721365000000000123e+01 7.523949999999999250e+01 2.006045000000000073e+03
5.200000000000000455e-02 1.753465000000000162e-01 1.631244999999999834e+01 7.320070000000001187e+01 2.005654999999999973e+03
5.300000000000000544e-02 1.752724999999999977e-01 1.528034999999999854e+01 7.083635000000001014e+01 2.005144999999999982e+03
5.399999999999999939e-02 1.751869999999999816e-01 1.415300000000000047e+01 6.827235000000000298e+01 2.004545000000000073e+03
5.500000000000000028e-02 1.750929999999999986e-01 1.296294500000000127e+01 6.561464999999999748e+01 2.003889999999999873e+03
5.600000000000000117e-02 1.749940000000000107e-01 1.173958000000000013e+01 6.294709999999999894e+01 2.003200000000000045e+03
5.700000000000000205e-02 1.748935000000000073e-01 1.051057499999999933e+01 6.033634999999999593e+01 2.002494999999999891e+03
5.800000000000000294e-02 1.747940000000000049e-01 9.304014999999999702e+00 5.783974999999999511e+01 2.001795000000000073e+03
5.900000000000000383e-02 1.746980000000000199e-01 8.149815000000000254e+00 5.551310000000000144e+01 2.001119999999999891e+03
6.000000000000000472e-02 1.746079999999999854e-01 7.080980000000000274e+00 5.341754999999999853e+01 2.000485000000000127e+03
6.099999999999999867e-02 1.745275000000000021e-01 6.133065000000000211e+00 5.162174999999999869e+01 1.999914999999999964e+03
6.199999999999999956e-02 1.744574999999999876e-01 5.342990000000000350e+00 5.020094999999999885e+01 1.999414999999999964e+03
6.300000000000000044e-02 1.744030000000000025e-01 4.746800000000000352e+00 4.923250000000000171e+01 1.999025000000000091e+03
6.400000000000000133e-02 1.743660000000000210e-01 4.377060000000000173e+00 4.878920000000000101e+01 1.998744999999999891e+03
6.500000000000000222e-02 1.743489999999999762e-01 4.260209999999999830e+00 4.893175000000000097e+01 1.998615000000000009e+03
6.600000000000000311e-02 1.743540000000000090e-01 4.414445000000000618e+00 4.970220000000000482e+01 1.998630000000000109e+03
6.700000000000000400e-02 1.743830000000000102e-01 4.848205000000000098e+00 5.111919999999999931e+01 1.998819999999999936e+03
6.800000000000000488e-02 1.744370000000000087e-01 5.559610000000000163e+00 5.317570000000000618e+01 1.999170000000000073e+03
6.900000000000000577e-02 1.745140000000000025e-01 6.536725000000000563e+00 5.583905000000000030e+01 1.999699999999999818e+03
7.000000000000000666e-02 1.746145000000000058e-01 7.758510000000000240e+00 5.905384999999999707e+01 2.000380000000000109e+03
7.100000000000000755e-02 1.747360000000000024e-01 9.196234999999999715e+00 6.274600000000000222e+01 2.001214999999999918e+03
7.200000000000000844e-02 1.748755000000000170e-01 1.081559999999999988e+01 6.682810000000000628e+01 2.002184999999999945e+03
7.300000000000000933e-02 1.750300000000000189e-01 1.257838500000000082e+01 7.120529999999999404e+01 2.003259999999999991e+03
7.399999999999999634e-02 1.751969999999999916e-01 1.444469999999999921e+01 7.578104999999999336e+01 2.004420000000000073e+03
7.499999999999999722e-02 1.753715000000000135e-01 1.637514999999999787e+01 8.046240000000000236e+01 2.005644999999999982e+03
7.599999999999999811e-02 1.755514999999999992e-01 1.833230000000000004e+01 8.516515000000001123e+01 2.006909999999999854e+03
7.699999999999999900e-02 1.757330000000000003e-01 2.028284999999999982e+01 8.981735000000000468e+01 2.008195000000000164e+03
7.799999999999999989e-02 1.759145000000000014e-01 2.219855000000000089e+01 9.436275000000000546e+01 2.009480000000000018e+03
7.900000000000000078e-02 1.760924999999999851e-01 2.405724999999999980e+01 9.876269999999999527e+01 2.010750000000000000e+03
8.000000000000000167e-02 1.762674999999999936e-01 2.584344999999999715e+01 1.029963500000000067e+02 2.011990000000000009e+03
8.100000000000000255e-02 1.764364999999999961e-01 2.754795000000000016e+01 1.070590499999999992e+02 2.013194999999999936e+03
8.200000000000000344e-02 1.765999999999999792e-01 2.916740000000000066e+01 1.109600000000000080e+02 2.014369999999999891e+03
8.300000000000000433e-02 1.767589999999999995e-01 3.070319999999999894e+01 1.147214999999999918e+02 2.015509999999999991e+03
8.400000000000000522e-02 1.769129999999999869e-01 3.216035000000000110e+01 1.183700000000000045e+02 2.016619999999999891e+03
8.500000000000000611e-02 1.770639999999999992e-01 3.354579999999999984e+01 1.219360000000000070e+02 2.017704999999999927e+03
8.600000000000000699e-02 1.772114999999999940e-01 3.486749999999999972e+01 1.254474999999999909e+02 2.018764999999999873e+03
8.700000000000000788e-02 1.773575000000000013e-01 3.613280000000000314e+01 1.289279999999999973e+02 2.019820000000000164e+03
8.800000000000000877e-02 1.775025000000000075e-01 3.734785000000000110e+01 1.323954999999999984e+02 2.020859999999999900e+03
8.899999999999999578e-02 1.776459999999999984e-01 3.851685000000000514e+01 1.358565000000000111e+02 2.021894999999999982e+03
8.999999999999999667e-02 1.777894999999999892e-01 3.964145000000000607e+01 1.393115000000000236e+02 2.022929999999999836e+03
9.099999999999999756e-02 1.779319999999999791e-01 4.072124999999999773e+01 1.427515000000000214e+02 2.023960000000000036e+03
9.199999999999999845e-02 1.780740000000000101e-01 4.175339999999999918e+01 1.461595000000000084e+02 2.024985000000000127e+03
9.299999999999999933e-02 1.782144999999999979e-01 4.273295000000000243e+01 1.495144999999999982e+02 2.025994999999999891e+03
9.400000000000000022e-02 1.783514999999999961e-01 4.365349999999999397e+01 1.527899999999999920e+02 2.026990000000000009e+03
9.500000000000000111e-02 1.784859999999999780e-01 4.450740000000000407e+01 1.559585000000000150e+02 2.027965000000000146e+03
9.600000000000000200e-02 1.786159999999999970e-01 4.528589999999999804e+01 1.589894999999999925e+02 2.028909999999999854e+03
9.700000000000000289e-02 1.787404999999999966e-01 4.598019999999999641e+01 1.618545000000000016e+02 2.029809999999999945e+03
9.800000000000000377e-02 1.788579999999999892e-01 4.658135000000000048e+01 1.645250000000000057e+02 2.030664999999999964e+03
9.900000000000000466e-02 1.789680000000000160e-01 4.708084999999999809e+01 1.669759999999999991e+02 2.031465000000000146e+03
1.000000000000000056e-01 1.790694999999999926e-01 4.747100000000000364e+01 1.691839999999999975e+02 2.032210000000000036e+03
1.010000000000000064e-01 1.791615000000000013e-01 4.774549999999999983e+01 1.711320000000000050e+02 2.032880000000000109e+03
1.020000000000000073e-01 1.792429999999999857e-01 4.789964999999999407e+01 1.728045000000000186e+02 2.033480000000000018e+03
1.030000000000000082e-01 1.793140000000000012e-01 4.793075000000000330e+01 1.741945000000000050e+02 2.034005000000000109e+03
1.040000000000000091e-01 1.793740000000000057e-01 4.783834999999999837e+01 1.752984999999999900e+02 2.034449999999999818e+03
1.050000000000000100e-01 1.794235000000000135e-01 4.762474999999999881e+01 1.761210000000000093e+02 2.034809999999999945e+03
1.059999999999999970e-01 1.794604999999999950e-01 4.729455000000000098e+01 1.766714999999999804e+02 2.035099999999999909e+03
1.069999999999999979e-01 1.794880000000000086e-01 4.685510000000000019e+01 1.769675000000000011e+02 2.035304999999999836e+03
1.079999999999999988e-01 1.795055000000000123e-01 4.631615000000000038e+01 1.770294999999999845e+02 2.035440000000000055e+03
1.089999999999999997e-01 1.795134999999999925e-01 4.568909999999999627e+01 1.768849999999999909e+02 2.035509999999999991e+03
1.100000000000000006e-01 1.795134999999999925e-01 4.498725000000000307e+01 1.765635000000000048e+02 2.035515000000000100e+03
1.110000000000000014e-01 1.795059999999999989e-01 4.422469999999999857e+01 1.760975000000000250e+02 2.035474999999999909e+03
1.120000000000000023e-01 1.794930000000000136e-01 4.341604999999999848e+01 1.755185000000000173e+02 2.035384999999999991e+03
1.130000000000000032e-01 1.794755000000000100e-01 4.257574999999999932e+01 1.748594999999999970e+02 2.035260000000000218e+03
1.140000000000000041e-01 1.794534999999999880e-01 4.171750000000000114e+01 1.741494999999999891e+02 2.035110000000000127e+03
1.150000000000000050e-01 1.794294999999999918e-01 4.085405000000000086e+01 1.734145000000000039e+02 2.034940000000000055e+03
1.160000000000000059e-01 1.794040000000000079e-01 3.999634999999999962e+01 1.726770000000000209e+02 2.034755000000000109e+03
1.170000000000000068e-01 1.793775000000000230e-01 3.915364999999999895e+01 1.719549999999999841e+02 2.034565000000000055e+03
1.180000000000000077e-01 1.793520000000000114e-01 3.833310000000000173e+01 1.712609999999999957e+02 2.034380000000000109e+03
1.190000000000000085e-01 1.793259999999999854e-01 3.753979999999999961e+01 1.706014999999999873e+02 2.034190000000000055e+03
1.200000000000000094e-01 1.793009999999999882e-01 3.677635000000000076e+01 1.699805000000000064e+02 2.034005000000000109e+03
1.209999999999999964e-01 1.792769999999999919e-01 3.604340000000000543e+01 1.693940000000000055e+02 2.033835000000000036e+03
1.219999999999999973e-01 1.792539999999999967e-01 3.533939999999999770e+01 1.688369999999999891e+02 2.033664999999999964e+03
1.229999999999999982e-01 1.792320000000000024e-01 3.466120000000000090e+01 1.682975000000000136e+02 2.033500000000000000e+03
1.239999999999999991e-01 1.792094999999999938e-01 3.400379999999999825e+01 1.677630000000000052e+02 2.033340000000000146e+03
1.250000000000000000e-01 1.791874999999999996e-01 3.336119999999999663e+01 1.672175000000000011e+02 2.033175000000000182e+03
1.260000000000000009e-01 1.791645000000000043e-01 3.272634999999999650e+01 1.666435000000000173e+02 2.033009999999999991e+03
1.270000000000000018e-01 1.791404999999999803e-01 3.209194999999999709e+01 1.660235000000000127e+02 2.032835000000000036e+03
1.280000000000000027e-01 1.791145000000000098e-01 3.145049999999999812e+01 1.653410000000000082e+02 2.032639999999999873e+03
1.290000000000000036e-01 1.790860000000000229e-01 3.079500000000000171e+01 1.645794999999999959e+02 2.032440000000000055e+03
1.300000000000000044e-01 1.790539999999999909e-01 3.011919999999999931e+01 1.637270000000000039e+02 2.032210000000000036e+03
1.310000000000000053e-01 1.790194999999999981e-01 2.941784999999999783e+01 1.627735000000000127e+02 2.031954999999999927e+03
1.320000000000000062e-01 1.789800000000000002e-01 2.868735000000000213e+01 1.617115000000000009e+02 2.031675000000000182e+03
1.330000000000000071e-01 1.789370000000000127e-01 2.792549999999999955e+01 1.605394999999999754e+02 2.031364999999999782e+03
1.340000000000000080e-01 1.788899999999999935e-01 2.713214999999999932e+01 1.592605000000000075e+02 2.031029999999999973e+03
1.350000000000000089e-01 1.788389999999999980e-01 2.630894999999999939e+01 1.578804999999999836e+02 2.030659999999999854e+03
1.360000000000000098e-01 1.787839999999999985e-01 2.545929999999999893e+01 1.564110000000000014e+02 2.030269999999999982e+03
1.370000000000000107e-01 1.787254999999999816e-01 2.458849999999999980e+01 1.548670000000000186e+02 2.029845000000000027e+03
1.380000000000000115e-01 1.786645000000000039e-01 2.370349999999999824e+01 1.532680000000000007e+02 2.029409999999999854e+03
1.390000000000000124e-01 1.786010000000000097e-01 2.281250000000000000e+01 1.516345000000000027e+02 2.028954999999999927e+03
1.400000000000000133e-01 1.785364999999999869e-01 2.192454999999999998e+01 1.499904999999999973e+02 2.028494999999999891e+03
1.410000000000000142e-01 1.784715000000000051e-01 2.104954999999999998e+01 1.483615000000000066e+02 2.028025000000000091e+03
1.420000000000000151e-01 1.784074999999999966e-01 2.019744999999999990e+01 1.467710000000000150e+02 2.027559999999999945e+03
1.430000000000000160e-01 1.783445000000000169e-01 1.937800000000000011e+01 1.452425000000000068e+02 2.027105000000000018e+03
1.440000000000000169e-01 1.782834999999999837e-01 1.860040000000000049e+01 1.437980000000000018e+02 2.026670000000000073e+03
1.450000000000000178e-01 1.782259999999999955e-01 1.787265000000000015e+01 1.424560000000000173e+02 2.026250000000000000e+03
1.459999999999999909e-01 1.781719999999999970e-01 1.720169999999999888e+01 1.412314999999999827e+02 2.025860000000000127e+03
1.469999999999999918e-01 1.781225000000000169e-01 1.659274999999999878e+01 1.401359999999999957e+02 2.025494999999999891e+03
1.479999999999999927e-01 1.780780000000000141e-01 1.604954999999999998e+01 1.391765000000000043e+02 2.025170000000000073e+03
1.489999999999999936e-01 1.780379999999999741e-01 1.557394999999999996e+01 1.383555000000000064e+02 2.024880000000000109e+03
1.499999999999999944e-01 1.780034999999999812e-01 1.516619999999999990e+01 1.376734999999999900e+02 2.024625000000000000e+03
1.509999999999999953e-01 1.779744999999999799e-01 1.482479999999999976e+01 1.371235000000000070e+02 2.024409999999999854e+03
1.519999999999999962e-01 1.779505000000000114e-01 1.454705000000000048e+01 1.366990000000000123e+02 2.024230000000000018e+03
1.529999999999999971e-01 1.779304999999999914e-01 1.432880000000000109e+01 1.363890000000000100e+02 2.024085000000000036e+03
1.539999999999999980e-01 1.779155000000000042e-01 1.416515000000000057e+01 1.361820000000000164e+02 2.023974999999999909e+03
1.549999999999999989e-01 1.779049999999999798e-01 1.405014999999999858e+01 1.360645000000000095e+02 2.023889999999999873e+03
1.559999999999999998e-01 1.778974999999999862e-01 1.397769999999999868e+01 1.360219999999999914e+02 2.023829999999999927e+03
1.570000000000000007e-01 1.778934999999999822e-01 1.394119999999999848e+01 1.360400000000000205e+02 2.023795000000000073e+03
1.580000000000000016e-01 1.778914999999999802e-01 1.393414999999999893e+01 1.361059999999999945e+02 2.023775000000000091e+03
1.590000000000000024e-01 1.778915000000000080e-01 1.395015000000000072e+01 1.362065000000000055e+02 2.023780000000000200e+03
