# t [s], A [cm^2], U [cm/s], P [cPa], c [cm/s]
1.000000000000000021e-03 1.362484999999999946e-01 4.687618500000000354e-01 9.284385000000000332e+01 2.053404999999999745e+03
2.000000000000000042e-03 1.362054999999999794e-01 2.135375000000000245e+00 8.909635000000000105e+01 2.052930000000000291e+03
3.000000000000000062e-03 1.360979999999999968e-01 4.118161999999999878e+00 8.418420000000000414e+01 2.051779999999999745e+03
4.000000000000000083e-03 1.359564999999999801e-01 6.321960000000000690e+00 7.925630000000001019e+01 2.050284999999999854e+03
5.000000000000000104e-03 1.358105000000000007e-01 8.643850000000000477e+00 7.519304999999999950e+01 2.048744999999999891e+03
6.000000000000000125e-03 1.356720000000000148e-01 1.084504499999999894e+01 7.200530000000000541e+01 2.047315000000000055e+03
7.000000000000000146e-03 1.355435000000000112e-01 1.272241000000000000e+01 6.924699999999999989e+01 2.046009999999999991e+03
8.000000000000000167e-03 1.354274999999999785e-01 1.427003999999999806e+01 6.677814999999999657e+01 2.044849999999999909e+03
9.000000000000001055e-03 1.353274999999999895e-01 1.555110000000000170e+01 6.472809999999999775e+01 2.043860000000000127e+03
1.000000000000000194e-02 1.352444999999999897e-01 1.658699999999999974e+01 6.310979999999999990e+01 2.043059999999999945e+03
1.099999999999999936e-02 1.351779999999999926e-01 1.739174999999999827e+01 6.184905000000000541e+01 2.042409999999999854e+03
1.200000000000000025e-02 1.351245000000000085e-01 1.798150000000000048e+01 6.086835000000000662e+01 2.041904999999999973e+03
1.300000000000000114e-02 1.350820000000000076e-01 1.836360000000000170e+01 6.005584999999999951e+01 2.041514999999999873e+03
1.400000000000000203e-02 1.350470000000000004e-01 1.857934999999999803e+01 5.935020000000000095e+01 2.041190000000000055e+03
1.499999999999999944e-02 1.350204999999999878e-01 1.875169999999999959e+01 5.891660000000000252e+01 2.040960000000000036e+03
1.600000000000000033e-02 1.350100000000000189e-01 1.905604999999999905e+01 5.915285000000000082e+01 2.040875000000000000e+03
1.700000000000000122e-02 1.350240000000000051e-01 1.962274999999999991e+01 6.044214999999999804e+01 2.041019999999999982e+03
1.800000000000000211e-02 1.350660000000000194e-01 2.045155000000000101e+01 6.284870000000000090e+01 2.041434999999999945e+03
1.900000000000000300e-02 1.351324999999999887e-01 2.139864999999999995e+01 6.598900000000000432e+01 2.042085000000000036e+03
2.000000000000000042e-02 1.352110000000000256e-01 2.223765000000000214e+01 6.915094999999999459e+01 2.042865000000000009e+03
2.100000000000000130e-02 1.352845000000000020e-01 2.275264999999999915e+01 7.157155000000000200e+01 2.043609999999999900e+03
2.200000000000000219e-02 1.353389999999999871e-01 2.281835000000000235e+01 7.272325000000000728e+01 2.044164999999999964e+03
2.299999999999999961e-02 1.353644999999999987e-01 2.243625000000000114e+01 7.248490000000001032e+01 2.044449999999999818e+03
2.400000000000000050e-02 1.353619999999999823e-01 2.171754999999999924e+01 7.113890000000000668e+01 2.044449999999999818e+03
2.500000000000000139e-02 1.353369999999999851e-01 2.082760000000000034e+01 6.921609999999999729e+01 2.044225000000000136e+03
2.600000000000000228e-02 1.353014999999999912e-01 1.991955000000000098e+01 6.727100000000000080e+01 2.043884999999999991e+03
2.700000000000000316e-02 1.352639999999999953e-01 1.908579999999999899e+01 6.568725000000000591e+01 2.043525000000000091e+03
2.800000000000000058e-02 1.352320000000000189e-01 1.834179999999999922e+01 6.458384999999999820e+01 2.043204999999999927e+03
2.900000000000000147e-02 1.352059999999999929e-01 1.764245000000000019e+01 6.383704999999999785e+01 2.042944999999999936e+03
3.000000000000000236e-02 1.351835000000000120e-01 1.691740000000000066e+01 6.318670000000000186e+01 2.042719999999999800e+03
3.099999999999999978e-02 1.351600000000000024e-01 1.611064999999999969e+01 6.237389999999999901e+01 2.042490000000000009e+03
3.200000000000000067e-02 1.351315000000000155e-01 1.521044999999999980e+01 6.125985000000000014e+01 2.042215000000000146e+03
3.300000000000000155e-02 1.350975000000000092e-01 1.426129999999999853e+01 5.988904999999999745e+01 2.041884999999999764e+03
3.400000000000000244e-02 1.350594999999999990e-01 1.335500000000000043e+01 5.848269999999999413e+01 2.041514999999999873e+03
3.500000000000000333e-02 1.350244999999999918e-01 1.260494999999999877e+01 5.736789999999999878e+01 2.041164999999999964e+03
3.600000000000000422e-02 1.349994999999999945e-01 1.211165000000000092e+01 5.686965000000000003e+01 2.040910000000000082e+03
3.700000000000000511e-02 1.349914999999999865e-01 1.193250000000000099e+01 5.720335000000000036e+01 2.040815000000000055e+03
3.799999999999999906e-02 1.350029999999999841e-01 1.206354999999999933e+01 5.840205000000000268e+01 2.040914999999999964e+03
3.899999999999999994e-02 1.350345000000000018e-01 1.243859999999999921e+01 6.029845000000000255e+01 2.041204999999999927e+03
4.000000000000000083e-02 1.350810000000000066e-01 1.294284999999999997e+01 6.256085000000000207e+01 2.041650000000000091e+03
4.100000000000000172e-02 1.351344999999999907e-01 1.343694999999999951e+01 6.476640000000000441e+01 2.042164999999999964e+03
4.200000000000000261e-02 1.351849999999999996e-01 1.378265000000000029e+01 6.648855000000000359e+01 2.042664999999999964e+03
4.300000000000000350e-02 1.352230000000000099e-01 1.386485000000000056e+01 6.737485000000000923e+01 2.043049999999999955e+03
4.400000000000000439e-02 1.352410000000000001e-01 1.360644999999999882e+01 6.719904999999999973e+01 2.043230000000000018e+03
4.499999999999999833e-02 1.352329999999999921e-01 1.297330000000000005e+01 6.588185000000000002e+01 2.043159999999999854e+03
4.599999999999999922e-02 1.351970000000000116e-01 1.197216500000000039e+01 6.348094999999999999e+01 2.042825000000000045e+03
4.700000000000000011e-02 1.351344999999999907e-01 1.064217499999999994e+01 6.015930000000000177e+01 2.042215000000000146e+03
4.800000000000000100e-02 1.350474999999999870e-01 9.044415000000000759e+00 5.614359999999999928e+01 2.041375000000000000e+03
4.900000000000000189e-02 1.349424999999999930e-01 7.251464999999999606e+00 5.168330000000000268e+01 2.040345000000000255e+03
5.000000000000000278e-02 1.348245000000000138e-01 5.339518999999999238e+00 4.701959999999999695e+01 2.039184999999999945e+03
5.100000000000000366e-02 1.346984999999999988e-01 3.383280000000000065e+00 4.236710000000000065e+01 2.037944999999999936e+03
5.200000000000000455e-02 1.345709999999999962e-01 1.454025000000000123e+00 3.790805000000000291e+01 2.036690000000000055e+03
5.300000000000000544e-02 1.344464999999999966e-01 -3.807899999999999618e-01 3.379599999999999937e+01 2.035465000000000146e+03
5.399999999999999939e-02 1.343294999999999906e-01 -2.056995000000000129e+00 3.016304999999999836e+01 2.034309999999999945e+03
5.500000000000000028e-02 1.342244999999999966e-01 -3.513641999999999932e+00 2.712705000000000055e+01 2.033264999999999873e+03
5.600000000000000117e-02 1.341350000000000042e-01 -4.693785000000000096e+00 2.479554999999999865e+01 2.032365000000000009e+03
5.700000000000000205e-02 1.340639999999999887e-01 -5.546434999999999782e+00 2.326454999999999984e+01 2.031654999999999973e+03
5.800000000000000294e-02 1.340145000000000086e-01 -6.029400000000000759e+00 2.261374999999999957e+01 2.031150000000000091e+03
5.900000000000000383e-02 1.339895000000000114e-01 -6.112404999999999866e+00 2.289864999999999995e+01 2.030880000000000109e+03
6.000000000000000472e-02 1.339895000000000114e-01 -5.779880000000000351e+00 2.414240000000000208e+01 2.030855000000000018e+03
6.099999999999999867e-02 1.340164999999999829e-01 -5.032824999999999882e+00 2.633034999999999926e+01 2.031099999999999909e+03
6.199999999999999956e-02 1.340695000000000081e-01 -3.889244999999999841e+00 2.940735000000000099e+01 2.031595000000000027e+03
6.300000000000000044e-02 1.341475000000000029e-01 -2.383140000000000036e+00 3.328005000000000280e+01 2.032339999999999918e+03
6.400000000000000133e-02 1.342484999999999928e-01 -5.621750000000000913e-01 3.782300000000000040e+01 2.033305000000000064e+03
6.500000000000000222e-02 1.343685000000000018e-01 1.515589999999999771e+00 4.288799999999999812e+01 2.034470000000000027e+03
6.600000000000000311e-02 1.345040000000000124e-01 3.785380500000000037e+00 4.831414999999999793e+01 2.035795000000000073e+03
6.700000000000000400e-02 1.346514999999999795e-01 6.179520000000000124e+00 5.393909999999999627e+01 2.037235000000000127e+03
6.800000000000000488e-02 1.348060000000000092e-01 8.630799999999998917e+00 5.960779999999999745e+01 2.038759999999999991e+03
6.900000000000000577e-02 1.349644999999999873e-01 1.107583499999999965e+01 6.518080000000000496e+01 2.040320000000000164e+03
7.000000000000000666e-02 1.351215000000000055e-01 1.345744999999999969e+01 7.053959999999999297e+01 2.041880000000000109e+03
7.100000000000000755e-02 1.352749999999999786e-01 1.572700000000000031e+01 7.559129999999998972e+01 2.043409999999999854e+03
7.200000000000000844e-02 1.354219999999999868e-01 1.784615000000000151e+01 8.027119999999999322e+01 2.044875000000000000e+03
7.300000000000000933e-02 1.355600000000000138e-01 1.978800000000000026e+01 8.454429999999999268e+01 2.046264999999999873e+03
7.399999999999999634e-02 1.356884999999999897e-01 2.153795000000000215e+01 8.840510000000000446e+01 2.047555000000000064e+03
7.499999999999999722e-02 1.358064999999999967e-01 2.309319999999999951e+01 9.187604999999999222e+01 2.048750000000000000e+03
7.599999999999999811e-02 1.359154999999999947e-01 2.446220000000000283e+01 9.500379999999999825e+01 2.049849999999999909e+03
7.699999999999999900e-02 1.360144999999999826e-01 2.566300000000000026e+01 9.785515000000000896e+01 2.050865000000000236e+03
7.799999999999999989e-02 1.361074999999999924e-01 2.672075000000000244e+01 1.005079999999999956e+02 2.051809999999999945e+03
7.900000000000000078e-02 1.361940000000000095e-01 2.766575000000000273e+01 1.030485500000000059e+02 2.052694999999999709e+03
8.000000000000000167e-02 1.362774999999999959e-01 2.852974999999999994e+01 1.055589999999999975e+02 2.053545000000000073e+03
8.100000000000000255e-02 1.363599999999999812e-01 2.934394999999999953e+01 1.081144999999999925e+02 2.054384999999999764e+03
8.200000000000000344e-02 1.364424999999999943e-01 3.013605000000000089e+01 1.107759999999999962e+02 2.055230000000000018e+03
8.300000000000000433e-02 1.365279999999999827e-01 3.092839999999999634e+01 1.135850000000000080e+02 2.056095000000000255e+03
8.400000000000000522e-02 1.366165000000000018e-01 3.173655000000000115e+01 1.165625000000000000e+02 2.056989999999999782e+03
8.500000000000000611e-02 1.367085000000000106e-01 3.256820000000000448e+01 1.197084999999999866e+02 2.057925000000000182e+03
8.600000000000000699e-02 1.368050000000000099e-01 3.342340000000000089e+01 1.230004999999999882e+02 2.058899999999999636e+03
8.700000000000000788e-02 1.369044999999999845e-01 3.429460000000000264e+01 1.263990000000000009e+02 2.059909999999999854e+03
8.800000000000000877e-02 1.370069999999999899e-01 3.516785000000000139e+01 1.298479999999999848e+02 2.060944999999999709e+03
8.899999999999999578e-02 1.371100000000000096e-01 3.602374999999999972e+01 1.332839999999999918e+02 2.061989999999999782e+03
8.999999999999999667e-02 1.372125000000000150e-01 3.683924999999999983e+01 1.366345000000000027e+02 2.063029999999999745e+03
9.099999999999999756e-02 1.373130000000000184e-01 3.758950000000000102e+01 1.398260000000000218e+02 2.064050000000000182e+03
9.199999999999999845e-02 1.374084999999999890e-01 3.824895000000000067e+01 1.427900000000000205e+02 2.065025000000000091e+03
9.299999999999999933e-02 1.374980000000000091e-01 3.879344999999999999e+01 1.454619999999999891e+02 2.065934999999999945e+03
9.400000000000000022e-02 1.375799999999999801e-01 3.920154999999999745e+01 1.477895000000000039e+02 2.066769999999999982e+03
9.500000000000000111e-02 1.376525000000000110e-01 3.945555000000000234e+01 1.497319999999999993e+02 2.067515000000000327e+03
9.600000000000000200e-02 1.377145000000000175e-01 3.954269999999999641e+01 1.512609999999999957e+02 2.068154999999999745e+03
9.700000000000000289e-02 1.377645000000000119e-01 3.945575000000000188e+01 1.523645000000000209e+02 2.068680000000000291e+03
9.800000000000000377e-02 1.378030000000000088e-01 3.919304999999999950e+01 1.530455000000000041e+02 2.069085000000000036e+03
9.900000000000000466e-02 1.378300000000000081e-01 3.875894999999999868e+01 1.533195000000000050e+02 2.069369999999999891e+03
1.000000000000000056e-01 1.378455000000000097e-01 3.816320000000000334e+01 1.532160000000000082e+02 2.069539999999999964e+03
1.010000000000000064e-01 1.378504999999999869e-01 3.742064999999999486e+01 1.527735000000000127e+02 2.069595000000000255e+03
1.020000000000000073e-01 1.378444999999999809e-01 3.655039999999999623e+01 1.520414999999999850e+02 2.069555000000000291e+03
1.030000000000000082e-01 1.378309999999999813e-01 3.557475000000000165e+01 1.510745000000000005e+02 2.069425000000000182e+03
1.040000000000000091e-01 1.378099999999999881e-01 3.451825000000000188e+01 1.499294999999999902e+02 2.069220000000000255e+03
1.050000000000000100e-01 1.377829999999999888e-01 3.340664999999999907e+01 1.486659999999999968e+02 2.068960000000000036e+03
1.059999999999999970e-01 1.377519999999999856e-01 3.226565000000000083e+01 1.473400000000000034e+02 2.068650000000000091e+03
1.069999999999999979e-01 1.377185000000000215e-01 3.111979999999999791e+01 1.460054999999999836e+02 2.068315000000000055e+03
1.079999999999999988e-01 1.376840000000000008e-01 2.999190000000000111e+01 1.447090000000000032e+02 2.067965000000000146e+03
1.089999999999999997e-01 1.376495000000000080e-01 2.890165000000000006e+01 1.434894999999999925e+02 2.067614999999999782e+03
1.100000000000000006e-01 1.376165000000000027e-01 2.786514999999999986e+01 1.423770000000000095e+02 2.067279999999999745e+03
1.110000000000000014e-01 1.375854999999999995e-01 2.689460000000000051e+01 1.413919999999999959e+02 2.066965000000000146e+03
1.120000000000000023e-01 1.375569999999999848e-01 2.599765000000000015e+01 1.405439999999999827e+02 2.066675000000000182e+03
1.130000000000000032e-01 1.375325000000000020e-01 2.517755000000000010e+01 1.398335000000000150e+02 2.066414999999999964e+03
1.140000000000000041e-01 1.375109999999999943e-01 2.443305000000000149e+01 1.392495000000000118e+02 2.066190000000000055e+03
1.150000000000000050e-01 1.374925000000000175e-01 2.375894999999999868e+01 1.387744999999999891e+02 2.066000000000000000e+03
1.160000000000000059e-01 1.374765000000000015e-01 2.314634999999999820e+01 1.383810000000000002e+02 2.065835000000000036e+03
1.170000000000000068e-01 1.374624999999999875e-01 2.258344999999999914e+01 1.380389999999999873e+02 2.065690000000000055e+03
1.180000000000000077e-01 1.374500000000000166e-01 2.205635000000000190e+01 1.377119999999999891e+02 2.065555000000000291e+03
1.190000000000000085e-01 1.374380000000000046e-01 2.154975000000000307e+01 1.373634999999999877e+02 2.065429999999999836e+03
1.200000000000000094e-01 1.374254999999999782e-01 2.104809999999999803e+01 1.369575000000000102e+02 2.065300000000000182e+03
1.209999999999999964e-01 1.374115000000000197e-01 2.053625000000000256e+01 1.364590000000000032e+02 2.065155000000000200e+03
1.219999999999999973e-01 1.373955000000000037e-01 2.000045000000000073e+01 1.358400000000000034e+02 2.064984999999999673e+03
1.229999999999999982e-01 1.373759999999999981e-01 1.942920000000000158e+01 1.350774999999999864e+02 2.064784999999999854e+03
1.239999999999999991e-01 1.373524999999999885e-01 1.881360000000000099e+01 1.341550000000000011e+02 2.064554999999999836e+03
1.250000000000000000e-01 1.373250000000000026e-01 1.814835000000000065e+01 1.330674999999999955e+02 2.064274999999999636e+03
1.260000000000000009e-01 1.372935000000000128e-01 1.743155000000000143e+01 1.318164999999999907e+02 2.063954999999999927e+03
1.270000000000000018e-01 1.372570000000000179e-01 1.666509999999999891e+01 1.304130000000000109e+02 2.063585000000000036e+03
1.280000000000000027e-01 1.372164999999999913e-01 1.585449999999999982e+01 1.288774999999999977e+02 2.063179999999999836e+03
1.290000000000000036e-01 1.371729999999999894e-01 1.500874999999999915e+01 1.272365000000000066e+02 2.062735000000000127e+03
1.300000000000000044e-01 1.371255000000000113e-01 1.413949999999999996e+01 1.255240000000000009e+02 2.062265000000000327e+03
1.310000000000000053e-01 1.370770000000000044e-01 1.326069999999999993e+01 1.237775000000000034e+02 2.061769999999999982e+03
1.320000000000000062e-01 1.370264999999999955e-01 1.238786999999999949e+01 1.220365000000000038e+02 2.061264999999999873e+03
1.330000000000000071e-01 1.369759999999999867e-01 1.153699500000000100e+01 1.203419999999999987e+02 2.060760000000000218e+03
1.340000000000000080e-01 1.369269999999999932e-01 1.072415499999999966e+01 1.187319999999999993e+02 2.060255000000000109e+03
1.350000000000000089e-01 1.368800000000000017e-01 9.964180000000000703e+00 1.172420000000000044e+02 2.059780000000000200e+03
1.360000000000000098e-01 1.368354999999999988e-01 9.270545000000000258e+00 1.159014999999999986e+02 2.059329999999999927e+03
1.370000000000000107e-01 1.367949999999999999e-01 8.654205000000001036e+00 1.147349999999999994e+02 2.058925000000000182e+03
1.380000000000000115e-01 1.367595000000000061e-01 8.123635000000000161e+00 1.137584999999999980e+02 2.058555000000000291e+03
1.390000000000000124e-01 1.367289999999999894e-01 7.684120000000000061e+00 1.129805000000000064e+02 2.058239999999999782e+03
1.400000000000000133e-01 1.367035000000000056e-01 7.337920000000000442e+00 1.124025000000000034e+02 2.057979999999999563e+03
1.410000000000000142e-01 1.366835000000000133e-01 7.084154999999999092e+00 1.120190000000000055e+02 2.057769999999999982e+03
1.420000000000000151e-01 1.366689999999999849e-01 6.919019999999999726e+00 1.118170000000000073e+02 2.057619999999999891e+03
1.430000000000000160e-01 1.366600000000000037e-01 6.836095000000000255e+00 1.117794999999999987e+02 2.057519999999999982e+03
1.440000000000000169e-01 1.366549999999999987e-01 6.826724999999999710e+00 1.118824999999999932e+02 2.057465000000000146e+03
1.450000000000000178e-01 1.366545000000000121e-01 6.880499999999999616e+00 1.121005000000000109e+02 2.057449999999999818e+03
1.459999999999999909e-01 1.366574999999999873e-01 6.985805000000000042e+00 1.124064999999999941e+02 2.057474999999999909e+03
1.469999999999999918e-01 1.366629999999999789e-01 7.130314999999999515e+00 1.127729999999999961e+02 2.057525000000000091e+03
1.479999999999999927e-01 1.366705000000000003e-01 7.301515000000000200e+00 1.131709999999999923e+02 2.057599999999999909e+03
1.489999999999999936e-01 1.366799999999999959e-01 7.487225000000000463e+00 1.135765000000000100e+02 2.057679999999999836e+03
1.499999999999999944e-01 1.366895000000000193e-01 7.676014999999999588e+00 1.139650000000000034e+02 2.057775000000000091e+03
1.509999999999999953e-01 1.366985000000000006e-01 7.857585000000000264e+00 1.143165000000000049e+02 2.057869999999999891e+03
1.519999999999999962e-01 1.367074999999999818e-01 8.023095000000001420e+00 1.146154999999999973e+02 2.057960000000000036e+03
1.529999999999999971e-01 1.367150000000000032e-01 8.165350000000000108e+00 1.148495000000000061e+02 2.058034999999999854e+03
1.539999999999999980e-01 1.367209999999999814e-01 8.278995000000000104e+00 1.150109999999999957e+02 2.058099999999999909e+03
1.549999999999999989e-01 1.367260000000000142e-01 8.360545000000000115e+00 1.150964999999999918e+02 2.058144999999999982e+03
1.559999999999999998e-01 1.367285000000000028e-01 8.408360000000000056e+00 1.151064999999999969e+02 2.058170000000000073e+03
1.570000000000000007e-01 1.367289999999999894e-01 8.422560000000000713e+00 1.150455000000000041e+02 2.058175000000000182e+03
1.580000000000000016e-01 1.367279999999999884e-01 8.404835000000000278e+00 1.149194999999999993e+02 2.058170000000000073e+03
1.590000000000000024e-01 1.367249999999999854e-01 8.358209999999999695e+00 1.147390000000000043e+02 2.058140000000000327e+03
