# t [s], A [cm^2], U [cm/s], P [cPa], c [cm/s]
1.000000000000000021e-03 5.129439999999999555e-01 3.529299999999999105e-03 9.804675000000000296e+01 1.631059999999999945e+03
2.000000000000000042e-03 5.129399999999999515e-01 9.038649999999998769e-03 9.802545000000000641e+01 1.631054999999999836e+03
3.000000000000000062e-03 5.129995000000000527e-01 1.446739499999999956e-01 9.817204999999999870e+01 1.631085000000000036e+03
4.000000000000000083e-03 5.130255000000000232e-01 2.189150000000000262e-01 9.826139999999999475e+01 1.631110000000000127e+03
5.000000000000000104e-03 5.129799999999999915e-01 1.386704999999999743e-01 9.810474999999999568e+01 1.631079999999999927e+03
6.000000000000000125e-03 5.129185000000000549e-01 1.227400000000000713e-02 9.779044999999999277e+01 1.631014999999999873e+03
7.000000000000000146e-03 5.128479999999999706e-01 -1.473049999999999082e-01 9.735484999999999900e+01 1.630925000000000182e+03
8.000000000000000167e-03 5.127215000000000522e-01 -4.478950000000000431e-01 9.665909999999999513e+01 1.630779999999999973e+03
9.000000000000001055e-03 5.125294999999999712e-01 -9.077399999999999913e-01 9.562829999999999586e+01 1.630554999999999836e+03
1.000000000000000194e-02 5.122659999999999991e-01 -1.527544999999999931e+00 9.421189999999999998e+01 1.630255000000000109e+03
1.099999999999999936e-02 5.119130000000000624e-01 -2.327090000000000103e+00 9.233575000000000443e+01 1.629840000000000146e+03
1.200000000000000025e-02 5.114819999999999922e-01 -3.255505000000000315e+00 9.001245000000000118e+01 1.629319999999999936e+03
1.300000000000000114e-02 5.110284999999999966e-01 -4.148855000000000182e+00 8.743004999999999427e+01 1.628724999999999909e+03
1.400000000000000203e-02 5.106254999999999544e-01 -4.802508999999999695e+00 8.489199999999999591e+01 1.628110000000000127e+03
1.499999999999999944e-02 5.103189999999999671e-01 -5.075966000000000200e+00 8.267224999999999113e+01 1.627539999999999964e+03
1.600000000000000033e-02 5.101109999999999811e-01 -4.945605000000000473e+00 8.090424999999999045e+01 1.627045000000000073e+03
1.700000000000000122e-02 5.099664999999999893e-01 -4.493044999999999511e+00 7.955414999999999281e+01 1.626630000000000109e+03
1.800000000000000211e-02 5.098359999999999559e-01 -3.856790000000000163e+00 7.846189999999999998e+01 1.626269999999999982e+03
1.900000000000000300e-02 5.096730000000000427e-01 -3.173936000000000313e+00 7.741984999999999673e+01 1.625930000000000064e+03
2.000000000000000042e-02 5.094544999999999213e-01 -2.532724500000000045e+00 7.625589999999999691e+01 1.625569999999999936e+03
2.100000000000000130e-02 5.091809999999999947e-01 -1.952419999999999822e+00 7.488929999999999154e+01 1.625179999999999836e+03
2.200000000000000219e-02 5.088749999999999662e-01 -1.397220000000000129e+00 7.333849999999999625e+01 1.624750000000000000e+03
2.299999999999999961e-02 5.085619999999999585e-01 -8.136499999999997623e-01 7.168335000000000434e+01 1.624295000000000073e+03
2.400000000000000050e-02 5.082585000000000575e-01 -1.702300000000001035e-01 7.000669999999999504e+01 1.623835000000000036e+03
2.500000000000000139e-02 5.079639999999999711e-01 5.181200000000001360e-01 6.834524999999999295e+01 1.623365000000000009e+03
2.600000000000000228e-02 5.076620000000000577e-01 1.186784999999999979e+00 6.666490000000000293e+01 1.622894999999999982e+03
2.700000000000000316e-02 5.073225000000000096e-01 1.736245000000000260e+00 6.486509999999999820e+01 1.622394999999999982e+03
2.800000000000000058e-02 5.069139999999999757e-01 2.057829999999999604e+00 6.280649999999999977e+01 1.621849999999999909e+03
2.900000000000000147e-02 5.064125000000000432e-01 2.062820000000000320e+00 6.035299999999999443e+01 1.621215000000000146e+03
3.000000000000000236e-02 5.058080000000000354e-01 1.707040000000000113e+00 5.741544999999999987e+01 1.620485000000000127e+03
3.099999999999999978e-02 5.051120000000000054e-01 1.004185000000000549e+00 5.398534999999999684e+01 1.619644999999999982e+03
3.200000000000000067e-02 5.043509999999999938e-01 2.380000000000048743e-02 5.014755000000000251e+01 1.618704999999999927e+03
3.300000000000000155e-02 5.035675000000000567e-01 -1.124405000000000321e+00 4.606900000000000261e+01 1.617710000000000036e+03
3.400000000000000244e-02 5.028049999999999464e-01 -2.313174999999999315e+00 4.196999999999999886e+01 1.616690000000000055e+03
3.500000000000000333e-02 5.021075000000000399e-01 -3.420559999999999601e+00 3.808695000000000164e+01 1.615704999999999927e+03
3.600000000000000422e-02 5.015089999999999826e-01 -4.346054999999999779e+00 3.463835000000000264e+01 1.614800000000000182e+03
3.700000000000000511e-02 5.010335000000000205e-01 -5.019120000000000026e+00 3.179955000000000354e+01 1.614025000000000091e+03
3.799999999999999906e-02 5.006929999999999437e-01 -5.399801500000000587e+00 2.968919999999999959e+01 1.613405000000000200e+03
3.899999999999999994e-02 5.004920000000000480e-01 -5.473649999999999238e+00 2.836785000000000068e+01 1.612965000000000146e+03
4.000000000000000083e-02 5.004264999999999963e-01 -5.243869999999999365e+00 2.784530000000000172e+01 1.612720000000000027e+03
4.100000000000000172e-02 5.004895000000000316e-01 -4.723314999999999486e+00 2.809335000000000093e+01 1.612660000000000082e+03
4.200000000000000261e-02 5.006714999999999360e-01 -3.928078000000000181e+00 2.906020000000000181e+01 1.612789999999999964e+03
4.300000000000000350e-02 5.009620000000000184e-01 -2.874309999999999476e+00 3.068199999999999861e+01 1.613085000000000036e+03
4.400000000000000439e-02 5.013514999999999500e-01 -1.578265000000000029e+00 3.289054999999999751e+01 1.613539999999999964e+03
4.499999999999999833e-02 5.018294999999999284e-01 -5.859000000000014197e-02 3.561565000000000225e+01 1.614130000000000109e+03
4.599999999999999922e-02 5.023839999999999417e-01 1.660560000000000258e+00 3.878435000000000343e+01 1.614849999999999909e+03
4.700000000000000011e-02 5.030004999999999615e-01 3.547154999999999614e+00 4.231869999999999976e+01 1.615670000000000073e+03
4.800000000000000100e-02 5.036644999999999595e-01 5.560629999999999740e+00 4.613405000000000200e+01 1.616575000000000045e+03
4.900000000000000189e-02 5.043579999999999730e-01 7.653375000000000483e+00 5.013940000000000197e+01 1.617545000000000073e+03
5.000000000000000278e-02 5.050639999999999574e-01 9.773420500000000288e+00 5.424044999999999561e+01 1.618555000000000064e+03
5.100000000000000366e-02 5.057660000000000489e-01 1.186886499999999955e+01 5.834384999999999621e+01 1.619579999999999927e+03
5.200000000000000455e-02 5.064489999999999270e-01 1.389139999999999908e+01 6.236330000000000240e+01 1.620605000000000018e+03
5.300000000000000544e-02 5.071010000000000240e-01 1.580018499999999904e+01 6.622485000000000355e+01 1.621610000000000127e+03
5.399999999999999939e-02 5.077145000000000685e-01 1.756405000000000172e+01 6.987149999999999750e+01 1.622570000000000164e+03
5.500000000000000028e-02 5.082834999999999992e-01 1.916254999999999953e+01 7.326609999999999445e+01 1.623480000000000018e+03
5.600000000000000117e-02 5.088074999999999681e-01 2.058619999999999806e+01 7.639209999999999923e+01 1.624335000000000036e+03
5.700000000000000205e-02 5.092894999999999506e-01 2.183480000000000132e+01 7.925239999999999441e+01 1.625135000000000218e+03
5.800000000000000294e-02 5.097335000000000615e-01 2.291675000000000040e+01 8.186664999999999281e+01 1.625875000000000000e+03
5.900000000000000383e-02 5.101454999999999185e-01 2.384665000000000035e+01 8.426824999999999477e+01 1.626565000000000055e+03
6.000000000000000472e-02 5.105340000000000433e-01 2.464375000000000071e+01 8.649994999999999834e+01 1.627210000000000036e+03
6.099999999999999867e-02 5.109075000000000699e-01 2.533044999999999902e+01 8.861025000000000773e+01 1.627815000000000055e+03
6.199999999999999956e-02 5.112734999999999363e-01 2.593059999999999832e+01 9.064979999999999905e+01 1.628404999999999973e+03
6.300000000000000044e-02 5.116410000000000124e-01 2.646835000000000093e+01 9.266774999999999807e+01 1.628980000000000018e+03
6.400000000000000133e-02 5.120175000000000143e-01 2.696640000000000015e+01 9.470875000000000909e+01 1.629554999999999836e+03
6.500000000000000222e-02 5.124075000000000157e-01 2.744494999999999862e+01 9.680989999999999895e+01 1.630139999999999873e+03
6.600000000000000311e-02 5.128160000000000496e-01 2.792020000000000124e+01 9.899835000000000207e+01 1.630740000000000009e+03
6.700000000000000400e-02 5.132434999999999636e-01 2.840305000000000035e+01 1.012898999999999887e+02 1.631365000000000009e+03
6.800000000000000488e-02 5.136905000000000499e-01 2.889864999999999995e+01 1.036860000000000070e+02 1.632009999999999991e+03
6.900000000000000577e-02 5.141534999999999300e-01 2.940595000000000070e+01 1.061749999999999972e+02 1.632674999999999955e+03
7.000000000000000666e-02 5.146264999999999867e-01 2.991794999999999760e+01 1.087319999999999993e+02 1.633355000000000018e+03
7.100000000000000755e-02 5.151035000000000474e-01 3.042245000000000132e+01 1.113230000000000075e+02 1.634055000000000064e+03
7.200000000000000844e-02 5.155754999999999644e-01 3.090339999999999776e+01 1.139020000000000010e+02 1.634744999999999891e+03
7.300000000000000933e-02 5.160339999999999927e-01 3.134209999999999852e+01 1.164205000000000041e+02 1.635424999999999955e+03
7.399999999999999634e-02 5.164695000000000258e-01 3.171905000000000285e+01 1.188265000000000100e+02 1.636085000000000036e+03
7.499999999999999722e-02 5.168734999999999857e-01 3.201505000000000223e+01 1.210695000000000050e+02 1.636704999999999927e+03
7.599999999999999811e-02 5.172379999999999756e-01 3.221285000000000309e+01 1.231040000000000134e+02 1.637275000000000091e+03
7.699999999999999900e-02 5.175579999999999625e-01 3.229814999999999969e+01 1.248915000000000077e+02 1.637795000000000073e+03
7.799999999999999989e-02 5.178274999999999961e-01 3.226030000000000086e+01 1.264020000000000010e+02 1.638240000000000009e+03
7.900000000000000078e-02 5.180445000000000189e-01 3.209300000000000352e+01 1.276169999999999902e+02 1.638615000000000009e+03
8.000000000000000167e-02 5.182080000000000020e-01 3.179444999999999766e+01 1.285285000000000082e+02 1.638920000000000073e+03
8.100000000000000255e-02 5.183189999999999742e-01 3.136765000000000114e+01 1.291380000000000052e+02 1.639139999999999873e+03
8.200000000000000344e-02 5.183805000000000218e-01 3.081959999999999766e+01 1.294600000000000080e+02 1.639284999999999854e+03
8.300000000000000433e-02 5.183964999999999268e-01 3.016154999999999831e+01 1.295159999999999911e+02 1.639365000000000009e+03
8.400000000000000522e-02 5.183725000000000138e-01 2.940814999999999912e+01 1.293365000000000009e+02 1.639375000000000000e+03
8.500000000000000611e-02 5.183155000000000401e-01 2.857670000000000243e+01 1.289565000000000055e+02 1.639329999999999927e+03
8.600000000000000699e-02 5.182320000000000260e-01 2.768629999999999924e+01 1.284180000000000064e+02 1.639240000000000009e+03
8.700000000000000788e-02 5.181290000000000617e-01 2.675740000000000052e+01 1.277615000000000123e+02 1.639110000000000127e+03
8.800000000000000877e-02 5.180145000000000444e-01 2.581024999999999991e+01 1.270310000000000059e+02 1.638950000000000045e+03
8.899999999999999578e-02 5.178945000000000354e-01 2.486459999999999937e+01 1.262665000000000077e+02 1.638779999999999973e+03
8.999999999999999667e-02 5.177760000000000140e-01 2.393834999999999980e+01 1.255060000000000002e+02 1.638595000000000027e+03
9.099999999999999756e-02 5.176650000000000418e-01 2.304715000000000202e+01 1.247824999999999989e+02 1.638420000000000073e+03
9.199999999999999845e-02 5.175644999999999829e-01 2.220374999999999943e+01 1.241214999999999975e+02 1.638250000000000000e+03
9.299999999999999933e-02 5.174775000000000347e-01 2.141720000000000113e+01 1.235420000000000016e+02 1.638095000000000027e+03
9.400000000000000022e-02 5.174060000000000326e-01 2.069310000000000116e+01 1.230569999999999879e+02 1.637954999999999927e+03
9.500000000000000111e-02 5.173510000000000053e-01 2.003324999999999889e+01 1.226694999999999993e+02 1.637840000000000146e+03
9.600000000000000200e-02 5.173105000000000064e-01 1.943564999999999898e+01 1.223764999999999930e+02 1.637750000000000000e+03
9.700000000000000289e-02 5.172824999999999784e-01 1.889519999999999911e+01 1.221680000000000064e+02 1.637680000000000064e+03
9.800000000000000377e-02 5.172645000000000159e-01 1.840390000000000015e+01 1.220289999999999964e+02 1.637625000000000000e+03
9.900000000000000466e-02 5.172525000000000039e-01 1.795139999999999958e+01 1.219389999999999930e+02 1.637585000000000036e+03
1.000000000000000056e-01 5.172434999999999672e-01 1.752570000000000050e+01 1.218754999999999882e+02 1.637550000000000182e+03
1.010000000000000064e-01 5.172320000000000251e-01 1.711415000000000219e+01 1.218125000000000000e+02 1.637519999999999982e+03
1.020000000000000073e-01 5.172140000000000626e-01 1.670360000000000156e+01 1.217259999999999991e+02 1.637490000000000009e+03
1.030000000000000082e-01 5.171854999999999647e-01 1.628175000000000239e+01 1.215914999999999964e+02 1.637445000000000164e+03
1.040000000000000091e-01 5.171440000000000481e-01 1.583739999999999881e+01 1.213880000000000052e+02 1.637389999999999873e+03
1.050000000000000100e-01 5.170854999999999757e-01 1.536129999999999995e+01 1.210995000000000061e+02 1.637320000000000164e+03
1.059999999999999970e-01 5.170084999999999820e-01 1.484644999999999904e+01 1.207115000000000009e+02 1.637220000000000027e+03
1.069999999999999979e-01 5.169129999999999558e-01 1.428855000000000075e+01 1.202185000000000059e+02 1.637099999999999909e+03
1.079999999999999988e-01 5.167990000000000084e-01 1.368643499999999946e+01 1.196185000000000116e+02 1.636960000000000036e+03
1.089999999999999997e-01 5.166669999999999874e-01 1.304178999999999888e+01 1.189164999999999992e+02 1.636784999999999854e+03
1.100000000000000006e-01 5.165199999999999791e-01 1.235930000000000106e+01 1.181225000000000023e+02 1.636590000000000146e+03
1.110000000000000014e-01 5.163609999999999589e-01 1.164643500000000031e+01 1.172530000000000001e+02 1.636375000000000000e+03
1.120000000000000023e-01 5.161940000000000417e-01 1.091283999999999921e+01 1.163280000000000030e+02 1.636144999999999982e+03
1.130000000000000032e-01 5.160225000000000506e-01 1.017018500000000003e+01 1.153704999999999927e+02 1.635900000000000091e+03
1.140000000000000041e-01 5.158519999999999772e-01 9.431294999999998652e+00 1.144074999999999989e+02 1.635654999999999973e+03
1.150000000000000050e-01 5.156865000000000476e-01 8.709640000000000271e+00 1.134655000000000058e+02 1.635414999999999964e+03
1.160000000000000059e-01 5.155315000000000314e-01 8.018660000000000565e+00 1.125709999999999980e+02 1.635174999999999955e+03
1.170000000000000068e-01 5.153904999999999736e-01 7.371074999999999378e+00 1.117489999999999952e+02 1.634960000000000036e+03
1.180000000000000077e-01 5.152680000000000593e-01 6.778254999999999697e+00 1.110225000000000080e+02 1.634755000000000109e+03
1.190000000000000085e-01 5.151660000000000128e-01 6.249734999999999374e+00 1.104080000000000013e+02 1.634579999999999927e+03
1.200000000000000094e-01 5.150869999999999616e-01 5.792699999999999960e+00 1.099209999999999923e+02 1.634434999999999945e+03
1.209999999999999964e-01 5.150314999999999754e-01 5.411760000000000126e+00 1.095685000000000002e+02 1.634319999999999936e+03
1.219999999999999973e-01 5.150010000000000421e-01 5.108805000000000263e+00 1.093534999999999968e+02 1.634240000000000009e+03
1.229999999999999982e-01 5.149924999999999642e-01 4.882965000000000444e+00 1.092725000000000080e+02 1.634194999999999936e+03
1.239999999999999991e-01 5.150065000000000337e-01 4.730859999999999843e+00 1.093185000000000002e+02 1.634180000000000064e+03
1.250000000000000000e-01 5.150390000000000246e-01 4.646774999999999878e+00 1.094789999999999992e+02 1.634195000000000164e+03
1.260000000000000009e-01 5.150879999999999903e-01 4.623089999999999478e+00 1.097379999999999995e+02 1.634234999999999900e+03
1.270000000000000018e-01 5.151499999999999968e-01 4.650710000000000122e+00 1.100765000000000100e+02 1.634299999999999955e+03
1.280000000000000027e-01 5.152204999999999702e-01 4.719535000000000480e+00 1.104745000000000061e+02 1.634380000000000109e+03
1.290000000000000036e-01 5.152965000000000462e-01 4.818939999999999557e+00 1.109105000000000132e+02 1.634480000000000018e+03
1.300000000000000044e-01 5.153745000000000687e-01 4.938245000000000218e+00 1.113644999999999925e+02 1.634585000000000036e+03
1.310000000000000053e-01 5.154509999999999925e-01 5.067145000000000010e+00 1.118165000000000049e+02 1.634690000000000055e+03
1.320000000000000062e-01 5.155239999999999823e-01 5.196080000000000254e+00 1.122495000000000118e+02 1.634795000000000073e+03
1.330000000000000071e-01 5.155895000000000339e-01 5.316544999999999632e+00 1.126479999999999961e+02 1.634894999999999982e+03
1.340000000000000080e-01 5.156469999999999665e-01 5.421319999999999695e+00 1.130010000000000048e+02 1.634990000000000009e+03
1.350000000000000089e-01 5.156944999999999446e-01 5.504649999999999821e+00 1.132984999999999900e+02 1.635070000000000164e+03
1.360000000000000098e-01 5.157315000000000094e-01 5.562314999999999898e+00 1.135354999999999990e+02 1.635134999999999991e+03
1.370000000000000107e-01 5.157579999999999387e-01 5.591675000000000395e+00 1.137094999999999914e+02 1.635190000000000055e+03
1.380000000000000115e-01 5.157734999999999959e-01 5.591620000000000701e+00 1.138209999999999980e+02 1.635224999999999909e+03
1.390000000000000124e-01 5.157795000000000574e-01 5.562459999999999738e+00 1.138735000000000070e+02 1.635250000000000000e+03
1.400000000000000133e-01 5.157764999999999711e-01 5.505784999999999485e+00 1.138710000000000093e+02 1.635259999999999991e+03
1.410000000000000142e-01 5.157659999999999467e-01 5.424305000000000376e+00 1.138215000000000003e+02 1.635259999999999991e+03
1.420000000000000151e-01 5.157494999999999719e-01 5.321590000000000487e+00 1.137340000000000089e+02 1.635244999999999891e+03
1.430000000000000160e-01 5.157285000000000341e-01 5.201855000000000118e+00 1.136159999999999997e+02 1.635224999999999909e+03
1.440000000000000169e-01 5.157049999999999690e-01 5.069714999999999527e+00 1.134780000000000086e+02 1.635194999999999936e+03
1.450000000000000178e-01 5.156794999999999574e-01 4.929909999999999570e+00 1.133294999999999959e+02 1.635170000000000073e+03
1.459999999999999909e-01 5.156555000000000444e-01 4.787084999999999368e+00 1.131784999999999997e+02 1.635130000000000109e+03
1.469999999999999918e-01 5.156319999999999792e-01 4.645550000000000068e+00 1.130314999999999941e+02 1.635095000000000027e+03
1.479999999999999927e-01 5.156110000000000415e-01 4.509115000000000428e+00 1.128965000000000032e+02 1.635065000000000055e+03
1.489999999999999936e-01 5.155935000000000379e-01 4.380925000000000402e+00 1.127764999999999986e+02 1.635034999999999854e+03
1.499999999999999944e-01 5.155790000000000095e-01 4.263359999999999594e+00 1.126754999999999995e+02 1.635009999999999991e+03
1.509999999999999953e-01 5.155680000000000263e-01 4.157980000000000231e+00 1.125939999999999941e+02 1.634984999999999900e+03
1.519999999999999962e-01 5.155604999999999771e-01 4.065534999999999677e+00 1.125319999999999965e+02 1.634970000000000027e+03
1.529999999999999971e-01 5.155555000000000554e-01 3.985990000000000144e+00 1.124869999999999948e+02 1.634954999999999927e+03
1.539999999999999980e-01 5.155530000000000390e-01 3.918625000000000025e+00 1.124565000000000055e+02 1.634945000000000164e+03
1.549999999999999989e-01 5.155514999999999404e-01 3.862124999999999808e+00 1.124354999999999905e+02 1.634940000000000055e+03
1.559999999999999998e-01 5.155509999999999815e-01 3.814750000000000085e+00 1.124200000000000017e+02 1.634934999999999945e+03
1.570000000000000007e-01 5.155490000000000350e-01 3.774440000000000239e+00 1.124035000000000082e+02 1.634924999999999955e+03
1.580000000000000016e-01 5.155465000000000186e-01 3.738999999999999879e+00 1.123820000000000050e+02 1.634914999999999964e+03
1.590000000000000024e-01 5.155414999999999859e-01 3.706214999999999815e+00 1.123509999999999991e+02 1.634904999999999973e+03
