# t [s], A [cm^2], U [cm/s], P [cPa], c [cm/s]
1.000000000000000021e-03 8.106119999999999992e-01 4.935499999999995446e-03 1.017595000000000027e+02 1.744990000000000009e+03
2.000000000000000042e-03 8.106079999999999952e-01 1.252674999999999796e-02 1.017359999999999900e+02 1.744985000000000127e+03
3.000000000000000062e-03 8.107054999999999678e-01 1.670200000000000018e-01 1.019180000000000064e+02 1.745025000000000091e+03
4.000000000000000083e-03 8.107299999999999507e-01 2.311674999999999980e-01 1.019879999999999995e+02 1.745045000000000073e+03
5.000000000000000104e-03 8.106359999999999122e-01 1.204830000000000345e-01 1.017445000000000022e+02 1.744994999999999891e+03
6.000000000000000125e-03 8.105360000000000342e-01 -1.338749999999999662e-02 1.013539999999999992e+02 1.744910000000000082e+03
7.000000000000000146e-03 8.104010000000000380e-01 -2.165650000000000075e-01 1.007914999999999992e+02 1.744789999999999964e+03
8.000000000000000167e-03 8.101594999999999214e-01 -6.046850000000000280e-01 9.987874999999999659e+01 1.744595000000000027e+03
9.000000000000001055e-03 8.098099999999999188e-01 -1.175375000000000059e+00 9.855344999999999800e+01 1.744304999999999836e+03
1.000000000000000194e-02 8.093250000000000721e-01 -1.952674999999999716e+00 9.672380000000001132e+01 1.743909999999999854e+03
1.099999999999999936e-02 8.086830000000000407e-01 -2.942120000000000068e+00 9.431119999999999948e+01 1.743375000000000000e+03
1.200000000000000025e-02 8.079560000000000075e-01 -3.998825000000000074e+00 9.145654999999999291e+01 1.742719999999999800e+03
1.300000000000000114e-02 8.072825000000000140e-01 -4.860364500000000199e+00 8.853190000000000737e+01 1.742025000000000091e+03
1.400000000000000203e-02 8.067744999999999500e-01 -5.304678999999999256e+00 8.594055000000000177e+01 1.741380000000000109e+03
1.499999999999999944e-02 8.064525000000000166e-01 -5.261429999999999829e+00 8.390925000000000011e+01 1.740829999999999927e+03
1.600000000000000033e-02 8.062555000000000138e-01 -4.815904999999999880e+00 8.241710000000000491e+01 1.740380000000000109e+03
1.700000000000000122e-02 8.060840000000000227e-01 -4.143654999999999866e+00 8.124869999999999948e+01 1.740005000000000109e+03
1.800000000000000211e-02 8.058459999999999512e-01 -3.424405000000000143e+00 8.011504999999999654e+01 1.739634999999999991e+03
1.900000000000000300e-02 8.054954999999999199e-01 -2.770434000000000285e+00 7.878334999999999866e+01 1.739240000000000009e+03
2.000000000000000042e-02 8.050435000000000230e-01 -2.196600000000000108e+00 7.716310000000000002e+01 1.738789999999999964e+03
2.100000000000000130e-02 8.045385000000000453e-01 -1.642840000000000078e+00 7.531024999999999636e+01 1.738289999999999964e+03
2.200000000000000219e-02 8.040355000000000141e-01 -1.031444999999999945e+00 7.336045000000000016e+01 1.737769999999999982e+03
2.299999999999999961e-02 8.035654999999999326e-01 -3.239199999999997637e-01 7.143545000000000300e+01 1.737244999999999891e+03
2.400000000000000050e-02 8.031205000000000149e-01 4.485149999999999970e-01 6.957189999999999941e+01 1.736724999999999909e+03
2.500000000000000139e-02 8.026575000000000237e-01 1.186839999999999673e+00 6.769544999999999391e+01 1.736200000000000045e+03
2.600000000000000228e-02 8.021125000000000060e-01 1.751309999999999700e+00 6.563965000000000316e+01 1.735639999999999873e+03
2.700000000000000316e-02 8.014259999999999717e-01 2.002174999999999816e+00 6.319919999999999760e+01 1.735009999999999991e+03
2.800000000000000058e-02 8.005605000000000082e-01 1.841895000000000060e+00 6.019995000000000118e+01 1.734259999999999991e+03
2.900000000000000147e-02 7.995149999999999757e-01 1.245989999999999931e+00 5.656360000000000099e+01 1.733369999999999891e+03
3.000000000000000236e-02 7.983305000000000540e-01 2.720000000000002416e-01 5.234485000000000099e+01 1.732349999999999909e+03
3.099999999999999978e-02 7.970770000000000355e-01 -9.559499999999996334e-01 4.772885000000000133e+01 1.731234999999999900e+03
3.200000000000000067e-02 7.958410000000000206e-01 -2.278929999999999900e+00 4.299325000000000330e+01 1.730074999999999818e+03
3.300000000000000155e-02 7.947044999999999249e-01 -3.538049999999999695e+00 3.845165000000000077e+01 1.728940000000000055e+03
3.400000000000000244e-02 7.937334999999999807e-01 -4.601240000000000663e+00 3.439900000000000091e+01 1.727900000000000091e+03
3.500000000000000333e-02 7.929720000000000102e-01 -5.377495000000000580e+00 3.107030000000000314e+01 1.727005000000000109e+03
3.600000000000000422e-02 7.924400000000000333e-01 -5.818514500000000034e+00 2.861939999999999884e+01 1.726309999999999945e+03
3.700000000000000511e-02 7.921404999999999141e-01 -5.911265000000000214e+00 2.711659999999999826e+01 1.725820000000000164e+03
3.799999999999999906e-02 7.920629999999999615e-01 -5.666039999999999743e+00 2.656165000000000020e+01 1.725569999999999936e+03
3.899999999999999994e-02 7.921890000000000320e-01 -5.103760000000000296e+00 2.690465000000000018e+01 1.725530000000000200e+03
4.000000000000000083e-02 7.925020000000000397e-01 -4.246537500000000520e+00 2.806900000000000261e+01 1.725704999999999927e+03
4.100000000000000172e-02 7.929824999999999235e-01 -3.113455000000000084e+00 2.996894999999999953e+01 1.726070000000000164e+03
4.200000000000000261e-02 7.936145000000000005e-01 -1.721690000000000609e+00 3.251914999999999623e+01 1.726610000000000127e+03
4.300000000000000350e-02 7.943804999999999339e-01 -9.112999999999971124e-02 3.563519999999999754e+01 1.727299999999999955e+03
4.400000000000000439e-02 7.952604999999999258e-01 1.750320000000000320e+00 3.923015000000000185e+01 1.728125000000000000e+03
4.499999999999999833e-02 7.962299999999999933e-01 3.763460000000000250e+00 4.320895000000000152e+01 1.729055000000000064e+03
4.599999999999999922e-02 7.972619999999999152e-01 5.897280000000000300e+00 4.746620000000000061e+01 1.730075000000000045e+03
4.700000000000000011e-02 7.983255000000000212e-01 8.092195000000000249e+00 5.188750000000000284e+01 1.731150000000000091e+03
4.800000000000000100e-02 7.993909999999999627e-01 1.028508500000000048e+01 5.635524999999999807e+01 1.732255000000000109e+03
4.900000000000000189e-02 8.004299999999999748e-01 1.241535999999999973e+01 6.075664999999999338e+01 1.733360000000000127e+03
5.000000000000000278e-02 8.014200000000000212e-01 1.443061499999999953e+01 6.499275000000000091e+01 1.734440000000000055e+03
5.100000000000000366e-02 8.023464999999999625e-01 1.629065999999999903e+01 6.898645000000000493e+01 1.735480000000000018e+03
5.200000000000000455e-02 8.031995000000000662e-01 1.796944999999999837e+01 7.268694999999999595e+01 1.736460000000000036e+03
5.300000000000000544e-02 8.039780000000000815e-01 1.945530000000000115e+01 7.607235000000000014e+01 1.737369999999999891e+03
5.399999999999999939e-02 8.046875000000000000e-01 2.074930000000000163e+01 7.914740000000000464e+01 1.738215000000000146e+03
5.500000000000000028e-02 8.053369999999999695e-01 2.186315000000000097e+01 8.194004999999999939e+01 1.738994999999999891e+03
5.600000000000000117e-02 8.059385000000000021e-01 2.281629999999999825e+01 8.449620000000000175e+01 1.739710000000000036e+03
5.700000000000000205e-02 8.065085000000000726e-01 2.363369999999999749e+01 8.687375000000000114e+01 1.740389999999999873e+03
5.800000000000000294e-02 8.070610000000000284e-01 2.434329999999999927e+01 8.913679999999999382e+01 1.741025000000000091e+03
5.900000000000000383e-02 8.076110000000000788e-01 2.497419999999999973e+01 9.135085000000000832e+01 1.741644999999999982e+03
6.000000000000000472e-02 8.081730000000000302e-01 2.555480000000000018e+01 9.357740000000001146e+01 1.742264999999999873e+03
6.099999999999999867e-02 8.087580000000000879e-01 2.611095000000000255e+01 9.586994999999998868e+01 1.742889999999999873e+03
6.199999999999999956e-02 8.093755000000000255e-01 2.666389999999999816e+01 9.827009999999999934e+01 1.743545000000000073e+03
6.300000000000000044e-02 8.100279999999999703e-01 2.722874999999999801e+01 1.008032499999999914e+02 1.744214999999999918e+03
6.400000000000000133e-02 8.107174999999999798e-01 2.781299999999999883e+01 1.034771499999999946e+02 1.744924999999999955e+03
6.500000000000000222e-02 8.114375000000000338e-01 2.841619999999999990e+01 1.062819999999999965e+02 1.745660000000000082e+03
6.600000000000000311e-02 8.121800000000000130e-01 2.902984999999999971e+01 1.091870000000000118e+02 1.746424999999999955e+03
6.700000000000000400e-02 8.129310000000000702e-01 2.963870000000000005e+01 1.121485000000000127e+02 1.747204999999999927e+03
6.800000000000000488e-02 8.136764999999999137e-01 3.022210000000000107e+01 1.151080000000000041e+02 1.747984999999999900e+03
6.900000000000000577e-02 8.143994999999999429e-01 3.075629999999999953e+01 1.180005000000000024e+02 1.748750000000000000e+03
7.000000000000000666e-02 8.150834999999999608e-01 3.121675000000000111e+01 1.207595000000000027e+02 1.749494999999999891e+03
7.100000000000000755e-02 8.157130000000000214e-01 3.157974999999999710e+01 1.233185000000000002e+02 1.750184999999999945e+03
7.200000000000000844e-02 8.162760000000000016e-01 3.182489999999999952e+01 1.256214999999999975e+02 1.750824999999999818e+03
7.300000000000000933e-02 8.167610000000000703e-01 3.193595000000000184e+01 1.276210000000000093e+02 1.751390000000000100e+03
7.399999999999999634e-02 8.171625000000000139e-01 3.190214999999999890e+01 1.292839999999999918e+02 1.751875000000000000e+03
7.499999999999999722e-02 8.174775000000000791e-01 3.171869999999999834e+01 1.305919999999999845e+02 1.752275000000000091e+03
7.599999999999999811e-02 8.177054999999999740e-01 3.138685000000000258e+01 1.315424999999999898e+02 1.752579999999999927e+03
7.699999999999999900e-02 8.178514999999999535e-01 3.091355000000000075e+01 1.321465000000000032e+02 1.752800000000000182e+03
7.799999999999999989e-02 8.179220000000000379e-01 3.031139999999999901e+01 1.324284999999999854e+02 1.752940000000000055e+03
7.900000000000000078e-02 8.179259999999999309e-01 2.959724999999999895e+01 1.324250000000000114e+02 1.752994999999999891e+03
8.000000000000000167e-02 8.178754999999999775e-01 2.879160000000000252e+01 1.321800000000000068e+02 1.752990000000000009e+03
8.100000000000000255e-02 8.177820000000000089e-01 2.791754999999999853e+01 1.317434999999999832e+02 1.752924999999999955e+03
8.200000000000000344e-02 8.176585000000000658e-01 2.699934999999999974e+01 1.311690000000000111e+02 1.752819999999999936e+03
8.300000000000000433e-02 8.175179999999999669e-01 2.606149999999999878e+01 1.305095000000000027e+02 1.752684999999999945e+03
8.400000000000000522e-02 8.173714999999999176e-01 2.512715000000000032e+01 1.298160000000000025e+02 1.752529999999999973e+03
8.500000000000000611e-02 8.172300000000000120e-01 2.421730000000000160e+01 1.291340000000000146e+02 1.752369999999999891e+03
8.600000000000000699e-02 8.171019999999999950e-01 2.334964999999999691e+01 1.285014999999999930e+02 1.752214999999999918e+03
8.700000000000000788e-02 8.169929999999999692e-01 2.253784999999999883e+01 1.279489999999999839e+02 1.752074999999999818e+03
8.800000000000000877e-02 8.169085000000000374e-01 2.179104999999999848e+01 1.274964999999999975e+02 1.751949999999999818e+03
8.899999999999999578e-02 8.168484999999999774e-01 2.111359999999999815e+01 1.271529999999999916e+02 1.751849999999999909e+03
8.999999999999999667e-02 8.168130000000000113e-01 2.050515000000000043e+01 1.269189999999999969e+02 1.751779999999999973e+03
9.099999999999999756e-02 8.167980000000000240e-01 1.996114999999999995e+01 1.267844999999999942e+02 1.751724999999999909e+03
9.199999999999999845e-02 8.167999999999999705e-01 1.947279999999999944e+01 1.267330000000000041e+02 1.751699999999999818e+03
9.299999999999999933e-02 8.168115000000000236e-01 1.902870000000000061e+01 1.267394999999999925e+02 1.751684999999999945e+03
9.400000000000000022e-02 8.168260000000000520e-01 1.861469999999999914e+01 1.267750000000000057e+02 1.751679999999999836e+03
9.500000000000000111e-02 8.168355000000000476e-01 1.821565000000000012e+01 1.268084999999999951e+02 1.751674999999999955e+03
9.600000000000000200e-02 8.168325000000000724e-01 1.781589999999999918e+01 1.268084999999999951e+02 1.751670000000000073e+03
9.700000000000000289e-02 8.168104999999999949e-01 1.740034999999999954e+01 1.267435000000000116e+02 1.751644999999999982e+03
9.800000000000000377e-02 8.167629999999999058e-01 1.695564999999999856e+01 1.265869999999999891e+02 1.751610000000000127e+03
9.900000000000000466e-02 8.166849999999999943e-01 1.647064999999999912e+01 1.263164999999999907e+02 1.751545000000000073e+03
1.000000000000000056e-01 8.165740000000000220e-01 1.593740000000000023e+01 1.259170000000000016e+02 1.751445000000000164e+03
1.010000000000000064e-01 8.164295000000000302e-01 1.535164999999999935e+01 1.253810000000000002e+02 1.751320000000000164e+03
1.020000000000000073e-01 8.162519999999999776e-01 1.471284999999999954e+01 1.247074999999999960e+02 1.751159999999999854e+03
1.030000000000000082e-01 8.160434999999999217e-01 1.402458000000000027e+01 1.239064999999999941e+02 1.750965000000000146e+03
1.040000000000000091e-01 8.158099999999999241e-01 1.329415499999999994e+01 1.229934999999999832e+02 1.750744999999999891e+03
1.050000000000000100e-01 8.155574999999999353e-01 1.253235000000000099e+01 1.219929999999999950e+02 1.750500000000000000e+03
1.059999999999999970e-01 8.152939999999999632e-01 1.175262500000000010e+01 1.209339999999999975e+02 1.750240000000000009e+03
1.069999999999999979e-01 8.150275000000000158e-01 1.097053000000000011e+01 1.198495000000000061e+02 1.749970000000000027e+03
1.079999999999999988e-01 8.147670000000000190e-01 1.020278500000000044e+01 1.187750000000000057e+02 1.749695000000000164e+03
1.089999999999999997e-01 8.145214999999998984e-01 9.466215000000000046e+00 1.177459999999999951e+02 1.749430000000000064e+03
1.100000000000000006e-01 8.142979999999999663e-01 8.776984999999999815e+00 1.167980000000000018e+02 1.749174999999999955e+03
1.110000000000000014e-01 8.141045000000000087e-01 8.149505000000001331e+00 1.159600000000000080e+02 1.748954999999999927e+03
1.120000000000000023e-01 8.139464999999999062e-01 7.595794999999999852e+00 1.152574999999999932e+02 1.748755000000000109e+03
1.130000000000000032e-01 8.138265000000000082e-01 7.124925000000000175e+00 1.147094999999999914e+02 1.748595000000000027e+03
1.140000000000000041e-01 8.137475000000000680e-01 6.742440000000000211e+00 1.143259999999999934e+02 1.748474999999999909e+03
1.150000000000000050e-01 8.137095000000000855e-01 6.450314999999999799e+00 1.141119999999999948e+02 1.748389999999999873e+03
1.160000000000000059e-01 8.137099999999999334e-01 6.246990000000000265e+00 1.140614999999999952e+02 1.748355000000000018e+03
1.170000000000000068e-01 8.137474999999999570e-01 6.127570000000000405e+00 1.141650000000000063e+02 1.748349999999999909e+03
1.180000000000000077e-01 8.138149999999999551e-01 6.084295000000000009e+00 1.144039999999999964e+02 1.748384999999999991e+03
1.190000000000000085e-01 8.139080000000000759e-01 6.107059999999999711e+00 1.147574999999999932e+02 1.748450000000000045e+03
1.200000000000000094e-01 8.140199999999999658e-01 6.184050000000000047e+00 1.152000000000000028e+02 1.748539999999999964e+03
1.209999999999999964e-01 8.141439999999999788e-01 6.302395000000000636e+00 1.157049999999999983e+02 1.748650000000000091e+03
1.219999999999999973e-01 8.142745000000000122e-01 6.448814999999999742e+00 1.162454999999999927e+02 1.748775000000000091e+03
1.229999999999999982e-01 8.144050000000000455e-01 6.610250000000000625e+00 1.167940000000000111e+02 1.748900000000000091e+03
1.239999999999999991e-01 8.145299999999999763e-01 6.774365000000000414e+00 1.173274999999999864e+02 1.749034999999999854e+03
1.250000000000000000e-01 8.146439999999999237e-01 6.930060000000000109e+00 1.178250000000000028e+02 1.749154999999999973e+03
1.260000000000000009e-01 8.147440000000000238e-01 7.067790000000000461e+00 1.182694999999999936e+02 1.749269999999999982e+03
1.270000000000000018e-01 8.148275000000000379e-01 7.179845000000000255e+00 1.186475000000000080e+02 1.749375000000000000e+03
1.280000000000000027e-01 8.148925000000000196e-01 7.260514999999999830e+00 1.189509999999999934e+02 1.749454999999999927e+03
1.290000000000000036e-01 8.149385000000000101e-01 7.306169999999999831e+00 1.191760000000000019e+02 1.749525000000000091e+03
1.300000000000000044e-01 8.149665000000000381e-01 7.315194999999999226e+00 1.193224999999999909e+02 1.749570000000000164e+03
1.310000000000000053e-01 8.149764999999999926e-01 7.287925000000000431e+00 1.193934999999999889e+02 1.749599999999999909e+03
1.320000000000000062e-01 8.149714999999999598e-01 7.226449999999999818e+00 1.193960000000000008e+02 1.749609999999999900e+03
1.330000000000000071e-01 8.149534999999999973e-01 7.134369999999999656e+00 1.193400000000000034e+02 1.749610000000000127e+03
1.340000000000000080e-01 8.149254999999999693e-01 7.016510000000000247e+00 1.192369999999999948e+02 1.749595000000000027e+03
1.350000000000000089e-01 8.148910000000000320e-01 6.878565000000000040e+00 1.190985000000000014e+02 1.749569999999999936e+03
1.360000000000000098e-01 8.148524999999999796e-01 6.726765000000000327e+00 1.189389999999999930e+02 1.749534999999999854e+03
1.370000000000000107e-01 8.148130000000000095e-01 6.567474999999999952e+00 1.187699999999999960e+02 1.749500000000000000e+03
1.380000000000000115e-01 8.147759999999999447e-01 6.406874999999999432e+00 1.186045000000000016e+02 1.749465000000000146e+03
1.390000000000000124e-01 8.147435000000000649e-01 6.250585000000000058e+00 1.184515000000000100e+02 1.749430000000000064e+03
1.400000000000000133e-01 8.147165000000000656e-01 6.103419999999999845e+00 1.183199999999999932e+02 1.749394999999999982e+03
1.410000000000000142e-01 8.146964999999999346e-01 5.969145000000000145e+00 1.182150000000000034e+02 1.749369999999999891e+03
1.420000000000000151e-01 8.146845000000000336e-01 5.850365000000000038e+00 1.181405000000000030e+02 1.749349999999999909e+03
1.430000000000000160e-01 8.146800000000000708e-01 5.748454999999999870e+00 1.180960000000000036e+02 1.749335000000000036e+03
1.440000000000000169e-01 8.146820000000000173e-01 5.663584999999999425e+00 1.180805000000000007e+02 1.749329999999999927e+03
1.450000000000000178e-01 8.146889999999999965e-01 5.594849999999999213e+00 1.180889999999999986e+02 1.749325000000000045e+03
1.459999999999999909e-01 8.146995000000000209e-01 5.540419999999999234e+00 1.181159999999999997e+02 1.749324999999999818e+03
1.469999999999999918e-01 8.147124999999999506e-01 5.497774999999999856e+00 1.181544999999999987e+02 1.749339999999999918e+03
1.479999999999999927e-01 8.147249999999999215e-01 5.463929999999999509e+00 1.181959999999999980e+02 1.749345000000000027e+03
1.489999999999999936e-01 8.147360000000000158e-01 5.435694999999999943e+00 1.182330000000000041e+02 1.749355000000000018e+03
1.499999999999999944e-01 8.147429999999999950e-01 5.409905000000000186e+00 1.182589999999999861e+02 1.749355000000000018e+03
1.509999999999999953e-01 8.147444999999999826e-01 5.383644999999999570e+00 1.182659999999999911e+02 1.749355000000000018e+03
1.519999999999999962e-01 8.147394999999999499e-01 5.354414999999999480e+00 1.182510000000000048e+02 1.749355000000000018e+03
1.529999999999999971e-01 8.147280000000000078e-01 5.320285000000000153e+00 1.182079999999999984e+02 1.749340000000000146e+03
1.539999999999999980e-01 8.147090000000000165e-01 5.279970000000000496e+00 1.181370000000000005e+02 1.749324999999999818e+03
1.549999999999999989e-01 8.146830000000000460e-01 5.232904999999999696e+00 1.180379999999999967e+02 1.749304999999999836e+03
1.559999999999999998e-01 8.146510000000000140e-01 5.179249999999999687e+00 1.179130000000000109e+02 1.749275000000000091e+03
1.570000000000000007e-01 8.146130000000000315e-01 5.119860000000000078e+00 1.177644999999999982e+02 1.749240000000000009e+03
1.580000000000000016e-01 8.145715000000000039e-01 5.056235000000000035e+00 1.175985000000000014e+02 1.749195000000000164e+03
1.590000000000000024e-01 8.145270000000000010e-01 4.990460000000000562e+00 1.174214999999999947e+02 1.749154999999999973e+03
