# t [s], A [cm^2], U [cm/s], P [cPa], c [cm/s]
1.000000000000000021e-03 2.163809999999999900e-01 1.970899999999999874e-01 1.002481499999999954e+02 2.277750000000000000e+03
2.000000000000000042e-03 2.163275000000000059e-01 1.581753500000000034e+00 9.703164999999999907e+01 2.277345000000000255e+03
3.000000000000000062e-03 2.161819999999999853e-01 3.370992500000000280e+00 9.232609999999999673e+01 2.276300000000000182e+03
4.000000000000000083e-03 2.159844999999999959e-01 5.426331599999999256e+00 8.702559999999999718e+01 2.274900000000000091e+03
5.000000000000000104e-03 2.157744999999999802e-01 7.666644999999999932e+00 8.215900000000000603e+01 2.273420000000000073e+03
6.000000000000000125e-03 2.155739999999999879e-01 9.895624999999999005e+00 7.812085000000000434e+01 2.272039999999999964e+03
7.000000000000000146e-03 2.153879999999999961e-01 1.186105000000000054e+01 7.464884999999999593e+01 2.270774999999999636e+03
8.000000000000000167e-03 2.152189999999999936e-01 1.347498000000000040e+01 7.152375000000000682e+01 2.269654999999999745e+03
9.000000000000001055e-03 2.150730000000000142e-01 1.478249999999999886e+01 6.885054999999999836e+01 2.268704999999999927e+03
1.000000000000000194e-02 2.149539999999999784e-01 1.582155000000000022e+01 6.671980000000000643e+01 2.267930000000000291e+03
1.099999999999999936e-02 2.148605000000000098e-01 1.661635000000000062e+01 6.511175000000000068e+01 2.267329999999999927e+03
1.200000000000000025e-02 2.147895000000000221e-01 1.718189999999999884e+01 6.394259999999999877e+01 2.266889999999999873e+03
1.300000000000000114e-02 2.147344999999999948e-01 1.751375000000000171e+01 6.304279999999999973e+01 2.266555000000000291e+03
1.400000000000000203e-02 2.146905000000000063e-01 1.763589999999999947e+01 6.226304999999999978e+01 2.266295000000000073e+03
1.499999999999999944e-02 2.146585000000000021e-01 1.766369999999999862e+01 6.169930000000000092e+01 2.266105000000000018e+03
1.600000000000000033e-02 2.146474999999999911e-01 1.778430000000000177e+01 6.174445000000000050e+01 2.266050000000000182e+03
1.700000000000000122e-02 2.146714999999999873e-01 1.815639999999999787e+01 6.284644999999999726e+01 2.266210000000000036e+03
1.800000000000000211e-02 2.147354999999999958e-01 1.881334999999999980e+01 6.516814999999999714e+01 2.266625000000000000e+03
1.900000000000000300e-02 2.148339999999999972e-01 1.964029999999999987e+01 6.841159999999999286e+01 2.267269999999999982e+03
2.000000000000000042e-02 2.149504999999999888e-01 2.043100000000000094e+01 7.190899999999999181e+01 2.268034999999999854e+03
2.100000000000000130e-02 2.150610000000000022e-01 2.098150000000000048e+01 7.489754999999999541e+01 2.268784999999999854e+03
2.200000000000000219e-02 2.151474999999999915e-01 2.116984999999999673e+01 7.681520000000000437e+01 2.269380000000000109e+03
2.299999999999999961e-02 2.151980000000000004e-01 2.099085000000000178e+01 7.748165000000000191e+01 2.269744999999999891e+03
2.400000000000000050e-02 2.152145000000000030e-01 2.053779999999999717e+01 7.710410000000000252e+01 2.269875000000000000e+03
2.500000000000000139e-02 2.152060000000000084e-01 1.994894999999999996e+01 7.613224999999999909e+01 2.269835000000000036e+03
2.600000000000000228e-02 2.151845000000000008e-01 1.934530000000000172e+01 7.504390000000000782e+01 2.269704999999999927e+03
2.700000000000000316e-02 2.151619999999999922e-01 1.878669999999999973e+01 7.415729999999999222e+01 2.269559999999999945e+03
2.800000000000000058e-02 2.151419999999999999e-01 1.826020000000000110e+01 7.353970000000001050e+01 2.269425000000000182e+03
2.900000000000000147e-02 2.151235000000000230e-01 1.769904999999999973e+01 7.302960000000000207e+01 2.269300000000000182e+03
3.000000000000000236e-02 2.151005000000000000e-01 1.702210000000000178e+01 7.234745000000000914e+01 2.269150000000000091e+03
3.099999999999999978e-02 2.150654999999999928e-01 1.617620000000000147e+01 7.124405000000000143e+01 2.268925000000000182e+03
3.200000000000000067e-02 2.150139999999999829e-01 1.516830000000000034e+01 6.963054999999999950e+01 2.268600000000000364e+03
3.300000000000000155e-02 2.149494999999999878e-01 1.407385000000000019e+01 6.764410000000000878e+01 2.268180000000000291e+03
3.400000000000000244e-02 2.148795000000000011e-01 1.302009999999999934e+01 6.562519999999999243e+01 2.267724999999999909e+03
3.500000000000000333e-02 2.148174999999999946e-01 1.214949999999999974e+01 6.401635000000000275e+01 2.267310000000000400e+03
3.600000000000000422e-02 2.147760000000000224e-01 1.157719999999999949e+01 6.322155000000000058e+01 2.267019999999999982e+03
3.700000000000000511e-02 2.147654999999999981e-01 1.135865000000000080e+01 6.347965000000000657e+01 2.266925000000000182e+03
3.799999999999999906e-02 2.147890000000000077e-01 1.147595000000000098e+01 6.479354999999999620e+01 2.267055000000000291e+03
3.899999999999999994e-02 2.148434999999999928e-01 1.184560000000000102e+01 6.693215000000000714e+01 2.267400000000000091e+03
4.000000000000000083e-02 2.149194999999999856e-01 1.234135000000000026e+01 6.949450000000000216e+01 2.267885000000000218e+03
4.100000000000000172e-02 2.150029999999999997e-01 1.282390000000000008e+01 7.200919999999999277e+01 2.268429999999999836e+03
4.200000000000000261e-02 2.150790000000000202e-01 1.316840000000000011e+01 7.403679999999999950e+01 2.268934999999999945e+03
4.300000000000000350e-02 2.151354999999999795e-01 1.328425000000000011e+01 7.525010000000000332e+01 2.269320000000000164e+03
4.400000000000000439e-02 2.151640000000000219e-01 1.312314999999999898e+01 7.547615000000000407e+01 2.269519999999999982e+03
4.499999999999999833e-02 2.151600000000000179e-01 1.267769999999999975e+01 7.469839999999999236e+01 2.269510000000000218e+03
4.599999999999999922e-02 2.151240000000000097e-01 1.197145000000000081e+01 7.302465000000000828e+01 2.269284999999999854e+03
4.700000000000000011e-02 2.150590000000000002e-01 1.104579000000000022e+01 7.063790000000000191e+01 2.268869999999999891e+03
4.800000000000000100e-02 2.149709999999999954e-01 9.947860000000000369e+00 6.774410000000000309e+01 2.268300000000000182e+03
4.900000000000000189e-02 2.148665000000000158e-01 8.721899999999999764e+00 6.453239999999999554e+01 2.267614999999999782e+03
5.000000000000000278e-02 2.147505000000000108e-01 7.405670000000000641e+00 6.115269999999999584e+01 2.266849999999999909e+03
5.100000000000000366e-02 2.146274999999999988e-01 6.031130000000000102e+00 5.771399999999999864e+01 2.266034999999999854e+03
5.200000000000000455e-02 2.145009999999999972e-01 4.628110000000000390e+00 5.429480000000000217e+01 2.265199999999999818e+03
5.300000000000000544e-02 2.143740000000000090e-01 3.228444140000000129e+00 5.096184999999999832e+01 2.264364999999999782e+03
5.399999999999999939e-02 2.142499999999999960e-01 1.869345000000000034e+00 4.778699999999999903e+01 2.263539999999999964e+03
5.500000000000000028e-02 2.141325000000000034e-01 5.946750000000000647e-01 4.485885000000000389e+01 2.262755000000000109e+03
5.600000000000000117e-02 2.140255000000000074e-01 -5.462349999999999151e-01 4.228555000000000064e+01 2.262034999999999854e+03
5.700000000000000205e-02 2.139324999999999977e-01 -1.501807499999999962e+00 4.018840000000000146e+01 2.261409999999999854e+03
5.800000000000000294e-02 2.138585000000000069e-01 -2.222865000000000091e+00 3.868994999999999607e+01 2.260904999999999745e+03
5.900000000000000383e-02 2.138069999999999971e-01 -2.667469999999999786e+00 3.789865000000000350e+01 2.260550000000000182e+03
6.000000000000000472e-02 2.137830000000000008e-01 -2.805209999999999759e+00 3.789459999999999695e+01 2.260369999999999891e+03
6.099999999999999867e-02 2.137880000000000058e-01 -2.620079999999999742e+00 3.871900000000000119e+01 2.260375000000000000e+03
6.199999999999999956e-02 2.138224999999999987e-01 -2.111836999999999964e+00 4.036840000000000117e+01 2.260579999999999927e+03
6.300000000000000044e-02 2.138869999999999938e-01 -1.295627000000000084e+00 4.279549999999999699e+01 2.260984999999999673e+03
6.400000000000000133e-02 2.139785000000000159e-01 -2.003649999999999043e-01 4.591365000000000407e+01 2.261569999999999709e+03
6.500000000000000222e-02 2.140950000000000075e-01 1.133889999999999842e+00 4.960564999999999714e+01 2.262319999999999709e+03
6.600000000000000311e-02 2.142315000000000191e-01 2.659174499999999775e+00 5.373430000000000462e+01 2.263204999999999927e+03
6.700000000000000400e-02 2.143829999999999902e-01 4.323225499999999499e+00 5.815385000000000559e+01 2.264199999999999818e+03
6.800000000000000488e-02 2.145455000000000001e-01 6.073065000000000602e+00 6.272119999999999607e+01 2.265269999999999982e+03
6.900000000000000577e-02 2.147125000000000006e-01 7.858464999999999812e+00 6.730644999999999811e+01 2.266375000000000000e+03
7.000000000000000666e-02 2.148809999999999887e-01 9.634864999999999569e+00 7.180095000000000027e+01 2.267500000000000000e+03
7.100000000000000755e-02 2.150475000000000025e-01 1.136568000000000112e+01 7.612380000000000280e+01 2.268605000000000018e+03
7.200000000000000844e-02 2.152080000000000104e-01 1.302366500000000116e+01 8.022429999999999950e+01 2.269684999999999945e+03
7.300000000000000933e-02 2.153625000000000123e-01 1.459114999999999895e+01 8.408189999999999031e+01 2.270715000000000146e+03
7.399999999999999634e-02 2.155090000000000061e-01 1.605949999999999989e+01 8.770250000000000057e+01 2.271704999999999927e+03
7.499999999999999722e-02 2.156480000000000063e-01 1.742739999999999867e+01 9.111225000000000307e+01 2.272640000000000327e+03
7.599999999999999811e-02 2.157804999999999862e-01 1.869914999999999949e+01 9.434985000000000355e+01 2.273545000000000073e+03
7.699999999999999900e-02 2.159079999999999888e-01 1.988224999999999909e+01 9.745929999999999893e+01 2.274405000000000200e+03
7.799999999999999989e-02 2.160314999999999874e-01 2.098554999999999993e+01 1.004810500000000104e+02 2.275239999999999782e+03
7.900000000000000078e-02 2.161514999999999964e-01 2.201745000000000019e+01 1.034489499999999964e+02 2.276054999999999836e+03
8.000000000000000167e-02 2.162695000000000034e-01 2.298490000000000322e+01 1.063855000000000075e+02 2.276860000000000127e+03
8.100000000000000255e-02 2.163875000000000104e-01 2.389269999999999783e+01 1.093004999999999995e+02 2.277654999999999745e+03
8.200000000000000344e-02 2.165030000000000010e-01 2.474334999999999951e+01 1.121939999999999884e+02 2.278445000000000164e+03
8.300000000000000433e-02 2.166174999999999906e-01 2.553705000000000069e+01 1.150529999999999973e+02 2.279220000000000255e+03
8.400000000000000522e-02 2.167304999999999926e-01 2.627199999999999847e+01 1.178599999999999994e+02 2.279985000000000127e+03
8.500000000000000611e-02 2.168415000000000203e-01 2.694465000000000288e+01 1.205910000000000082e+02 2.280739999999999782e+03
8.600000000000000699e-02 2.169484999999999886e-01 2.754990000000000094e+01 1.232185000000000059e+02 2.281465000000000146e+03
8.700000000000000788e-02 2.170515000000000083e-01 2.808160000000000167e+01 1.257120000000000033e+02 2.282170000000000073e+03
8.800000000000000877e-02 2.171484999999999943e-01 2.853245000000000076e+01 1.280425000000000182e+02 2.282829999999999927e+03
8.899999999999999578e-02 2.172395000000000020e-01 2.889459999999999695e+01 1.301779999999999973e+02 2.283449999999999818e+03
8.999999999999999667e-02 2.173229999999999884e-01 2.915995000000000203e+01 1.320894999999999868e+02 2.284019999999999982e+03
9.099999999999999756e-02 2.173970000000000069e-01 2.932075000000000031e+01 1.337500000000000000e+02 2.284534999999999854e+03
9.199999999999999845e-02 2.174619999999999886e-01 2.937004999999999910e+01 1.351340000000000146e+02 2.284980000000000018e+03
9.299999999999999933e-02 2.175159999999999871e-01 2.930270000000000152e+01 1.362239999999999895e+02 2.285355000000000018e+03
9.400000000000000022e-02 2.175590000000000024e-01 2.911574999999999847e+01 1.370074999999999932e+02 2.285650000000000091e+03
9.500000000000000111e-02 2.175904999999999923e-01 2.880904999999999916e+01 1.374809999999999945e+02 2.285880000000000109e+03
9.600000000000000200e-02 2.176099999999999979e-01 2.838584999999999781e+01 1.376505000000000223e+02 2.286019999999999982e+03
9.700000000000000289e-02 2.176179999999999781e-01 2.785259999999999891e+01 1.375305000000000177e+02 2.286085000000000036e+03
9.800000000000000377e-02 2.176160000000000039e-01 2.721904999999999930e+01 1.371460000000000150e+02 2.286079999999999927e+03
9.900000000000000466e-02 2.176039999999999919e-01 2.649770000000000181e+01 1.365289999999999964e+02 2.286005000000000109e+03
1.000000000000000056e-01 2.175830000000000264e-01 2.570339999999999847e+01 1.357169999999999845e+02 2.285875000000000000e+03
1.010000000000000064e-01 2.175549999999999984e-01 2.485239999999999938e+01 1.347515000000000214e+02 2.285695000000000164e+03
1.020000000000000073e-01 2.175215000000000065e-01 2.396170000000000044e+01 1.336759999999999877e+02 2.285470000000000255e+03
1.030000000000000082e-01 2.174840000000000106e-01 2.304829999999999757e+01 1.325319999999999823e+02 2.285219999999999800e+03
1.040000000000000091e-01 2.174429999999999974e-01 2.212849999999999895e+01 1.313584999999999923e+02 2.284949999999999818e+03
1.050000000000000100e-01 2.174014999999999975e-01 2.121715000000000018e+01 1.301899999999999977e+02 2.284670000000000073e+03
1.059999999999999970e-01 2.173595000000000110e-01 2.032714999999999961e+01 1.290544999999999902e+02 2.284385000000000218e+03
1.069999999999999979e-01 2.173184999999999978e-01 1.946909999999999741e+01 1.279754999999999967e+02 2.284105000000000018e+03
1.079999999999999988e-01 2.172784999999999855e-01 1.865080000000000027e+01 1.269669999999999987e+02 2.283840000000000146e+03
1.089999999999999997e-01 2.172415000000000040e-01 1.787700000000000244e+01 1.260349999999999966e+02 2.283585000000000036e+03
1.100000000000000006e-01 2.172064999999999968e-01 1.714944999999999808e+01 1.251795000000000044e+02 2.283345000000000255e+03
1.110000000000000014e-01 2.171740000000000059e-01 1.646699999999999875e+01 1.243919999999999959e+02 2.283119999999999891e+03
1.120000000000000023e-01 2.171434999999999893e-01 1.582554999999999978e+01 1.236569999999999965e+02 2.282914999999999964e+03
1.130000000000000032e-01 2.171144999999999881e-01 1.521869999999999834e+01 1.229544999999999959e+02 2.282715000000000146e+03
1.140000000000000041e-01 2.170860000000000012e-01 1.463809999999999789e+01 1.222599999999999909e+02 2.282515000000000327e+03
1.150000000000000050e-01 2.170575000000000143e-01 1.407434999999999903e+01 1.215465000000000089e+02 2.282319999999999709e+03
1.160000000000000059e-01 2.170285000000000131e-01 1.351705000000000112e+01 1.207865000000000038e+02 2.282125000000000000e+03
1.170000000000000068e-01 2.169969999999999954e-01 1.295630000000000059e+01 1.199544999999999959e+02 2.281905000000000200e+03
1.180000000000000077e-01 2.169625000000000026e-01 1.238279999999999959e+01 1.190269999999999868e+02 2.281675000000000182e+03
1.190000000000000085e-01 2.169249999999999790e-01 1.178894999999999982e+01 1.179874999999999972e+02 2.281420000000000073e+03
1.200000000000000094e-01 2.168829999999999925e-01 1.116897499999999965e+01 1.168230000000000075e+02 2.281135000000000218e+03
1.209999999999999964e-01 2.168360000000000010e-01 1.051981499999999947e+01 1.155295000000000130e+02 2.280824999999999818e+03
1.219999999999999973e-01 2.167844999999999911e-01 9.840994999999999493e+00 1.141119999999999948e+02 2.280474999999999909e+03
1.229999999999999982e-01 2.167290000000000050e-01 9.135080000000000311e+00 1.125815000000000055e+02 2.280105000000000018e+03
1.239999999999999991e-01 2.166695000000000149e-01 8.407370000000000232e+00 1.109569999999999936e+02 2.279704999999999927e+03
1.250000000000000000e-01 2.166069999999999940e-01 7.665745000000000253e+00 1.092634999999999934e+02 2.279284999999999854e+03
1.260000000000000009e-01 2.165420000000000122e-01 6.920159999999999201e+00 1.075335000000000036e+02 2.278855000000000018e+03
1.270000000000000018e-01 2.164765000000000161e-01 6.182100000000000151e+00 1.058000000000000114e+02 2.278404999999999745e+03
1.280000000000000027e-01 2.164105000000000056e-01 5.463915000000000077e+00 1.040990000000000038e+02 2.277960000000000036e+03
1.290000000000000036e-01 2.163459999999999828e-01 4.778039999999999843e+00 1.024653999999999883e+02 2.277529999999999745e+03
1.300000000000000044e-01 2.162844999999999906e-01 4.136350000000000193e+00 1.009320000000000022e+02 2.277109999999999673e+03
1.310000000000000053e-01 2.162264999999999882e-01 3.549515000000000420e+00 9.952590000000000714e+01 2.276720000000000255e+03
1.320000000000000062e-01 2.161734999999999907e-01 3.026445000000000274e+00 9.827039999999999509e+01 2.276355000000000018e+03
1.330000000000000071e-01 2.161254999999999982e-01 2.573939999999999895e+00 9.718160000000000309e+01 2.276030000000000200e+03
1.340000000000000080e-01 2.160839999999999983e-01 2.196480000000000210e+00 9.626830000000001064e+01 2.275744999999999891e+03
1.350000000000000089e-01 2.160489999999999911e-01 1.896123500000000073e+00 9.553329999999999700e+01 2.275505000000000109e+03
1.360000000000000098e-01 2.160199999999999898e-01 1.672589500000000173e+00 9.497315000000000396e+01 2.275305000000000291e+03
1.370000000000000107e-01 2.159979999999999956e-01 1.523444000000000020e+00 9.457885000000000275e+01 2.275149999999999636e+03
1.380000000000000115e-01 2.159814999999999929e-01 1.444329999999999892e+00 9.433705000000000496e+01 2.275034999999999854e+03
1.390000000000000124e-01 2.159709999999999963e-01 1.429295000000000204e+00 9.423104999999999620e+01 2.274954999999999927e+03
1.400000000000000133e-01 2.159650000000000181e-01 1.471115000000000173e+00 9.424160000000000537e+01 2.274909999999999854e+03
1.410000000000000142e-01 2.159635000000000027e-01 1.561644999999999950e+00 9.434815000000000396e+01 2.274895000000000437e+03
1.420000000000000151e-01 2.159654999999999769e-01 1.692155000000000076e+00 9.452944999999999709e+01 2.274904999999999745e+03
1.430000000000000160e-01 2.159705000000000097e-01 1.853670000000000151e+00 9.476465000000000316e+01 2.274934999999999945e+03
1.440000000000000169e-01 2.159780000000000033e-01 2.037250000000000227e+00 9.503364999999999441e+01 2.274974999999999909e+03
1.450000000000000178e-01 2.159860000000000113e-01 2.234329999999999927e+00 9.531784999999999286e+01 2.275029999999999745e+03
1.459999999999999909e-01 2.159949999999999926e-01 2.436950000000000394e+00 9.560065000000000168e+01 2.275090000000000146e+03
1.469999999999999918e-01 2.160040000000000016e-01 2.638005000000000155e+00 9.586785000000000423e+01 2.275150000000000091e+03
1.479999999999999927e-01 2.160130000000000106e-01 2.831430000000000113e+00 9.610804999999999154e+01 2.275204999999999927e+03
1.489999999999999936e-01 2.160210000000000186e-01 3.012325000000000141e+00 9.631280000000000996e+01 2.275260000000000218e+03
1.499999999999999944e-01 2.160274999999999834e-01 3.177109999999999879e+00 9.647684999999999889e+01 2.275305000000000291e+03
1.509999999999999953e-01 2.160330000000000028e-01 3.323464999999999669e+00 9.659794999999999732e+01 2.275345000000000255e+03
1.519999999999999962e-01 2.160370000000000068e-01 3.450359999999999872e+00 9.667685000000000173e+01 2.275369999999999891e+03
1.529999999999999971e-01 2.160394999999999954e-01 3.557920000000000194e+00 9.671680000000000632e+01 2.275390000000000327e+03
1.539999999999999980e-01 2.160414999999999974e-01 3.647285000000000110e+00 9.672319999999999141e+01 2.275399999999999636e+03
1.549999999999999989e-01 2.160414999999999974e-01 3.720365000000000144e+00 9.670289999999999964e+01 2.275404999999999745e+03
1.559999999999999998e-01 2.160409999999999831e-01 3.779630000000000045e+00 9.666364999999998986e+01 2.275404999999999745e+03
1.570000000000000007e-01 2.160400000000000098e-01 3.827824999999999811e+00 9.661314999999999031e+01 2.275399999999999636e+03
1.580000000000000016e-01 2.160384999999999944e-01 3.867700000000000138e+00 9.655869999999998754e+01 2.275389999999999873e+03
1.590000000000000024e-01 2.160369999999999790e-01 3.901775000000000215e+00 9.650624999999999432e+01 2.275380000000000109e+03
