# t [s], A [cm^2], U [cm/s], P [cPa], c [cm/s]
1.000000000000000021e-03 5.838404999999999845e-01 2.092500000000004079e-03 1.020985000000000014e+02 1.433454999999999927e+03
2.000000000000000042e-03 5.838349999999999929e-01 5.704884999999999817e-03 1.020805000000000007e+02 1.433450000000000045e+03
3.000000000000000062e-03 5.839004999999999335e-01 1.191339000000000148e-01 1.021844999999999999e+02 1.433474999999999909e+03
4.000000000000000083e-03 5.839455000000000062e-01 2.014158999999999811e-01 1.022785000000000082e+02 1.433500000000000000e+03
5.000000000000000104e-03 5.839130000000000154e-01 1.548533999999999744e-01 1.022014999999999958e+02 1.433490000000000009e+03
6.000000000000000125e-03 5.838444999999999885e-01 4.105599999999998140e-02 1.019729999999999990e+02 1.433445000000000164e+03
7.000000000000000146e-03 5.837714999999999987e-01 -8.940700000000001424e-02 1.016479999999999961e+02 1.433369999999999891e+03
8.000000000000000167e-03 5.836505000000000720e-01 -3.098999999999999533e-01 1.011544999999999987e+02 1.433259999999999991e+03
9.000000000000001055e-03 5.834544999999999870e-01 -6.689049999999998608e-01 1.004050500000000028e+02 1.433090000000000146e+03
1.000000000000000194e-02 5.831834999999999658e-01 -1.155139999999999834e+00 9.936914999999999054e+01 1.432845000000000027e+03
1.099999999999999936e-02 5.828269999999999840e-01 -1.768454999999999888e+00 9.801044999999999163e+01 1.432519999999999982e+03
1.200000000000000025e-02 5.823709999999999720e-01 -2.512319999999999887e+00 9.628969999999999629e+01 1.432099999999999909e+03
1.300000000000000114e-02 5.818299999999999583e-01 -3.335190000000000321e+00 9.423059999999999548e+01 1.431575000000000045e+03
1.400000000000000203e-02 5.812580000000000524e-01 -4.110494999999999344e+00 9.196490000000000009e+01 1.430990000000000009e+03
1.499999999999999944e-02 5.807269999999999932e-01 -4.681329999999999991e+00 8.970025000000001114e+01 1.430375000000000000e+03
1.600000000000000033e-02 5.802905000000000424e-01 -4.926910999999999596e+00 8.764170000000000016e+01 1.429789999999999964e+03
1.700000000000000122e-02 5.799649999999999528e-01 -4.804246000000000016e+00 8.592005000000000337e+01 1.429259999999999991e+03
1.800000000000000211e-02 5.797304999999999264e-01 -4.351729999999999876e+00 8.455965000000000487e+01 1.428809999999999945e+03
1.900000000000000300e-02 5.795425000000000715e-01 -3.666017000000000081e+00 8.348644999999999072e+01 1.428414999999999964e+03
2.000000000000000042e-02 5.793519999999999781e-01 -2.865869500000000070e+00 8.256364999999999554e+01 1.428065000000000055e+03
2.100000000000000130e-02 5.791169999999999929e-01 -2.055419499999999733e+00 8.164119999999999777e+01 1.427720000000000027e+03
2.200000000000000219e-02 5.788174999999999848e-01 -1.297724999999999795e+00 8.060235000000000127e+01 1.427360000000000127e+03
2.299999999999999961e-02 5.784555000000000113e-01 -6.070400000000002461e-01 7.939160000000001105e+01 1.426960000000000036e+03
2.400000000000000050e-02 5.780499999999999527e-01 3.893499999999994188e-02 7.801579999999999870e+01 1.426525000000000091e+03
2.500000000000000139e-02 5.776244999999999852e-01 6.747099999999996989e-01 7.652154999999999063e+01 1.426065000000000055e+03
2.600000000000000228e-02 5.771954999999999725e-01 1.322255000000000180e+00 7.496305000000000973e+01 1.425585000000000036e+03
2.700000000000000316e-02 5.767660000000000009e-01 1.975105000000000111e+00 7.337350000000000705e+01 1.425090000000000146e+03
2.800000000000000058e-02 5.763260000000000050e-01 2.594475000000000087e+00 7.174805000000000632e+01 1.424585000000000036e+03
2.900000000000000147e-02 5.758535000000000181e-01 3.116035000000000110e+00 7.004194999999999993e+01 1.424059999999999945e+03
3.000000000000000236e-02 5.753220000000000001e-01 3.463915000000000521e+00 6.818070000000000164e+01 1.423494999999999891e+03
3.099999999999999978e-02 5.747065000000000090e-01 3.567864999999999842e+00 6.608010000000000161e+01 1.422875000000000000e+03
3.200000000000000067e-02 5.739919999999999467e-01 3.379594999999999683e+00 6.366960000000000264e+01 1.422184999999999945e+03
3.300000000000000155e-02 5.731764999999999777e-01 2.884829999999999561e+00 6.091405000000000314e+01 1.421410000000000082e+03
3.400000000000000244e-02 5.722745000000000193e-01 2.108295000000000030e+00 5.782874999999999943e+01 1.420554999999999836e+03
3.500000000000000333e-02 5.713150000000000173e-01 1.110650000000000581e+00 5.448404999999999632e+01 1.419634999999999991e+03
3.600000000000000422e-02 5.703375000000000528e-01 -2.125000000000021316e-02 5.099864999999999782e+01 1.418674999999999955e+03
3.700000000000000511e-02 5.693880000000000052e-01 -1.187100000000000044e+00 4.752499999999999858e+01 1.417700000000000045e+03
3.799999999999999906e-02 5.685095000000000010e-01 -2.286935000000000606e+00 4.423019999999999641e+01 1.416759999999999991e+03
3.899999999999999994e-02 5.677419999999999689e-01 -3.231469999999999843e+00 4.127694999999999936e+01 1.415889999999999873e+03
4.000000000000000083e-02 5.671159999999999535e-01 -3.949199999999999822e+00 3.880780000000000030e+01 1.415130000000000109e+03
4.100000000000000172e-02 5.666550000000000198e-01 -4.389334999999999987e+00 3.693424999999999869e+01 1.414514999999999873e+03
4.200000000000000261e-02 5.663709999999999578e-01 -4.521044999999999980e+00 3.573135000000000616e+01 1.414070000000000164e+03
4.300000000000000350e-02 5.662690000000000223e-01 -4.330824999999999925e+00 3.523784999999999457e+01 1.413809999999999945e+03
4.400000000000000439e-02 5.663465000000000860e-01 -3.818444999999999645e+00 3.545974999999999966e+01 1.413734999999999900e+03
4.499999999999999833e-02 5.665970000000000173e-01 -2.992985000000000007e+00 3.637669999999999959e+01 1.413860000000000127e+03
4.599999999999999922e-02 5.670094999999999441e-01 -1.869785000000000252e+00 3.794845000000000113e+01 1.414170000000000073e+03
4.700000000000000011e-02 5.675704999999999778e-01 -4.686449999999999783e-01 4.012139999999999418e+01 1.414654999999999973e+03
4.800000000000000100e-02 5.682650000000000201e-01 1.186640000000000139e+00 4.283254999999999768e+01 1.415299999999999955e+03
4.900000000000000189e-02 5.690770000000000550e-01 3.067860000000000031e+00 4.601265000000000072e+01 1.416090000000000146e+03
5.000000000000000278e-02 5.699864999999999515e-01 5.141754999999999853e+00 4.958729999999999905e+01 1.417005000000000109e+03
5.100000000000000366e-02 5.709744999999999404e-01 7.369354999999998768e+00 5.347775000000000034e+01 1.418029999999999973e+03
5.200000000000000455e-02 5.720195000000000141e-01 9.706550000000000011e+00 5.760144999999999982e+01 1.419134999999999991e+03
5.300000000000000544e-02 5.730994999999999839e-01 1.210532889999999995e+01 6.187360000000000326e+01 1.420299999999999955e+03
5.399999999999999939e-02 5.741920000000000357e-01 1.451542999999999850e+01 6.620914999999999395e+01 1.421500000000000000e+03
5.500000000000000028e-02 5.752760000000000096e-01 1.688721999999999923e+01 7.052584999999999127e+01 1.422719999999999800e+03
5.600000000000000117e-02 5.763325000000000253e-01 1.917409500000000122e+01 7.474739999999999895e+01 1.423934999999999945e+03
5.700000000000000205e-02 5.773454999999999560e-01 2.133494999999999919e+01 7.880709999999999127e+01 1.425119999999999891e+03
5.800000000000000294e-02 5.783024999999999416e-01 2.333624999999999972e+01 8.265059999999999718e+01 1.426259999999999991e+03
5.900000000000000383e-02 5.791950000000000154e-01 2.515315000000000367e+01 8.623799999999999955e+01 1.427349999999999909e+03
6.000000000000000472e-02 5.800189999999999513e-01 2.677009999999999934e+01 8.954574999999999818e+01 1.428369999999999891e+03
6.099999999999999867e-02 5.807725000000000248e-01 2.818049999999999855e+01 9.256450000000000955e+01 1.429324999999999818e+03
6.199999999999999956e-02 5.814605000000000468e-01 2.938635000000000019e+01 9.530185000000000173e+01 1.430200000000000045e+03
6.300000000000000044e-02 5.820880000000000498e-01 3.039675000000000082e+01 9.777660000000000196e+01 1.431009999999999991e+03
6.400000000000000133e-02 5.826635000000000009e-01 3.122684999999999889e+01 1.000186000000000064e+02 1.431755000000000109e+03
6.500000000000000222e-02 5.831960000000000477e-01 3.189634999999999820e+01 1.020658499999999975e+02 1.432440000000000055e+03
6.600000000000000311e-02 5.836969999999999104e-01 3.242830000000000013e+01 1.039610000000000127e+02 1.433085000000000036e+03
6.700000000000000400e-02 5.841769999999999463e-01 3.284775000000000489e+01 1.057485000000000070e+02 1.433690000000000055e+03
6.800000000000000488e-02 5.846470000000000278e-01 3.318084999999999951e+01 1.074739999999999895e+02 1.434269999999999982e+03
6.900000000000000577e-02 5.851174999999999571e-01 3.345344999999999658e+01 1.091809999999999974e+02 1.434844999999999800e+03
7.000000000000000666e-02 5.855969999999999231e-01 3.369069999999999965e+01 1.109085000000000036e+02 1.435404999999999973e+03
7.100000000000000755e-02 5.860944999999999627e-01 3.391535000000000366e+01 1.126905000000000001e+02 1.435980000000000018e+03
7.200000000000000844e-02 5.866160000000000263e-01 3.414714999999999634e+01 1.145540000000000020e+02 1.436569999999999936e+03
7.300000000000000933e-02 5.871650000000000480e-01 3.440174999999999983e+01 1.165165000000000077e+02 1.437180000000000064e+03
7.399999999999999634e-02 5.877424999999999455e-01 3.468989999999999441e+01 1.185885000000000105e+02 1.437820000000000164e+03
7.499999999999999722e-02 5.883479999999999821e-01 3.501684999999999803e+01 1.207690000000000055e+02 1.438485000000000127e+03
7.599999999999999811e-02 5.889784999999999604e-01 3.538224999999999909e+01 1.230465000000000089e+02 1.439174999999999955e+03
7.699999999999999900e-02 5.896264999999999423e-01 3.578000000000000114e+01 1.254020000000000010e+02 1.439880000000000109e+03
7.799999999999999989e-02 5.902844999999999898e-01 3.619899999999999807e+01 1.278054999999999950e+02 1.440605000000000018e+03
7.900000000000000078e-02 5.909415000000000084e-01 3.662385000000000446e+01 1.302195000000000107e+02 1.441335000000000036e+03
8.000000000000000167e-02 5.915885000000000726e-01 3.703575000000000017e+01 1.326039999999999850e+02 1.442055000000000064e+03
8.100000000000000255e-02 5.922115000000000018e-01 3.741414999999999935e+01 1.349139999999999873e+02 1.442764999999999873e+03
8.200000000000000344e-02 5.927994999999999237e-01 3.773765000000000214e+01 1.371034999999999968e+02 1.443440000000000055e+03
8.300000000000000433e-02 5.933420000000000361e-01 3.798550000000000182e+01 1.391304999999999836e+02 1.444075000000000045e+03
8.400000000000000522e-02 5.938295000000000101e-01 3.813850000000000051e+01 1.409535000000000196e+02 1.444664999999999964e+03
8.500000000000000611e-02 5.942530000000000312e-01 3.818030000000000257e+01 1.425400000000000205e+02 1.445184999999999945e+03
8.600000000000000699e-02 5.946065000000000378e-01 3.809799999999999898e+01 1.438644999999999925e+02 1.445635000000000218e+03
8.700000000000000788e-02 5.948870000000000546e-01 3.788269999999999982e+01 1.449069999999999823e+02 1.446009999999999991e+03
8.800000000000000877e-02 5.950919999999999543e-01 3.752969999999999828e+01 1.456610000000000014e+02 1.446300000000000182e+03
8.899999999999999578e-02 5.952220000000000288e-01 3.703900000000000148e+01 1.461254999999999882e+02 1.446509999999999991e+03
8.999999999999999667e-02 5.952804999999999902e-01 3.641470000000000340e+01 1.463100000000000023e+02 1.446644999999999982e+03
9.099999999999999756e-02 5.952714999999999534e-01 3.566514999999999702e+01 1.462309999999999945e+02 1.446690000000000055e+03
9.199999999999999845e-02 5.952020000000000088e-01 3.480225000000000080e+01 1.459134999999999991e+02 1.446670000000000073e+03
9.299999999999999933e-02 5.950800000000000534e-01 3.384114999999999895e+01 1.453870000000000005e+02 1.446579999999999927e+03
9.400000000000000022e-02 5.949145000000000127e-01 3.279934999999999690e+01 1.446864999999999952e+02 1.446434999999999945e+03
9.500000000000000111e-02 5.947139999999999649e-01 3.169620000000000104e+01 1.438489999999999895e+02 1.446244999999999891e+03
9.600000000000000200e-02 5.944899999999999629e-01 3.055210000000000292e+01 1.429145000000000039e+02 1.446014999999999873e+03
9.700000000000000289e-02 5.942509999999999737e-01 2.938780000000000214e+01 1.419215000000000089e+02 1.445764999999999873e+03
9.800000000000000377e-02 5.940075000000000216e-01 2.822364999999999924e+01 1.409080000000000155e+02 1.445494999999999891e+03
9.900000000000000466e-02 5.937685000000000324e-01 2.707869999999999777e+01 1.399099999999999966e+02 1.445220000000000027e+03
1.000000000000000056e-01 5.935409999999999853e-01 2.597010000000000218e+01 1.389585000000000150e+02 1.444944999999999936e+03
1.010000000000000064e-01 5.933319999999999705e-01 2.491284999999999883e+01 1.380794999999999959e+02 1.444690000000000055e+03
1.020000000000000073e-01 5.931459999999999511e-01 2.391879999999999740e+01 1.372950000000000159e+02 1.444454999999999927e+03
1.030000000000000082e-01 5.929879999999999596e-01 2.299674999999999869e+01 1.366200000000000045e+02 1.444240000000000009e+03
1.040000000000000091e-01 5.928584999999999550e-01 2.215189999999999770e+01 1.360639999999999930e+02 1.444054999999999836e+03
1.050000000000000100e-01 5.927584999999999660e-01 2.138609999999999900e+01 1.356290000000000191e+02 1.443909999999999854e+03
1.059999999999999970e-01 5.926869999999999639e-01 2.069780000000000086e+01 1.353114999999999952e+02 1.443789999999999964e+03
1.069999999999999979e-01 5.926409999999999734e-01 2.008204999999999885e+01 1.351030000000000086e+02 1.443695000000000164e+03
1.079999999999999988e-01 5.926169999999999494e-01 1.953139999999999787e+01 1.349890000000000043e+02 1.443635000000000218e+03
1.089999999999999997e-01 5.926104999999999290e-01 1.903580000000000183e+01 1.349524999999999864e+02 1.443590000000000146e+03
1.100000000000000006e-01 5.926154999999999617e-01 1.858344999999999914e+01 1.349714999999999918e+02 1.443574999999999818e+03
1.110000000000000014e-01 5.926264999999999450e-01 1.816134999999999877e+01 1.350230000000000246e+02 1.443565000000000055e+03
1.120000000000000023e-01 5.926379999999999981e-01 1.775580000000000069e+01 1.350840000000000032e+02 1.443559999999999945e+03
1.130000000000000032e-01 5.926434999999999897e-01 1.735320000000000107e+01 1.351310000000000002e+02 1.443559999999999945e+03
1.140000000000000041e-01 5.926369999999999694e-01 1.694040000000000035e+01 1.351410000000000196e+02 1.443549999999999955e+03
1.150000000000000050e-01 5.926150000000000029e-01 1.650544999999999973e+01 1.350939999999999941e+02 1.443534999999999854e+03
1.160000000000000059e-01 5.925724999999999465e-01 1.603815000000000168e+01 1.349735000000000014e+02 1.443494999999999891e+03
1.170000000000000068e-01 5.925070000000000059e-01 1.553014999999999901e+01 1.347660000000000196e+02 1.443440000000000055e+03
1.180000000000000077e-01 5.924165000000000125e-01 1.497560000000000002e+01 1.344625000000000057e+02 1.443355000000000018e+03
1.190000000000000085e-01 5.923000000000000487e-01 1.437105000000000032e+01 1.340579999999999927e+02 1.443250000000000000e+03
1.200000000000000094e-01 5.921585000000000321e-01 1.371590999999999916e+01 1.335525000000000091e+02 1.443114999999999782e+03
1.209999999999999964e-01 5.919925000000000326e-01 1.301192999999999955e+01 1.329519999999999982e+02 1.442954999999999927e+03
1.219999999999999973e-01 5.918054999999999843e-01 1.226371500000000125e+01 1.322640000000000100e+02 1.442769999999999982e+03
1.229999999999999982e-01 5.916009999999999325e-01 1.147792499999999905e+01 1.315014999999999930e+02 1.442559999999999945e+03
1.239999999999999991e-01 5.913829999999999920e-01 1.066348999999999947e+01 1.306804999999999950e+02 1.442335000000000036e+03
1.250000000000000000e-01 5.911570000000000435e-01 9.830899999999999750e+00 1.298205000000000098e+02 1.442090000000000146e+03
1.260000000000000009e-01 5.909280000000000088e-01 8.991825000000000401e+00 1.289410000000000025e+02 1.441845000000000027e+03
1.270000000000000018e-01 5.907009999999999206e-01 8.158770000000000522e+00 1.280629999999999882e+02 1.441595000000000027e+03
1.280000000000000027e-01 5.904819999999999514e-01 7.344554999999999723e+00 1.272079999999999984e+02 1.441345000000000027e+03
1.290000000000000036e-01 5.902764999999999818e-01 6.561584999999999113e+00 1.263979999999999961e+02 1.441105000000000018e+03
1.300000000000000044e-01 5.900885000000000158e-01 5.821705000000000574e+00 1.256504999999999939e+02 1.440880000000000109e+03
1.310000000000000053e-01 5.899225000000000163e-01 5.135425000000000573e+00 1.249830000000000041e+02 1.440674999999999955e+03
1.320000000000000062e-01 5.897820000000000285e-01 4.511700000000000266e+00 1.244085000000000036e+02 1.440490000000000009e+03
1.330000000000000071e-01 5.896684999999999288e-01 3.957535000000000025e+00 1.239385000000000048e+02 1.440335000000000036e+03
1.340000000000000080e-01 5.895839999999999970e-01 3.477789999999999715e+00 1.235784999999999911e+02 1.440200000000000045e+03
1.350000000000000089e-01 5.895280000000000520e-01 3.075015000000000054e+00 1.233310000000000031e+02 1.440105000000000018e+03
1.360000000000000098e-01 5.895010000000000527e-01 2.749439999999999884e+00 1.231949999999999932e+02 1.440039999999999964e+03
1.370000000000000107e-01 5.895000000000000240e-01 2.499019999999999797e+00 1.231649999999999920e+02 1.440005000000000109e+03
1.380000000000000115e-01 5.895235000000000891e-01 2.319625000000000270e+00 1.232315000000000111e+02 1.439990000000000009e+03
1.390000000000000124e-01 5.895679999999999810e-01 2.205224999999999991e+00 1.233834999999999980e+02 1.440009999999999991e+03
1.400000000000000133e-01 5.896295000000000286e-01 2.148229999999999862e+00 1.236064999999999969e+02 1.440049999999999955e+03
1.410000000000000142e-01 5.897029999999999772e-01 2.139804999999999957e+00 1.238845000000000027e+02 1.440105000000000018e+03
1.420000000000000151e-01 5.897860000000000325e-01 2.170230000000000103e+00 1.242000000000000028e+02 1.440174999999999955e+03
1.430000000000000160e-01 5.898719999999999519e-01 2.229299999999999837e+00 1.245360000000000014e+02 1.440259999999999991e+03
1.440000000000000169e-01 5.899575000000000236e-01 2.306675000000000253e+00 1.248750000000000000e+02 1.440345000000000027e+03
1.450000000000000178e-01 5.900389999999999802e-01 2.392255000000000020e+00 1.252000000000000028e+02 1.440430000000000064e+03
1.459999999999999909e-01 5.901115000000000110e-01 2.476474999999999760e+00 1.254964999999999975e+02 1.440509999999999991e+03
1.469999999999999918e-01 5.901724999999999888e-01 2.550614999999999633e+00 1.257510000000000048e+02 1.440579999999999927e+03
1.479999999999999927e-01 5.902195000000000080e-01 2.607020000000000337e+00 1.259515000000000100e+02 1.440639999999999873e+03
1.489999999999999936e-01 5.902494999999999825e-01 2.639285000000000103e+00 1.260900000000000034e+02 1.440679999999999836e+03
1.499999999999999944e-01 5.902625000000000233e-01 2.642375000000000362e+00 1.261604999999999990e+02 1.440710000000000036e+03
1.509999999999999953e-01 5.902564999999999618e-01 2.612715000000000121e+00 1.261590000000000060e+02 1.440715000000000146e+03
1.519999999999999962e-01 5.902325000000000488e-01 2.548189999999999955e+00 1.260840000000000032e+02 1.440704999999999927e+03
1.529999999999999971e-01 5.901899999999999924e-01 2.448135000000000172e+00 1.259369999999999976e+02 1.440674999999999955e+03
1.539999999999999980e-01 5.901305000000000023e-01 2.313254999999999839e+00 1.257220000000000084e+02 1.440625000000000000e+03
1.549999999999999989e-01 5.900555000000000661e-01 2.145511500000000016e+00 1.254424999999999955e+02 1.440559999999999945e+03
1.559999999999999998e-01 5.899665000000000603e-01 1.947962499999999819e+00 1.251069999999999993e+02 1.440474999999999909e+03
1.570000000000000007e-01 5.898660000000000014e-01 1.724628000000000050e+00 1.247229999999999990e+02 1.440380000000000109e+03
1.580000000000000016e-01 5.897559999999999469e-01 1.480251500000000053e+00 1.242990000000000066e+02 1.440259999999999991e+03
1.590000000000000024e-01 5.896390000000000242e-01 1.220138500000000015e+00 1.238455000000000013e+02 1.440139999999999873e+03
