# t [s], A [cm^2], U [cm/s], P [cPa], c [cm/s]
1.000000000000000021e-03 1.251120000000000010e-01 5.616186499999999970e-01 1.023038499999999971e+02 1.920299999999999955e+03
2.000000000000000042e-03 1.250695000000000001e-01 2.499378999999999795e+00 9.824715000000000487e+01 1.919805000000000064e+03
3.000000000000000062e-03 1.249549999999999966e-01 4.781287999999999982e+00 9.302349999999999852e+01 1.918539999999999964e+03
4.000000000000000083e-03 1.248025000000000106e-01 7.291565000000000296e+00 8.776404999999999745e+01 1.916865000000000009e+03
5.000000000000000104e-03 1.246400000000000008e-01 9.924970000000001846e+00 8.336634999999999707e+01 1.915105000000000018e+03
6.000000000000000125e-03 1.244849999999999984e-01 1.245107000000000141e+01 7.990125000000000455e+01 1.913434999999999945e+03
7.000000000000000146e-03 1.243394999999999917e-01 1.465770499999999998e+01 7.696109999999998763e+01 1.911900000000000091e+03
8.000000000000000167e-03 1.242069999999999980e-01 1.650975000000000037e+01 7.433695000000000164e+01 1.910519999999999982e+03
9.000000000000001055e-03 1.240904999999999925e-01 1.806695000000000206e+01 7.211334999999999695e+01 1.909324999999999818e+03
1.000000000000000194e-02 1.239920000000000050e-01 1.935904999999999987e+01 7.032224999999999682e+01 1.908329999999999927e+03
1.099999999999999936e-02 1.239105000000000067e-01 2.040039999999999765e+01 6.889650000000000318e+01 1.907509999999999991e+03
1.200000000000000025e-02 1.238444999999999963e-01 2.121470000000000056e+01 6.777570000000000050e+01 1.906855000000000018e+03
1.300000000000000114e-02 1.237914999999999988e-01 2.181844999999999857e+01 6.688909999999999911e+01 1.906340000000000146e+03
1.400000000000000203e-02 1.237484999999999974e-01 2.223190000000000310e+01 6.615359999999999729e+01 1.905929999999999836e+03
1.499999999999999944e-02 1.237140000000000045e-01 2.252539999999999765e+01 6.559305000000000518e+01 1.905609999999999900e+03
1.600000000000000033e-02 1.236919999999999964e-01 2.283415000000000106e+01 6.543439999999999657e+01 1.905404999999999973e+03
1.700000000000000122e-02 1.236875000000000058e-01 2.330489999999999995e+01 6.601964999999999861e+01 1.905380000000000109e+03
1.800000000000000211e-02 1.237074999999999980e-01 2.401364999999999839e+01 6.757554999999999268e+01 1.905595000000000027e+03
1.900000000000000300e-02 1.237530000000000019e-01 2.491494999999999749e+01 7.001704999999999757e+01 1.906059999999999945e+03
2.000000000000000042e-02 1.238180000000000114e-01 2.585379999999999967e+01 7.291585000000000605e+01 1.906730000000000018e+03
2.100000000000000130e-02 1.238915000000000016e-01 2.662635000000000218e+01 7.564095000000000368e+01 1.907480000000000018e+03
2.200000000000000219e-02 1.239579999999999987e-01 2.705584999999999951e+01 7.758525000000000205e+01 1.908180000000000064e+03
2.299999999999999961e-02 1.240055000000000046e-01 2.705199999999999960e+01 7.837215000000000487e+01 1.908690000000000055e+03
2.400000000000000050e-02 1.240274999999999989e-01 2.663315000000000055e+01 7.796260000000000900e+01 1.908945000000000164e+03
2.500000000000000139e-02 1.240239999999999954e-01 2.590765000000000029e+01 7.663309999999999889e+01 1.908929999999999836e+03
2.600000000000000228e-02 1.240014999999999867e-01 2.502684999999999960e+01 7.484510000000000218e+01 1.908720000000000027e+03
2.700000000000000316e-02 1.239679999999999949e-01 2.413125000000000142e+01 7.307030000000000314e+01 1.908394999999999982e+03
2.800000000000000058e-02 1.239335000000000020e-01 2.331034999999999968e+01 7.164085000000000036e+01 1.908045000000000073e+03
2.900000000000000147e-02 1.239034999999999997e-01 2.258800000000000097e+01 7.067529999999999291e+01 1.907744999999999891e+03
3.000000000000000236e-02 1.238805000000000045e-01 2.193350000000000222e+01 7.009074999999999989e+01 1.907505000000000109e+03
3.099999999999999978e-02 1.238625000000000004e-01 2.128779999999999717e+01 6.967929999999999779e+01 1.907325000000000045e+03
3.200000000000000067e-02 1.238460000000000116e-01 2.059560000000000102e+01 6.921174999999999500e+01 1.907154999999999973e+03
3.300000000000000155e-02 1.238275000000000070e-01 1.983125000000000071e+01 6.853229999999999222e+01 1.906964999999999918e+03
3.400000000000000244e-02 1.238035000000000108e-01 1.901245000000000118e+01 6.761764999999999759e+01 1.906735000000000127e+03
3.500000000000000333e-02 1.237769999999999981e-01 1.819910000000000139e+01 6.658740000000000236e+01 1.906454999999999927e+03
3.600000000000000422e-02 1.237489999999999979e-01 1.747790000000000177e+01 6.566750000000000398e+01 1.906179999999999836e+03
3.700000000000000511e-02 1.237264999999999893e-01 1.693800000000000239e+01 6.511945000000000050e+01 1.905944999999999936e+03
3.799999999999999906e-02 1.237144999999999911e-01 1.664564999999999984e+01 6.515905000000000769e+01 1.905809999999999945e+03
3.899999999999999994e-02 1.237175000000000080e-01 1.662449999999999761e+01 6.588880000000000337e+01 1.905835000000000036e+03
4.000000000000000083e-02 1.237375000000000003e-01 1.684770000000000323e+01 6.726285000000000025e+01 1.906019999999999982e+03
4.100000000000000172e-02 1.237725000000000075e-01 1.724109999999999943e+01 6.909090000000000487e+01 1.906365000000000009e+03
4.200000000000000261e-02 1.238180000000000114e-01 1.769769999999999754e+01 7.107595000000000596e+01 1.906815000000000055e+03
4.300000000000000350e-02 1.238664999999999905e-01 1.809629999999999939e+01 7.287324999999999875e+01 1.907309999999999945e+03
4.400000000000000439e-02 1.239104999999999929e-01 1.832134999999999891e+01 7.415240000000000009e+01 1.907755000000000109e+03
4.499999999999999833e-02 1.239409999999999956e-01 1.827915000000000134e+01 7.465045000000000641e+01 1.908069999999999936e+03
4.599999999999999922e-02 1.239530000000000076e-01 1.790789999999999793e+01 7.420599999999998886e+01 1.908194999999999936e+03
4.700000000000000011e-02 1.239409999999999956e-01 1.718155000000000143e+01 7.277000000000001023e+01 1.908085000000000036e+03
4.800000000000000100e-02 1.239034999999999997e-01 1.610790000000000077e+01 7.039799999999999613e+01 1.907715000000000146e+03
4.900000000000000189e-02 1.238420000000000076e-01 1.472250000000000014e+01 6.722659999999999059e+01 1.907095000000000027e+03
5.000000000000000278e-02 1.237575000000000064e-01 1.308047499999999985e+01 6.344384999999999764e+01 1.906250000000000000e+03
5.100000000000000366e-02 1.236559999999999881e-01 1.124896999999999991e+01 5.926035000000000252e+01 1.905224999999999909e+03
5.200000000000000455e-02 1.235414999999999985e-01 9.300169999999999604e+00 5.488514999999999588e+01 1.904059999999999945e+03
5.300000000000000544e-02 1.234190000000000009e-01 7.306894999999999030e+00 5.051160000000000139e+01 1.902820000000000164e+03
5.399999999999999939e-02 1.232939999999999869e-01 5.339947500000000069e+00 4.631024999999999636e+01 1.901549999999999955e+03
5.500000000000000028e-02 1.231720000000000037e-01 3.467115000000000169e+00 4.242934999999999945e+01 1.900304999999999836e+03
5.600000000000000117e-02 1.230564999999999992e-01 1.752724999999999866e+00 3.899804999999999922e+01 1.899119999999999891e+03
5.700000000000000205e-02 1.229510000000000047e-01 2.573100000000001497e-01 3.613070000000000448e+01 1.898045000000000073e+03
5.800000000000000294e-02 1.228609999999999980e-01 -9.631700000000000816e-01 3.392934999999999945e+01 1.897115000000000009e+03
5.900000000000000383e-02 1.227880000000000082e-01 -1.858904500000000182e+00 3.248335000000000150e+01 1.896365000000000009e+03
6.000000000000000472e-02 1.227364999999999984e-01 -2.388389999999999791e+00 3.186639999999999873e+01 1.895825000000000045e+03
6.099999999999999867e-02 1.227079999999999976e-01 -2.520954999999999835e+00 3.213054999999999950e+01 1.895509999999999991e+03
6.199999999999999956e-02 1.227044999999999941e-01 -2.239199999999999857e+00 3.330114999999999981e+01 1.895454999999999927e+03
6.300000000000000044e-02 1.227270000000000028e-01 -1.540784999999999849e+00 3.537089999999999890e+01 1.895659999999999854e+03
6.400000000000000133e-02 1.227759999999999962e-01 -4.391949999999998910e-01 3.829769999999999897e+01 1.896130000000000109e+03
6.500000000000000222e-02 1.228500000000000009e-01 1.036639999999999784e+00 4.200504999999999711e+01 1.896855000000000018e+03
6.600000000000000311e-02 1.229465000000000002e-01 2.844111499999999904e+00 4.638569999999999993e+01 1.897824999999999818e+03
6.700000000000000400e-02 1.230644999999999933e-01 4.929543999999999926e+00 5.130904999999999916e+01 1.899000000000000000e+03
6.800000000000000488e-02 1.232000000000000040e-01 7.231580000000000119e+00 5.662985000000000468e+01 1.900365000000000009e+03
6.900000000000000577e-02 1.233490000000000003e-01 9.684879999999999711e+00 6.219750000000000512e+01 1.901869999999999891e+03
7.000000000000000666e-02 1.235074999999999923e-01 1.222322500000000112e+01 6.786529999999999063e+01 1.903480000000000018e+03
7.100000000000000755e-02 1.236714999999999898e-01 1.478297000000000061e+01 7.349774999999999636e+01 1.905144999999999982e+03
7.200000000000000844e-02 1.238370000000000026e-01 1.730535000000000068e+01 7.897640000000001237e+01 1.906839999999999918e+03
7.300000000000000933e-02 1.239999999999999991e-01 1.973855000000000004e+01 8.420359999999999445e+01 1.908519999999999982e+03
7.399999999999999634e-02 1.241589999999999916e-01 2.203904999999999959e+01 8.910464999999999236e+01 1.910154999999999973e+03
7.499999999999999722e-02 1.243105000000000043e-01 2.417320000000000135e+01 9.362909999999999400e+01 1.911724999999999909e+03
7.599999999999999811e-02 1.244529999999999942e-01 2.611759999999999948e+01 9.775069999999999482e+01 1.913200000000000045e+03
7.699999999999999900e-02 1.245850000000000013e-01 2.785954999999999870e+01 1.014671000000000021e+02 1.914579999999999927e+03
7.799999999999999989e-02 1.247069999999999845e-01 2.939705000000000013e+01 1.047984000000000009e+02 1.915855000000000018e+03
7.900000000000000078e-02 1.248180000000000123e-01 3.073829999999999885e+01 1.077835000000000036e+02 1.917019999999999982e+03
8.000000000000000167e-02 1.249200000000000033e-01 3.190019999999999811e+01 1.104799999999999898e+02 1.918099999999999909e+03
8.100000000000000255e-02 1.250139999999999862e-01 3.290720000000000312e+01 1.129569999999999936e+02 1.919085000000000036e+03
8.200000000000000344e-02 1.251010000000000177e-01 3.378889999999999816e+01 1.152905000000000086e+02 1.920009999999999991e+03
8.300000000000000433e-02 1.251835000000000031e-01 3.457810000000000628e+01 1.175589999999999975e+02 1.920884999999999991e+03
8.400000000000000522e-02 1.252634999999999998e-01 3.530799999999999983e+01 1.198379999999999939e+02 1.921730000000000018e+03
8.500000000000000611e-02 1.253434999999999966e-01 3.600995000000000346e+01 1.221935000000000002e+02 1.922569999999999936e+03
8.600000000000000699e-02 1.254239999999999799e-01 3.671155000000000257e+01 1.246779999999999973e+02 1.923424999999999955e+03
8.700000000000000788e-02 1.255069999999999797e-01 3.743434999999999491e+01 1.273275000000000006e+02 1.924304999999999836e+03
8.800000000000000877e-02 1.255939999999999834e-01 3.819310000000000116e+01 1.301599999999999966e+02 1.925220000000000027e+03
8.899999999999999578e-02 1.256860000000000199e-01 3.899474999999999625e+01 1.331730000000000018e+02 1.926179999999999836e+03
8.999999999999999667e-02 1.257820000000000049e-01 3.983830000000000382e+01 1.363449999999999989e+02 1.927184999999999945e+03
9.099999999999999756e-02 1.258814999999999795e-01 4.071544999999999703e+01 1.396374999999999886e+02 1.928230000000000018e+03
9.199999999999999845e-02 1.259850000000000136e-01 4.161105000000000587e+01 1.429985000000000070e+02 1.929315000000000055e+03
9.299999999999999933e-02 1.260894999999999933e-01 4.250475000000000136e+01 1.463659999999999854e+02 1.930414999999999964e+03
9.400000000000000022e-02 1.261950000000000016e-01 4.337215000000000487e+01 1.496705000000000041e+02 1.931515000000000100e+03
9.500000000000000111e-02 1.262985000000000080e-01 4.418680000000000518e+01 1.528419999999999845e+02 1.932605000000000018e+03
9.600000000000000200e-02 1.263980000000000103e-01 4.492150000000000176e+01 1.558125000000000000e+02 1.933659999999999854e+03
9.700000000000000289e-02 1.264925000000000077e-01 4.554999999999999716e+01 1.585174999999999841e+02 1.934655000000000200e+03
9.800000000000000377e-02 1.265795000000000115e-01 4.604845000000000255e+01 1.609039999999999964e+02 1.935574999999999818e+03
9.900000000000000466e-02 1.266575000000000062e-01 4.639669999999999561e+01 1.629275000000000091e+02 1.936409999999999854e+03
1.000000000000000056e-01 1.267260000000000053e-01 4.657900000000000063e+01 1.645570000000000164e+02 1.937140000000000100e+03
1.010000000000000064e-01 1.267830000000000068e-01 4.658495000000000630e+01 1.657740000000000009e+02 1.937750000000000000e+03
1.020000000000000073e-01 1.268285000000000107e-01 4.640950000000000131e+01 1.665740000000000123e+02 1.938240000000000009e+03
1.030000000000000082e-01 1.268615000000000159e-01 4.605360000000000298e+01 1.669655000000000200e+02 1.938599999999999909e+03
1.040000000000000091e-01 1.268825000000000092e-01 4.552360000000000184e+01 1.669694999999999823e+02 1.938840000000000146e+03
1.050000000000000100e-01 1.268930000000000058e-01 4.483114999999999384e+01 1.666165000000000020e+02 1.938954999999999927e+03
1.059999999999999970e-01 1.268914999999999904e-01 4.399230000000000018e+01 1.659465000000000146e+02 1.938954999999999927e+03
1.069999999999999979e-01 1.268805000000000072e-01 4.302705000000000268e+01 1.650079999999999814e+02 1.938849999999999909e+03
1.079999999999999988e-01 1.268610000000000015e-01 4.195830000000000126e+01 1.638514999999999873e+02 1.938654999999999973e+03
1.089999999999999997e-01 1.268345000000000167e-01 4.081069999999999709e+01 1.625314999999999941e+02 1.938384999999999991e+03
1.100000000000000006e-01 1.268015000000000114e-01 3.960989999999999611e+01 1.611034999999999968e+02 1.938045000000000073e+03
1.110000000000000014e-01 1.267649999999999888e-01 3.838145000000000095e+01 1.596200000000000045e+02 1.937664999999999964e+03
1.120000000000000023e-01 1.267254999999999909e-01 3.714979999999999905e+01 1.581304999999999836e+02 1.937255000000000109e+03
1.130000000000000032e-01 1.266845000000000054e-01 3.593730000000000047e+01 1.566790000000000020e+02 1.936829999999999927e+03
1.140000000000000041e-01 1.266435000000000199e-01 3.476379999999999626e+01 1.553025000000000091e+02 1.936404999999999973e+03
1.150000000000000050e-01 1.266039999999999943e-01 3.364560000000000173e+01 1.540310000000000059e+02 1.935985000000000127e+03
1.160000000000000059e-01 1.265659999999999841e-01 3.259534999999999627e+01 1.528840000000000146e+02 1.935585000000000036e+03
1.170000000000000068e-01 1.265315000000000190e-01 3.162139999999999773e+01 1.518734999999999786e+02 1.935220000000000027e+03
1.180000000000000077e-01 1.265000000000000013e-01 3.072804999999999964e+01 1.510024999999999977e+02 1.934880000000000109e+03
1.190000000000000085e-01 1.264720000000000011e-01 2.991535000000000011e+01 1.502655000000000030e+02 1.934579999999999927e+03
1.200000000000000094e-01 1.264470000000000038e-01 2.917944999999999922e+01 1.496474999999999795e+02 1.934309999999999945e+03
1.209999999999999964e-01 1.264254999999999962e-01 2.851310000000000144e+01 1.491285000000000025e+02 1.934079999999999927e+03
1.219999999999999973e-01 1.264065000000000050e-01 2.790595000000000070e+01 1.486820000000000164e+02 1.933875000000000000e+03
1.229999999999999982e-01 1.263900000000000023e-01 2.734539999999999793e+01 1.482775000000000034e+02 1.933690000000000055e+03
1.239999999999999991e-01 1.263745000000000007e-01 2.681714999999999804e+01 1.478840000000000146e+02 1.933525000000000091e+03
1.250000000000000000e-01 1.263594999999999857e-01 2.630614999999999881e+01 1.474660000000000082e+02 1.933360000000000127e+03
1.260000000000000009e-01 1.263440000000000119e-01 2.579720000000000013e+01 1.469929999999999950e+02 1.933190000000000055e+03
1.270000000000000018e-01 1.263274999999999815e-01 2.527575000000000216e+01 1.464340000000000259e+02 1.933009999999999991e+03
1.280000000000000027e-01 1.263080000000000036e-01 2.472854999999999848e+01 1.457640000000000100e+02 1.932809999999999945e+03
1.290000000000000036e-01 1.262864999999999960e-01 2.414444999999999908e+01 1.449619999999999891e+02 1.932579999999999927e+03
1.300000000000000044e-01 1.262610000000000121e-01 2.351480000000000103e+01 1.440144999999999982e+02 1.932309999999999945e+03
1.310000000000000053e-01 1.262314999999999965e-01 2.283380000000000010e+01 1.429130000000000109e+02 1.932005000000000109e+03
1.320000000000000062e-01 1.261980000000000046e-01 2.209884999999999877e+01 1.416589999999999918e+02 1.931654999999999973e+03
1.330000000000000071e-01 1.261605000000000087e-01 2.131064999999999898e+01 1.402584999999999980e+02 1.931259999999999991e+03
1.340000000000000080e-01 1.261184999999999945e-01 2.047334999999999994e+01 1.387264999999999873e+02 1.930819999999999936e+03
1.350000000000000089e-01 1.260725000000000040e-01 1.959390000000000143e+01 1.370844999999999914e+02 1.930344999999999800e+03
1.360000000000000098e-01 1.260239999999999971e-01 1.868234999999999957e+01 1.353589999999999804e+02 1.929835000000000036e+03
1.370000000000000107e-01 1.259724999999999873e-01 1.775069999999999837e+01 1.335794999999999959e+02 1.929295000000000073e+03
1.380000000000000115e-01 1.259190000000000031e-01 1.681284999999999741e+01 1.317824999999999989e+02 1.928740000000000009e+03
1.390000000000000124e-01 1.258644999999999903e-01 1.588380000000000081e+01 1.300004999999999882e+02 1.928170000000000073e+03
1.400000000000000133e-01 1.258100000000000052e-01 1.497900000000000098e+01 1.282709999999999866e+02 1.927605000000000018e+03
1.410000000000000142e-01 1.257574999999999943e-01 1.411355000000000004e+01 1.266260000000000048e+02 1.927045000000000073e+03
1.420000000000000151e-01 1.257064999999999988e-01 1.330170000000000030e+01 1.250985000000000014e+02 1.926509999999999991e+03
1.430000000000000160e-01 1.256579999999999919e-01 1.255615000000000059e+01 1.237129999999999939e+02 1.926005000000000109e+03
1.440000000000000169e-01 1.256140000000000034e-01 1.188775500000000029e+01 1.224920000000000044e+02 1.925539999999999964e+03
1.450000000000000178e-01 1.255745000000000056e-01 1.130478499999999897e+01 1.214515000000000100e+02 1.925115000000000009e+03
1.459999999999999909e-01 1.255390000000000117e-01 1.081304000000000087e+01 1.206005000000000109e+02 1.924750000000000000e+03
1.469999999999999918e-01 1.255094999999999961e-01 1.041540999999999961e+01 1.199420000000000073e+02 1.924434999999999945e+03
1.479999999999999927e-01 1.254854999999999998e-01 1.011197500000000105e+01 1.194730000000000132e+02 1.924170000000000073e+03
1.489999999999999936e-01 1.254665000000000086e-01 9.900150000000000006e+00 1.191850000000000023e+02 1.923974999999999909e+03
1.499999999999999944e-01 1.254529999999999812e-01 9.774709999999998900e+00 1.190635000000000048e+02 1.923825000000000045e+03
1.509999999999999953e-01 1.254450000000000010e-01 9.728365000000000151e+00 1.190904999999999916e+02 1.923730000000000018e+03
1.519999999999999962e-01 1.254409999999999969e-01 9.751919999999998367e+00 1.192450000000000045e+02 1.923684999999999945e+03
1.529999999999999971e-01 1.254415000000000113e-01 9.834794999999999732e+00 1.195020000000000095e+02 1.923679999999999836e+03
1.539999999999999980e-01 1.254450000000000010e-01 9.965469999999999828e+00 1.198365000000000009e+02 1.923710000000000036e+03
1.549999999999999989e-01 1.254510000000000070e-01 1.013193499999999858e+01 1.202235000000000014e+02 1.923769999999999982e+03
1.559999999999999998e-01 1.254595000000000016e-01 1.032215000000000060e+01 1.206380000000000052e+02 1.923855000000000018e+03
1.570000000000000007e-01 1.254689999999999972e-01 1.052455000000000140e+01 1.210570000000000022e+02 1.923950000000000045e+03
1.580000000000000016e-01 1.254794999999999938e-01 1.072814999999999941e+01 1.214594999999999914e+02 1.924054999999999836e+03
1.590000000000000024e-01 1.254895000000000038e-01 1.092320000000000135e+01 1.218284999999999911e+02 1.924160000000000082e+03
