# t [s], A [cm^2], U [cm/s], P [cPa], c [cm/s]
1.000000000000000021e-03 1.317260000000000097e-01 3.993955000000000144e-01 9.470600000000000307e+01 1.994639999999999873e+03
2.000000000000000042e-03 1.316859999999999975e-01 2.047992999999999952e+00 9.120420000000000016e+01 1.994164999999999964e+03
3.000000000000000062e-03 1.315810000000000035e-01 4.043459999999999610e+00 8.648134999999999195e+01 1.992960000000000036e+03
4.000000000000000083e-03 1.314379999999999993e-01 6.271184500000000384e+00 8.151124999999998977e+01 1.991355000000000018e+03
5.000000000000000104e-03 1.312869999999999870e-01 8.648835000000000051e+00 7.720199999999999818e+01 1.989659999999999854e+03
6.000000000000000125e-03 1.311420000000000086e-01 1.097165999999999997e+01 7.374819999999999709e+01 1.988059999999999945e+03
7.000000000000000146e-03 1.310070000000000123e-01 1.301490499999999884e+01 7.080084999999999695e+01 1.986590000000000146e+03
8.000000000000000167e-03 1.308829999999999993e-01 1.471954500000000010e+01 6.812850000000000250e+01 1.985275000000000091e+03
9.000000000000001055e-03 1.307740000000000014e-01 1.614310000000000045e+01 6.582144999999999868e+01 1.984130000000000109e+03
1.000000000000000194e-02 1.306829999999999936e-01 1.732075000000000031e+01 6.394750000000000512e+01 1.983175000000000182e+03
1.099999999999999936e-02 1.306074999999999875e-01 1.826845000000000141e+01 6.246375000000000455e+01 1.982404999999999973e+03
1.200000000000000025e-02 1.305474999999999830e-01 1.900815000000000055e+01 6.131555000000000177e+01 1.981795000000000073e+03
1.300000000000000114e-02 1.304994999999999905e-01 1.954905000000000115e+01 6.041810000000000258e+01 1.981320000000000164e+03
1.400000000000000203e-02 1.304609999999999936e-01 1.990050000000000097e+01 5.965605000000000047e+01 1.980940000000000055e+03
1.499999999999999944e-02 1.304295000000000038e-01 2.012789999999999679e+01 5.902674999999999983e+01 1.980639999999999873e+03
1.600000000000000033e-02 1.304089999999999971e-01 2.037339999999999662e+01 5.876494999999999891e+01 1.980450000000000045e+03
1.700000000000000122e-02 1.304065000000000085e-01 2.079854999999999876e+01 5.925534999999999997e+01 1.980440000000000055e+03
1.800000000000000211e-02 1.304290000000000171e-01 2.149089999999999989e+01 6.077344999999999686e+01 1.980674999999999955e+03
1.900000000000000300e-02 1.304779999999999829e-01 2.240534999999999854e+01 6.325594999999999857e+01 1.981190000000000055e+03
2.000000000000000042e-02 1.305474999999999830e-01 2.337599999999999767e+01 6.625560000000000116e+01 1.981914999999999964e+03
2.100000000000000130e-02 1.306229999999999891e-01 2.418329999999999913e+01 6.909215000000000373e+01 1.982714999999999918e+03
2.200000000000000219e-02 1.306900000000000006e-01 2.463924999999999699e+01 7.110460000000000491e+01 1.983434999999999945e+03
2.299999999999999961e-02 1.307355000000000045e-01 2.465230000000000032e+01 7.188460000000000605e+01 1.983934999999999945e+03
2.400000000000000050e-02 1.307514999999999927e-01 2.425014999999999787e+01 7.139830000000000609e+01 1.984144999999999982e+03
2.500000000000000139e-02 1.307419999999999971e-01 2.355700000000000216e+01 6.995929999999999893e+01 1.984069999999999936e+03
2.600000000000000228e-02 1.307135000000000102e-01 2.273789999999999978e+01 6.807939999999999259e+01 1.983789999999999964e+03
2.700000000000000316e-02 1.306765000000000010e-01 2.193860000000000099e+01 6.626850000000000307e+01 1.983410000000000082e+03
2.800000000000000058e-02 1.306404999999999927e-01 2.124159999999999826e+01 6.486705000000000609e+01 1.983034999999999854e+03
2.900000000000000147e-02 1.306109999999999771e-01 2.065390000000000015e+01 6.396744999999999948e+01 1.982724999999999909e+03
3.000000000000000236e-02 1.305899999999999839e-01 2.012225000000000108e+01 6.343525000000000347e+01 1.982490000000000009e+03
3.099999999999999978e-02 1.305725000000000080e-01 1.956734999999999758e+01 6.300379999999999825e+01 1.982304999999999836e+03
3.200000000000000067e-02 1.305534999999999890e-01 1.892139999999999844e+01 6.239894999999999925e+01 1.982110000000000127e+03
3.300000000000000155e-02 1.305294999999999928e-01 1.815879999999999939e+01 6.145125000000000171e+01 1.981860000000000127e+03
3.400000000000000244e-02 1.304980000000000029e-01 1.731054999999999922e+01 6.016349999999999909e+01 1.981534999999999854e+03
3.500000000000000333e-02 1.304599999999999926e-01 1.645955000000000013e+01 5.871755000000000280e+01 1.981144999999999982e+03
3.600000000000000422e-02 1.304224999999999968e-01 1.571875000000000000e+01 5.742069999999999652e+01 1.980744999999999891e+03
3.700000000000000511e-02 1.303914999999999935e-01 1.519885000000000019e+01 5.661124999999999829e+01 1.980420000000000073e+03
3.799999999999999906e-02 1.303749999999999909e-01 1.497690000000000055e+01 5.655460000000000065e+01 1.980235000000000127e+03
3.899999999999999994e-02 1.303785000000000083e-01 1.507430000000000092e+01 5.736310000000000286e+01 1.980255000000000109e+03
4.000000000000000083e-02 1.304024999999999768e-01 1.545045000000000002e+01 5.896009999999999707e+01 1.980490000000000009e+03
4.100000000000000172e-02 1.304450000000000054e-01 1.601105000000000089e+01 6.109550000000000125e+01 1.980909999999999854e+03
4.200000000000000261e-02 1.304985000000000173e-01 1.662819999999999965e+01 6.340104999999999791e+01 1.981460000000000036e+03
4.300000000000000350e-02 1.305544999999999900e-01 1.716444999999999865e+01 6.546705000000000041e+01 1.982039999999999964e+03
4.400000000000000439e-02 1.306029999999999969e-01 1.749585000000000079e+01 6.691919999999998936e+01 1.982554999999999836e+03
4.499999999999999833e-02 1.306350000000000011e-01 1.752915000000000134e+01 6.747860000000000014e+01 1.982900000000000091e+03
4.599999999999999922e-02 1.306454999999999977e-01 1.721130000000000138e+01 6.699590000000000600e+01 1.983014999999999873e+03
4.700000000000000011e-02 1.306285000000000085e-01 1.653014999999999901e+01 6.545629999999999882e+01 1.982864999999999782e+03
4.800000000000000100e-02 1.305859999999999799e-01 1.550910000000000011e+01 6.296079999999999899e+01 1.982430000000000064e+03
4.900000000000000189e-02 1.305179999999999951e-01 1.419780000000000086e+01 5.969185000000000230e+01 1.981730000000000018e+03
5.000000000000000278e-02 1.304299999999999904e-01 1.266128499999999946e+01 5.587385000000000446e+01 1.980820000000000164e+03
5.100000000000000366e-02 1.303265000000000118e-01 1.097081000000000017e+01 5.173810000000000286e+01 1.979740000000000009e+03
5.200000000000000455e-02 1.302129999999999954e-01 9.197364999999999569e+00 4.749810000000000088e+01 1.978554999999999836e+03
5.300000000000000544e-02 1.300950000000000162e-01 7.408319999999999794e+00 4.333719999999999573e+01 1.977320000000000164e+03
5.399999999999999939e-02 1.299770000000000092e-01 5.666674999999999685e+00 3.940765000000000384e+01 1.976085000000000036e+03
5.500000000000000028e-02 1.298640000000000072e-01 4.031508950000000091e+00 3.583655000000000257e+01 1.974894999999999982e+03
5.600000000000000117e-02 1.297594999999999998e-01 2.559429999999999872e+00 3.273420000000000130e+01 1.973795000000000073e+03
5.700000000000000205e-02 1.296674999999999911e-01 1.304785000000000084e+00 3.020190000000000197e+01 1.972824999999999818e+03
5.800000000000000294e-02 1.295904999999999974e-01 3.191450000000000120e-01 2.833525000000000205e+01 1.972005000000000109e+03
5.900000000000000383e-02 1.295324999999999949e-01 -3.505700000000000482e-01 2.722279999999999944e+01 1.971380000000000109e+03
6.000000000000000472e-02 1.294954999999999856e-01 -6.648815000000000142e-01 2.694064999999999799e+01 1.970970000000000027e+03
6.099999999999999867e-02 1.294825000000000004e-01 -5.949174999999999880e-01 2.754489999999999839e+01 1.970809999999999945e+03
6.199999999999999956e-02 1.294939999999999980e-01 -1.252260000000000040e-01 2.906284999999999741e+01 1.970909999999999854e+03
6.300000000000000044e-02 1.295320000000000082e-01 7.443204999999999405e-01 3.148734999999999928e+01 1.971279999999999973e+03
6.400000000000000133e-02 1.295965000000000034e-01 1.997966499999999979e+00 3.477369999999999806e+01 1.971924999999999955e+03
6.500000000000000222e-02 1.296849999999999947e-01 3.604979000000000156e+00 3.884130000000000393e+01 1.972829999999999927e+03
6.600000000000000311e-02 1.297969999999999957e-01 5.521774999999999878e+00 4.357894999999999897e+01 1.973974999999999909e+03
6.700000000000000400e-02 1.299279999999999879e-01 7.694949999999999513e+00 4.885304999999999609e+01 1.975335000000000036e+03
6.800000000000000488e-02 1.300759999999999972e-01 1.006472499999999926e+01 5.451729999999999876e+01 1.976869999999999891e+03
6.900000000000000577e-02 1.302365000000000050e-01 1.256841499999999989e+01 6.042210000000000036e+01 1.978545000000000073e+03
7.000000000000000666e-02 1.304049999999999931e-01 1.514339999999999975e+01 6.642329999999999757e+01 1.980309999999999945e+03
7.100000000000000755e-02 1.305779999999999996e-01 1.773000000000000043e+01 7.238870000000000005e+01 1.982134999999999991e+03
7.200000000000000844e-02 1.307519999999999794e-01 2.027380000000000138e+01 7.820359999999999445e+01 1.983974999999999909e+03
7.300000000000000933e-02 1.309234999999999982e-01 2.272769999999999868e+01 8.377450000000000330e+01 1.985789999999999964e+03
7.399999999999999634e-02 1.310899999999999843e-01 2.505330000000000013e+01 8.903199999999999648e+01 1.987565000000000055e+03
7.499999999999999722e-02 1.312490000000000046e-01 2.722244999999999848e+01 9.393240000000000123e+01 1.989264999999999873e+03
7.599999999999999811e-02 1.313989999999999880e-01 2.921809999999999974e+01 9.845900000000000318e+01 1.990875000000000000e+03
7.699999999999999900e-02 1.315390000000000170e-01 3.103430000000000177e+01 1.026210999999999984e+02 1.992389999999999873e+03
7.799999999999999989e-02 1.316709999999999825e-01 3.267584999999999695e+01 1.064515999999999991e+02 1.993809999999999945e+03
7.900000000000000078e-02 1.317935000000000079e-01 3.415725000000000477e+01 1.100035000000000025e+02 1.995134999999999991e+03
8.000000000000000167e-02 1.319084999999999841e-01 3.550060000000000571e+01 1.133464999999999918e+02 1.996389999999999873e+03
8.100000000000000255e-02 1.320179999999999965e-01 3.673354999999999393e+01 1.165570000000000022e+02 1.997585000000000036e+03
8.200000000000000344e-02 1.321239999999999915e-01 3.788625000000000398e+01 1.197139999999999986e+02 1.998734999999999900e+03
8.300000000000000433e-02 1.322284999999999988e-01 3.898879999999999768e+01 1.228919999999999959e+02 1.999865000000000009e+03
8.400000000000000522e-02 1.323320000000000052e-01 4.006884999999999764e+01 1.261519999999999868e+02 2.000994999999999891e+03
8.500000000000000611e-02 1.324380000000000002e-01 4.114929999999999666e+01 1.295425000000000182e+02 2.002150000000000091e+03
8.600000000000000699e-02 1.325474999999999848e-01 4.224654999999999916e+01 1.330889999999999986e+02 2.003329999999999927e+03
8.700000000000000788e-02 1.326600000000000001e-01 4.336970000000000169e+01 1.367984999999999900e+02 2.004550000000000182e+03
8.800000000000000877e-02 1.327765000000000195e-01 4.452004999999999768e+01 1.406550000000000011e+02 2.005809999999999945e+03
8.899999999999999578e-02 1.328965000000000007e-01 4.569129999999999825e+01 1.446254999999999882e+02 2.007115000000000009e+03
8.999999999999999667e-02 1.330195000000000127e-01 4.687040000000000362e+01 1.486614999999999895e+02 2.008440000000000055e+03
9.099999999999999756e-02 1.331434999999999980e-01 4.803875000000000028e+01 1.526995000000000005e+02 2.009789999999999964e+03
9.199999999999999845e-02 1.332669999999999966e-01 4.917350000000000421e+01 1.566719999999999970e+02 2.011130000000000109e+03
9.299999999999999933e-02 1.333884999999999932e-01 5.024934999999999974e+01 1.605049999999999955e+02 2.012454999999999927e+03
9.400000000000000022e-02 1.335060000000000136e-01 5.124009999999999820e+01 1.641285000000000025e+02 2.013740000000000009e+03
9.500000000000000111e-02 1.336175000000000002e-01 5.212010000000000076e+01 1.674755000000000109e+02 2.014954999999999927e+03
9.600000000000000200e-02 1.337214999999999931e-01 5.286620000000000630e+01 1.704890000000000043e+02 2.016094999999999800e+03
9.700000000000000289e-02 1.338155000000000039e-01 5.345834999999999582e+01 1.731214999999999975e+02 2.017134999999999991e+03
9.800000000000000377e-02 1.338989999999999903e-01 5.388100000000000023e+01 1.753389999999999986e+02 2.018059999999999945e+03
9.900000000000000466e-02 1.339710000000000067e-01 5.412390000000000612e+01 1.771214999999999975e+02 2.018855000000000018e+03
1.000000000000000056e-01 1.340299999999999825e-01 5.418234999999999957e+01 1.784615000000000009e+02 2.019514999999999873e+03
1.010000000000000064e-01 1.340770000000000017e-01 5.405734999999999957e+01 1.793684999999999832e+02 2.020039999999999964e+03
1.020000000000000073e-01 1.341114999999999946e-01 5.375554999999999950e+01 1.798629999999999995e+02 2.020430000000000064e+03
1.030000000000000082e-01 1.341335000000000166e-01 5.328900000000000148e+01 1.799770000000000039e+02 2.020690000000000055e+03
1.040000000000000091e-01 1.341444999999999999e-01 5.267399999999999949e+01 1.797524999999999977e+02 2.020825000000000045e+03
1.050000000000000100e-01 1.341455000000000009e-01 5.193089999999999407e+01 1.792384999999999877e+02 2.020849999999999909e+03
1.059999999999999970e-01 1.341374999999999929e-01 5.108254999999999768e+01 1.784904999999999973e+02 2.020775000000000091e+03
1.069999999999999979e-01 1.341224999999999778e-01 5.015370000000000061e+01 1.775634999999999764e+02 2.020625000000000000e+03
1.079999999999999988e-01 1.341014999999999846e-01 4.916949999999999932e+01 1.765149999999999864e+02 2.020404999999999973e+03
1.089999999999999997e-01 1.340764999999999874e-01 4.815480000000000160e+01 1.753985000000000127e+02 2.020130000000000109e+03
1.100000000000000006e-01 1.340480000000000005e-01 4.713304999999999723e+01 1.742634999999999934e+02 2.019829999999999927e+03
1.110000000000000014e-01 1.340184999999999849e-01 4.612539999999999907e+01 1.731535000000000082e+02 2.019515000000000100e+03
1.120000000000000023e-01 1.339895000000000114e-01 4.514995000000000402e+01 1.721045000000000016e+02 2.019194999999999936e+03
1.130000000000000032e-01 1.339605000000000101e-01 4.422140000000000271e+01 1.711430000000000007e+02 2.018880000000000109e+03
1.140000000000000041e-01 1.339335000000000109e-01 4.335044999999999504e+01 1.702874999999999943e+02 2.018585000000000036e+03
1.150000000000000050e-01 1.339090000000000003e-01 4.254364999999999952e+01 1.695480000000000018e+02 2.018315000000000055e+03
1.160000000000000059e-01 1.338874999999999926e-01 4.180330000000000013e+01 1.689225000000000136e+02 2.018069999999999936e+03
1.170000000000000068e-01 1.338679999999999870e-01 4.112789999999999679e+01 1.684035000000000082e+02 2.017855000000000018e+03
1.180000000000000077e-01 1.338515000000000121e-01 4.051194999999999879e+01 1.679730000000000132e+02 2.017670000000000073e+03
1.190000000000000085e-01 1.338369999999999838e-01 3.994679999999999609e+01 1.676080000000000041e+02 2.017505000000000109e+03
1.200000000000000094e-01 1.338245000000000129e-01 3.942114999999999725e+01 1.672800000000000011e+02 2.017359999999999900e+03
1.209999999999999964e-01 1.338125000000000009e-01 3.892164999999999964e+01 1.669565000000000055e+02 2.017224999999999909e+03
1.219999999999999973e-01 1.338010000000000033e-01 3.843384999999999962e+01 1.666045000000000016e+02 2.017095000000000027e+03
1.229999999999999982e-01 1.337885000000000046e-01 3.794284999999999997e+01 1.661895000000000095e+02 2.016949999999999818e+03
1.239999999999999991e-01 1.337740000000000040e-01 3.743430000000000035e+01 1.656800000000000068e+02 2.016789999999999964e+03
1.250000000000000000e-01 1.337570000000000148e-01 3.689475000000000193e+01 1.650484999999999900e+02 2.016605000000000018e+03
1.260000000000000009e-01 1.337364999999999804e-01 3.631300000000000239e+01 1.642715000000000032e+02 2.016384999999999991e+03
1.270000000000000018e-01 1.337119999999999975e-01 3.568014999999999759e+01 1.633335000000000150e+02 2.016119999999999891e+03
1.280000000000000027e-01 1.336835000000000107e-01 3.499040000000000106e+01 1.622255000000000109e+02 2.015809999999999945e+03
1.290000000000000036e-01 1.336505000000000054e-01 3.424110000000000298e+01 1.609460000000000264e+02 2.015449999999999818e+03
1.300000000000000044e-01 1.336120000000000085e-01 3.343325000000000102e+01 1.595024999999999977e+02 2.015039999999999964e+03
1.310000000000000053e-01 1.335689999999999933e-01 3.257120000000000459e+01 1.579114999999999895e+02 2.014574999999999818e+03
1.320000000000000062e-01 1.335224999999999884e-01 3.166250000000000142e+01 1.561945000000000050e+02 2.014069999999999936e+03
1.330000000000000071e-01 1.334720000000000073e-01 3.071784999999999854e+01 1.543799999999999955e+02 2.013525000000000091e+03
1.340000000000000080e-01 1.334184999999999954e-01 2.975000000000000000e+01 1.525024999999999977e+02 2.012944999999999936e+03
1.350000000000000089e-01 1.333634999999999959e-01 2.877380000000000138e+01 1.505989999999999895e+02 2.012349999999999909e+03
1.360000000000000098e-01 1.333074999999999954e-01 2.780489999999999995e+01 1.487074999999999818e+02 2.011740000000000009e+03
1.370000000000000107e-01 1.332510000000000083e-01 2.685944999999999894e+01 1.468675000000000068e+02 2.011130000000000109e+03
1.380000000000000115e-01 1.331960000000000088e-01 2.595304999999999751e+01 1.451145000000000209e+02 2.010535000000000082e+03
1.390000000000000124e-01 1.331435000000000257e-01 2.510034999999999883e+01 1.434830000000000041e+02 2.009960000000000036e+03
1.400000000000000133e-01 1.330945000000000045e-01 2.431405000000000172e+01 1.419995000000000118e+02 2.009424999999999955e+03
1.410000000000000142e-01 1.330490000000000006e-01 2.360484999999999900e+01 1.406879999999999882e+02 2.008925000000000182e+03
1.420000000000000151e-01 1.330080000000000151e-01 2.298049999999999926e+01 1.395629999999999882e+02 2.008480000000000018e+03
1.430000000000000160e-01 1.329719999999999791e-01 2.244615000000000293e+01 1.386334999999999980e+02 2.008085000000000036e+03
1.440000000000000169e-01 1.329420000000000046e-01 2.200379999999999825e+01 1.379004999999999939e+02 2.007755000000000109e+03
1.450000000000000178e-01 1.329170000000000074e-01 2.165254999999999797e+01 1.373600000000000136e+02 2.007474999999999909e+03
1.459999999999999909e-01 1.328979999999999884e-01 2.138889999999999958e+01 1.370004999999999882e+02 2.007255000000000109e+03
1.469999999999999918e-01 1.328834999999999877e-01 2.120674999999999955e+01 1.368065000000000282e+02 2.007099999999999909e+03
1.479999999999999927e-01 1.328745000000000065e-01 2.109795000000000087e+01 1.367565000000000168e+02 2.006990000000000009e+03
1.489999999999999936e-01 1.328695000000000015e-01 2.105295000000000272e+01 1.368274999999999864e+02 2.006929999999999836e+03
1.499999999999999944e-01 1.328679999999999861e-01 2.106090000000000018e+01 1.369950000000000045e+02 2.006910000000000082e+03
1.509999999999999953e-01 1.328699999999999881e-01 2.111045000000000016e+01 1.372334999999999923e+02 2.006920000000000073e+03
1.519999999999999962e-01 1.328739999999999921e-01 2.118984999999999985e+01 1.375169999999999959e+02 2.006960000000000036e+03
1.529999999999999971e-01 1.328794999999999837e-01 2.128799999999999670e+01 1.378224999999999909e+02 2.007019999999999982e+03
1.539999999999999980e-01 1.328860000000000041e-01 2.139424999999999955e+01 1.381274999999999977e+02 2.007089999999999918e+03
1.549999999999999989e-01 1.328934999999999977e-01 2.149904999999999688e+01 1.384145000000000039e+02 2.007160000000000082e+03
1.559999999999999998e-01 1.329005000000000047e-01 2.159405000000000285e+01 1.386664999999999850e+02 2.007230000000000018e+03
1.570000000000000007e-01 1.329064999999999830e-01 2.167249999999999943e+01 1.388725000000000023e+02 2.007299999999999955e+03
1.580000000000000016e-01 1.329120000000000024e-01 2.172925000000000040e+01 1.390244999999999891e+02 2.007355000000000018e+03
1.590000000000000024e-01 1.329155000000000197e-01 2.176079999999999970e+01 1.391169999999999902e+02 2.007400000000000091e+03
