# t [s], A [cm^2], U [cm/s], P [cPa], c [cm/s]
1.000000000000000021e-03 7.784595000000000820e-01 4.366749999999995635e-03 1.010450000000000017e+02 1.621069999999999936e+03
2.000000000000000042e-03 7.784489999999999466e-01 1.166025000000000221e-03 1.010209999999999866e+02 1.621069999999999936e+03
3.000000000000000062e-03 7.785214999999999774e-01 1.051642000000000132e-01 1.011334999999999980e+02 1.621099999999999909e+03
4.000000000000000083e-03 7.785759999999999348e-01 1.943117500000000053e-01 1.012459999999999951e+02 1.621125000000000000e+03
5.000000000000000104e-03 7.785385000000000222e-01 1.585738999999999899e-01 1.011735000000000042e+02 1.621115000000000009e+03
6.000000000000000125e-03 7.784600000000000408e-01 6.007550000000000390e-02 1.009465000000000003e+02 1.621059999999999945e+03
7.000000000000000146e-03 7.783860000000000223e-01 -4.126150000000000651e-02 1.006475000000000080e+02 1.620994999999999891e+03
8.000000000000000167e-03 7.782634999999999970e-01 -2.246599999999999708e-01 1.001929999999999978e+02 1.620884999999999991e+03
9.000000000000001055e-03 7.780620000000000314e-01 -5.391649999999998943e-01 9.949285000000000423e+01 1.620724999999999909e+03
1.000000000000000194e-02 7.777735000000000065e-01 -9.897949999999999804e-01 9.849965000000000259e+01 1.620490000000000009e+03
1.099999999999999936e-02 7.773754999999999971e-01 -1.596969999999999779e+00 9.714560000000000173e+01 1.620170000000000073e+03
1.200000000000000025e-02 7.768610000000000237e-01 -2.352594999999999992e+00 9.539189999999999259e+01 1.619744999999999891e+03
1.300000000000000114e-02 7.762759999999999661e-01 -3.162659999999999805e+00 9.331990000000000407e+01 1.619230000000000018e+03
1.400000000000000203e-02 7.757054999999999367e-01 -3.869825000000000070e+00 9.112760000000000105e+01 1.618664999999999964e+03
1.499999999999999944e-02 7.752220000000000777e-01 -4.330188500000000218e+00 8.904314999999999714e+01 1.618105000000000018e+03
1.600000000000000033e-02 7.748555000000000303e-01 -4.473028499999999852e+00 8.722605000000000075e+01 1.617590000000000146e+03
1.700000000000000122e-02 7.745854999999999269e-01 -4.313341000000000314e+00 8.572175000000000011e+01 1.617125000000000000e+03
1.800000000000000211e-02 7.743634999999999824e-01 -3.928239999999999732e+00 8.446925000000000239e+01 1.616719999999999800e+03
1.900000000000000300e-02 7.741344999999999477e-01 -3.418283000000000182e+00 8.334385000000000332e+01 1.616345000000000027e+03
2.000000000000000042e-02 7.738559999999999883e-01 -2.870055999999999941e+00 8.221184999999999832e+01 1.615965000000000146e+03
2.100000000000000130e-02 7.735119999999999774e-01 -2.331236000000000086e+00 8.097854999999999848e+01 1.615565000000000055e+03
2.200000000000000219e-02 7.731125000000000913e-01 -1.804924999999999891e+00 7.961320000000000618e+01 1.615139999999999873e+03
2.299999999999999961e-02 7.726840000000000375e-01 -1.263449999999999962e+00 7.814470000000000027e+01 1.614684999999999945e+03
2.400000000000000050e-02 7.722554999999999836e-01 -6.733000000000000096e-01 7.663304999999999723e+01 1.614224999999999909e+03
2.500000000000000139e-02 7.718430000000000568e-01 -1.913000000000009138e-02 7.513345000000001050e+01 1.613764999999999873e+03
2.600000000000000228e-02 7.714434999999999487e-01 6.822299999999996700e-01 7.366700000000000159e+01 1.613309999999999945e+03
2.700000000000000316e-02 7.710384999999999600e-01 1.380549999999999944e+00 7.220720000000000027e+01 1.612849999999999909e+03
2.800000000000000058e-02 7.705960000000000587e-01 2.002110000000000056e+00 7.068385000000000673e+01 1.612380000000000109e+03
2.900000000000000147e-02 7.700804999999999456e-01 2.466495000000000104e+00 6.900100000000000477e+01 1.611869999999999891e+03
3.000000000000000236e-02 7.694665000000000532e-01 2.705734999999999779e+00 6.706369999999999720e+01 1.611315000000000055e+03
3.099999999999999978e-02 7.687414999999999665e-01 2.680870000000000086e+00 6.480619999999998981e+01 1.610674999999999955e+03
3.200000000000000067e-02 7.679150000000000142e-01 2.391715000000000035e+00 6.221394999999999698e+01 1.609964999999999918e+03
3.300000000000000155e-02 7.670140000000000846e-01 1.876950000000000340e+00 5.933355000000000246e+01 1.609179999999999836e+03
3.400000000000000244e-02 7.660810000000000120e-01 1.205400000000000027e+00 5.626800000000000068e+01 1.608349999999999909e+03
3.500000000000000333e-02 7.651645000000000252e-01 4.618349999999997735e-01 5.315975000000000250e+01 1.607494999999999891e+03
3.600000000000000422e-02 7.643115000000000325e-01 -2.681449999999996336e-01 5.016799999999999926e+01 1.606670000000000073e+03
3.700000000000000511e-02 7.635615000000000041e-01 -9.100499999999995815e-01 4.744650000000000034e+01 1.605889999999999873e+03
3.799999999999999906e-02 7.629434999999999967e-01 -1.407494999999999941e+00 4.512595000000000312e+01 1.605204999999999927e+03
3.899999999999999994e-02 7.624750000000000139e-01 -1.724040000000000239e+00 4.330334999999999468e+01 1.604644999999999982e+03
4.000000000000000083e-02 7.621640000000000637e-01 -1.841024999999999689e+00 4.203889999999999816e+01 1.604220000000000027e+03
4.100000000000000172e-02 7.620109999999999939e-01 -1.752921949999999951e+00 4.135895000000000010e+01 1.603949999999999818e+03
4.200000000000000261e-02 7.620115000000000638e-01 -1.461875000000000036e+00 4.126270000000000238e+01 1.603829999999999927e+03
4.300000000000000350e-02 7.621575000000000433e-01 -9.729814999999999436e-01 4.173100000000000165e+01 1.603869999999999891e+03
4.400000000000000439e-02 7.624425000000000230e-01 -2.913499999999999979e-01 4.273435000000000628e+01 1.604055000000000064e+03
4.499999999999999833e-02 7.628589999999999538e-01 5.786599999999999522e-01 4.423824999999999363e+01 1.604389999999999873e+03
4.599999999999999922e-02 7.633985000000000909e-01 1.632334999999999869e+00 4.620609999999999928e+01 1.604855000000000018e+03
4.700000000000000011e-02 7.640519999999999534e-01 2.862300000000000288e+00 4.859879999999999711e+01 1.605440000000000055e+03
4.800000000000000100e-02 7.648089999999999611e-01 4.256160000000000387e+00 5.137319999999999709e+01 1.606144999999999982e+03
4.900000000000000189e-02 7.656545000000000156e-01 5.794959999999999667e+00 5.448024999999999807e+01 1.606944999999999936e+03
5.000000000000000278e-02 7.665725000000001010e-01 7.452684999999998894e+00 5.786369999999999436e+01 1.607840000000000146e+03
5.100000000000000366e-02 7.675440000000000040e-01 9.197362504999999189e+00 6.146059999999999945e+01 1.608799999999999955e+03
5.200000000000000455e-02 7.685494999999999965e-01 1.099306499999999964e+01 6.520340000000000202e+01 1.609815000000000055e+03
5.300000000000000544e-02 7.695699999999999763e-01 1.280241000000000007e+01 6.902289999999999281e+01 1.610860000000000127e+03
5.399999999999999939e-02 7.705859999999999932e-01 1.458964499999999909e+01 7.285235000000000127e+01 1.611920000000000073e+03
5.500000000000000028e-02 7.715840000000000476e-01 1.632277000000000200e+01 7.663139999999999930e+01 1.612990000000000009e+03
5.600000000000000117e-02 7.725505000000000289e-01 1.797545000000000215e+01 8.030965000000000487e+01 1.614039999999999964e+03
5.700000000000000205e-02 7.734779999999999989e-01 1.952805000000000035e+01 8.384900000000000375e+01 1.615059999999999945e+03
5.800000000000000294e-02 7.743614999999999249e-01 2.096799999999999997e+01 8.722440000000000282e+01 1.616055000000000064e+03
5.900000000000000383e-02 7.752010000000000289e-01 2.228925000000000267e+01 9.042425000000000068e+01 1.617000000000000000e+03
6.000000000000000472e-02 7.759979999999999656e-01 2.349145000000000039e+01 9.344989999999999952e+01 1.617909999999999854e+03
6.099999999999999867e-02 7.767570000000000308e-01 2.457909999999999684e+01 9.631149999999999523e+01 1.618775000000000091e+03
6.199999999999999956e-02 7.774829999999999242e-01 2.556005000000000038e+01 9.902790000000000248e+01 1.619605000000000018e+03
6.300000000000000044e-02 7.781835000000000280e-01 2.644440000000000168e+01 1.016236999999999995e+02 1.620400000000000091e+03
6.400000000000000133e-02 7.788649999999999185e-01 2.724380000000000024e+01 1.041246999999999900e+02 1.621164999999999964e+03
6.500000000000000222e-02 7.795349999999999779e-01 2.796985000000000099e+01 1.065589999999999975e+02 1.621910000000000082e+03
6.600000000000000311e-02 7.801985000000000170e-01 2.863340000000000174e+01 1.089490000000000123e+02 1.622644999999999982e+03
6.700000000000000400e-02 7.808604999999999574e-01 2.924399999999999977e+01 1.113170000000000073e+02 1.623369999999999891e+03
6.800000000000000488e-02 7.815229999999999677e-01 2.980879999999999797e+01 1.136749999999999972e+02 1.624085000000000036e+03
6.900000000000000577e-02 7.821869999999999656e-01 3.033215000000000217e+01 1.160310000000000059e+02 1.624800000000000182e+03
7.000000000000000666e-02 7.828515000000000335e-01 3.081564999999999799e+01 1.183845000000000027e+02 1.625509999999999991e+03
7.100000000000000755e-02 7.835114999999999164e-01 3.125795000000000101e+01 1.207270000000000039e+02 1.626220000000000027e+03
7.200000000000000844e-02 7.841639999999999722e-01 3.165494999999999948e+01 1.230425000000000040e+02 1.626920000000000073e+03
7.300000000000000933e-02 7.848014999999999297e-01 3.200055000000000405e+01 1.253110000000000070e+02 1.627605000000000018e+03
7.399999999999999634e-02 7.854170000000000318e-01 3.228714999999999691e+01 1.275060000000000002e+02 1.628269999999999982e+03
7.499999999999999722e-02 7.860030000000000072e-01 3.250639999999999930e+01 1.296014999999999873e+02 1.628920000000000073e+03
7.599999999999999811e-02 7.865510000000000002e-01 3.265005000000000024e+01 1.315685000000000002e+02 1.629525000000000091e+03
7.699999999999999900e-02 7.870544999999999902e-01 3.271054999999999779e+01 1.333804999999999836e+02 1.630089999999999918e+03
7.799999999999999989e-02 7.875084999999999447e-01 3.268169999999999931e+01 1.350140000000000100e+02 1.630609999999999900e+03
7.900000000000000078e-02 7.879069999999999130e-01 3.255895000000000294e+01 1.364490000000000123e+02 1.631074999999999818e+03
8.000000000000000167e-02 7.882480000000000597e-01 3.234004999999999797e+01 1.376725000000000136e+02 1.631480000000000018e+03
8.100000000000000255e-02 7.885280000000000067e-01 3.202490000000000236e+01 1.386744999999999948e+02 1.631824999999999818e+03
8.200000000000000344e-02 7.887490000000000334e-01 3.161580000000000013e+01 1.394540000000000077e+02 1.632105000000000018e+03
8.300000000000000433e-02 7.889104999999999590e-01 3.111739999999999995e+01 1.400140000000000100e+02 1.632324999999999818e+03
8.400000000000000522e-02 7.890170000000000794e-01 3.053654999999999831e+01 1.403634999999999877e+02 1.632480000000000018e+03
8.500000000000000611e-02 7.890709999999999669e-01 2.988195000000000334e+01 1.405169999999999959e+02 1.632579999999999927e+03
8.600000000000000699e-02 7.890794999999999337e-01 2.916414999999999935e+01 1.404934999999999832e+02 1.632625000000000000e+03
8.700000000000000788e-02 7.890470000000000539e-01 2.839480000000000004e+01 1.403149999999999977e+02 1.632615000000000009e+03
8.800000000000000877e-02 7.889804999999999735e-01 2.758679999999999666e+01 1.400060000000000002e+02 1.632570000000000164e+03
8.899999999999999578e-02 7.888880000000000337e-01 2.675305000000000177e+01 1.395930000000000177e+02 1.632490000000000009e+03
8.999999999999999667e-02 7.887755000000000738e-01 2.590679999999999694e+01 1.391030000000000086e+02 1.632380000000000109e+03
9.099999999999999756e-02 7.886505000000000321e-01 2.506064999999999898e+01 1.385620000000000118e+02 1.632250000000000000e+03
9.199999999999999845e-02 7.885185000000000111e-01 2.422615000000000052e+01 1.379960000000000093e+02 1.632105000000000018e+03
9.299999999999999933e-02 7.883860000000000312e-01 2.341349999999999909e+01 1.374259999999999877e+02 1.631949999999999818e+03
9.400000000000000022e-02 7.882569999999999855e-01 2.263105000000000189e+01 1.368720000000000141e+02 1.631799999999999955e+03
9.500000000000000111e-02 7.881365000000000176e-01 2.188504999999999967e+01 1.363494999999999777e+02 1.631650000000000091e+03
9.600000000000000200e-02 7.880255000000000454e-01 2.117940000000000111e+01 1.358689999999999998e+02 1.631509999999999991e+03
9.700000000000000289e-02 7.879255000000000564e-01 2.051569999999999894e+01 1.354370000000000118e+02 1.631380000000000109e+03
9.800000000000000377e-02 7.878374999999999684e-01 1.989314999999999856e+01 1.350569999999999879e+02 1.631259999999999991e+03
9.900000000000000466e-02 7.877600000000000158e-01 1.930900000000000105e+01 1.347250000000000227e+02 1.631150000000000091e+03
1.000000000000000056e-01 7.876900000000000013e-01 1.875849999999999795e+01 1.344364999999999952e+02 1.631054999999999836e+03
1.010000000000000064e-01 7.876275000000000359e-01 1.823554999999999993e+01 1.341814999999999998e+02 1.630970000000000027e+03
1.020000000000000073e-01 7.875669999999999060e-01 1.773275000000000290e+01 1.339495000000000005e+02 1.630884999999999991e+03
1.030000000000000082e-01 7.875069999999999570e-01 1.724230000000000018e+01 1.337280000000000086e+02 1.630815000000000055e+03
1.040000000000000091e-01 7.874425000000000452e-01 1.675605000000000189e+01 1.335029999999999859e+02 1.630740000000000009e+03
1.050000000000000100e-01 7.873710000000000431e-01 1.626604999999999990e+01 1.332605000000000075e+02 1.630660000000000082e+03
1.059999999999999970e-01 7.872894999999999754e-01 1.576505000000000045e+01 1.329900000000000091e+02 1.630579999999999927e+03
1.069999999999999979e-01 7.871950000000000891e-01 1.524674999999999869e+01 1.326804999999999950e+02 1.630485000000000127e+03
1.079999999999999988e-01 7.870865000000000222e-01 1.470599999999999952e+01 1.323224999999999909e+02 1.630380000000000109e+03
1.089999999999999997e-01 7.869630000000000791e-01 1.413925000000000054e+01 1.319110000000000014e+02 1.630269999999999982e+03
1.100000000000000006e-01 7.868235000000000090e-01 1.354479500000000058e+01 1.314449999999999932e+02 1.630140000000000100e+03
1.110000000000000014e-01 7.866699999999999804e-01 1.292246000000000095e+01 1.309240000000000066e+02 1.629990000000000009e+03
1.120000000000000023e-01 7.865024999999999933e-01 1.227398499999999970e+01 1.303514999999999873e+02 1.629835000000000036e+03
1.130000000000000032e-01 7.863255000000000106e-01 1.160283499999999890e+01 1.297365000000000066e+02 1.629664999999999964e+03
1.140000000000000041e-01 7.861404999999999088e-01 1.091404499999999977e+01 1.290879999999999939e+02 1.629485000000000127e+03
1.150000000000000050e-01 7.859514999999999141e-01 1.021404500000000048e+01 1.284184999999999945e+02 1.629295000000000073e+03
1.160000000000000059e-01 7.857629999999999892e-01 9.510334999999999539e+00 1.277429999999999950e+02 1.629099999999999909e+03
1.170000000000000068e-01 7.855794999999999861e-01 8.811094999999999899e+00 1.270769999999999982e+02 1.628914999999999964e+03
1.180000000000000077e-01 7.854050000000000198e-01 8.124985000000000568e+00 1.264355000000000047e+02 1.628730000000000018e+03
1.190000000000000085e-01 7.852440000000000531e-01 7.460695000000000299e+00 1.258359999999999985e+02 1.628555000000000064e+03
1.200000000000000094e-01 7.851000000000000201e-01 6.826430000000000220e+00 1.252925000000000040e+02 1.628394999999999982e+03
1.209999999999999964e-01 7.849770000000000358e-01 6.229689999999999728e+00 1.248190000000000026e+02 1.628244999999999891e+03
1.219999999999999973e-01 7.848775000000000057e-01 5.676915000000000155e+00 1.244254999999999995e+02 1.628125000000000000e+03
1.229999999999999982e-01 7.848029999999999173e-01 5.173194999999999766e+00 1.241214999999999975e+02 1.628025000000000091e+03
1.239999999999999991e-01 7.847550000000000914e-01 4.722075000000000244e+00 1.239120000000000061e+02 1.627944999999999936e+03
1.250000000000000000e-01 7.847334999999999727e-01 4.325440000000000396e+00 1.237974999999999994e+02 1.627894999999999982e+03
1.260000000000000009e-01 7.847379999999999356e-01 3.983480000000000132e+00 1.237789999999999964e+02 1.627869999999999891e+03
1.270000000000000018e-01 7.847660000000000746e-01 3.694765000000000299e+00 1.238489999999999895e+02 1.627875000000000000e+03
1.280000000000000027e-01 7.848150000000000404e-01 3.456344999999999779e+00 1.240020000000000095e+02 1.627900000000000091e+03
1.290000000000000036e-01 7.848835000000000672e-01 3.263959999999999972e+00 1.242265000000000015e+02 1.627950000000000045e+03
1.300000000000000044e-01 7.849665000000000115e-01 3.112319999999999975e+00 1.245105000000000075e+02 1.628009999999999991e+03
1.310000000000000053e-01 7.850604999999999389e-01 2.995319999999999983e+00 1.248404999999999916e+02 1.628085000000000036e+03
1.320000000000000062e-01 7.851609999999999978e-01 2.906379999999999963e+00 1.252019999999999982e+02 1.628179999999999836e+03
1.330000000000000071e-01 7.852660000000000196e-01 2.838715000000000099e+00 1.255810000000000031e+02 1.628280000000000200e+03
1.340000000000000080e-01 7.853695000000000537e-01 2.785604999999999887e+00 1.259629999999999939e+02 1.628380000000000109e+03
1.350000000000000089e-01 7.854700000000000015e-01 2.740649999999999586e+00 1.263350000000000080e+02 1.628480000000000018e+03
1.360000000000000098e-01 7.855640000000000400e-01 2.697944999999999816e+00 1.266850000000000023e+02 1.628579999999999927e+03
1.370000000000000107e-01 7.856480000000000130e-01 2.652280000000000193e+00 1.270035000000000025e+02 1.628670000000000073e+03
1.380000000000000115e-01 7.857214999999999616e-01 2.599204999999999988e+00 1.272819999999999965e+02 1.628750000000000000e+03
1.390000000000000124e-01 7.857815000000000216e-01 2.535149999999999793e+00 1.275139999999999958e+02 1.628820000000000164e+03
1.400000000000000133e-01 7.858285000000000409e-01 2.457419999999999938e+00 1.276965000000000003e+02 1.628875000000000000e+03
1.410000000000000142e-01 7.858614999999999906e-01 2.364219999999999988e+00 1.278259999999999934e+02 1.628925000000000182e+03
1.420000000000000151e-01 7.858810000000000517e-01 2.254570000000000185e+00 1.279030000000000058e+02 1.628954999999999927e+03
1.430000000000000160e-01 7.858864999999999323e-01 2.128299999999999859e+00 1.279284999999999997e+02 1.628970000000000027e+03
1.440000000000000169e-01 7.858795000000000641e-01 1.985910000000000064e+00 1.279039999999999964e+02 1.628969999999999800e+03
1.450000000000000178e-01 7.858604999999999619e-01 1.828500000000000014e+00 1.278335000000000008e+02 1.628960000000000036e+03
1.459999999999999909e-01 7.858309999999999462e-01 1.657650000000000068e+00 1.277214999999999918e+02 1.628940000000000055e+03
1.469999999999999918e-01 7.857925000000000049e-01 1.475315999999999850e+00 1.275720000000000027e+02 1.628905000000000200e+03
1.479999999999999927e-01 7.857449999999999157e-01 1.283694499999999961e+00 1.273905000000000030e+02 1.628865000000000009e+03
1.489999999999999936e-01 7.856914999999999871e-01 1.085140500000000063e+00 1.271809999999999974e+02 1.628809999999999945e+03
1.499999999999999944e-01 7.856320000000001080e-01 8.820307499999999745e-01 1.269489999999999981e+02 1.628750000000000000e+03
1.509999999999999953e-01 7.855680000000000440e-01 6.767040000000000832e-01 1.266980000000000075e+02 1.628679999999999836e+03
1.519999999999999962e-01 7.854999999999999760e-01 4.713519999999999932e-01 1.264320000000000022e+02 1.628610000000000127e+03
1.529999999999999971e-01 7.854290000000000438e-01 2.679829999999999712e-01 1.261545000000000130e+02 1.628534999999999854e+03
1.539999999999999980e-01 7.853565000000000129e-01 6.834600000000001785e-02 1.258685000000000116e+02 1.628460000000000036e+03
1.549999999999999989e-01 7.852814999999999657e-01 -1.260640000000000094e-01 1.255749999999999886e+02 1.628375000000000000e+03
1.559999999999999998e-01 7.852049999999999308e-01 -3.140445000000000597e-01 1.252759999999999962e+02 1.628295000000000073e+03
1.570000000000000007e-01 7.851270000000000193e-01 -4.946764999999999635e-01 1.249710000000000036e+02 1.628204999999999927e+03
1.580000000000000016e-01 7.850464999999999804e-01 -6.672715000000000174e-01 1.246620000000000061e+02 1.628115000000000009e+03
1.590000000000000024e-01 7.849654999999999827e-01 -8.313949999999999951e-01 1.243474999999999966e+02 1.628025000000000091e+03
