# t [s], A [cm^2], U [cm/s], P [cPa], c [cm/s]
1.000000000000000021e-03 5.075644999999999740e-01 3.018800000000002037e-03 9.708299999999999841e+01 1.463154999999999973e+03
2.000000000000000042e-03 5.075574999999999948e-01 -2.902949999999998761e-04 9.706730000000000302e+01 1.463150000000000091e+03
3.000000000000000062e-03 5.075849999999999529e-01 5.199275000000000424e-02 9.711484999999998990e+01 1.463170000000000073e+03
4.000000000000000083e-03 5.076289999999999969e-01 1.359392999999999851e-01 9.721444999999999936e+01 1.463199999999999818e+03
5.000000000000000104e-03 5.076370000000000049e-01 1.565778499999999906e-01 9.724264999999999759e+01 1.463210000000000036e+03
6.000000000000000125e-03 5.076085000000000180e-01 1.055580000000000129e-01 9.715755000000000052e+01 1.463195000000000164e+03
7.000000000000000146e-03 5.075724999999999820e-01 3.817400000000001348e-02 9.700515000000000043e+01 1.463159999999999854e+03
8.000000000000000167e-03 5.075359999999999872e-01 -3.519849999999996593e-02 9.680485000000000184e+01 1.463105000000000018e+03
9.000000000000001055e-03 5.074764999999999970e-01 -1.616619999999999724e-01 9.650735000000000241e+01 1.463029999999999973e+03
1.000000000000000194e-02 5.073794999999999833e-01 -3.692149999999999599e-01 9.606494999999999607e+01 1.462914999999999964e+03
1.099999999999999936e-02 5.072404999999999831e-01 -6.647199999999999775e-01 9.544589999999999463e+01 1.462759999999999991e+03
1.200000000000000025e-02 5.070505000000000706e-01 -1.059130000000000127e+00 9.461270000000000380e+01 1.462534999999999854e+03
1.300000000000000114e-02 5.068030000000000035e-01 -1.553995000000000015e+00 9.353584999999999638e+01 1.462244999999999891e+03
1.400000000000000203e-02 5.065079999999999583e-01 -2.114619999999999944e+00 9.222845000000000937e+01 1.461884999999999991e+03
1.499999999999999944e-02 5.061915000000000164e-01 -2.667895000000000127e+00 9.075979999999999848e+01 1.461470000000000027e+03
1.600000000000000033e-02 5.058865000000000167e-01 -3.127730000000000121e+00 8.923430000000000462e+01 1.461019999999999982e+03
1.700000000000000122e-02 5.056159999999999544e-01 -3.425891000000000020e+00 8.775430000000000064e+01 1.460570000000000164e+03
1.800000000000000211e-02 5.053880000000000594e-01 -3.530198500000000017e+00 8.638989999999999725e+01 1.460134999999999991e+03
1.900000000000000300e-02 5.051959999999999784e-01 -3.446110000000000007e+00 8.516575000000000273e+01 1.459724999999999909e+03
2.000000000000000042e-02 5.050244999999999873e-01 -3.206758000000000219e+00 8.406475000000000364e+01 1.459329999999999927e+03
2.100000000000000130e-02 5.048550000000000537e-01 -2.858151499999999956e+00 8.304204999999998904e+01 1.458954999999999927e+03
2.200000000000000219e-02 5.046714999999999396e-01 -2.444670499999999969e+00 8.204279999999999973e+01 1.458579999999999927e+03
2.299999999999999961e-02 5.044644999999999824e-01 -1.998234999999999983e+00 8.101954999999999529e+01 1.458204999999999927e+03
2.400000000000000050e-02 5.042324999999999724e-01 -1.533240000000000158e+00 7.994410000000000593e+01 1.457815000000000055e+03
2.500000000000000139e-02 5.039814999999999712e-01 -1.048045000000000115e+00 7.881100000000000705e+01 1.457409999999999854e+03
2.600000000000000228e-02 5.037190000000000278e-01 -5.316349999999998577e-01 7.763400000000000034e+01 1.456985000000000127e+03
2.700000000000000316e-02 5.034540000000000681e-01 2.725999999999961787e-02 7.643569999999999709e+01 1.456559999999999945e+03
2.800000000000000058e-02 5.031915000000000138e-01 6.319050000000001610e-01 7.523650000000000659e+01 1.456134999999999991e+03
2.900000000000000147e-02 5.029310000000000169e-01 1.272659999999999902e+00 7.404509999999999081e+01 1.455700000000000045e+03
3.000000000000000236e-02 5.026675000000000448e-01 1.926169999999999938e+00 7.285389999999999588e+01 1.455275000000000091e+03
3.099999999999999978e-02 5.023904999999999621e-01 2.558324999999999960e+00 7.163885000000000502e+01 1.454835000000000036e+03
3.200000000000000067e-02 5.020900000000000363e-01 3.129960000000000520e+00 7.036430000000000007e+01 1.454380000000000109e+03
3.300000000000000155e-02 5.017550000000000621e-01 3.603769999999999918e+00 6.899094999999999800e+01 1.453904999999999973e+03
3.400000000000000244e-02 5.013805000000000067e-01 3.951024999999999565e+00 6.748505000000000109e+01 1.453394999999999982e+03
3.500000000000000333e-02 5.009635000000000060e-01 4.156835000000000058e+00 6.582684999999999320e+01 1.452845000000000027e+03
3.600000000000000422e-02 5.005085000000000228e-01 4.222620000000000040e+00 6.401695000000000846e+01 1.452255000000000109e+03
3.700000000000000511e-02 5.000274999999999581e-01 4.165770000000000195e+00 6.207874999999999943e+01 1.451634999999999991e+03
3.799999999999999906e-02 4.995334999999999637e-01 4.016365000000000407e+00 6.005689999999999884e+01 1.450985000000000127e+03
3.899999999999999994e-02 4.990434999999999732e-01 3.812169999999999614e+00 5.801169999999999760e+01 1.450324999999999818e+03
4.000000000000000083e-02 4.985744999999999760e-01 3.593335000000000168e+00 5.601259999999999906e+01 1.449680000000000064e+03
4.100000000000000172e-02 4.981425000000000436e-01 3.397550000000000292e+00 5.413040000000000163e+01 1.449055000000000064e+03
4.200000000000000261e-02 4.977599999999999802e-01 3.256724999999999426e+00 5.243049999999999500e+01 1.448484999999999900e+03
4.300000000000000350e-02 4.974370000000000180e-01 3.195420000000000371e+00 5.096864999999999668e+01 1.447974999999999909e+03
4.400000000000000439e-02 4.971800000000000108e-01 3.230745000000000200e+00 4.978810000000000002e+01 1.447549999999999955e+03
4.499999999999999833e-02 4.969930000000000181e-01 3.373413499999999843e+00 4.891895000000000238e+01 1.447204999999999927e+03
4.599999999999999922e-02 4.968779999999999863e-01 3.629474500000000159e+00 4.837950000000000017e+01 1.446964999999999918e+03
4.700000000000000011e-02 4.968350000000000266e-01 4.002175000000000260e+00 4.817804999999999893e+01 1.446824999999999818e+03
4.800000000000000100e-02 4.968640000000000279e-01 4.493505000000000749e+00 4.831560000000000343e+01 1.446789999999999964e+03
4.900000000000000189e-02 4.969639999999999613e-01 5.105204999999999771e+00 4.878825000000000500e+01 1.446865000000000009e+03
5.000000000000000278e-02 4.971339999999999648e-01 5.839034999999999975e+00 4.958880000000000621e+01 1.447045000000000073e+03
5.100000000000000366e-02 4.973724999999999952e-01 6.696419999999999817e+00 5.070784999999999343e+01 1.447329999999999927e+03
5.200000000000000455e-02 4.976785000000000236e-01 7.677645000000000053e+00 5.213369999999999749e+01 1.447720000000000027e+03
5.300000000000000544e-02 4.980475000000000319e-01 8.780974999999999753e+00 5.385240000000000293e+01 1.448195000000000164e+03
5.399999999999999939e-02 4.984769999999999479e-01 1.000154500000000013e+01 5.584654999999999347e+01 1.448769999999999982e+03
5.500000000000000028e-02 4.989620000000000166e-01 1.133112999999999815e+01 5.809489999999999554e+01 1.449430000000000064e+03
5.600000000000000117e-02 4.994960000000000511e-01 1.275781499999999902e+01 6.057210000000000605e+01 1.450170000000000073e+03
5.700000000000000205e-02 5.000725000000000309e-01 1.426635500000000079e+01 6.324904999999999688e+01 1.450980000000000018e+03
5.800000000000000294e-02 5.006829999999999892e-01 1.583906999999999954e+01 6.609300000000000352e+01 1.451849999999999909e+03
5.900000000000000383e-02 5.013205000000000577e-01 1.745655999999999963e+01 6.906929999999999836e+01 1.452775000000000091e+03
6.000000000000000472e-02 5.019765000000000477e-01 1.909895000000000209e+01 7.214244999999999663e+01 1.453735000000000127e+03
6.099999999999999867e-02 5.026440000000000907e-01 2.074685000000000201e+01 7.527785000000000082e+01 1.454730000000000018e+03
6.199999999999999956e-02 5.033159999999999856e-01 2.238255000000000194e+01 7.844310000000000116e+01 1.455750000000000000e+03
6.300000000000000044e-02 5.039865000000000039e-01 2.399034999999999940e+01 8.160945000000000960e+01 1.456775000000000091e+03
6.400000000000000133e-02 5.046519999999999895e-01 2.555724999999999625e+01 8.475270000000000437e+01 1.457804999999999836e+03
6.500000000000000222e-02 5.053084999999999383e-01 2.707310000000000016e+01 8.785370000000000346e+01 1.458829999999999927e+03
6.600000000000000311e-02 5.059540000000000148e-01 2.853054999999999808e+01 9.089934999999999832e+01 1.459849999999999909e+03
6.700000000000000400e-02 5.065874999999999684e-01 2.992470000000000141e+01 9.388054999999999950e+01 1.460855000000000018e+03
6.800000000000000488e-02 5.072084999999999511e-01 3.125314999999999799e+01 9.679349999999999454e+01 1.461845000000000027e+03
6.900000000000000577e-02 5.078175000000000328e-01 3.251489999999999725e+01 9.963859999999999673e+01 1.462815000000000055e+03
7.000000000000000666e-02 5.084150000000000613e-01 3.371075000000000443e+01 1.024189499999999953e+02 1.463769999999999982e+03
7.100000000000000755e-02 5.090029999999999832e-01 3.484205000000000041e+01 1.051397000000000048e+02 1.464710000000000036e+03
7.200000000000000844e-02 5.095830000000000082e-01 3.591089999999999804e+01 1.078071999999999946e+02 1.465634999999999991e+03
7.300000000000000933e-02 5.101550000000000251e-01 3.691925000000000523e+01 1.104279999999999973e+02 1.466545000000000073e+03
7.399999999999999634e-02 5.107205000000000217e-01 3.786899999999999977e+01 1.130074999999999932e+02 1.467440000000000055e+03
7.499999999999999722e-02 5.112799999999999567e-01 3.876140000000000185e+01 1.155510000000000019e+02 1.468325000000000045e+03
7.599999999999999811e-02 5.118340000000000112e-01 3.959714999999999918e+01 1.180604999999999905e+02 1.469204999999999927e+03
7.699999999999999900e-02 5.123820000000000041e-01 4.037599999999999767e+01 1.205354999999999990e+02 1.470070000000000164e+03
7.799999999999999989e-02 5.129230000000000178e-01 4.109680000000000177e+01 1.229745000000000061e+02 1.470924999999999955e+03
7.900000000000000078e-02 5.134544999999999249e-01 4.175780000000000314e+01 1.253710000000000093e+02 1.471764999999999873e+03
8.000000000000000167e-02 5.139759999999999884e-01 4.235635000000000616e+01 1.277189999999999941e+02 1.472594999999999800e+03
8.100000000000000255e-02 5.144845000000000113e-01 4.288934999999999320e+01 1.300095000000000027e+02 1.473404999999999973e+03
8.200000000000000344e-02 5.149780000000000468e-01 4.335345000000000226e+01 1.322305000000000064e+02 1.474194999999999936e+03
8.300000000000000433e-02 5.154529999999999390e-01 4.374519999999999698e+01 1.343700000000000045e+02 1.474960000000000036e+03
8.400000000000000522e-02 5.159074999999999633e-01 4.406125000000000114e+01 1.364175000000000182e+02 1.475695000000000164e+03
8.500000000000000611e-02 5.163394999999999513e-01 4.429885000000000161e+01 1.383595000000000255e+02 1.476394999999999982e+03
8.600000000000000699e-02 5.167460000000000386e-01 4.445555000000000234e+01 1.401870000000000118e+02 1.477065000000000055e+03
8.700000000000000788e-02 5.171255000000000157e-01 4.453000000000000114e+01 1.418890000000000100e+02 1.477695000000000164e+03
8.800000000000000877e-02 5.174754999999999772e-01 4.452134999999999820e+01 1.434574999999999818e+02 1.478279999999999973e+03
8.899999999999999578e-02 5.177959999999999230e-01 4.442980000000000018e+01 1.448865000000000123e+02 1.478819999999999936e+03
8.999999999999999667e-02 5.180854999999999766e-01 4.425650000000000261e+01 1.461725000000000136e+02 1.479315000000000055e+03
9.099999999999999756e-02 5.183449999999999447e-01 4.400364999999999327e+01 1.473139999999999930e+02 1.479764999999999873e+03
9.199999999999999845e-02 5.185729999999999507e-01 4.367419999999999902e+01 1.483104999999999905e+02 1.480160000000000082e+03
9.299999999999999933e-02 5.187709999999999821e-01 4.327224999999999966e+01 1.491649999999999920e+02 1.480509999999999991e+03
9.400000000000000022e-02 5.189399999999999569e-01 4.280264999999999986e+01 1.498820000000000050e+02 1.480815000000000055e+03
9.500000000000000111e-02 5.190810000000000146e-01 4.227084999999999582e+01 1.504685000000000059e+02 1.481069999999999936e+03
9.600000000000000200e-02 5.191964999999999497e-01 4.168335000000000434e+01 1.509314999999999998e+02 1.481280000000000200e+03
9.700000000000000289e-02 5.192875000000000130e-01 4.104684999999999917e+01 1.512814999999999941e+02 1.481454999999999927e+03
9.800000000000000377e-02 5.193579999999999863e-01 4.036870000000000402e+01 1.515280000000000200e+02 1.481590000000000146e+03
9.900000000000000466e-02 5.194079999999999808e-01 3.965654999999999575e+01 1.516834999999999809e+02 1.481694999999999936e+03
1.000000000000000056e-01 5.194415000000000004e-01 3.891805000000000092e+01 1.517595000000000027e+02 1.481764999999999873e+03
1.010000000000000064e-01 5.194609999999999506e-01 3.816084999999999638e+01 1.517680000000000007e+02 1.481804999999999836e+03
1.020000000000000073e-01 5.194684999999999997e-01 3.739220000000000255e+01 1.517205000000000155e+02 1.481829999999999927e+03
1.030000000000000082e-01 5.194665000000000532e-01 3.661910000000000309e+01 1.516290000000000191e+02 1.481829999999999927e+03
1.040000000000000091e-01 5.194569999999999466e-01 3.584779999999999944e+01 1.515040000000000191e+02 1.481809999999999945e+03
1.050000000000000100e-01 5.194419999999999593e-01 3.508370000000000033e+01 1.513534999999999968e+02 1.481784999999999854e+03
1.059999999999999970e-01 5.194229999999999681e-01 3.433129999999999882e+01 1.511875000000000000e+02 1.481744999999999891e+03
1.069999999999999979e-01 5.194010000000000016e-01 3.359404999999999575e+01 1.510115000000000123e+02 1.481700000000000045e+03
1.079999999999999988e-01 5.193775000000000475e-01 3.287434999999999974e+01 1.508294999999999959e+02 1.481654999999999973e+03
1.089999999999999997e-01 5.193520000000000358e-01 3.217349999999999710e+01 1.506460000000000150e+02 1.481599999999999909e+03
1.100000000000000006e-01 5.193250000000000366e-01 3.149159999999999826e+01 1.504605000000000246e+02 1.481539999999999964e+03
1.110000000000000014e-01 5.192959999999999798e-01 3.082789999999999964e+01 1.502729999999999961e+02 1.481480000000000018e+03
1.120000000000000023e-01 5.192649999999999766e-01 3.018084999999999951e+01 1.500815000000000055e+02 1.481420000000000073e+03
1.130000000000000032e-01 5.192304999999999282e-01 2.954800000000000182e+01 1.498834999999999980e+02 1.481355000000000018e+03
1.140000000000000041e-01 5.191924999999999457e-01 2.892654999999999887e+01 1.496739999999999782e+02 1.481284999999999854e+03
1.150000000000000050e-01 5.191494999999999305e-01 2.831325000000000003e+01 1.494480000000000075e+02 1.481204999999999927e+03
1.160000000000000059e-01 5.191004999999999647e-01 2.770465000000000089e+01 1.492015000000000100e+02 1.481125000000000000e+03
1.170000000000000068e-01 5.190445000000000197e-01 2.709734999999999872e+01 1.489284999999999854e+02 1.481029999999999973e+03
1.180000000000000077e-01 5.189799999999999969e-01 2.648805000000000121e+01 1.486245000000000118e+02 1.480934999999999945e+03
1.190000000000000085e-01 5.189070000000000071e-01 2.587369999999999948e+01 1.482849999999999966e+02 1.480819999999999936e+03
1.200000000000000094e-01 5.188245000000000218e-01 2.525179999999999936e+01 1.479060000000000059e+02 1.480695000000000164e+03
1.209999999999999964e-01 5.187325000000000408e-01 2.462024999999999864e+01 1.474864999999999782e+02 1.480559999999999945e+03
1.219999999999999973e-01 5.186304999999999943e-01 2.397755000000000081e+01 1.470240000000000009e+02 1.480409999999999854e+03
1.229999999999999982e-01 5.185184999999999933e-01 2.332290000000000063e+01 1.465180000000000007e+02 1.480244999999999891e+03
1.239999999999999991e-01 5.183975000000000666e-01 2.265619999999999834e+01 1.459694999999999823e+02 1.480065000000000055e+03
1.250000000000000000e-01 5.182670000000000332e-01 2.197800000000000153e+01 1.453810000000000002e+02 1.479875000000000000e+03
1.260000000000000009e-01 5.181294999999999096e-01 2.128975000000000151e+01 1.447554999999999836e+02 1.479675000000000182e+03
1.270000000000000018e-01 5.179844999999999589e-01 2.059319999999999951e+01 1.440975000000000250e+02 1.479460000000000036e+03
1.280000000000000027e-01 5.178339999999999055e-01 1.989110000000000156e+01 1.434119999999999777e+02 1.479235000000000127e+03
1.290000000000000036e-01 5.176794999999999591e-01 1.918655000000000044e+01 1.427059999999999889e+02 1.479005000000000109e+03
1.300000000000000044e-01 5.175224999999999964e-01 1.848315000000000197e+01 1.419865000000000066e+02 1.478769999999999982e+03
1.310000000000000053e-01 5.173649999999999638e-01 1.778484999999999872e+01 1.412599999999999909e+02 1.478530000000000200e+03
1.320000000000000062e-01 5.172075000000000422e-01 1.709584999999999866e+01 1.405349999999999966e+02 1.478289999999999964e+03
1.330000000000000071e-01 5.170529999999999848e-01 1.642040000000000077e+01 1.398195000000000050e+02 1.478045000000000073e+03
1.340000000000000080e-01 5.169030000000000014e-01 1.576290000000000191e+01 1.391204999999999927e+02 1.477809999999999945e+03
1.350000000000000089e-01 5.167585000000000095e-01 1.512739999999999974e+01 1.384465000000000146e+02 1.477574999999999818e+03
1.360000000000000098e-01 5.166214999999999558e-01 1.451778499999999994e+01 1.378034999999999854e+02 1.477355000000000018e+03
1.370000000000000107e-01 5.164925000000000210e-01 1.393750500000000159e+01 1.371965000000000146e+02 1.477144999999999982e+03
1.380000000000000115e-01 5.163735000000000408e-01 1.338952000000000098e+01 1.366324999999999932e+02 1.476945000000000164e+03
1.390000000000000124e-01 5.162645000000000151e-01 1.287611000000000061e+01 1.361134999999999877e+02 1.476755000000000109e+03
1.400000000000000133e-01 5.161660000000000137e-01 1.239911500000000188e+01 1.356440000000000055e+02 1.476585000000000036e+03
1.410000000000000142e-01 5.160780000000000367e-01 1.195953499999999892e+01 1.352235000000000014e+02 1.476429999999999836e+03
1.420000000000000151e-01 5.160015000000000018e-01 1.155763999999999925e+01 1.348539999999999850e+02 1.476289999999999964e+03
1.430000000000000160e-01 5.159344999999999626e-01 1.119316999999999851e+01 1.345339999999999918e+02 1.476159999999999854e+03
1.440000000000000169e-01 5.158780000000000587e-01 1.086517500000000069e+01 1.342609999999999957e+02 1.476055000000000064e+03
1.450000000000000178e-01 5.158309999999999285e-01 1.057213499999999939e+01 1.340324999999999989e+02 1.475960000000000036e+03
1.459999999999999909e-01 5.157914999999999583e-01 1.031203499999999984e+01 1.338439999999999941e+02 1.475880000000000109e+03
1.469999999999999918e-01 5.157595000000000374e-01 1.008247500000000052e+01 1.336920000000000073e+02 1.475804999999999836e+03
1.479999999999999927e-01 5.157340000000000257e-01 9.880914999999999893e+00 1.335710000000000264e+02 1.475750000000000000e+03
1.489999999999999936e-01 5.157130000000000880e-01 9.704449999999999577e+00 1.334759999999999991e+02 1.475700000000000045e+03
1.499999999999999944e-01 5.156965000000000021e-01 9.550229999999999109e+00 1.334019999999999868e+02 1.475660000000000082e+03
1.509999999999999953e-01 5.156834999999999614e-01 9.415430000000000632e+00 1.333439999999999941e+02 1.475630000000000109e+03
1.519999999999999962e-01 5.156720000000000192e-01 9.297219999999999374e+00 1.332975000000000136e+02 1.475599999999999909e+03
1.529999999999999971e-01 5.156614999999999949e-01 9.193070000000000519e+00 1.332579999999999814e+02 1.475575000000000045e+03
1.539999999999999980e-01 5.156514999999999294e-01 9.100505000000000067e+00 1.332230000000000132e+02 1.475549999999999955e+03
1.549999999999999989e-01 5.156425000000000036e-01 9.017424999999999358e+00 1.331879999999999882e+02 1.475534999999999854e+03
1.559999999999999998e-01 5.156324999999999381e-01 8.941869999999999763e+00 1.331510000000000105e+02 1.475509999999999991e+03
1.570000000000000007e-01 5.156214999999999549e-01 8.872225000000000250e+00 1.331105000000000018e+02 1.475494999999999891e+03
1.580000000000000016e-01 5.156094999999999429e-01 8.807075000000001097e+00 1.330654999999999859e+02 1.475474999999999909e+03
1.590000000000000024e-01 5.155965000000000131e-01 8.745294999999998709e+00 1.330140000000000100e+02 1.475450000000000045e+03
