# t [s], A [cm^2], U [cm/s], P [cPa], c [cm/s]
1.000000000000000021e-03 1.348270000000000024e-01 2.558624999999999927e-01 9.246659999999999968e+01 1.842164999999999964e+03
2.000000000000000042e-03 1.348084999999999978e-01 1.618426999999999838e+00 8.976730000000000587e+01 1.841944999999999936e+03
3.000000000000000062e-03 1.347320000000000184e-01 3.296742499999999687e+00 8.626150000000001228e+01 1.841095000000000027e+03
4.000000000000000083e-03 1.346154999999999990e-01 5.159578500000000290e+00 8.231589999999999918e+01 1.839809999999999945e+03
5.000000000000000104e-03 1.344785000000000008e-01 7.162180000000000213e+00 7.854439999999999600e+01 1.838320000000000164e+03
6.000000000000000125e-03 1.343369999999999842e-01 9.219820000000000348e+00 7.529425000000000523e+01 1.836784999999999854e+03
7.000000000000000146e-03 1.341990000000000127e-01 1.119910499999999942e+01 7.256555000000000177e+01 1.835309999999999945e+03
8.000000000000000167e-03 1.340675000000000061e-01 1.298704999999999998e+01 7.017874999999999375e+01 1.833930000000000064e+03
9.000000000000001055e-03 1.339444999999999941e-01 1.455085499999999854e+01 6.802554999999999552e+01 1.832650000000000091e+03
1.000000000000000194e-02 1.338329999999999798e-01 1.591089999999999982e+01 6.612595000000000312e+01 1.831500000000000000e+03
1.099999999999999936e-02 1.337345000000000061e-01 1.708719999999999928e+01 6.451320000000001187e+01 1.830500000000000000e+03
1.200000000000000025e-02 1.336495000000000044e-01 1.808780000000000143e+01 6.317364999999999498e+01 1.829644999999999982e+03
1.300000000000000114e-02 1.335770000000000013e-01 1.891794999999999760e+01 6.206624999999999659e+01 1.828920000000000073e+03
1.400000000000000203e-02 1.335159999999999958e-01 1.958084999999999809e+01 6.113684999999999548e+01 1.828315000000000055e+03
1.499999999999999944e-02 1.334635000000000127e-01 2.008064999999999856e+01 6.032335000000000491e+01 1.827809999999999945e+03
1.600000000000000033e-02 1.334184999999999954e-01 2.043704999999999927e+01 5.958825000000000216e+01 1.827380000000000109e+03
1.700000000000000122e-02 1.333799999999999986e-01 2.070004999999999740e+01 5.896715000000000373e+01 1.827014999999999873e+03
1.800000000000000211e-02 1.333509999999999973e-01 2.094599999999999795e+01 5.858395000000000152e+01 1.826744999999999891e+03
1.900000000000000300e-02 1.333340000000000081e-01 2.125420000000000087e+01 5.860685000000000144e+01 1.826594999999999800e+03
2.000000000000000042e-02 1.333330000000000071e-01 2.167674999999999841e+01 5.916769999999999641e+01 1.826595000000000027e+03
2.100000000000000130e-02 1.333499999999999963e-01 2.221880000000000166e+01 6.029054999999999609e+01 1.826769999999999982e+03
2.200000000000000219e-02 1.333834999999999882e-01 2.283749999999999858e+01 6.186469999999999914e+01 1.827119999999999891e+03
2.299999999999999961e-02 1.334305000000000074e-01 2.345745000000000147e+01 6.366995000000000005e+01 1.827594999999999800e+03
2.400000000000000050e-02 1.334825000000000039e-01 2.399474999999999980e+01 6.543784999999999741e+01 1.828139999999999873e+03
2.500000000000000139e-02 1.335345000000000004e-01 2.438015000000000043e+01 6.692260000000000275e+01 1.828679999999999836e+03
2.600000000000000228e-02 1.335799999999999765e-01 2.457535000000000025e+01 6.795849999999998658e+01 1.829154999999999973e+03
2.700000000000000316e-02 1.336144999999999972e-01 2.457750000000000057e+01 6.848840000000001282e+01 1.829525000000000091e+03
2.800000000000000058e-02 1.336370000000000058e-01 2.441430000000000078e+01 6.855944999999999823e+01 1.829775000000000091e+03
2.900000000000000147e-02 1.336479999999999890e-01 2.413090000000000046e+01 6.829214999999999236e+01 1.829904999999999973e+03
3.000000000000000236e-02 1.336505000000000054e-01 2.377550000000000097e+01 6.783575000000000443e+01 1.829940000000000055e+03
3.099999999999999978e-02 1.336470000000000158e-01 2.338615000000000066e+01 6.732380000000000564e+01 1.829914999999999964e+03
3.200000000000000067e-02 1.336400000000000088e-01 2.298339999999999961e+01 6.684295000000000186e+01 1.829855000000000018e+03
3.300000000000000155e-02 1.336320000000000008e-01 2.256980000000000075e+01 6.642119999999999891e+01 1.829775000000000091e+03
3.400000000000000244e-02 1.336225000000000052e-01 2.213419999999999987e+01 6.603504999999999825e+01 1.829684999999999945e+03
3.500000000000000333e-02 1.336120000000000085e-01 2.166015000000000157e+01 6.563020000000000209e+01 1.829585000000000036e+03
3.600000000000000422e-02 1.335999999999999965e-01 2.113455000000000084e+01 6.514849999999999852e+01 1.829465000000000146e+03
3.700000000000000511e-02 1.335834999999999939e-01 2.055510000000000304e+01 6.455334999999999468e+01 1.829309999999999945e+03
3.799999999999999906e-02 1.335640000000000160e-01 1.993414999999999893e+01 6.384680000000000177e+01 1.829115000000000009e+03
3.899999999999999994e-02 1.335415000000000074e-01 1.929879999999999995e+01 6.307524999999999693e+01 1.828889999999999873e+03
4.000000000000000083e-02 1.335175000000000112e-01 1.868690000000000140e+01 6.232269999999999754e+01 1.828650000000000091e+03
4.100000000000000172e-02 1.334950000000000025e-01 1.814010000000000034e+01 6.169369999999999266e+01 1.828420000000000073e+03
4.200000000000000261e-02 1.334764999999999979e-01 1.769579999999999842e+01 6.129090000000000060e+01 1.828230000000000018e+03
4.300000000000000350e-02 1.334644999999999859e-01 1.738025000000000020e+01 6.119249999999999545e+01 1.828105000000000018e+03
4.400000000000000439e-02 1.334609999999999963e-01 1.720329999999999870e+01 6.143529999999999802e+01 1.828065000000000055e+03
4.499999999999999833e-02 1.334675000000000167e-01 1.715695000000000192e+01 6.200639999999999930e+01 1.828119999999999891e+03
4.599999999999999922e-02 1.334835000000000049e-01 1.721659999999999968e+01 6.284454999999999814e+01 1.828269999999999982e+03
4.700000000000000011e-02 1.335069999999999868e-01 1.734525000000000006e+01 6.385025000000000261e+01 1.828500000000000000e+03
4.800000000000000100e-02 1.335355000000000014e-01 1.749900000000000233e+01 6.490160000000000196e+01 1.828780000000000200e+03
4.900000000000000189e-02 1.335660000000000180e-01 1.763299999999999912e+01 6.587210000000000321e+01 1.829085000000000036e+03
5.000000000000000278e-02 1.335939999999999905e-01 1.770665000000000333e+01 6.664709999999999468e+01 1.829369999999999891e+03
5.100000000000000366e-02 1.336169999999999858e-01 1.768740000000000023e+01 6.713649999999999807e+01 1.829610000000000127e+03
5.200000000000000455e-02 1.336330000000000018e-01 1.755304999999999893e+01 6.728209999999999980e+01 1.829769999999999982e+03
5.300000000000000544e-02 1.336390000000000078e-01 1.729169999999999874e+01 6.705930000000000746e+01 1.829835000000000036e+03
5.399999999999999939e-02 1.336344999999999894e-01 1.690149999999999864e+01 6.647405000000000541e+01 1.829795000000000073e+03
5.500000000000000028e-02 1.336185000000000012e-01 1.638834999999999908e+01 6.555689999999999884e+01 1.829644999999999982e+03
5.600000000000000117e-02 1.335925000000000029e-01 1.576420000000000066e+01 6.435495000000000232e+01 1.829384999999999991e+03
5.700000000000000205e-02 1.335574999999999957e-01 1.504459999999999908e+01 6.292435000000000400e+01 1.829029999999999973e+03
5.800000000000000294e-02 1.335139999999999938e-01 1.424745000000000061e+01 6.132394999999999641e+01 1.828595000000000027e+03
5.900000000000000383e-02 1.334639999999999993e-01 1.339179999999999993e+01 5.961135000000000161e+01 1.828090000000000146e+03
6.000000000000000472e-02 1.334089999999999998e-01 1.249750500000000031e+01 5.784069999999999823e+01 1.827529999999999973e+03
6.099999999999999867e-02 1.333509999999999973e-01 1.158510000000000062e+01 5.606255000000000166e+01 1.826944999999999936e+03
6.199999999999999956e-02 1.332915000000000072e-01 1.067600000000000016e+01 5.432515000000000072e+01 1.826345000000000027e+03
6.300000000000000044e-02 1.332315000000000027e-01 9.792619999999999436e+00 5.267560000000000286e+01 1.825740000000000009e+03
6.400000000000000133e-02 1.331740000000000146e-01 8.958645000000000636e+00 5.116140000000000043e+01 1.825155000000000200e+03
6.500000000000000222e-02 1.331200000000000161e-01 8.198674999999999713e+00 4.983135000000000048e+01 1.824605000000000018e+03
6.600000000000000311e-02 1.330715000000000092e-01 7.537715000000000387e+00 4.873474999999999824e+01 1.824110000000000127e+03
6.700000000000000400e-02 1.330299999999999816e-01 7.000510000000000232e+00 4.792100000000000648e+01 1.823684999999999945e+03
6.800000000000000488e-02 1.329980000000000051e-01 6.610504999999999853e+00 4.743710000000000093e+01 1.823349999999999909e+03
6.900000000000000577e-02 1.329755000000000242e-01 6.388749999999999929e+00 4.732560000000000144e+01 1.823114999999999782e+03
7.000000000000000666e-02 1.329660000000000009e-01 6.352850000000000108e+00 4.762160000000000082e+01 1.823000000000000000e+03
7.100000000000000755e-02 1.329695000000000182e-01 6.516035000000000466e+00 4.835089999999999577e+01 1.823025000000000091e+03
7.200000000000000844e-02 1.329870000000000219e-01 6.886440000000000339e+00 4.952759999999999962e+01 1.823195000000000164e+03
7.300000000000000933e-02 1.330195000000000127e-01 7.466664999999999885e+00 5.115349999999999397e+01 1.823509999999999991e+03
7.399999999999999634e-02 1.330680000000000196e-01 8.253695000000000448e+00 5.321770000000000067e+01 1.823980000000000018e+03
7.499999999999999722e-02 1.331305000000000127e-01 9.239055000000000462e+00 5.569684999999999775e+01 1.824599999999999909e+03
7.599999999999999811e-02 1.332085000000000075e-01 1.040944000000000003e+01 5.855695000000000050e+01 1.825375000000000000e+03
7.699999999999999900e-02 1.332995000000000152e-01 1.174717500000000037e+01 6.175495000000000090e+01 1.826289999999999964e+03
7.799999999999999989e-02 1.334035000000000082e-01 1.323142999999999958e+01 6.524135000000001128e+01 1.827329999999999927e+03
7.900000000000000078e-02 1.335175000000000112e-01 1.483899999999999864e+01 6.896269999999999811e+01 1.828489999999999782e+03
8.000000000000000167e-02 1.336415000000000242e-01 1.654529999999999745e+01 7.286439999999998918e+01 1.829740000000000009e+03
8.100000000000000255e-02 1.337730000000000030e-01 1.832574999999999932e+01 7.689300000000000068e+01 1.831079999999999927e+03
8.200000000000000344e-02 1.339104999999999879e-01 2.015625000000000000e+01 8.099880000000000280e+01 1.832474999999999909e+03
8.300000000000000433e-02 1.340520000000000045e-01 2.201460000000000150e+01 8.513765000000000782e+01 1.833925000000000182e+03
8.400000000000000522e-02 1.341970000000000107e-01 2.388044999999999973e+01 8.927219999999999800e+01 1.835404999999999973e+03
8.500000000000000611e-02 1.343429999999999902e-01 2.573655000000000115e+01 9.337279999999999802e+01 1.836900000000000091e+03
8.600000000000000699e-02 1.344885000000000108e-01 2.756839999999999691e+01 9.741845000000000709e+01 1.838414999999999964e+03
8.700000000000000788e-02 1.346344999999999903e-01 2.936479999999999890e+01 1.013953500000000076e+02 1.839914999999999964e+03
8.800000000000000877e-02 1.347789999999999822e-01 3.111735000000000184e+01 1.052972000000000037e+02 1.841410000000000082e+03
8.899999999999999578e-02 1.349219999999999864e-01 3.282039999999999935e+01 1.091225000000000023e+02 1.842905000000000200e+03
8.999999999999999667e-02 1.350635000000000030e-01 3.447039999999999793e+01 1.128754999999999882e+02 1.844369999999999891e+03
9.099999999999999756e-02 1.352030000000000176e-01 3.606579999999999586e+01 1.165619999999999976e+02 1.845825000000000045e+03
9.199999999999999845e-02 1.353409999999999891e-01 3.760604999999999620e+01 1.201905000000000001e+02 1.847264999999999873e+03
9.299999999999999933e-02 1.354764999999999997e-01 3.909140000000000015e+01 1.237680000000000007e+02 1.848690000000000055e+03
9.400000000000000022e-02 1.356104999999999949e-01 4.052224999999999966e+01 1.272994999999999948e+02 1.850095000000000027e+03
9.500000000000000111e-02 1.357440000000000035e-01 4.189894999999999925e+01 1.307895000000000039e+02 1.851494999999999891e+03
9.600000000000000200e-02 1.358754999999999824e-01 4.322115000000000151e+01 1.342379999999999995e+02 1.852875000000000000e+03
9.700000000000000289e-02 1.360049999999999870e-01 4.448789999999999623e+01 1.376419999999999959e+02 1.854250000000000000e+03
9.800000000000000377e-02 1.361335000000000184e-01 4.569745000000000346e+01 1.409950000000000045e+02 1.855599999999999909e+03
9.900000000000000466e-02 1.362599999999999922e-01 4.684714999999999918e+01 1.442869999999999777e+02 1.856945000000000164e+03
1.000000000000000056e-01 1.363845000000000196e-01 4.793354999999999677e+01 1.475064999999999884e+02 1.858259999999999991e+03
1.010000000000000064e-01 1.365069999999999895e-01 4.895244999999999891e+01 1.506385000000000218e+02 1.859549999999999955e+03
1.020000000000000073e-01 1.366255000000000108e-01 4.989929999999999666e+01 1.536670000000000016e+02 1.860815000000000055e+03
1.030000000000000082e-01 1.367410000000000014e-01 5.076885000000000048e+01 1.565755000000000052e+02 1.862045000000000073e+03
1.040000000000000091e-01 1.368524999999999880e-01 5.155610000000000070e+01 1.593474999999999966e+02 1.863230000000000018e+03
1.050000000000000100e-01 1.369589999999999974e-01 5.225574999999999903e+01 1.619660000000000082e+02 1.864364999999999782e+03
1.059999999999999970e-01 1.370605000000000018e-01 5.286294999999999789e+01 1.644155000000000086e+02 1.865454999999999927e+03
1.069999999999999979e-01 1.371565000000000145e-01 5.337335000000000207e+01 1.666829999999999927e+02 1.866480000000000018e+03
1.079999999999999988e-01 1.372460000000000069e-01 5.378314999999999912e+01 1.687545000000000073e+02 1.867440000000000055e+03
1.089999999999999997e-01 1.373285000000000200e-01 5.408939999999999770e+01 1.706225000000000023e+02 1.868329999999999927e+03
1.100000000000000006e-01 1.374049999999999994e-01 5.429025000000000034e+01 1.722780000000000200e+02 1.869150000000000091e+03
1.110000000000000014e-01 1.374730000000000119e-01 5.438485000000000014e+01 1.737175000000000011e+02 1.869889999999999873e+03
1.120000000000000023e-01 1.375339999999999896e-01 5.437380000000000280e+01 1.749389999999999930e+02 1.870549999999999955e+03
1.130000000000000032e-01 1.375870000000000148e-01 5.425884999999999536e+01 1.759449999999999932e+02 1.871130000000000109e+03
1.140000000000000041e-01 1.376330000000000053e-01 5.404330000000000211e+01 1.767409999999999854e+02 1.871625000000000000e+03
1.150000000000000050e-01 1.376709999999999878e-01 5.373154999999999859e+01 1.773335000000000150e+02 1.872045000000000073e+03
1.160000000000000059e-01 1.377015000000000045e-01 5.332954999999999757e+01 1.777350000000000136e+02 1.872384999999999991e+03
1.170000000000000068e-01 1.377255000000000007e-01 5.284440000000000026e+01 1.779585000000000150e+02 1.872650000000000091e+03
1.180000000000000077e-01 1.377424999999999899e-01 5.228399999999999892e+01 1.780204999999999984e+02 1.872840000000000146e+03
1.190000000000000085e-01 1.377539999999999876e-01 5.165735000000000099e+01 1.779370000000000118e+02 1.872965000000000146e+03
1.200000000000000094e-01 1.377589999999999926e-01 5.097370000000000090e+01 1.777280000000000086e+02 1.873039999999999964e+03
1.209999999999999964e-01 1.377595000000000069e-01 5.024290000000000589e+01 1.774120000000000061e+02 1.873050000000000182e+03
1.219999999999999973e-01 1.377555000000000029e-01 4.947455000000000069e+01 1.770080000000000098e+02 1.873014999999999873e+03
1.229999999999999982e-01 1.377480000000000093e-01 4.867820000000000391e+01 1.765344999999999800e+02 1.872940000000000055e+03
1.239999999999999991e-01 1.377369999999999983e-01 4.786280000000000001e+01 1.760084999999999980e+02 1.872829999999999927e+03
1.250000000000000000e-01 1.377234999999999987e-01 4.703655000000000541e+01 1.754449999999999932e+02 1.872690000000000055e+03
1.260000000000000009e-01 1.377079999999999971e-01 4.620680000000000121e+01 1.748565000000000111e+02 1.872529999999999973e+03
1.270000000000000018e-01 1.376910000000000078e-01 4.537995000000000090e+01 1.742549999999999955e+02 1.872349999999999909e+03
1.280000000000000027e-01 1.376729999999999898e-01 4.456099999999999994e+01 1.736475000000000080e+02 1.872154999999999973e+03
1.290000000000000036e-01 1.376539999999999986e-01 4.375399999999999778e+01 1.730405000000000086e+02 1.871954999999999927e+03
1.300000000000000044e-01 1.376344999999999930e-01 4.296164999999999878e+01 1.724364999999999952e+02 1.871740000000000009e+03
1.310000000000000053e-01 1.376145000000000007e-01 4.218550000000000466e+01 1.718365000000000009e+02 1.871529999999999973e+03
1.320000000000000062e-01 1.375939999999999941e-01 4.142610000000000525e+01 1.712395000000000209e+02 1.871315000000000055e+03
1.330000000000000071e-01 1.375730000000000008e-01 4.068274999999999864e+01 1.706424999999999841e+02 1.871089999999999918e+03
1.340000000000000080e-01 1.375525000000000220e-01 3.995405000000000229e+01 1.700395000000000039e+02 1.870865000000000009e+03
1.350000000000000089e-01 1.375315000000000010e-01 3.923784999999999457e+01 1.694259999999999877e+02 1.870634999999999991e+03
1.360000000000000098e-01 1.375089999999999923e-01 3.853130000000000166e+01 1.687934999999999945e+02 1.870400000000000091e+03
1.370000000000000107e-01 1.374859999999999971e-01 3.783119999999999550e+01 1.681365000000000123e+02 1.870154999999999973e+03
1.380000000000000115e-01 1.374624999999999875e-01 3.713410000000000366e+01 1.674465000000000146e+02 1.869904999999999973e+03
1.390000000000000124e-01 1.374380000000000046e-01 3.643649999999999523e+01 1.667160000000000082e+02 1.869634999999999991e+03
1.400000000000000133e-01 1.374115000000000197e-01 3.573505000000000109e+01 1.659395000000000095e+02 1.869355000000000018e+03
1.410000000000000142e-01 1.373840000000000061e-01 3.502655000000000030e+01 1.651100000000000136e+02 1.869054999999999836e+03
1.420000000000000151e-01 1.373540000000000039e-01 3.430819999999999936e+01 1.642239999999999895e+02 1.868740000000000009e+03
1.430000000000000160e-01 1.373225000000000140e-01 3.357784999999999798e+01 1.632764999999999986e+02 1.868405000000000200e+03
1.440000000000000169e-01 1.372889999999999944e-01 3.283395000000000152e+01 1.622680000000000007e+02 1.868049999999999955e+03
1.450000000000000178e-01 1.372535000000000005e-01 3.207554999999999978e+01 1.611974999999999909e+02 1.867670000000000073e+03
1.459999999999999909e-01 1.372154999999999903e-01 3.130280000000000129e+01 1.600664999999999907e+02 1.867264999999999873e+03
1.469999999999999918e-01 1.371755000000000058e-01 3.051644999999999897e+01 1.588795000000000073e+02 1.866839999999999918e+03
1.479999999999999927e-01 1.371330000000000049e-01 2.971809999999999974e+01 1.576410000000000196e+02 1.866394999999999982e+03
1.489999999999999936e-01 1.370895000000000030e-01 2.891029999999999944e+01 1.563589999999999804e+02 1.865930000000000064e+03
1.499999999999999944e-01 1.370439999999999992e-01 2.809625000000000128e+01 1.550425000000000182e+02 1.865450000000000045e+03
1.509999999999999953e-01 1.369974999999999943e-01 2.727989999999999782e+01 1.537005000000000052e+02 1.864954999999999927e+03
1.519999999999999962e-01 1.369495000000000018e-01 2.646560000000000201e+01 1.523449999999999989e+02 1.864450000000000045e+03
1.529999999999999971e-01 1.369009999999999949e-01 2.565834999999999866e+01 1.509870000000000232e+02 1.863940000000000055e+03
1.539999999999999980e-01 1.368524999999999880e-01 2.486314999999999742e+01 1.496399999999999864e+02 1.863420000000000073e+03
1.549999999999999989e-01 1.368039999999999812e-01 2.408514999999999873e+01 1.483145000000000095e+02 1.862905000000000200e+03
1.559999999999999998e-01 1.367555000000000021e-01 2.332945000000000135e+01 1.470229999999999961e+02 1.862389999999999873e+03
1.570000000000000007e-01 1.367079999999999962e-01 2.260085000000000122e+01 1.457750000000000057e+02 1.861894999999999982e+03
1.580000000000000016e-01 1.366620000000000057e-01 2.190370000000000061e+01 1.445810000000000173e+02 1.861404999999999973e+03
1.590000000000000024e-01 1.366180000000000172e-01 2.124179999999999779e+01 1.434490000000000123e+02 1.860929999999999836e+03
