# t [s], A [cm^2], U [cm/s], P [cPa], c [cm/s]
1.000000000000000021e-03 1.944855000000000056e-01 2.815999000000000141e-01 8.867140000000000555e+01 2.126235000000000127e+03
2.000000000000000042e-03 1.944374999999999853e-01 1.653723999999999972e+00 8.560394999999999754e+01 2.125845000000000255e+03
3.000000000000000062e-03 1.943090000000000095e-01 3.351166499999999715e+00 8.133559999999999945e+01 2.124860000000000127e+03
4.000000000000000083e-03 1.941350000000000020e-01 5.266560500000000644e+00 7.672629999999999484e+01 2.123539999999999964e+03
5.000000000000000104e-03 1.939504999999999979e-01 7.331849999999999312e+00 7.266044999999999732e+01 2.122144999999999982e+03
6.000000000000000125e-03 1.937750000000000028e-01 9.363649999999999807e+00 6.938864999999999839e+01 2.120840000000000146e+03
7.000000000000000146e-03 1.936114999999999919e-01 1.114395000000000024e+01 6.660665000000000191e+01 2.119654999999999745e+03
8.000000000000000167e-03 1.934624999999999817e-01 1.260869500000000087e+01 6.409739999999999327e+01 2.118585000000000036e+03
9.000000000000001055e-03 1.933330000000000048e-01 1.380742500000000028e+01 6.195195000000000363e+01 2.117675000000000182e+03
1.000000000000000194e-02 1.932260000000000089e-01 1.477349999999999852e+01 6.024519999999999698e+01 2.116925000000000182e+03
1.099999999999999936e-02 1.931404999999999927e-01 1.552144999999999975e+01 5.894219999999999970e+01 2.116340000000000146e+03
1.200000000000000025e-02 1.930740000000000234e-01 1.606275000000000119e+01 5.796779999999999688e+01 2.115890000000000327e+03
1.300000000000000114e-02 1.930215000000000125e-01 1.639665000000000106e+01 5.719809999999999661e+01 2.115545000000000073e+03
1.400000000000000203e-02 1.929790000000000116e-01 1.654064999999999941e+01 5.651529999999999632e+01 2.115269999999999982e+03
1.499999999999999944e-02 1.929454999999999920e-01 1.658389999999999986e+01 5.597814999999999941e+01 2.115059999999999945e+03
1.600000000000000033e-02 1.929279999999999884e-01 1.668544999999999945e+01 5.589929999999999666e+01 2.114954999999999927e+03
1.700000000000000122e-02 1.929385000000000128e-01 1.699920000000000186e+01 5.668779999999999575e+01 2.115034999999999854e+03
1.800000000000000211e-02 1.929839999999999889e-01 1.758375000000000199e+01 5.856525000000000603e+01 2.115360000000000127e+03
1.900000000000000300e-02 1.930645000000000000e-01 1.836439999999999984e+01 6.137210000000000321e+01 2.115920000000000073e+03
2.000000000000000042e-02 1.931674999999999920e-01 1.916454999999999842e+01 6.458419999999999561e+01 2.116644999999999982e+03
2.100000000000000130e-02 1.932740000000000014e-01 1.978089999999999904e+01 6.750955000000000439e+01 2.117404999999999745e+03
2.200000000000000219e-02 1.933640000000000081e-01 2.006119999999999948e+01 6.954800000000000182e+01 2.118069999999999709e+03
2.299999999999999961e-02 1.934239999999999848e-01 1.995315000000000083e+01 7.039295000000001323e+01 2.118514999999999873e+03
2.400000000000000050e-02 1.934484999999999955e-01 1.950829999999999842e+01 7.010069999999998913e+01 2.118715000000000146e+03
2.500000000000000139e-02 1.934425000000000172e-01 1.884680000000000177e+01 6.901709999999999923e+01 2.118699999999999818e+03
2.600000000000000228e-02 1.934170000000000056e-01 1.810320000000000107e+01 6.760909999999999798e+01 2.118530000000000200e+03
2.700000000000000316e-02 1.933829999999999993e-01 1.737640000000000029e+01 6.628055000000000518e+01 2.118300000000000182e+03
2.800000000000000058e-02 1.933500000000000218e-01 1.670270000000000010e+01 6.524520000000001119e+01 2.118069999999999709e+03
2.900000000000000147e-02 1.933215000000000072e-01 1.605819999999999936e+01 6.449314999999999998e+01 2.117864999999999782e+03
3.000000000000000236e-02 1.932955000000000090e-01 1.538245000000000040e+01 6.384584999999999866e+01 2.117675000000000182e+03
3.099999999999999978e-02 1.932669999999999944e-01 1.461394999999999911e+01 6.306490000000000151e+01 2.117474999999999909e+03
3.200000000000000067e-02 1.932304999999999995e-01 1.372240000000000038e+01 6.197084999999999866e+01 2.117220000000000255e+03
3.300000000000000155e-02 1.931829999999999936e-01 1.272925000000000040e+01 6.053154999999999575e+01 2.116890000000000327e+03
3.400000000000000244e-02 1.931269999999999931e-01 1.170834500000000133e+01 5.889294999999999902e+01 2.116505000000000109e+03
3.500000000000000333e-02 1.930700000000000194e-01 1.076887999999999934e+01 5.734435000000000571e+01 2.116105000000000018e+03
3.600000000000000422e-02 1.930215000000000125e-01 1.002505500000000005e+01 5.623215000000000430e+01 2.115755000000000109e+03
3.700000000000000511e-02 1.929914999999999825e-01 9.563945000000000363e+00 5.585294999999999987e+01 2.115530000000000200e+03
3.799999999999999906e-02 1.929879999999999929e-01 9.421450000000000102e+00 5.636280000000000001e+01 2.115484999999999673e+03
3.899999999999999994e-02 1.930129999999999901e-01 9.573055000000000092e+00 5.772939999999999827e+01 2.115644999999999982e+03
4.000000000000000083e-02 1.930634999999999990e-01 9.940159999999998774e+00 5.973754999999999882e+01 2.115985000000000127e+03
4.100000000000000172e-02 1.931324999999999847e-01 1.040822999999999965e+01 6.203994999999999749e+01 2.116454999999999927e+03
4.200000000000000261e-02 1.932070000000000176e-01 1.085040000000000049e+01 6.423329999999999984e+01 2.116975000000000364e+03
4.300000000000000350e-02 1.932750000000000024e-01 1.114995000000000047e+01 6.593845000000000312e+01 2.117460000000000036e+03
4.400000000000000439e-02 1.933249999999999968e-01 1.121764999999999901e+01 6.686449999999999250e+01 2.117819999999999709e+03
4.499999999999999833e-02 1.933480000000000198e-01 1.100039999999999907e+01 6.684575000000000955e+01 2.117994999999999891e+03
4.599999999999999922e-02 1.933400000000000118e-01 1.048223000000000127e+01 6.584890000000000043e+01 2.117954999999999927e+03
4.700000000000000011e-02 1.933004999999999862e-01 9.678619999999998669e+00 6.395369999999999777e+01 2.117680000000000291e+03
4.800000000000000100e-02 1.932300000000000129e-01 8.627114999999999867e+00 6.131844999999999857e+01 2.117199999999999818e+03
4.900000000000000189e-02 1.931350000000000011e-01 7.377650000000000041e+00 5.814010000000000389e+01 2.116534999999999854e+03
5.000000000000000278e-02 1.930199999999999971e-01 5.984280000000000044e+00 5.461984999999999957e+01 2.115730000000000018e+03
5.100000000000000366e-02 1.928924999999999945e-01 4.500232500000000080e+00 5.094015000000000271e+01 2.114835000000000036e+03
5.200000000000000455e-02 1.927579999999999849e-01 2.975966999999999807e+00 4.725504999999999711e+01 2.113880000000000109e+03
5.300000000000000544e-02 1.926220000000000154e-01 1.459550000000000125e+00 4.369129999999999825e+01 2.112920000000000073e+03
5.399999999999999939e-02 1.924889999999999934e-01 -1.780000000000114824e-03 4.035670000000000357e+01 2.111974999999999909e+03
5.500000000000000028e-02 1.923630000000000062e-01 -1.360130000000000283e+00 3.734984999999999644e+01 2.111079999999999927e+03
5.600000000000000117e-02 1.922490000000000032e-01 -2.566387399999999985e+00 3.476784999999999570e+01 2.110260000000000218e+03
5.700000000000000205e-02 1.921499999999999875e-01 -3.571044999999999803e+00 3.270935000000000059e+01 2.109554999999999836e+03
5.800000000000000294e-02 1.920719999999999927e-01 -4.326314999999999245e+00 3.127250000000000085e+01 2.108985000000000127e+03
5.900000000000000383e-02 1.920164999999999789e-01 -4.789225000000000065e+00 3.054840000000000089e+01 2.108574999999999818e+03
6.000000000000000472e-02 1.919879999999999920e-01 -4.925029999999999575e+00 3.061205000000000354e+01 2.108355000000000018e+03
6.099999999999999867e-02 1.919895000000000074e-01 -4.710295000000000343e+00 3.151310000000000144e+01 2.108345000000000255e+03
6.199999999999999956e-02 1.920219999999999982e-01 -4.135135000000000005e+00 3.326895000000000380e+01 2.108550000000000182e+03
6.300000000000000044e-02 1.920860000000000067e-01 -3.204299999999999926e+00 3.586039999999999850e+01 2.108980000000000018e+03
6.400000000000000133e-02 1.921815000000000051e-01 -1.936914500000000094e+00 3.923199999999999932e+01 2.109630000000000109e+03
6.500000000000000222e-02 1.923054999999999903e-01 -3.651750000000000274e-01 4.329534999999999911e+01 2.110489999999999782e+03
6.600000000000000311e-02 1.924560000000000159e-01 1.467864999999999975e+00 4.793585000000000207e+01 2.111534999999999854e+03
6.700000000000000400e-02 1.926280000000000214e-01 3.511102000000000167e+00 5.302084999999999582e+01 2.112735000000000127e+03
6.800000000000000488e-02 1.928170000000000162e-01 5.708390000000000519e+00 5.840869999999999607e+01 2.114065000000000055e+03
6.900000000000000577e-02 1.930184999999999818e-01 8.001720000000000610e+00 6.395735000000000525e+01 2.115484999999999673e+03
7.000000000000000666e-02 1.932269999999999821e-01 1.033427000000000007e+01 6.953340000000000032e+01 2.116970000000000255e+03
7.100000000000000755e-02 1.934379999999999988e-01 1.265324000000000026e+01 7.501869999999999550e+01 2.118470000000000255e+03
7.200000000000000844e-02 1.936464999999999992e-01 1.491240000000000165e+01 8.031659999999999400e+01 2.119965000000000146e+03
7.300000000000000933e-02 1.938499999999999945e-01 1.707385000000000019e+01 8.535620000000000118e+01 2.121425000000000182e+03
7.399999999999999634e-02 1.940459999999999963e-01 1.910944999999999894e+01 9.009425000000000239e+01 2.122829999999999927e+03
7.499999999999999722e-02 1.942320000000000157e-01 2.100120000000000076e+01 9.451539999999999964e+01 2.124175000000000182e+03
7.599999999999999811e-02 1.944079999999999975e-01 2.274099999999999966e+01 9.862864999999999327e+01 2.125449999999999818e+03
7.699999999999999900e-02 1.945729999999999960e-01 2.432959999999999923e+01 1.024654500000000041e+02 2.126654999999999745e+03
7.799999999999999989e-02 1.947294999999999998e-01 2.577470000000000283e+01 1.060710500000000138e+02 2.127789999999999964e+03
7.900000000000000078e-02 1.948779999999999957e-01 2.708924999999999983e+01 1.094989999999999952e+02 2.128875000000000000e+03
8.000000000000000167e-02 1.950204999999999855e-01 2.828904999999999959e+01 1.128050000000000068e+02 2.129914999999999964e+03
8.100000000000000255e-02 1.951585000000000125e-01 2.939075000000000060e+01 1.160399999999999920e+02 2.130925000000000182e+03
8.200000000000000344e-02 1.952935000000000088e-01 3.041004999999999825e+01 1.192454999999999927e+02 2.131914999999999964e+03
8.300000000000000433e-02 1.954275000000000040e-01 3.136014999999999731e+01 1.224505000000000052e+02 2.132894999999999982e+03
8.400000000000000522e-02 1.955609999999999848e-01 3.225095000000000312e+01 1.256715000000000089e+02 2.133869999999999891e+03
8.500000000000000611e-02 1.956939999999999791e-01 3.308845000000000169e+01 1.289070000000000107e+02 2.134840000000000146e+03
8.600000000000000699e-02 1.958274999999999877e-01 3.387439999999999429e+01 1.321455000000000268e+02 2.135820000000000164e+03
8.700000000000000788e-02 1.959599999999999953e-01 3.460684999999999434e+01 1.353639999999999759e+02 2.136784999999999854e+03
8.800000000000000877e-02 1.960910000000000153e-01 3.528029999999999688e+01 1.385280000000000200e+02 2.137744999999999891e+03
8.899999999999999578e-02 1.962200000000000055e-01 3.588654999999999973e+01 1.415999999999999943e+02 2.138684999999999945e+03
8.999999999999999667e-02 1.963444999999999774e-01 3.641525000000000034e+01 1.445370000000000061e+02 2.139600000000000364e+03
9.099999999999999756e-02 1.964635000000000131e-01 3.685495000000000232e+01 1.472955000000000041e+02 2.140469999999999800e+03
9.199999999999999845e-02 1.965760000000000007e-01 3.719365000000000521e+01 1.498340000000000032e+02 2.141295000000000073e+03
9.299999999999999933e-02 1.966789999999999927e-01 3.741995000000000005e+01 1.521150000000000091e+02 2.142055000000000291e+03
9.400000000000000022e-02 1.967720000000000025e-01 3.752344999999999686e+01 1.541050000000000182e+02 2.142744999999999891e+03
9.500000000000000111e-02 1.968544999999999878e-01 3.749589999999999890e+01 1.557785000000000082e+02 2.143360000000000127e+03
9.600000000000000200e-02 1.969245000000000023e-01 3.733145000000000380e+01 1.571175000000000068e+02 2.143875000000000000e+03
9.700000000000000289e-02 1.969819999999999904e-01 3.702750000000000341e+01 1.581140000000000043e+02 2.144305000000000291e+03
9.800000000000000377e-02 1.970260000000000067e-01 3.658500000000000085e+01 1.587674999999999841e+02 2.144639999999999873e+03
9.900000000000000466e-02 1.970574999999999966e-01 3.600835000000000008e+01 1.590900000000000034e+02 2.144880000000000109e+03
1.000000000000000056e-01 1.970760000000000012e-01 3.530594999999999573e+01 1.591014999999999873e+02 2.145024999999999636e+03
1.010000000000000064e-01 1.970824999999999938e-01 3.448949999999999960e+01 1.588294999999999959e+02 2.145085000000000036e+03
1.020000000000000073e-01 1.970779999999999754e-01 3.357365000000000066e+01 1.583104999999999905e+02 2.145065000000000055e+03
1.030000000000000082e-01 1.970640000000000169e-01 3.257569999999999766e+01 1.575860000000000127e+02 2.144974999999999909e+03
1.040000000000000091e-01 1.970419999999999949e-01 3.151440000000000197e+01 1.566999999999999886e+02 2.144820000000000164e+03
1.050000000000000100e-01 1.970129999999999937e-01 3.040944999999999965e+01 1.556980000000000075e+02 2.144614999999999782e+03
1.059999999999999970e-01 1.969795000000000018e-01 2.928069999999999951e+01 1.546250000000000000e+02 2.144375000000000000e+03
1.069999999999999979e-01 1.969425000000000203e-01 2.814710000000000178e+01 1.535229999999999961e+02 2.144114999999999782e+03
1.079999999999999988e-01 1.969039999999999957e-01 2.702609999999999957e+01 1.524290000000000020e+02 2.143835000000000036e+03
1.089999999999999997e-01 1.968650000000000122e-01 2.593314999999999770e+01 1.513750000000000000e+02 2.143550000000000182e+03
1.100000000000000006e-01 1.968269999999999742e-01 2.488090000000000046e+01 1.503854999999999791e+02 2.143269999999999982e+03
1.110000000000000014e-01 1.967905000000000071e-01 2.387884999999999991e+01 1.494759999999999991e+02 2.143005000000000109e+03
1.120000000000000023e-01 1.967565000000000008e-01 2.293339999999999890e+01 1.486555000000000177e+02 2.142755000000000109e+03
1.130000000000000032e-01 1.967254999999999976e-01 2.204729999999999990e+01 1.479250000000000114e+02 2.142519999999999982e+03
1.140000000000000041e-01 1.966970000000000107e-01 2.122009999999999863e+01 1.472760000000000105e+02 2.142310000000000400e+03
1.150000000000000050e-01 1.966709999999999847e-01 2.044794999999999874e+01 1.466949999999999932e+02 2.142114999999999782e+03
1.160000000000000059e-01 1.966475000000000029e-01 1.972465000000000046e+01 1.461614999999999895e+02 2.141935000000000400e+03
1.170000000000000068e-01 1.966244999999999798e-01 1.904124999999999801e+01 1.456510000000000105e+02 2.141769999999999982e+03
1.180000000000000077e-01 1.966030000000000000e-01 1.838739999999999952e+01 1.451359999999999957e+02 2.141600000000000364e+03
1.190000000000000085e-01 1.965804999999999914e-01 1.775164999999999793e+01 1.445875000000000057e+02 2.141434999999999945e+03
1.200000000000000094e-01 1.965569999999999817e-01 1.712230000000000274e+01 1.439774999999999920e+02 2.141260000000000218e+03
1.209999999999999964e-01 1.965304999999999969e-01 1.648789999999999978e+01 1.432785000000000082e+02 2.141069999999999709e+03
1.219999999999999973e-01 1.965009999999999812e-01 1.583830000000000027e+01 1.424689999999999941e+02 2.140850000000000364e+03
1.229999999999999982e-01 1.964675000000000171e-01 1.516489999999999938e+01 1.415319999999999823e+02 2.140610000000000127e+03
1.239999999999999991e-01 1.964295000000000069e-01 1.446134999999999948e+01 1.404569999999999936e+02 2.140329999999999927e+03
1.250000000000000000e-01 1.963860000000000050e-01 1.372400000000000020e+01 1.392394999999999925e+02 2.140014999999999873e+03
1.260000000000000009e-01 1.963380000000000125e-01 1.295195000000000007e+01 1.378824999999999932e+02 2.139664999999999964e+03
1.270000000000000018e-01 1.962840000000000140e-01 1.214724999999999966e+01 1.363985000000000127e+02 2.139275000000000091e+03
1.280000000000000027e-01 1.962254999999999971e-01 1.131469500000000039e+01 1.348040000000000020e+02 2.138855000000000018e+03
1.290000000000000036e-01 1.961634999999999907e-01 1.046181499999999964e+01 1.331234999999999786e+02 2.138404999999999745e+03
1.300000000000000044e-01 1.960979999999999945e-01 9.598145000000000593e+00 1.313849999999999909e+02 2.137930000000000291e+03
1.310000000000000053e-01 1.960304999999999964e-01 8.734899999999999665e+00 1.296200000000000045e+02 2.137440000000000055e+03
1.320000000000000062e-01 1.959619999999999973e-01 7.884420000000000428e+00 1.278624999999999972e+02 2.136940000000000055e+03
1.330000000000000071e-01 1.958940000000000126e-01 7.059180000000000454e+00 1.261449999999999960e+02 2.136445000000000164e+03
1.340000000000000080e-01 1.958270000000000011e-01 6.271560000000000024e+00 1.244985000000000070e+02 2.135960000000000036e+03
1.350000000000000089e-01 1.957625000000000060e-01 5.532920000000000726e+00 1.229515000000000100e+02 2.135489999999999782e+03
1.360000000000000098e-01 1.957019999999999871e-01 4.853184999999999860e+00 1.215270000000000010e+02 2.135045000000000073e+03
1.370000000000000107e-01 1.956455000000000000e-01 4.240380000000000038e+00 1.202429999999999950e+02 2.134635000000000218e+03
1.380000000000000115e-01 1.955939999999999901e-01 3.700334999999999930e+00 1.191105000000000018e+02 2.134260000000000218e+03
1.390000000000000124e-01 1.955479999999999996e-01 3.236499999999999932e+00 1.181355000000000075e+02 2.133920000000000073e+03
1.400000000000000133e-01 1.955080000000000151e-01 2.849934999999999885e+00 1.173179999999999978e+02 2.133619999999999891e+03
1.410000000000000142e-01 1.954734999999999945e-01 2.539374999999999716e+00 1.166514999999999986e+02 2.133364999999999782e+03
1.420000000000000151e-01 1.954449999999999799e-01 2.301425000000000054e+00 1.161255000000000024e+02 2.133150000000000091e+03
1.430000000000000160e-01 1.954214999999999980e-01 2.130854999999999944e+00 1.157245000000000061e+02 2.132974999999999909e+03
1.440000000000000169e-01 1.954029999999999934e-01 2.020890000000000075e+00 1.154314999999999998e+02 2.132835000000000036e+03
1.450000000000000178e-01 1.953884999999999927e-01 1.963595000000000201e+00 1.152270000000000039e+02 2.132720000000000255e+03
1.459999999999999909e-01 1.953769999999999951e-01 1.950260000000000105e+00 1.150910000000000082e+02 2.132635000000000218e+03
1.469999999999999918e-01 1.953685000000000005e-01 1.971715000000000106e+00 1.150024999999999977e+02 2.132565000000000055e+03
1.479999999999999927e-01 1.953619999999999801e-01 2.018749999999999822e+00 1.149410000000000025e+02 2.132519999999999982e+03
1.489999999999999936e-01 1.953570000000000029e-01 2.082339999999999858e+00 1.148884999999999934e+02 2.132475000000000364e+03
1.499999999999999944e-01 1.953524999999999845e-01 2.153974999999999973e+00 1.148280000000000030e+02 2.132440000000000055e+03
1.509999999999999953e-01 1.953475000000000072e-01 2.225900000000000212e+00 1.147454999999999927e+02 2.132404999999999745e+03
1.519999999999999962e-01 1.953424999999999745e-01 2.291290000000000049e+00 1.146285000000000025e+02 2.132364999999999782e+03
1.529999999999999971e-01 1.953354999999999952e-01 2.344409999999999883e+00 1.144669999999999987e+02 2.132315000000000055e+03
1.539999999999999980e-01 1.953280000000000016e-01 2.380759999999999987e+00 1.142554999999999978e+02 2.132260000000000218e+03
1.549999999999999989e-01 1.953185000000000060e-01 2.397100000000000009e+00 1.139899999999999949e+02 2.132190000000000055e+03
1.559999999999999998e-01 1.953075000000000228e-01 2.391519999999999868e+00 1.136694999999999993e+02 2.132110000000000127e+03
1.570000000000000007e-01 1.952944999999999820e-01 2.363364999999999938e+00 1.132960000000000065e+02 2.132015000000000327e+03
1.580000000000000016e-01 1.952789999999999804e-01 2.313194999999999890e+00 1.128730000000000047e+02 2.131909999999999854e+03
1.590000000000000024e-01 1.952625000000000055e-01 2.242650000000000254e+00 1.124079999999999870e+02 2.131789999999999964e+03
