# t [s], A [cm^2], U [cm/s], P [cPa], c [cm/s]
1.000000000000000021e-03 1.227174999999999933e-01 4.620394999999999919e-01 9.569469999999999743e+01 2.077385000000000218e+03
2.000000000000000042e-03 1.226780000000000093e-01 2.161127500000000090e+00 9.185240000000000293e+01 2.076835000000000036e+03
3.000000000000000062e-03 1.225795000000000079e-01 4.197895500000000446e+00 8.676539999999999964e+01 2.075494999999999891e+03
4.000000000000000083e-03 1.224495000000000028e-01 6.470855000000000246e+00 8.160944999999999538e+01 2.073760000000000218e+03
5.000000000000000104e-03 1.223139999999999922e-01 8.874484999999999957e+00 7.730639999999999645e+01 2.071975000000000364e+03
6.000000000000000125e-03 1.221865000000000034e-01 1.116399000000000008e+01 7.389079999999999870e+01 2.070309999999999945e+03
7.000000000000000146e-03 1.220674999999999955e-01 1.312656499999999937e+01 7.091085000000001060e+01 2.068784999999999854e+03
8.000000000000000167e-03 1.219594999999999985e-01 1.475365000000000038e+01 6.822329999999999472e+01 2.067429999999999836e+03
9.000000000000001055e-03 1.218660000000000021e-01 1.610974999999999824e+01 6.596510000000000673e+01 2.066275000000000091e+03
1.000000000000000194e-02 1.217880000000000074e-01 1.721815000000000140e+01 6.415555000000000518e+01 2.065315000000000055e+03
1.099999999999999936e-02 1.217244999999999994e-01 1.809590000000000032e+01 6.272785000000000366e+01 2.064550000000000182e+03
1.200000000000000025e-02 1.216740000000000044e-01 1.875910000000000011e+01 6.160559999999999548e+01 2.063944999999999709e+03
1.300000000000000114e-02 1.216335000000000055e-01 1.921079999999999899e+01 6.066254999999999598e+01 2.063460000000000036e+03
1.400000000000000203e-02 1.215990000000000126e-01 1.949050000000000082e+01 5.982200000000000273e+01 2.063064999999999600e+03
1.499999999999999944e-02 1.215725000000000000e-01 1.972769999999999868e+01 5.925754999999999484e+01 2.062765000000000327e+03
1.600000000000000033e-02 1.215605000000000019e-01 2.010880000000000223e+01 5.939825000000000443e+01 2.062644999999999982e+03
1.700000000000000122e-02 1.215714999999999990e-01 2.076970000000000027e+01 6.065330000000000155e+01 2.062784999999999854e+03
1.800000000000000211e-02 1.216089999999999949e-01 2.170380000000000109e+01 6.308060000000000400e+01 2.063244999999999891e+03
1.900000000000000300e-02 1.216679999999999984e-01 2.275155000000000172e+01 6.625339999999999918e+01 2.063975000000000364e+03
2.000000000000000042e-02 1.217374999999999985e-01 2.366944999999999766e+01 6.940074999999998795e+01 2.064835000000000036e+03
2.100000000000000130e-02 1.218009999999999926e-01 2.423245000000000005e+01 7.171529999999999916e+01 2.065644999999999982e+03
2.200000000000000219e-02 1.218444999999999945e-01 2.431900000000000261e+01 7.266310000000000002e+01 2.066215000000000146e+03
2.299999999999999961e-02 1.218615000000000115e-01 2.394549999999999912e+01 7.215774999999999295e+01 2.066454999999999927e+03
2.400000000000000050e-02 1.218525000000000025e-01 2.324324999999999974e+01 7.054304999999999382e+01 2.066375000000000000e+03
2.500000000000000139e-02 1.218245000000000022e-01 2.239475000000000193e+01 6.841105000000000302e+01 2.066050000000000182e+03
2.600000000000000228e-02 1.217879999999999935e-01 2.156099999999999994e+01 6.635374999999999091e+01 2.065609999999999673e+03
2.700000000000000316e-02 1.217524999999999996e-01 2.083164999999999978e+01 6.475650000000000261e+01 2.065175000000000182e+03
2.800000000000000058e-02 1.217234999999999984e-01 2.021079999999999899e+01 6.370780000000000598e+01 2.064809999999999945e+03
2.900000000000000147e-02 1.217010000000000036e-01 1.963814999999999955e+01 6.303515000000000157e+01 2.064519999999999982e+03
3.000000000000000236e-02 1.216814999999999980e-01 1.902974999999999994e+01 6.242954999999999899e+01 2.064279999999999745e+03
3.099999999999999978e-02 1.216605000000000047e-01 1.832135000000000247e+01 6.159904999999999831e+01 2.064019999999999982e+03
3.200000000000000067e-02 1.216339999999999921e-01 1.750049999999999883e+01 6.039674999999999727e+01 2.063699999999999818e+03
3.300000000000000155e-02 1.216010000000000008e-01 1.661824999999999974e+01 5.888544999999999874e+01 2.063295000000000073e+03
3.400000000000000244e-02 1.215639999999999915e-01 1.577704999999999913e+01 5.732334999999999781e+01 2.062840000000000146e+03
3.500000000000000333e-02 1.215299999999999991e-01 1.510079999999999956e+01 5.607954999999999757e+01 2.062420000000000073e+03
3.600000000000000422e-02 1.215054999999999885e-01 1.469715000000000060e+01 5.551165000000000305e+01 2.062105000000000018e+03
3.700000000000000511e-02 1.214974999999999944e-01 1.462395000000000067e+01 5.584779999999999944e+01 2.061985000000000127e+03
3.799999999999999906e-02 1.215080000000000049e-01 1.487185000000000024e+01 5.711135000000000161e+01 2.062100000000000364e+03
3.899999999999999994e-02 1.215380000000000071e-01 1.536469999999999914e+01 5.910729999999999507e+01 2.062440000000000055e+03
4.000000000000000083e-02 1.215810000000000085e-01 1.597690000000000055e+01 6.146734999999999616e+01 2.062960000000000036e+03
4.100000000000000172e-02 1.216295000000000015e-01 1.655944999999999823e+01 6.373430000000000462e+01 2.063555000000000291e+03
4.200000000000000261e-02 1.216750000000000054e-01 1.696849999999999881e+01 6.545680000000000121e+01 2.064119999999999891e+03
4.300000000000000350e-02 1.217080000000000106e-01 1.708814999999999884e+01 6.627320000000000277e+01 2.064529999999999745e+03
4.400000000000000439e-02 1.217209999999999959e-01 1.684489999999999910e+01 6.596379999999999200e+01 2.064704999999999927e+03
4.499999999999999833e-02 1.217104999999999992e-01 1.621225000000000094e+01 6.446880000000000166e+01 2.064590000000000146e+03
4.599999999999999922e-02 1.216740000000000044e-01 1.520610000000000106e+01 6.187304999999999922e+01 2.064150000000000091e+03
4.700000000000000011e-02 1.216129999999999989e-01 1.387509999999999977e+01 5.836834999999999951e+01 2.063414999999999964e+03
4.800000000000000100e-02 1.215320000000000011e-01 1.228818499999999858e+01 5.420570000000000022e+01 2.062420000000000073e+03
4.900000000000000189e-02 1.214350000000000013e-01 1.052373000000000047e+01 4.965179999999999438e+01 2.061230000000000018e+03
5.000000000000000278e-02 1.213280000000000053e-01 8.661010000000000986e+00 4.495649999999999835e+01 2.059909999999999854e+03
5.100000000000000366e-02 1.212160000000000043e-01 6.775499999999999190e+00 4.033544999999999447e+01 2.058529999999999745e+03
5.200000000000000455e-02 1.211035000000000028e-01 4.937695500000000237e+00 3.596724999999999994e+01 2.057135000000000218e+03
5.300000000000000544e-02 1.209960000000000063e-01 3.213255999999999890e+00 3.199940000000000140e+01 2.055795000000000073e+03
5.399999999999999939e-02 1.208960000000000035e-01 1.664080000000000226e+00 2.855809999999999960e+01 2.054554999999999836e+03
5.500000000000000028e-02 1.208079999999999987e-01 3.487299999999999844e-01 2.575634999999999764e+01 2.053454999999999927e+03
5.600000000000000117e-02 1.207344999999999946e-01 -6.783799999999999830e-01 2.369819999999999993e+01 2.052529999999999745e+03
5.700000000000000205e-02 1.206790000000000085e-01 -1.369071499999999997e+00 2.247684999999999889e+01 2.051824999999999818e+03
5.800000000000000294e-02 1.206434999999999869e-01 -1.684504999999999919e+00 2.216844999999999999e+01 2.051364999999999782e+03
5.900000000000000383e-02 1.206305000000000016e-01 -1.598549999999999915e+00 2.282290000000000063e+01 2.051175000000000182e+03
6.000000000000000472e-02 1.206405000000000116e-01 -1.100602499999999928e+00 2.445524999999999949e+01 2.051275000000000091e+03
6.099999999999999867e-02 1.206744999999999901e-01 -1.972749999999999782e-01 2.703944999999999865e+01 2.051670000000000073e+03
6.199999999999999956e-02 1.207320000000000060e-01 1.087534999999999918e+00 3.050720000000000098e+01 2.052349999999999909e+03
6.300000000000000044e-02 1.208115000000000022e-01 2.714211999999999847e+00 3.475090000000000146e+01 2.053309999999999945e+03
6.400000000000000133e-02 1.209110000000000046e-01 4.630296999999999663e+00 3.963185000000000002e+01 2.054510000000000218e+03
6.500000000000000222e-02 1.210264999999999952e-01 6.774240000000000705e+00 4.499074999999999847e+01 2.055925000000000182e+03
6.600000000000000311e-02 1.211544999999999983e-01 9.079450000000001353e+00 5.065939999999999799e+01 2.057505000000000109e+03
6.700000000000000400e-02 1.212919999999999970e-01 1.147813999999999979e+01 5.647185000000000343e+01 2.059195000000000164e+03
6.800000000000000488e-02 1.214340000000000003e-01 1.390490500000000118e+01 6.227394999999999925e+01 2.060965000000000146e+03
6.900000000000000577e-02 1.215785000000000060e-01 1.629974999999999952e+01 6.793075000000000330e+01 2.062755000000000109e+03
7.000000000000000666e-02 1.217204999999999954e-01 1.861035000000000039e+01 7.333180000000000121e+01 2.064529999999999745e+03
7.100000000000000755e-02 1.218579999999999941e-01 2.079420000000000002e+01 7.839490000000000691e+01 2.066255000000000109e+03
7.200000000000000844e-02 1.219884999999999997e-01 2.282019999999999982e+01 8.306860000000000355e+01 2.067905000000000200e+03
7.300000000000000933e-02 1.221115000000000117e-01 2.466949999999999932e+01 8.733254999999999768e+01 2.069460000000000036e+03
7.399999999999999634e-02 1.222255000000000008e-01 2.633570000000000277e+01 9.119720000000000937e+01 2.070905000000000200e+03
7.499999999999999722e-02 1.223304999999999948e-01 2.782455000000000211e+01 9.470080000000000098e+01 2.072244999999999891e+03
7.599999999999999811e-02 1.224274999999999947e-01 2.915234999999999843e+01 9.790569999999999595e+01 2.073489999999999782e+03
7.699999999999999900e-02 1.225175000000000014e-01 3.034404999999999930e+01 1.008914000000000044e+02 2.074644999999999982e+03
7.799999999999999989e-02 1.226029999999999898e-01 3.143059999999999832e+01 1.037473999999999990e+02 2.075739999999999782e+03
7.900000000000000078e-02 1.226849999999999885e-01 3.244594999999999629e+01 1.065655000000000001e+02 2.076789999999999964e+03
8.000000000000000167e-02 1.227660000000000140e-01 3.342374999999999829e+01 1.094304999999999950e+02 2.077829999999999927e+03
8.100000000000000255e-02 1.228474999999999984e-01 3.439480000000000359e+01 1.124149999999999920e+02 2.078869999999999891e+03
8.200000000000000344e-02 1.229314999999999991e-01 3.538429999999999609e+01 1.155725000000000051e+02 2.079944999999999709e+03
8.300000000000000433e-02 1.230190000000000033e-01 3.641029999999999944e+01 1.189339999999999975e+02 2.081059999999999945e+03
8.400000000000000522e-02 1.231104999999999977e-01 3.748225000000000051e+01 1.225055000000000121e+02 2.082234999999999673e+03
8.500000000000000611e-02 1.232064999999999966e-01 3.860079999999999956e+01 1.262684999999999889e+02 2.083454999999999927e+03
8.600000000000000699e-02 1.233065000000000133e-01 3.975809999999999889e+01 1.301835000000000093e+02 2.084734999999999673e+03
8.700000000000000788e-02 1.234100000000000058e-01 4.093869999999999720e+01 1.341929999999999836e+02 2.086050000000000182e+03
8.800000000000000877e-02 1.235155000000000003e-01 4.212104999999999677e+01 1.382250000000000227e+02 2.087394999999999982e+03
8.899999999999999578e-02 1.236204999999999943e-01 4.327915000000000134e+01 1.421995000000000005e+02 2.088744999999999891e+03
8.999999999999999667e-02 1.237244999999999873e-01 4.438445000000000107e+01 1.460350000000000250e+02 2.090074999999999818e+03
9.099999999999999756e-02 1.238255000000000050e-01 4.540794999999999959e+01 1.496514999999999986e+02 2.091364999999999782e+03
9.199999999999999845e-02 1.239200000000000024e-01 4.632174999999999443e+01 1.529759999999999991e+02 2.092594999999999800e+03
9.299999999999999933e-02 1.240084999999999937e-01 4.710099999999999909e+01 1.559465000000000146e+02 2.093734999999999673e+03
9.400000000000000022e-02 1.240884999999999905e-01 4.772499999999999432e+01 1.585144999999999982e+02 2.094769999999999982e+03
9.500000000000000111e-02 1.241590000000000055e-01 4.817855000000000132e+01 1.606469999999999914e+02 2.095684999999999945e+03
9.600000000000000200e-02 1.242185000000000095e-01 4.845225000000000648e+01 1.623280000000000030e+02 2.096465000000000146e+03
9.700000000000000289e-02 1.242669999999999886e-01 4.854344999999999999e+01 1.635575000000000045e+02 2.097105000000000018e+03
9.800000000000000377e-02 1.243049999999999988e-01 4.845560000000000400e+01 1.643514999999999873e+02 2.097609999999999673e+03
9.900000000000000466e-02 1.243319999999999981e-01 4.819839999999999947e+01 1.647404999999999973e+02 2.097965000000000146e+03
1.000000000000000056e-01 1.243485000000000007e-01 4.778690000000000282e+01 1.647669999999999959e+02 2.098199999999999818e+03
1.010000000000000064e-01 1.243559999999999943e-01 4.724070000000000391e+01 1.644819999999999993e+02 2.098309999999999945e+03
1.020000000000000073e-01 1.243555000000000077e-01 4.658274999999999721e+01 1.639449999999999932e+02 2.098315000000000055e+03
1.030000000000000082e-01 1.243485000000000007e-01 4.583834999999999837e+01 1.632169999999999845e+02 2.098235000000000127e+03
1.040000000000000091e-01 1.243355000000000016e-01 4.503365000000000151e+01 1.623600000000000136e+02 2.098085000000000036e+03
1.050000000000000100e-01 1.243194999999999995e-01 4.419460000000000122e+01 1.614339999999999975e+02 2.097885000000000218e+03
1.059999999999999970e-01 1.243005000000000082e-01 4.334579999999999700e+01 1.604929999999999950e+02 2.097644999999999982e+03
1.069999999999999979e-01 1.242805000000000021e-01 4.250924999999999443e+01 1.595854999999999961e+02 2.097394999999999982e+03
1.079999999999999988e-01 1.242604999999999960e-01 4.170395000000000607e+01 1.587485000000000070e+02 2.097140000000000327e+03
1.089999999999999997e-01 1.242419999999999913e-01 4.094480000000000075e+01 1.580120000000000005e+02 2.096894999999999982e+03
1.100000000000000006e-01 1.242245000000000016e-01 4.024240000000000350e+01 1.573934999999999889e+02 2.096670000000000073e+03
1.110000000000000014e-01 1.242099999999999871e-01 3.960269999999999868e+01 1.569000000000000057e+02 2.096474999999999909e+03
1.120000000000000023e-01 1.241970000000000018e-01 3.902700000000000102e+01 1.565275000000000034e+02 2.096314999999999600e+03
1.130000000000000032e-01 1.241869999999999918e-01 3.851225000000000165e+01 1.562620000000000005e+02 2.096180000000000291e+03
1.140000000000000041e-01 1.241794999999999982e-01 3.805124999999999602e+01 1.560819999999999936e+02 2.096074999999999818e+03
1.150000000000000050e-01 1.241734999999999922e-01 3.763349999999999795e+01 1.559565000000000055e+02 2.095989999999999782e+03
1.160000000000000059e-01 1.241690000000000016e-01 3.724575000000000102e+01 1.558514999999999873e+02 2.095930000000000291e+03
1.170000000000000068e-01 1.241639999999999966e-01 3.687300000000000466e+01 1.557289999999999850e+02 2.095864999999999782e+03
1.180000000000000077e-01 1.241594999999999921e-01 3.649909999999999854e+01 1.555484999999999900e+02 2.095800000000000182e+03
1.190000000000000085e-01 1.241535000000000000e-01 3.610829999999999984e+01 1.552744999999999891e+02 2.095720000000000255e+03
1.200000000000000094e-01 1.241450000000000053e-01 3.568559999999999377e+01 1.548725000000000023e+02 2.095605000000000018e+03
1.209999999999999964e-01 1.241334999999999938e-01 3.521784999999999854e+01 1.543129999999999882e+02 2.095460000000000036e+03
1.219999999999999973e-01 1.241180000000000061e-01 3.469469999999999743e+01 1.535765000000000100e+02 2.095264999999999873e+03
1.229999999999999982e-01 1.240990000000000010e-01 3.410869999999999891e+01 1.526490000000000009e+02 2.095019999999999982e+03
1.239999999999999991e-01 1.240755000000000052e-01 3.345635000000000048e+01 1.515279999999999916e+02 2.094715000000000146e+03
1.250000000000000000e-01 1.240469999999999906e-01 3.273794999999999789e+01 1.502205000000000155e+02 2.094359999999999673e+03
1.260000000000000009e-01 1.240139999999999854e-01 3.195765000000000100e+01 1.487414999999999736e+02 2.093934999999999945e+03
1.270000000000000018e-01 1.239770000000000039e-01 3.112335000000000207e+01 1.471159999999999854e+02 2.093465000000000146e+03
1.280000000000000027e-01 1.239360000000000045e-01 3.024624999999999986e+01 1.453770000000000095e+02 2.092949999999999818e+03
1.290000000000000036e-01 1.238930000000000031e-01 2.934035000000000082e+01 1.435614999999999952e+02 2.092394999999999982e+03
1.300000000000000044e-01 1.238474999999999993e-01 2.842145000000000010e+01 1.417119999999999891e+02 2.091815000000000055e+03
1.310000000000000053e-01 1.238004999999999939e-01 2.750675000000000026e+01 1.398720000000000141e+02 2.091220000000000255e+03
1.320000000000000062e-01 1.237540000000000029e-01 2.661364999999999981e+01 1.380849999999999795e+02 2.090625000000000000e+03
1.330000000000000071e-01 1.237084999999999990e-01 2.575885000000000247e+01 1.363915000000000077e+02 2.090039999999999964e+03
1.340000000000000080e-01 1.236655000000000115e-01 2.495799999999999841e+01 1.348274999999999864e+02 2.089480000000000018e+03
1.350000000000000089e-01 1.236244999999999983e-01 2.422449999999999903e+01 1.334250000000000114e+02 2.088960000000000036e+03
1.360000000000000098e-01 1.235874999999999890e-01 2.356925000000000026e+01 1.322055000000000007e+02 2.088479999999999563e+03
1.370000000000000107e-01 1.235549999999999982e-01 2.300010000000000332e+01 1.311854999999999905e+02 2.088059999999999945e+03
1.380000000000000115e-01 1.235269999999999979e-01 2.252175000000000082e+01 1.303734999999999786e+02 2.087694999999999709e+03
1.390000000000000124e-01 1.235040000000000027e-01 2.213579999999999970e+01 1.297680000000000007e+02 2.087394999999999982e+03
1.400000000000000133e-01 1.234859999999999985e-01 2.184055000000000035e+01 1.293629999999999995e+02 2.087154999999999745e+03
1.410000000000000142e-01 1.234725000000000128e-01 2.163150000000000261e+01 1.291430000000000007e+02 2.086974999999999909e+03
1.420000000000000151e-01 1.234640000000000043e-01 2.150184999999999746e+01 1.290899999999999750e+02 2.086859999999999673e+03
1.430000000000000160e-01 1.234600000000000142e-01 2.144259999999999877e+01 1.291809999999999832e+02 2.086795000000000073e+03
1.440000000000000169e-01 1.234589999999999854e-01 2.144334999999999880e+01 1.293894999999999982e+02 2.086779999999999745e+03
1.450000000000000178e-01 1.234610000000000013e-01 2.149275000000000091e+01 1.296890000000000214e+02 2.086805000000000291e+03
1.459999999999999909e-01 1.234660000000000063e-01 2.157900000000000063e+01 1.300519999999999925e+02 2.086854999999999563e+03
1.469999999999999918e-01 1.234724999999999989e-01 2.169044999999999845e+01 1.304524999999999864e+02 2.086940000000000055e+03
1.479999999999999927e-01 1.234810000000000074e-01 2.181595000000000084e+01 1.308669999999999902e+02 2.087034999999999854e+03
1.489999999999999936e-01 1.234895000000000020e-01 2.194514999999999816e+01 1.312735000000000127e+02 2.087144999999999982e+03
1.499999999999999944e-01 1.234979999999999967e-01 2.206915000000000049e+01 1.316545000000000130e+02 2.087255000000000109e+03
1.509999999999999953e-01 1.235070000000000057e-01 2.218039999999999878e+01 1.319960000000000093e+02 2.087364999999999782e+03
1.519999999999999962e-01 1.235144999999999993e-01 2.227309999999999945e+01 1.322875000000000227e+02 2.087465000000000146e+03
1.529999999999999971e-01 1.235219999999999929e-01 2.234329999999999927e+01 1.325244999999999891e+02 2.087550000000000182e+03
1.539999999999999980e-01 1.235275000000000123e-01 2.238864999999999839e+01 1.327035000000000196e+02 2.087630000000000109e+03
1.549999999999999989e-01 1.235320000000000029e-01 2.240859999999999985e+01 1.328280000000000030e+02 2.087690000000000055e+03
1.559999999999999998e-01 1.235355000000000064e-01 2.240415000000000134e+01 1.329024999999999750e+02 2.087734999999999673e+03
1.570000000000000007e-01 1.235380000000000089e-01 2.237790000000000035e+01 1.329345000000000141e+02 2.087769999999999982e+03
1.580000000000000016e-01 1.235394999999999965e-01 2.233324999999999960e+01 1.329354999999999905e+02 2.087789999999999964e+03
1.590000000000000024e-01 1.235404999999999975e-01 2.227454999999999785e+01 1.329159999999999968e+02 2.087800000000000182e+03
