# t [s], A [cm^2], U [cm/s], P [cPa], c [cm/s]
1.000000000000000021e-03 6.224175000000000679e-01 7.169149999999999134e-03 1.058129999999999882e+02 1.779345000000000027e+03
2.000000000000000042e-03 6.224065000000000847e-01 -2.879824999999999920e-03 1.057789999999999964e+02 1.779340000000000146e+03
3.000000000000000062e-03 6.224570000000000380e-01 9.544074999999999087e-02 1.059000000000000057e+02 1.779365000000000009e+03
4.000000000000000083e-03 6.224994999999999834e-01 1.918652500000000150e-01 1.060319999999999965e+02 1.779394999999999982e+03
5.000000000000000104e-03 6.224680000000000213e-01 1.560531500000000016e-01 1.059480000000000075e+02 1.779380000000000109e+03
6.000000000000000125e-03 6.224085000000000312e-01 5.871549999999997604e-02 1.056989999999999981e+02 1.779325000000000045e+03
7.000000000000000146e-03 6.223589999999999955e-01 -2.485450000000000159e-02 1.054035000000000082e+02 1.779265000000000100e+03
8.000000000000000167e-03 6.222760000000000513e-01 -1.898549999999999960e-01 1.049540000000000077e+02 1.779170000000000073e+03
9.000000000000001055e-03 6.221375000000000099e-01 -4.850450000000000594e-01 1.042560000000000002e+02 1.779025000000000091e+03
1.000000000000000194e-02 6.219345000000000567e-01 -9.241299999999998960e-01 1.032464999999999975e+02 1.778809999999999945e+03
1.099999999999999936e-02 6.216455000000000730e-01 -1.538464999999999971e+00 1.018343999999999880e+02 1.778514999999999873e+03
1.200000000000000025e-02 6.212770000000000792e-01 -2.299399999999999888e+00 9.999934999999999263e+01 1.778115000000000009e+03
1.300000000000000114e-02 6.208814999999999751e-01 -3.071919999999999984e+00 9.788909999999999911e+01 1.777644999999999982e+03
1.400000000000000203e-02 6.205260000000000220e-01 -3.681057000000000023e+00 9.575620000000000687e+01 1.777154999999999973e+03
1.499999999999999944e-02 6.202509999999999968e-01 -4.007928824999999584e+00 9.381804999999999950e+01 1.776679999999999836e+03
1.600000000000000033e-02 6.200509999999999078e-01 -4.031994499999999704e+00 9.216429999999999723e+01 1.776255000000000109e+03
1.700000000000000122e-02 6.198905000000000109e-01 -3.813678000000000345e+00 9.075069999999999482e+01 1.775865000000000009e+03
1.800000000000000211e-02 6.197245000000000115e-01 -3.448818999999999857e+00 8.945024999999999693e+01 1.775494999999999891e+03
1.900000000000000300e-02 6.195209999999999884e-01 -3.023125000000000284e+00 8.812215000000000487e+01 1.775119999999999891e+03
2.000000000000000042e-02 6.192664999999999420e-01 -2.582429000000000308e+00 8.667054999999999154e+01 1.774715000000000146e+03
2.100000000000000130e-02 6.189709999999999379e-01 -2.125360000000000138e+00 8.507410000000000139e+01 1.774289999999999964e+03
2.200000000000000219e-02 6.186574999999999713e-01 -1.617744999999999989e+00 8.337940000000000396e+01 1.773840000000000146e+03
2.299999999999999961e-02 6.183499999999999552e-01 -1.020040000000000058e+00 8.166620000000000346e+01 1.773375000000000000e+03
2.400000000000000050e-02 6.180609999999999715e-01 -3.146349999999999980e-01 8.000265000000000271e+01 1.772920000000000073e+03
2.500000000000000139e-02 6.177880000000000038e-01 4.780549999999998967e-01 7.840999999999999659e+01 1.772474999999999909e+03
2.600000000000000228e-02 6.175120000000000609e-01 1.298750000000000293e+00 7.684799999999999898e+01 1.772039999999999964e+03
2.700000000000000316e-02 6.172055000000000735e-01 2.061784999999999979e+00 7.522315000000000396e+01 1.771595000000000027e+03
2.800000000000000058e-02 6.168400000000000549e-01 2.675905000000000200e+00 7.341485000000000127e+01 1.771110000000000127e+03
2.900000000000000147e-02 6.163944999999999563e-01 3.067575000000000607e+00 7.131149999999999523e+01 1.770570000000000164e+03
3.000000000000000236e-02 6.158645000000000369e-01 3.200089999999999879e+00 6.884690000000000509e+01 1.769960000000000036e+03
3.099999999999999978e-02 6.152619999999999756e-01 3.082424999999999748e+00 6.602420000000000755e+01 1.769269999999999982e+03
3.200000000000000067e-02 6.146154999999999813e-01 2.764759999999999884e+00 6.292029999999999745e+01 1.768525000000000091e+03
3.300000000000000155e-02 6.139605000000000201e-01 2.323485000000000245e+00 5.966989999999999839e+01 1.767735000000000127e+03
3.400000000000000244e-02 6.133314999999999184e-01 1.841695000000000526e+00 5.643654999999999688e+01 1.766940000000000055e+03
3.500000000000000333e-02 6.127599999999999714e-01 1.392490000000000006e+00 5.338280000000000314e+01 1.766179999999999836e+03
3.600000000000000422e-02 6.122659999999999769e-01 1.029314999999999980e+00 5.064584999999999582e+01 1.765474999999999909e+03
3.700000000000000511e-02 6.118595000000000006e-01 7.835549999999997794e-01 4.832484999999999786e+01 1.764865000000000009e+03
3.799999999999999906e-02 6.115440000000000875e-01 6.679500000000002657e-01 4.647814999999999941e+01 1.764360000000000127e+03
3.899999999999999994e-02 6.113180000000000280e-01 6.834750000000000547e-01 4.512924999999999898e+01 1.763970000000000027e+03
4.000000000000000083e-02 6.111779999999999990e-01 8.268750000000000266e-01 4.427734999999999843e+01 1.763700000000000045e+03
4.100000000000000172e-02 6.111204999999999554e-01 1.096878182999999840e+00 4.390949999999999420e+01 1.763545000000000073e+03
4.200000000000000261e-02 6.111450000000000493e-01 1.497529999999999806e+00 4.401024999999999920e+01 1.763505000000000109e+03
4.300000000000000350e-02 6.112504999999999189e-01 2.038162999999999947e+00 4.456709999999999638e+01 1.763579999999999927e+03
4.400000000000000439e-02 6.114375000000000782e-01 2.730561499999999864e+00 4.557115000000000293e+01 1.763775000000000091e+03
4.499999999999999833e-02 6.117070000000000007e-01 3.584498294999999946e+00 4.701300000000000523e+01 1.764069999999999936e+03
4.599999999999999922e-02 6.120554999999999746e-01 4.603419200000000266e+00 4.887800000000000011e+01 1.764480000000000018e+03
4.700000000000000011e-02 6.124775000000000080e-01 5.781442000000000192e+00 5.114069999999999538e+01 1.764985000000000127e+03
4.800000000000000100e-02 6.129640000000000644e-01 7.102350000000000385e+00 5.376189999999999714e+01 1.765585000000000036e+03
4.900000000000000189e-02 6.135029999999999095e-01 8.540770000000000195e+00 5.668854999999999222e+01 1.766264999999999873e+03
5.000000000000000278e-02 6.140805000000000291e-01 1.006464500000000051e+01 5.985640000000000782e+01 1.767009999999999991e+03
5.100000000000000366e-02 6.146825000000000205e-01 1.163886500000000090e+01 6.319460000000000122e+01 1.767809999999999945e+03
5.200000000000000455e-02 6.152950000000000363e-01 1.322866499999999945e+01 6.663169999999999504e+01 1.768644999999999982e+03
5.300000000000000544e-02 6.159080000000000110e-01 1.480304500000000090e+01 7.010129999999999484e+01 1.769500000000000000e+03
5.399999999999999939e-02 6.165115000000001011e-01 1.633669499999999886e+01 7.354715000000000202e+01 1.770355000000000018e+03
5.500000000000000028e-02 6.170999999999999819e-01 1.781105000000000160e+01 7.692634999999999934e+01 1.771210000000000036e+03
5.600000000000000117e-02 6.176705000000000112e-01 1.921454999999999913e+01 8.021035000000000537e+01 1.772050000000000182e+03
5.700000000000000205e-02 6.182229999999999670e-01 2.054145000000000110e+01 8.338524999999999920e+01 1.772865000000000009e+03
5.800000000000000294e-02 6.187579999999999192e-01 2.179115000000000180e+01 8.644939999999999714e+01 1.773659999999999854e+03
5.900000000000000383e-02 6.192784999999999540e-01 2.296634999999999849e+01 8.941110000000000468e+01 1.774430000000000064e+03
6.000000000000000472e-02 6.197880000000000056e-01 2.407199999999999918e+01 9.228530000000000655e+01 1.775190000000000055e+03
6.099999999999999867e-02 6.202894999999999381e-01 2.511395000000000266e+01 9.509059999999999491e+01 1.775925000000000182e+03
6.199999999999999956e-02 6.207854999999999901e-01 2.609779999999999944e+01 9.784620000000001028e+01 1.776650000000000091e+03
6.300000000000000044e-02 6.212794999999999845e-01 2.702824999999999989e+01 1.005694000000000017e+02 1.777369999999999891e+03
6.400000000000000133e-02 6.217730000000000201e-01 2.790824999999999889e+01 1.032719999999999914e+02 1.778079999999999927e+03
6.500000000000000222e-02 6.222655000000000269e-01 2.873870000000000147e+01 1.059608999999999952e+02 1.778784999999999854e+03
6.600000000000000311e-02 6.227564999999999351e-01 2.951859999999999928e+01 1.086364999999999981e+02 1.779490000000000009e+03
6.700000000000000400e-02 6.232440000000000202e-01 3.024465000000000003e+01 1.112914999999999992e+02 1.780190000000000055e+03
6.800000000000000488e-02 6.237245000000000150e-01 3.091219999999999857e+01 1.139140000000000015e+02 1.780880000000000109e+03
6.900000000000000577e-02 6.241950000000000554e-01 3.151579999999999870e+01 1.164869999999999948e+02 1.781565000000000055e+03
7.000000000000000666e-02 6.246515000000000262e-01 3.204959999999999809e+01 1.189899999999999949e+02 1.782230000000000018e+03
7.100000000000000755e-02 6.250910000000000633e-01 3.250809999999999889e+01 1.214030000000000058e+02 1.782875000000000000e+03
7.200000000000000844e-02 6.255089999999999817e-01 3.288665000000000305e+01 1.237044999999999959e+02 1.783494999999999891e+03
7.300000000000000933e-02 6.259025000000000283e-01 3.318175000000000097e+01 1.258769999999999953e+02 1.784079999999999927e+03
7.399999999999999634e-02 6.262699999999999934e-01 3.339110000000000156e+01 1.279045000000000130e+02 1.784635000000000218e+03
7.499999999999999722e-02 6.266085000000000127e-01 3.351344999999999885e+01 1.297740000000000009e+02 1.785144999999999982e+03
7.599999999999999811e-02 6.269169999999999465e-01 3.354885000000000161e+01 1.314770000000000039e+02 1.785619999999999891e+03
7.699999999999999900e-02 6.271945000000000991e-01 3.349840000000000373e+01 1.330074999999999932e+02 1.786050000000000182e+03
7.799999999999999989e-02 6.274414999999999853e-01 3.336404999999999887e+01 1.343614999999999782e+02 1.786434999999999945e+03
7.900000000000000078e-02 6.276574999999999793e-01 3.314909999999999712e+01 1.355409999999999968e+02 1.786775000000000091e+03
8.000000000000000167e-02 6.278424999999999701e-01 3.285790000000000077e+01 1.365489999999999782e+02 1.787074999999999818e+03
8.100000000000000255e-02 6.280000000000000027e-01 3.249630000000000507e+01 1.373930000000000007e+02 1.787329999999999927e+03
8.200000000000000344e-02 6.281295000000000073e-01 3.207124999999999915e+01 1.380819999999999936e+02 1.787545000000000073e+03
8.300000000000000433e-02 6.282349999999999879e-01 3.159120000000000061e+01 1.386304999999999836e+02 1.787720000000000027e+03
8.400000000000000522e-02 6.283194999999999197e-01 3.106555000000000177e+01 1.390529999999999973e+02 1.787865000000000009e+03
8.500000000000000611e-02 6.283855000000000413e-01 3.050459999999999994e+01 1.393670000000000186e+02 1.787974999999999909e+03
8.600000000000000699e-02 6.284369999999999123e-01 2.991895000000000238e+01 1.395925000000000011e+02 1.788059999999999945e+03
8.700000000000000788e-02 6.284769999999999524e-01 2.931885000000000119e+01 1.397475000000000023e+02 1.788119999999999891e+03
8.800000000000000877e-02 6.285084999999999145e-01 2.871399999999999864e+01 1.398509999999999991e+02 1.788170000000000073e+03
8.899999999999999578e-02 6.285355000000000247e-01 2.811274999999999835e+01 1.399194999999999993e+02 1.788199999999999818e+03
8.999999999999999667e-02 6.285579999999999501e-01 2.752169999999999916e+01 1.399660000000000082e+02 1.788224999999999909e+03
9.099999999999999756e-02 6.285789999999999988e-01 2.694565000000000055e+01 1.400010000000000048e+02 1.788250000000000000e+03
9.199999999999999845e-02 6.285985000000000600e-01 2.638725000000000165e+01 1.400310000000000059e+02 1.788264999999999873e+03
9.299999999999999933e-02 6.286169999999999813e-01 2.584704999999999941e+01 1.400585000000000093e+02 1.788275000000000091e+03
9.400000000000000022e-02 6.286329999999999973e-01 2.532394999999999996e+01 1.400815000000000055e+02 1.788279999999999973e+03
9.500000000000000111e-02 6.286454999999999682e-01 2.481510000000000105e+01 1.400944999999999823e+02 1.788284999999999854e+03
9.600000000000000200e-02 6.286534999999999762e-01 2.431654999999999944e+01 1.400920000000000130e+02 1.788289999999999964e+03
9.700000000000000289e-02 6.286549999999999638e-01 2.382345000000000113e+01 1.400629999999999882e+02 1.788279999999999973e+03
9.800000000000000377e-02 6.286475000000000257e-01 2.333060000000000045e+01 1.399979999999999905e+02 1.788269999999999982e+03
9.900000000000000466e-02 6.286300000000000221e-01 2.283265000000000100e+01 1.398854999999999791e+02 1.788240000000000009e+03
1.000000000000000056e-01 6.286005000000000065e-01 2.232435000000000258e+01 1.397169999999999845e+02 1.788204999999999927e+03
1.010000000000000064e-01 6.285570000000000324e-01 2.180130000000000123e+01 1.394820000000000277e+02 1.788144999999999982e+03
1.020000000000000073e-01 6.284994999999999887e-01 2.125979999999999848e+01 1.391754999999999995e+02 1.788074999999999818e+03
1.030000000000000082e-01 6.284274999999999167e-01 2.069720000000000226e+01 1.387914999999999850e+02 1.787985000000000127e+03
1.040000000000000091e-01 6.283400000000000096e-01 2.011229999999999762e+01 1.383290000000000077e+02 1.787875000000000000e+03
1.050000000000000100e-01 6.282389999999999919e-01 1.950525000000000020e+01 1.377900000000000205e+02 1.787744999999999891e+03
1.059999999999999970e-01 6.281244999999999745e-01 1.887764999999999915e+01 1.371779999999999973e+02 1.787599999999999909e+03
1.069999999999999979e-01 6.279989999999999739e-01 1.823294999999999888e+01 1.365014999999999930e+02 1.787434999999999945e+03
1.079999999999999988e-01 6.278645000000000476e-01 1.757564999999999955e+01 1.357719999999999914e+02 1.787255000000000109e+03
1.089999999999999997e-01 6.277234999999999898e-01 1.691175000000000139e+01 1.350009999999999764e+02 1.787065000000000055e+03
1.100000000000000006e-01 6.275789999999999980e-01 1.624820000000000064e+01 1.342050000000000125e+02 1.786865000000000009e+03
1.110000000000000014e-01 6.274344999999998951e-01 1.559264999999999901e+01 1.334010000000000105e+02 1.786664999999999964e+03
1.120000000000000023e-01 6.272934999999999484e-01 1.495305000000000106e+01 1.326065000000000111e+02 1.786470000000000027e+03
1.130000000000000032e-01 6.271584999999999521e-01 1.433745000000000047e+01 1.318389999999999986e+02 1.786264999999999873e+03
1.140000000000000041e-01 6.270324999999999926e-01 1.375333000000000006e+01 1.311150000000000091e+02 1.786079999999999927e+03
1.150000000000000050e-01 6.269184999999999341e-01 1.320763000000000176e+01 1.304490000000000123e+02 1.785900000000000091e+03
1.160000000000000059e-01 6.268180000000000973e-01 1.270604499999999959e+01 1.298549999999999898e+02 1.785744999999999891e+03
1.170000000000000068e-01 6.267324999999999147e-01 1.225308000000000064e+01 1.293414999999999964e+02 1.785599999999999909e+03
1.180000000000000077e-01 6.266639999999999988e-01 1.185177999999999976e+01 1.289159999999999968e+02 1.785480000000000018e+03
1.190000000000000085e-01 6.266114999999999879e-01 1.150347000000000008e+01 1.285815000000000055e+02 1.785375000000000000e+03
1.200000000000000094e-01 6.265749999999999931e-01 1.120812499999999901e+01 1.283385000000000105e+02 1.785304999999999836e+03
1.209999999999999964e-01 6.265540000000000553e-01 1.096415999999999968e+01 1.281825000000000045e+02 1.785244999999999891e+03
1.219999999999999973e-01 6.265469999999999651e-01 1.076861500000000049e+01 1.281094999999999970e+02 1.785210000000000036e+03
1.229999999999999982e-01 6.265519999999999978e-01 1.061768999999999963e+01 1.281105000000000018e+02 1.785194999999999936e+03
1.239999999999999991e-01 6.265674999999999439e-01 1.050666000000000011e+01 1.281749999999999829e+02 1.785190000000000055e+03
1.250000000000000000e-01 6.265914999999999679e-01 1.043034000000000106e+01 1.282930000000000064e+02 1.785210000000000036e+03
1.260000000000000009e-01 6.266220000000000123e-01 1.038332499999999925e+01 1.284530000000000030e+02 1.785235000000000127e+03
1.270000000000000018e-01 6.266575000000000895e-01 1.036026000000000025e+01 1.286434999999999889e+02 1.785275000000000091e+03
1.280000000000000027e-01 6.266950000000000021e-01 1.035604500000000172e+01 1.288555000000000064e+02 1.785315000000000055e+03
1.290000000000000036e-01 6.267340000000000133e-01 1.036585499999999982e+01 1.290794999999999959e+02 1.785365000000000009e+03
1.300000000000000044e-01 6.267734999999999834e-01 1.038552499999999945e+01 1.293079999999999927e+02 1.785420000000000073e+03
1.310000000000000053e-01 6.268124999999999947e-01 1.041132499999999972e+01 1.295350000000000250e+02 1.785470000000000027e+03
1.320000000000000062e-01 6.268495000000000594e-01 1.044015500000000074e+01 1.297554999999999836e+02 1.785525000000000091e+03
1.330000000000000071e-01 6.268849999999999145e-01 1.046953500000000048e+01 1.299664999999999964e+02 1.785575000000000045e+03
1.340000000000000080e-01 6.269184999999999341e-01 1.049759500000000045e+01 1.301664999999999850e+02 1.785619999999999891e+03
1.350000000000000089e-01 6.269504999999999661e-01 1.052297500000000063e+01 1.303550000000000182e+02 1.785670000000000073e+03
1.360000000000000098e-01 6.269799999999999818e-01 1.054480500000000021e+01 1.305320000000000107e+02 1.785715000000000146e+03
1.370000000000000107e-01 6.270085000000000797e-01 1.056278000000000006e+01 1.306995000000000005e+02 1.785759999999999991e+03
1.380000000000000115e-01 6.270359999999999268e-01 1.057697999999999894e+01 1.308589999999999804e+02 1.785804999999999836e+03
1.390000000000000124e-01 6.270625000000000782e-01 1.058774499999999996e+01 1.310134999999999934e+02 1.785845000000000027e+03
1.400000000000000133e-01 6.270895000000000774e-01 1.059590000000000032e+01 1.311649999999999920e+02 1.785880000000000109e+03
1.410000000000000142e-01 6.271164999999999656e-01 1.060222999999999871e+01 1.313170000000000073e+02 1.785920000000000073e+03
1.420000000000000151e-01 6.271450000000000635e-01 1.060768500000000003e+01 1.314724999999999966e+02 1.785960000000000036e+03
1.430000000000000160e-01 6.271744999999999681e-01 1.061330000000000062e+01 1.316335000000000264e+02 1.786005000000000109e+03
1.440000000000000169e-01 6.272054999999999714e-01 1.061993499999999990e+01 1.318019999999999925e+02 1.786050000000000182e+03
1.450000000000000178e-01 6.272385000000000321e-01 1.062818000000000040e+01 1.319795000000000016e+02 1.786095000000000027e+03
1.459999999999999909e-01 6.272735000000000394e-01 1.063860500000000009e+01 1.321670000000000016e+02 1.786144999999999982e+03
1.469999999999999918e-01 6.273104999999999931e-01 1.065130500000000069e+01 1.323645000000000209e+02 1.786194999999999936e+03
1.479999999999999927e-01 6.273495000000000044e-01 1.066619500000000009e+01 1.325704999999999814e+02 1.786250000000000000e+03
1.489999999999999936e-01 6.273889999999999745e-01 1.068294999999999995e+01 1.327839999999999918e+02 1.786305000000000064e+03
1.499999999999999944e-01 6.274299999999999322e-01 1.070098000000000127e+01 1.330040000000000191e+02 1.786360000000000127e+03
1.509999999999999953e-01 6.274714999999999598e-01 1.071952999999999889e+01 1.332270000000000039e+02 1.786420000000000073e+03
1.519999999999999962e-01 6.275129999999999875e-01 1.073778000000000077e+01 1.334510000000000218e+02 1.786474999999999909e+03
1.529999999999999971e-01 6.275539999999999452e-01 1.075504499999999908e+01 1.336725000000000136e+02 1.786534999999999854e+03
1.539999999999999980e-01 6.275934999999999153e-01 1.077056500000000128e+01 1.338899999999999864e+02 1.786590000000000146e+03
1.549999999999999989e-01 6.276319999999999677e-01 1.078384499999999946e+01 1.341014999999999873e+02 1.786639999999999873e+03
1.559999999999999998e-01 6.276695000000001023e-01 1.079466500000000018e+01 1.343050000000000068e+02 1.786699999999999818e+03
1.570000000000000007e-01 6.277049999999999574e-01 1.080286000000000080e+01 1.345004999999999882e+02 1.786750000000000000e+03
1.580000000000000016e-01 6.277390000000000470e-01 1.080885999999999925e+01 1.346875000000000000e+02 1.786800000000000182e+03
1.590000000000000024e-01 6.277719999999999967e-01 1.081302999999999948e+01 1.348664999999999736e+02 1.786849999999999909e+03
