# t [s], A [cm^2], U [cm/s], P [cPa], c [cm/s]
1.000000000000000021e-03 5.003110000000000612e-01 2.928900000000005110e-03 9.707104999999999961e+01 1.424190000000000055e+03
2.000000000000000042e-03 5.003039999999999710e-01 -3.674249999999999999e-04 9.705530000000000257e+01 1.424184999999999945e+03
3.000000000000000062e-03 5.003334999999999866e-01 5.489094999999999391e-02 9.710339999999999350e+01 1.424199999999999818e+03
4.000000000000000083e-03 5.003785000000000593e-01 1.411102499999999926e-01 9.720210000000000150e+01 1.424230000000000018e+03
5.000000000000000104e-03 5.003859999999999975e-01 1.602260000000000073e-01 9.722669999999999391e+01 1.424244999999999891e+03
6.000000000000000125e-03 5.003545000000000353e-01 1.049359999999999876e-01 9.713550000000000750e+01 1.424224999999999909e+03
7.000000000000000146e-03 5.003159999999999830e-01 3.193600000000001993e-02 9.697429999999999950e+01 1.424184999999999945e+03
8.000000000000000167e-03 5.002750000000000252e-01 -4.958150000000000057e-02 9.676079999999998904e+01 1.424130000000000109e+03
9.000000000000001055e-03 5.002085000000000559e-01 -1.890039999999999498e-01 9.644389999999999930e+01 1.424039999999999964e+03
1.000000000000000194e-02 5.001020000000000465e-01 -4.130800000000000027e-01 9.597660000000000480e+01 1.423909999999999854e+03
1.099999999999999936e-02 4.999529999999999808e-01 -7.250749999999999140e-01 9.533054999999998813e+01 1.423735000000000127e+03
1.200000000000000025e-02 4.997515000000000152e-01 -1.134344999999999937e+00 9.447075000000000955e+01 1.423494999999999891e+03
1.300000000000000114e-02 4.994894999999999752e-01 -1.644579999999999931e+00 9.336605000000000132e+01 1.423174999999999955e+03
1.400000000000000203e-02 4.991760000000000086e-01 -2.223974999999999813e+00 9.202519999999999811e+01 1.422779999999999973e+03
1.499999999999999944e-02 4.988380000000000036e-01 -2.798779999999999824e+00 9.051534999999999798e+01 1.422325000000000045e+03
1.600000000000000033e-02 4.985094999999999943e-01 -3.277210000000000178e+00 8.894444999999998913e+01 1.421840000000000146e+03
1.700000000000000122e-02 4.982185000000000086e-01 -3.582988499999999910e+00 8.742359999999999332e+01 1.421340000000000146e+03
1.800000000000000211e-02 4.979764999999999886e-01 -3.677300999999999931e+00 8.603255000000000052e+01 1.420865000000000009e+03
1.900000000000000300e-02 4.977785000000000126e-01 -3.563172500000000298e+00 8.480330000000000723e+01 1.420420000000000073e+03
2.000000000000000042e-02 4.976064999999999516e-01 -3.276305500000000315e+00 8.372055000000000291e+01 1.420005000000000109e+03
2.100000000000000130e-02 4.974405000000000077e-01 -2.869356999999999935e+00 8.273570000000000846e+01 1.419614999999999782e+03
2.200000000000000219e-02 4.972600000000000353e-01 -2.395444499999999977e+00 8.178565000000000396e+01 1.419230000000000018e+03
2.299999999999999961e-02 4.970535000000000370e-01 -1.894809999999999883e+00 8.081289999999999907e+01 1.418845000000000027e+03
2.400000000000000050e-02 4.968175000000000230e-01 -1.387670000000000181e+00 7.978010000000000446e+01 1.418434999999999945e+03
2.500000000000000139e-02 4.965564999999999563e-01 -8.743999999999998440e-01 7.867640000000000100e+01 1.418014999999999873e+03
2.600000000000000228e-02 4.962805000000000133e-01 -3.423249999999997684e-01 7.751460000000000150e+01 1.417575000000000045e+03
2.700000000000000316e-02 4.960004999999999553e-01 2.241100000000000314e-01 7.632110000000000127e+01 1.417125000000000000e+03
2.800000000000000058e-02 4.957229999999999692e-01 8.334049999999999514e-01 7.512269999999999470e+01 1.416670000000000073e+03
2.900000000000000147e-02 4.954509999999999748e-01 1.480455000000000076e+00 7.393580000000000041e+01 1.416215000000000146e+03
3.000000000000000236e-02 4.951789999999999803e-01 2.144480000000000164e+00 7.275915000000000532e+01 1.415764999999999873e+03
3.099999999999999978e-02 4.948985000000000190e-01 2.791359999999999619e+00 7.157259999999999422e+01 1.415309999999999945e+03
3.200000000000000067e-02 4.945969999999999533e-01 3.379255000000000564e+00 7.034099999999999397e+01 1.414840000000000146e+03
3.300000000000000155e-02 4.942619999999999791e-01 3.866029999999999411e+00 6.902179999999999893e+01 1.414349999999999909e+03
3.400000000000000244e-02 4.938854999999999773e-01 4.216874999999999929e+00 6.757465000000000543e+01 1.413825000000000045e+03
3.500000000000000333e-02 4.934634999999999438e-01 4.410895000000000010e+00 6.597175000000000011e+01 1.413259999999999991e+03
3.600000000000000422e-02 4.929979999999999918e-01 4.444935000000000080e+00 6.420550000000000068e+01 1.412650000000000091e+03
3.700000000000000511e-02 4.924990000000000201e-01 4.334429999999999339e+00 6.229290000000000305e+01 1.412005000000000109e+03
3.799999999999999906e-02 4.919810000000000016e-01 4.110630000000000450e+00 6.027540000000000475e+01 1.411320000000000164e+03
3.899999999999999994e-02 4.914629999999999832e-01 3.815540000000000376e+00 5.821470000000000056e+01 1.410619999999999891e+03
4.000000000000000083e-02 4.909640000000000115e-01 3.496259999999999923e+00 5.618540000000000134e+01 1.409929999999999836e+03
4.100000000000000172e-02 4.905045000000000099e-01 3.198764999999999858e+00 5.426694999999999425e+01 1.409264999999999873e+03
4.200000000000000261e-02 4.900979999999999781e-01 2.963620000000000587e+00 5.253555000000000064e+01 1.408650000000000091e+03
4.300000000000000350e-02 4.897595000000000143e-01 2.823249999999999815e+00 5.105825000000000102e+01 1.408105000000000018e+03
4.400000000000000439e-02 4.894979999999999887e-01 2.801130000000000564e+00 4.988885000000000502e+01 1.407654999999999973e+03
4.499999999999999833e-02 4.893180000000000307e-01 2.912145000000000206e+00 4.906569999999999965e+01 1.407305000000000064e+03
4.599999999999999922e-02 4.892225000000000046e-01 3.164311000000000096e+00 4.861265000000000214e+01 1.407070000000000164e+03
4.700000000000000011e-02 4.892120000000000357e-01 3.560750000000000526e+00 4.854030000000000200e+01 1.406965000000000146e+03
4.800000000000000100e-02 4.892855000000000398e-01 4.101679999999999993e+00 4.884875000000000256e+01 1.406980000000000018e+03
4.900000000000000189e-02 4.894405000000000561e-01 4.785965000000000025e+00 4.953059999999999974e+01 1.407119999999999891e+03
5.000000000000000278e-02 4.896749999999999714e-01 5.611964999999999648e+00 5.057354999999999734e+01 1.407384999999999991e+03
5.100000000000000366e-02 4.899854999999999627e-01 6.577655000000000030e+00 5.196179999999999666e+01 1.407769999999999982e+03
5.200000000000000455e-02 4.903690000000000548e-01 7.680035000000000167e+00 5.367725000000000080e+01 1.408269999999999982e+03
5.300000000000000544e-02 4.908215000000000217e-01 8.914524999999999366e+00 5.569950000000000045e+01 1.408875000000000000e+03
5.399999999999999939e-02 4.913379999999999970e-01 1.027365999999999957e+01 5.800535000000000707e+01 1.409589999999999918e+03
5.500000000000000028e-02 4.919120000000000159e-01 1.174685500000000005e+01 6.056855000000000189e+01 1.410400000000000091e+03
5.600000000000000117e-02 4.925370000000000026e-01 1.331987499999999969e+01 6.335905000000000342e+01 1.411284999999999854e+03
5.700000000000000205e-02 4.932040000000000313e-01 1.497490499999999969e+01 6.634349999999999170e+01 1.412255000000000109e+03
5.800000000000000294e-02 4.939049999999999829e-01 1.669152499999999861e+01 6.948524999999999352e+01 1.413284999999999854e+03
5.900000000000000383e-02 4.946315000000000017e-01 1.844745999999999952e+01 7.274585000000000434e+01 1.414365000000000009e+03
6.000000000000000472e-02 4.953724999999999934e-01 2.021979999999999933e+01 7.608605000000000018e+01 1.415485000000000127e+03
6.099999999999999867e-02 4.961210000000000342e-01 2.198604999999999876e+01 7.946750000000000114e+01 1.416630000000000109e+03
6.199999999999999956e-02 4.968690000000000051e-01 2.372540000000000049e+01 8.285429999999999495e+01 1.417795000000000073e+03
6.300000000000000044e-02 4.976095000000000379e-01 2.541939999999999955e+01 8.621424999999999272e+01 1.418965000000000146e+03
6.400000000000000133e-02 4.983374999999999888e-01 2.705270000000000152e+01 8.952080000000000837e+01 1.420125000000000000e+03
6.500000000000000222e-02 4.990485000000000060e-01 2.861329999999999885e+01 9.275274999999999181e+01 1.421269999999999982e+03
6.600000000000000311e-02 4.997399999999999620e-01 3.009250000000000114e+01 9.589430000000000121e+01 1.422400000000000091e+03
6.700000000000000400e-02 5.004115000000000091e-01 3.148485000000000156e+01 9.893630000000000280e+01 1.423494999999999891e+03
6.800000000000000488e-02 5.010624999999999662e-01 3.278779999999999717e+01 1.018746500000000026e+02 1.424569999999999936e+03
6.900000000000000577e-02 5.016939999999999733e-01 3.400119999999999720e+01 1.047111999999999910e+02 1.425615000000000009e+03
7.000000000000000666e-02 5.023060000000000302e-01 3.512680000000000291e+01 1.074502999999999986e+02 1.426625000000000000e+03
7.100000000000000755e-02 5.029015000000000013e-01 3.616799999999999926e+01 1.100995000000000061e+02 1.427619999999999891e+03
7.200000000000000844e-02 5.034830000000000139e-01 3.712895000000000323e+01 1.126684999999999945e+02 1.428575000000000045e+03
7.300000000000000933e-02 5.040519999999999445e-01 3.801440000000000197e+01 1.151684999999999945e+02 1.429514999999999873e+03
7.399999999999999634e-02 5.046104999999999619e-01 3.882920000000000016e+01 1.176094999999999970e+02 1.430434999999999945e+03
7.499999999999999722e-02 5.051605000000000123e-01 3.957795000000000130e+01 1.200000000000000000e+02 1.431335000000000036e+03
7.599999999999999811e-02 5.057030000000000136e-01 4.026470000000000482e+01 1.223479999999999990e+02 1.432220000000000027e+03
7.699999999999999900e-02 5.062389999999999946e-01 4.089239999999999498e+01 1.246589999999999918e+02 1.433095000000000027e+03
7.799999999999999989e-02 5.067679999999999962e-01 4.146330000000000382e+01 1.269354999999999905e+02 1.433950000000000045e+03
7.900000000000000078e-02 5.072900000000000187e-01 4.197804999999999609e+01 1.291760000000000161e+02 1.434795000000000073e+03
8.000000000000000167e-02 5.078030000000000044e-01 4.243654999999999688e+01 1.313764999999999930e+02 1.435625000000000000e+03
8.100000000000000255e-02 5.083054999999999657e-01 4.283735000000000070e+01 1.335310000000000059e+02 1.436445000000000164e+03
8.200000000000000344e-02 5.087954999999999561e-01 4.317820000000000391e+01 1.356304999999999836e+02 1.437240000000000009e+03
8.300000000000000433e-02 5.092700000000000005e-01 4.345610000000000639e+01 1.376624999999999943e+02 1.438014999999999873e+03
8.400000000000000522e-02 5.097255000000000535e-01 4.366764999999999475e+01 1.396154999999999973e+02 1.438764999999999873e+03
8.500000000000000611e-02 5.101594999999999880e-01 4.380930000000000035e+01 1.414759999999999991e+02 1.439480000000000018e+03
8.600000000000000699e-02 5.105690000000000506e-01 4.387774999999999892e+01 1.432309999999999945e+02 1.440160000000000082e+03
8.700000000000000788e-02 5.109510000000000440e-01 4.387000000000000455e+01 1.448665000000000020e+02 1.440804999999999836e+03
8.800000000000000877e-02 5.113034999999999108e-01 4.378379999999999939e+01 1.463720000000000141e+02 1.441400000000000091e+03
8.899999999999999578e-02 5.116245000000000376e-01 4.361769999999999925e+01 1.477384999999999877e+02 1.441950000000000045e+03
8.999999999999999667e-02 5.119119999999999227e-01 4.337120000000000175e+01 1.489575000000000102e+02 1.442450000000000045e+03
9.099999999999999756e-02 5.121649999999999814e-01 4.304505000000000337e+01 1.500249999999999773e+02 1.442894999999999982e+03
9.199999999999999845e-02 5.123839999999999506e-01 4.264100000000000534e+01 1.509375000000000000e+02 1.443295000000000073e+03
9.299999999999999933e-02 5.125680000000000236e-01 4.216195000000000448e+01 1.516970000000000027e+02 1.443630000000000109e+03
9.400000000000000022e-02 5.127194999999999947e-01 4.161204999999999643e+01 1.523040000000000020e+02 1.443909999999999854e+03
9.500000000000000111e-02 5.128380000000000161e-01 4.099644999999999584e+01 1.527665000000000077e+02 1.444144999999999982e+03
9.600000000000000200e-02 5.129259999999999931e-01 4.032119999999999749e+01 1.530914999999999964e+02 1.444325000000000045e+03
9.700000000000000289e-02 5.129860000000000531e-01 3.959324999999999761e+01 1.532880000000000109e+02 1.444454999999999927e+03
9.800000000000000377e-02 5.130204999999999904e-01 3.882025000000000148e+01 1.533679999999999950e+02 1.444539999999999964e+03
9.900000000000000466e-02 5.130319999999999325e-01 3.801030000000000086e+01 1.533455000000000155e+02 1.444585000000000036e+03
1.000000000000000056e-01 5.130239999999999245e-01 3.717194999999999538e+01 1.532325000000000159e+02 1.444594999999999800e+03
1.010000000000000064e-01 5.129995000000000527e-01 3.631365000000000265e+01 1.530449999999999875e+02 1.444569999999999936e+03
1.020000000000000073e-01 5.129610000000000003e-01 3.544400000000000261e+01 1.527969999999999970e+02 1.444519999999999982e+03
1.030000000000000082e-01 5.129124999999999934e-01 3.457110000000000127e+01 1.525029999999999859e+02 1.444449999999999818e+03
1.040000000000000091e-01 5.128570000000000073e-01 3.370250000000000057e+01 1.521770000000000209e+02 1.444360000000000127e+03
1.050000000000000100e-01 5.127964999999999884e-01 3.284499999999999886e+01 1.518305000000000007e+02 1.444264999999999873e+03
1.059999999999999970e-01 5.127334999999999532e-01 3.200450000000000017e+01 1.514749999999999943e+02 1.444150000000000091e+03
1.069999999999999979e-01 5.126699999999999591e-01 3.118565000000000254e+01 1.511209999999999809e+02 1.444034999999999854e+03
1.079999999999999988e-01 5.126074999999999937e-01 3.039189999999999969e+01 1.507749999999999773e+02 1.443920000000000073e+03
1.089999999999999997e-01 5.125469999999999748e-01 2.962539999999999907e+01 1.504420000000000073e+02 1.443804999999999836e+03
1.100000000000000006e-01 5.124889999999999723e-01 2.888689999999999714e+01 1.501259999999999764e+02 1.443690000000000055e+03
1.110000000000000014e-01 5.124330000000000274e-01 2.817600000000000193e+01 1.498274999999999864e+02 1.443579999999999927e+03
1.120000000000000023e-01 5.123794999999999877e-01 2.749090000000000344e+01 1.495444999999999993e+02 1.443474999999999909e+03
1.130000000000000032e-01 5.123269999999999769e-01 2.682880000000000109e+01 1.492750000000000057e+02 1.443375000000000000e+03
1.140000000000000041e-01 5.122750000000000359e-01 2.618614999999999782e+01 1.490135000000000218e+02 1.443269999999999982e+03
1.150000000000000050e-01 5.122210000000000374e-01 2.555855000000000032e+01 1.487549999999999955e+02 1.443170000000000073e+03
1.160000000000000059e-01 5.121645000000000225e-01 2.494120000000000203e+01 1.484915000000000020e+02 1.443070000000000164e+03
1.170000000000000068e-01 5.121040000000000036e-01 2.432920000000000016e+01 1.482160000000000082e+02 1.442965000000000146e+03
1.180000000000000077e-01 5.120370000000000754e-01 2.371744999999999948e+01 1.479214999999999804e+02 1.442855000000000018e+03
1.190000000000000085e-01 5.119630000000000569e-01 2.310125000000000028e+01 1.476014999999999873e+02 1.442735000000000127e+03
1.200000000000000094e-01 5.118810000000000304e-01 2.247630000000000194e+01 1.472479999999999905e+02 1.442609999999999900e+03
1.209999999999999964e-01 5.117884999999999796e-01 2.183879999999999910e+01 1.468565000000000111e+02 1.442470000000000027e+03
1.219999999999999973e-01 5.116864999999999331e-01 2.118590000000000018e+01 1.464225000000000136e+02 1.442320000000000164e+03
1.229999999999999982e-01 5.115735000000000143e-01 2.051529999999999987e+01 1.459435000000000002e+02 1.442150000000000091e+03
1.239999999999999991e-01 5.114495000000000013e-01 1.982574999999999932e+01 1.454174999999999898e+02 1.441970000000000027e+03
1.250000000000000000e-01 5.113149999999999640e-01 1.911704999999999899e+01 1.448460000000000036e+02 1.441769999999999982e+03
1.260000000000000009e-01 5.111710000000000420e-01 1.838985000000000269e+01 1.442295000000000016e+02 1.441559999999999945e+03
1.270000000000000018e-01 5.110175000000000134e-01 1.764569999999999794e+01 1.435724999999999909e+02 1.441335000000000036e+03
1.280000000000000027e-01 5.108570000000000055e-01 1.688725000000000165e+01 1.428795000000000073e+02 1.441095000000000027e+03
1.290000000000000036e-01 5.106899999999999773e-01 1.611775000000000091e+01 1.421560000000000059e+02 1.440844999999999800e+03
1.300000000000000044e-01 5.105189999999999451e-01 1.534114999999999895e+01 1.414105000000000132e+02 1.440585000000000036e+03
1.310000000000000053e-01 5.103455000000000075e-01 1.456204500000000124e+01 1.406504999999999939e+02 1.440325000000000045e+03
1.320000000000000062e-01 5.101715000000000000e-01 1.378546500000000030e+01 1.398845000000000027e+02 1.440055000000000064e+03
1.330000000000000071e-01 5.099985000000000213e-01 1.301664500000000046e+01 1.391210000000000093e+02 1.439785000000000082e+03
1.340000000000000080e-01 5.098295000000000465e-01 1.226097000000000037e+01 1.383700000000000045e+02 1.439514999999999873e+03
1.350000000000000089e-01 5.096665000000000223e-01 1.152370499999999964e+01 1.376394999999999982e+02 1.439255000000000109e+03
1.360000000000000098e-01 5.095100000000000184e-01 1.080993499999999941e+01 1.369384999999999764e+02 1.439000000000000000e+03
1.370000000000000107e-01 5.093630000000000102e-01 1.012439999999999962e+01 1.362740000000000009e+02 1.438759999999999991e+03
1.380000000000000115e-01 5.092265000000000263e-01 9.471270000000000522e+00 1.356524999999999750e+02 1.438525000000000091e+03
1.390000000000000124e-01 5.091004999999999558e-01 8.854139999999999233e+00 1.350794999999999959e+02 1.438309999999999945e+03
1.400000000000000133e-01 5.089869999999999672e-01 8.275940000000000296e+00 1.345595000000000141e+02 1.438110000000000127e+03
1.410000000000000142e-01 5.088865000000000194e-01 7.738694999999999879e+00 1.340939999999999941e+02 1.437925000000000182e+03
1.420000000000000151e-01 5.087985000000000424e-01 7.243684999999999263e+00 1.336845000000000141e+02 1.437759999999999991e+03
1.430000000000000160e-01 5.087230000000000363e-01 6.791364999999999874e+00 1.333324999999999818e+02 1.437615000000000009e+03
1.440000000000000169e-01 5.086589999999999723e-01 6.381355000000000111e+00 1.330345000000000084e+02 1.437490000000000009e+03
1.450000000000000178e-01 5.086074999999999902e-01 6.012529999999999930e+00 1.327884999999999991e+02 1.437380000000000109e+03
1.459999999999999909e-01 5.085655000000000037e-01 5.683075000000000543e+00 1.325910000000000082e+02 1.437289999999999964e+03
1.469999999999999918e-01 5.085330000000000128e-01 5.390575000000000117e+00 1.324364999999999952e+02 1.437215000000000146e+03
1.479999999999999927e-01 5.085085000000000299e-01 5.132134999999999891e+00 1.323195000000000050e+02 1.437150000000000091e+03
1.489999999999999936e-01 5.084905000000000674e-01 4.904484999999999317e+00 1.322339999999999804e+02 1.437099999999999909e+03
1.499999999999999944e-01 5.084774999999999157e-01 4.704095000000000582e+00 1.321739999999999782e+02 1.437065000000000055e+03
1.509999999999999953e-01 5.084680000000000311e-01 4.527305000000000135e+00 1.321324999999999932e+02 1.437029999999999973e+03
1.519999999999999962e-01 5.084610000000000518e-01 4.370434999999999626e+00 1.321030000000000086e+02 1.437005000000000109e+03
1.529999999999999971e-01 5.084539999999999615e-01 4.229870000000000019e+00 1.320794999999999959e+02 1.436980000000000018e+03
1.539999999999999980e-01 5.084474999999999412e-01 4.102174999999999905e+00 1.320575000000000045e+02 1.436964999999999918e+03
1.549999999999999989e-01 5.084400000000000031e-01 3.984150000000000080e+00 1.320310000000000059e+02 1.436950000000000045e+03
1.559999999999999998e-01 5.084300000000000486e-01 3.872894999999999754e+00 1.319965000000000259e+02 1.436925000000000182e+03
1.570000000000000007e-01 5.084174999999999667e-01 3.765855000000000175e+00 1.319499999999999886e+02 1.436905000000000200e+03
1.580000000000000016e-01 5.084009999999999918e-01 3.660855000000000192e+00 1.318890000000000100e+02 1.436875000000000000e+03
1.590000000000000024e-01 5.083809999999999718e-01 3.556115000000000137e+00 1.318114999999999952e+02 1.436849999999999909e+03
