# t [s], A [cm^2], U [cm/s], P [cPa], c [cm/s]
1.000000000000000021e-03 1.868704999999999949e-01 1.477215000000000056e-01 9.232359999999999900e+01 2.113515000000000327e+03
2.000000000000000042e-03 1.868384999999999907e-01 1.355145999999999962e+00 8.972114999999999441e+01 2.113224999999999909e+03
3.000000000000000062e-03 1.867340000000000111e-01 2.913891000000000009e+00 8.601699999999999591e+01 2.112349999999999909e+03
4.000000000000000083e-03 1.865825000000000122e-01 4.689485000000000348e+00 8.170844999999999914e+01 2.111099999999999909e+03
5.000000000000000104e-03 1.864124999999999810e-01 6.629979999999999762e+00 7.755494999999999095e+01 2.109710000000000036e+03
6.000000000000000125e-03 1.862429999999999919e-01 8.625605000000000189e+00 7.399135000000001128e+01 2.108345000000000255e+03
7.000000000000000146e-03 1.860835000000000128e-01 1.049584000000000117e+01 7.098239999999999839e+01 2.107069999999999709e+03
8.000000000000000167e-03 1.859345000000000026e-01 1.210960000000000036e+01 6.830039999999999623e+01 2.105909999999999854e+03
9.000000000000001055e-03 1.857999999999999929e-01 1.345810499999999976e+01 6.590000000000000568e+01 2.104875000000000000e+03
1.000000000000000194e-02 1.856835000000000013e-01 1.457649999999999935e+01 6.386649999999999494e+01 2.103989999999999782e+03
1.099999999999999936e-02 1.855864999999999876e-01 1.548614999999999853e+01 6.223654999999999404e+01 2.103269999999999982e+03
1.200000000000000025e-02 1.855090000000000072e-01 1.620004999999999740e+01 6.098255000000000337e+01 2.102695000000000164e+03
1.300000000000000114e-02 1.854480000000000017e-01 1.672230000000000061e+01 6.003159999999999741e+01 2.102244999999999891e+03
1.400000000000000203e-02 1.853994999999999949e-01 1.704949999999999832e+01 5.926574999999999704e+01 2.101900000000000091e+03
1.499999999999999944e-02 1.853589999999999960e-01 1.720064999999999955e+01 5.859140000000000015e+01 2.101619999999999891e+03
1.600000000000000033e-02 1.853270000000000195e-01 1.725070000000000192e+01 5.805589999999999407e+01 2.101404999999999745e+03
1.700000000000000122e-02 1.853090000000000015e-01 1.732209999999999894e+01 5.788259999999999650e+01 2.101289999999999964e+03
1.800000000000000211e-02 1.853124999999999911e-01 1.753379999999999939e+01 5.836314999999999742e+01 2.101324999999999818e+03
1.900000000000000300e-02 1.853434999999999944e-01 1.794319999999999737e+01 5.967990000000000350e+01 2.101560000000000400e+03
2.000000000000000042e-02 1.854014999999999969e-01 1.851934999999999931e+01 6.177839999999999776e+01 2.102000000000000000e+03
2.100000000000000130e-02 1.854804999999999926e-01 1.915800000000000125e+01 6.435904999999999632e+01 2.102605000000000018e+03
2.200000000000000219e-02 1.855684999999999973e-01 1.972509999999999764e+01 6.697894999999999754e+01 2.103279999999999745e+03
2.299999999999999961e-02 1.856519999999999837e-01 2.010549999999999926e+01 6.920199999999999818e+01 2.103929999999999836e+03
2.400000000000000050e-02 1.857205000000000106e-01 2.023714999999999975e+01 7.073175000000000523e+01 2.104475000000000364e+03
2.500000000000000139e-02 1.857679999999999887e-01 2.012215000000000131e+01 7.147894999999999754e+01 2.104864999999999782e+03
2.600000000000000228e-02 1.857940000000000147e-01 1.981405000000000172e+01 7.155235000000000412e+01 2.105085000000000036e+03
2.700000000000000316e-02 1.858029999999999959e-01 1.939059999999999917e+01 7.118670000000000186e+01 2.105175000000000182e+03
2.800000000000000058e-02 1.858009999999999939e-01 1.892304999999999993e+01 7.064275000000000659e+01 2.105170000000000073e+03
2.900000000000000147e-02 1.857940000000000147e-01 1.845374999999999943e+01 7.011700000000000443e+01 2.105119999999999891e+03
3.000000000000000236e-02 1.857849999999999779e-01 1.798740000000000094e+01 6.968950000000000955e+01 2.105055000000000291e+03
3.099999999999999978e-02 1.857755000000000101e-01 1.749729999999999919e+01 6.932105000000001382e+01 2.104985000000000127e+03
3.200000000000000067e-02 1.857630000000000114e-01 1.694154999999999944e+01 6.889180000000000348e+01 2.104889999999999873e+03
3.300000000000000155e-02 1.857449999999999934e-01 1.628419999999999845e+01 6.826435000000000741e+01 2.104755000000000109e+03
3.400000000000000244e-02 1.857174999999999798e-01 1.551309999999999967e+01 6.734905000000000541e+01 2.104555000000000291e+03
3.500000000000000333e-02 1.856804999999999983e-01 1.465054999999999907e+01 6.615075000000000216e+01 2.104279999999999745e+03
3.600000000000000422e-02 1.856365000000000098e-01 1.375234999999999985e+01 6.478360000000000696e+01 2.103949999999999818e+03
3.700000000000000511e-02 1.855904999999999916e-01 1.289639999999999986e+01 6.344955000000000211e+01 2.103599999999999909e+03
3.799999999999999906e-02 1.855489999999999917e-01 1.216469999999999985e+01 6.238774999999999693e+01 2.103279999999999745e+03
3.899999999999999994e-02 1.855195000000000038e-01 1.162304999999999922e+01 6.181235000000000213e+01 2.103045000000000073e+03
4.000000000000000083e-02 1.855074999999999918e-01 1.130645000000000167e+01 6.185685000000000144e+01 2.102940000000000055e+03
4.100000000000000172e-02 1.855160000000000142e-01 1.121185000000000009e+01 6.254155000000000086e+01 2.102985000000000127e+03
4.200000000000000261e-02 1.855430000000000135e-01 1.130100000000000016e+01 6.377015000000000100e+01 2.103180000000000291e+03
4.300000000000000350e-02 1.855860000000000010e-01 1.150939999999999941e+01 6.535309999999999775e+01 2.103489999999999782e+03
4.400000000000000439e-02 1.856379999999999975e-01 1.176030000000000086e+01 6.704865000000000919e+01 2.103880000000000109e+03
4.499999999999999833e-02 1.856909999999999950e-01 1.197789999999999999e+01 6.860925000000000296e+01 2.104284999999999854e+03
4.599999999999999922e-02 1.857389999999999874e-01 1.209890000000000043e+01 6.982274999999999920e+01 2.104650000000000091e+03
4.700000000000000011e-02 1.857745000000000091e-01 1.207920000000000016e+01 7.054054999999999609e+01 2.104930000000000291e+03
4.800000000000000100e-02 1.857945000000000013e-01 1.189559999999999995e+01 7.068885000000000218e+01 2.105095000000000255e+03
4.900000000000000189e-02 1.857959999999999889e-01 1.154405000000000037e+01 7.026460000000000150e+01 2.105114999999999782e+03
5.000000000000000278e-02 1.857789999999999997e-01 1.103476500000000016e+01 6.931980000000000075e+01 2.104994999999999891e+03
5.100000000000000366e-02 1.857455000000000078e-01 1.038632000000000133e+01 6.794010000000000105e+01 2.104744999999999891e+03
5.200000000000000455e-02 1.856970000000000010e-01 9.620715000000000572e+00 6.622315000000000396e+01 2.104380000000000109e+03
5.300000000000000544e-02 1.856359999999999955e-01 8.759785000000000821e+00 6.426265000000000782e+01 2.103920000000000073e+03
5.399999999999999939e-02 1.855664999999999953e-01 7.823764999999999858e+00 6.213859999999999673e+01 2.103394999999999982e+03
5.500000000000000028e-02 1.854905000000000026e-01 6.831485000000000696e+00 5.991579999999999728e+01 2.102809999999999945e+03
5.600000000000000117e-02 1.854095000000000049e-01 5.801925000000000665e+00 5.764759999999999707e+01 2.102190000000000055e+03
5.700000000000000205e-02 1.853265000000000051e-01 4.756054999999999922e+00 5.538280000000000314e+01 2.101555000000000291e+03
5.800000000000000294e-02 1.852429999999999910e-01 3.718450000000000255e+00 5.317295000000000016e+01 2.100920000000000073e+03
5.900000000000000383e-02 1.851605000000000056e-01 2.718110000000000248e+00 5.107814999999999372e+01 2.100289999999999964e+03
6.000000000000000472e-02 1.850835000000000119e-01 1.788172499999999943e+00 4.916899999999999693e+01 2.099690000000000055e+03
6.099999999999999867e-02 1.850129999999999830e-01 9.646170000000000577e-01 4.752550000000000097e+01 2.099144999999999982e+03
6.199999999999999956e-02 1.849534999999999929e-01 2.841749999999999554e-01 4.623250000000000171e+01 2.098675000000000182e+03
6.300000000000000044e-02 1.849065000000000014e-01 -2.182730000000000503e-01 4.537284999999999968e+01 2.098305000000000291e+03
6.400000000000000133e-02 1.848759999999999848e-01 -5.122804999999999165e-01 4.501989999999999981e+01 2.098060000000000400e+03
6.500000000000000222e-02 1.848635000000000139e-01 -5.741405000000000536e-01 4.523100000000000165e+01 2.097949999999999818e+03
6.600000000000000311e-02 1.848719999999999808e-01 -3.885305000000000009e-01 4.604164999999999708e+01 2.097994999999999891e+03
6.700000000000000400e-02 1.849020000000000108e-01 5.053499999999999659e-02 4.746280000000000143e+01 2.098204999999999927e+03
6.800000000000000488e-02 1.849544999999999939e-01 7.395645000000000691e-01 4.948019999999999641e+01 2.098585000000000036e+03
6.900000000000000577e-02 1.850279999999999980e-01 1.666119499999999976e+00 5.205575000000000330e+01 2.099130000000000109e+03
7.000000000000000666e-02 1.851220000000000088e-01 2.809961550000000141e+00 5.513150000000000261e+01 2.099829999999999927e+03
7.100000000000000755e-02 1.852340000000000098e-01 4.144592499999999902e+00 5.863415000000000532e+01 2.100675000000000182e+03
7.200000000000000844e-02 1.853615000000000124e-01 5.639085000000000569e+00 6.248085000000000377e+01 2.101639999999999873e+03
7.300000000000000933e-02 1.855020000000000002e-01 7.260089999999999932e+00 6.658490000000000464e+01 2.102710000000000036e+03
7.399999999999999634e-02 1.856524999999999981e-01 8.973634999999999806e+00 7.086185000000000400e+01 2.103855000000000018e+03
7.499999999999999722e-02 1.858100000000000029e-01 1.074715499999999935e+01 7.523400000000000887e+01 2.105065000000000055e+03
7.599999999999999811e-02 1.859719999999999984e-01 1.255081999999999987e+01 7.963485000000000014e+01 2.106310000000000400e+03
7.699999999999999900e-02 1.861365000000000103e-01 1.435859999999999914e+01 8.401165000000000305e+01 2.107574999999999818e+03
7.799999999999999989e-02 1.863004999999999800e-01 1.614920000000000044e+01 8.832659999999999911e+01 2.108850000000000364e+03
7.900000000000000078e-02 1.864635000000000042e-01 1.790585000000000093e+01 9.255644999999999811e+01 2.110114999999999782e+03
8.000000000000000167e-02 1.866249999999999853e-01 1.961614999999999753e+01 9.669084999999999752e+01 2.111369999999999891e+03
8.100000000000000255e-02 1.867840000000000056e-01 2.127165000000000106e+01 1.007299000000000007e+02 2.112614999999999782e+03
8.200000000000000344e-02 1.869399999999999951e-01 2.286670000000000158e+01 1.046799000000000035e+02 2.113829999999999927e+03
8.300000000000000433e-02 1.870934999999999959e-01 2.439775000000000205e+01 1.085494999999999948e+02 2.115030000000000200e+03
8.400000000000000522e-02 1.872449999999999948e-01 2.586230000000000118e+01 1.123499999999999943e+02 2.116220000000000255e+03
8.500000000000000611e-02 1.873934999999999906e-01 2.725840000000000174e+01 1.160870000000000033e+02 2.117389999999999873e+03
8.600000000000000699e-02 1.875404999999999989e-01 2.858404999999999774e+01 1.197634999999999934e+02 2.118550000000000182e+03
8.700000000000000788e-02 1.876849999999999907e-01 2.983684999999999832e+01 1.233785000000000025e+02 2.119684999999999945e+03
8.800000000000000877e-02 1.878275000000000083e-01 3.101430000000000220e+01 1.269254999999999995e+02 2.120810000000000400e+03
8.899999999999999578e-02 1.879669999999999952e-01 3.211330000000000240e+01 1.303950000000000102e+02 2.121914999999999964e+03
8.999999999999999667e-02 1.881039999999999934e-01 3.313074999999999903e+01 1.337740000000000009e+02 2.122994999999999891e+03
9.099999999999999756e-02 1.882369999999999877e-01 3.406340000000000146e+01 1.370480000000000018e+02 2.124050000000000182e+03
9.199999999999999845e-02 1.883664999999999923e-01 3.490800000000000125e+01 1.402015000000000100e+02 2.125074999999999818e+03
9.299999999999999933e-02 1.884910000000000196e-01 3.566125000000000256e+01 1.432194999999999823e+02 2.126065000000000055e+03
9.400000000000000022e-02 1.886105000000000143e-01 3.632014999999999816e+01 1.460869999999999891e+02 2.127019999999999982e+03
9.500000000000000111e-02 1.887245000000000172e-01 3.688150000000000261e+01 1.487889999999999873e+02 2.127925000000000182e+03
9.600000000000000200e-02 1.888319999999999999e-01 3.734234999999999616e+01 1.513110000000000070e+02 2.128784999999999854e+03
9.700000000000000289e-02 1.889325000000000032e-01 3.769960000000000377e+01 1.536380000000000052e+02 2.129590000000000146e+03
9.800000000000000377e-02 1.890259999999999996e-01 3.795060000000000144e+01 1.557574999999999932e+02 2.130335000000000036e+03
9.900000000000000466e-02 1.891114999999999879e-01 3.809284999999999854e+01 1.576574999999999989e+02 2.131019999999999982e+03
1.000000000000000056e-01 1.891884999999999817e-01 3.812489999999999668e+01 1.593265000000000100e+02 2.131640000000000327e+03
1.010000000000000064e-01 1.892570000000000086e-01 3.804599999999999937e+01 1.607570000000000050e+02 2.132189999999999600e+03
1.020000000000000073e-01 1.893160000000000120e-01 3.785689999999999600e+01 1.619449999999999932e+02 2.132670000000000073e+03
1.030000000000000082e-01 1.893659999999999788e-01 3.755979999999999563e+01 1.628899999999999864e+02 2.133079999999999927e+03
1.040000000000000091e-01 1.894064999999999777e-01 3.715869999999999607e+01 1.635975000000000250e+02 2.133409999999999854e+03
1.050000000000000100e-01 1.894385000000000097e-01 3.665949999999999420e+01 1.640749999999999886e+02 2.133675000000000182e+03
1.059999999999999970e-01 1.894615000000000049e-01 3.606990000000000407e+01 1.643394999999999868e+02 2.133869999999999891e+03
1.069999999999999979e-01 1.894764999999999922e-01 3.539910000000000423e+01 1.644080000000000155e+02 2.133994999999999891e+03
1.079999999999999988e-01 1.894845000000000002e-01 3.465760000000000218e+01 1.643040000000000020e+02 2.134070000000000164e+03
1.089999999999999997e-01 1.894850000000000145e-01 3.385699999999999932e+01 1.640509999999999877e+02 2.134085000000000036e+03
1.100000000000000006e-01 1.894804999999999962e-01 3.300925000000000153e+01 1.636770000000000209e+02 2.134050000000000182e+03
1.110000000000000014e-01 1.894710000000000005e-01 3.212664999999999793e+01 1.632069999999999936e+02 2.133984999999999673e+03
1.120000000000000023e-01 1.894569999999999865e-01 3.122100000000000009e+01 1.626664999999999850e+02 2.133880000000000109e+03
1.130000000000000032e-01 1.894405000000000117e-01 3.030349999999999966e+01 1.620784999999999911e+02 2.133755000000000109e+03
1.140000000000000041e-01 1.894219999999999793e-01 2.938439999999999941e+01 1.614650000000000034e+02 2.133609999999999673e+03
1.150000000000000050e-01 1.894015000000000004e-01 2.847259999999999991e+01 1.608414999999999964e+02 2.133445000000000164e+03
1.160000000000000059e-01 1.893805000000000072e-01 2.757560000000000144e+01 1.602224999999999966e+02 2.133279999999999745e+03
1.170000000000000068e-01 1.893595000000000139e-01 2.669920000000000115e+01 1.596164999999999736e+02 2.133114999999999782e+03
1.180000000000000077e-01 1.893380000000000063e-01 2.584759999999999991e+01 1.590300000000000011e+02 2.132945000000000164e+03
1.190000000000000085e-01 1.893164999999999987e-01 2.502320000000000277e+01 1.584644999999999868e+02 2.132775000000000091e+03
1.200000000000000094e-01 1.892960000000000198e-01 2.422670000000000101e+01 1.579170000000000016e+02 2.132609999999999673e+03
1.209999999999999964e-01 1.892754999999999854e-01 2.345720000000000027e+01 1.573824999999999932e+02 2.132444999999999709e+03
1.219999999999999973e-01 1.892550000000000066e-01 2.271255000000000024e+01 1.568520000000000039e+02 2.132279999999999745e+03
1.229999999999999982e-01 1.892349999999999866e-01 2.198924999999999841e+01 1.563149999999999977e+02 2.132114999999999782e+03
1.239999999999999991e-01 1.892139999999999933e-01 2.128289999999999793e+01 1.557595000000000027e+02 2.131949999999999818e+03
1.250000000000000000e-01 1.891919999999999991e-01 2.058849999999999980e+01 1.551720000000000255e+02 2.131774999999999636e+03
1.260000000000000009e-01 1.891685000000000172e-01 1.990075000000000216e+01 1.545389999999999873e+02 2.131585000000000036e+03
1.270000000000000018e-01 1.891435000000000199e-01 1.921430000000000149e+01 1.538485000000000014e+02 2.131385000000000218e+03
1.280000000000000027e-01 1.891165000000000207e-01 1.852420000000000044e+01 1.530889999999999986e+02 2.131170000000000073e+03
1.290000000000000036e-01 1.890864999999999907e-01 1.782620000000000005e+01 1.522515000000000214e+02 2.130934999999999945e+03
1.300000000000000044e-01 1.890534999999999854e-01 1.711679999999999779e+01 1.513294999999999959e+02 2.130670000000000073e+03
1.310000000000000053e-01 1.890179999999999916e-01 1.639385000000000048e+01 1.503209999999999980e+02 2.130385000000000218e+03
1.320000000000000062e-01 1.889784999999999937e-01 1.565659999999999918e+01 1.492264999999999873e+02 2.130079999999999927e+03
1.330000000000000071e-01 1.889365000000000072e-01 1.490564999999999785e+01 1.480500000000000114e+02 2.129750000000000000e+03
1.340000000000000080e-01 1.888914999999999900e-01 1.414304999999999879e+01 1.468009999999999877e+02 2.129394999999999982e+03
1.350000000000000089e-01 1.888440000000000119e-01 1.337249999999999872e+01 1.454909999999999854e+02 2.129019999999999982e+03
1.360000000000000098e-01 1.887935000000000030e-01 1.259884999999999877e+01 1.441345000000000027e+02 2.128625000000000000e+03
1.370000000000000107e-01 1.887424999999999797e-01 1.182804499999999948e+01 1.427504999999999882e+02 2.128215000000000146e+03
1.380000000000000115e-01 1.886895000000000100e-01 1.106698000000000093e+01 1.413580000000000041e+02 2.127805000000000291e+03
1.390000000000000124e-01 1.886364999999999847e-01 1.032291499999999829e+01 1.399764999999999873e+02 2.127385000000000218e+03
1.400000000000000133e-01 1.885840000000000016e-01 9.603294999999999249e+00 1.386264999999999930e+02 2.126974999999999909e+03
1.410000000000000142e-01 1.885324999999999918e-01 8.915354999999999919e+00 1.373269999999999982e+02 2.126565000000000055e+03
1.420000000000000151e-01 1.884830000000000116e-01 8.265700000000000713e+00 1.360945000000000107e+02 2.126170000000000073e+03
1.430000000000000160e-01 1.884359999999999924e-01 7.660135000000000360e+00 1.349439999999999884e+02 2.125795000000000073e+03
1.440000000000000169e-01 1.883914999999999895e-01 7.103329999999999700e+00 1.338865000000000123e+02 2.125445000000000164e+03
1.450000000000000178e-01 1.883505000000000040e-01 6.598770000000000024e+00 1.329290000000000020e+02 2.125114999999999782e+03
1.459999999999999909e-01 1.883130000000000082e-01 6.148600000000000065e+00 1.320755000000000052e+02 2.124815000000000055e+03
1.469999999999999918e-01 1.882790000000000019e-01 5.753645000000000564e+00 1.313279999999999745e+02 2.124539999999999964e+03
1.479999999999999927e-01 1.882495000000000140e-01 5.413454999999999906e+00 1.306820000000000164e+02 2.124300000000000182e+03
1.489999999999999936e-01 1.882230000000000014e-01 5.126434999999999853e+00 1.301345000000000027e+02 2.124090000000000146e+03
1.499999999999999944e-01 1.881999999999999784e-01 4.889965000000000117e+00 1.296770000000000209e+02 2.123904999999999745e+03
1.509999999999999953e-01 1.881805000000000005e-01 4.700599999999999667e+00 1.293009999999999877e+02 2.123750000000000000e+03
1.519999999999999962e-01 1.881639999999999979e-01 4.554240000000000066e+00 1.289959999999999809e+02 2.123614999999999782e+03
1.529999999999999971e-01 1.881504999999999983e-01 4.446315000000000239e+00 1.287520000000000095e+02 2.123500000000000000e+03
1.539999999999999980e-01 1.881390000000000007e-01 4.371940000000000381e+00 1.285585000000000093e+02 2.123404999999999745e+03
1.549999999999999989e-01 1.881300000000000194e-01 4.326135000000000730e+00 1.284044999999999845e+02 2.123324999999999818e+03
1.559999999999999998e-01 1.881214999999999971e-01 4.303910000000000124e+00 1.282800000000000011e+02 2.123260000000000218e+03
1.570000000000000007e-01 1.881154999999999911e-01 4.300435000000000230e+00 1.281765000000000043e+02 2.123210000000000036e+03
1.580000000000000016e-01 1.881094999999999851e-01 4.311130000000000351e+00 1.280849999999999795e+02 2.123154999999999745e+03
1.590000000000000024e-01 1.881039999999999934e-01 4.331754999999999356e+00 1.279984999999999928e+02 2.123114999999999782e+03
