# t [s], A [cm^2], U [cm/s], P [cPa], c [cm/s]
1.000000000000000021e-03 5.158915000000000584e-01 4.696050000000000224e-03 9.980389999999999873e+01 1.561160000000000082e+03
2.000000000000000042e-03 5.158829999999999805e-01 -2.429010000000000110e-03 9.978284999999999627e+01 1.561155000000000200e+03
3.000000000000000062e-03 5.159090000000000620e-01 4.778965000000000296e-02 9.983360000000000412e+01 1.561164999999999964e+03
4.000000000000000083e-03 5.159519999999999662e-01 1.379267999999999883e-01 9.994700000000000273e+01 1.561200000000000045e+03
5.000000000000000104e-03 5.159590000000000565e-01 1.638504499999999808e-01 9.997714999999999463e+01 1.561210000000000036e+03
6.000000000000000125e-03 5.159240000000000492e-01 1.046554999999999985e-01 9.986724999999999852e+01 1.561184999999999945e+03
7.000000000000000146e-03 5.158845000000000791e-01 3.471799999999997111e-02 9.969065000000000509e+01 1.561144999999999982e+03
8.000000000000000167e-03 5.158479999999999732e-01 -3.539649999999999741e-02 9.947534999999999172e+01 1.561085000000000036e+03
9.000000000000001055e-03 5.157865000000000366e-01 -1.659325000000000383e-01 9.915614999999999668e+01 1.561009999999999991e+03
1.000000000000000194e-02 5.156890000000000640e-01 -3.838949999999999863e-01 9.868295000000000528e+01 1.560885000000000218e+03
1.099999999999999936e-02 5.155505000000000226e-01 -6.971600000000001129e-01 9.802089999999999748e+01 1.560720000000000027e+03
1.200000000000000025e-02 5.153575000000000239e-01 -1.123994999999999855e+00 9.711924999999999386e+01 1.560490000000000009e+03
1.300000000000000114e-02 5.151064999999999117e-01 -1.663475000000000037e+00 9.594514999999999816e+01 1.560179999999999836e+03
1.400000000000000203e-02 5.148150000000000226e-01 -2.260880000000000223e+00 9.453409999999999513e+01 1.559805000000000064e+03
1.499999999999999944e-02 5.145190000000000596e-01 -2.817714999999999748e+00 9.299225000000001273e+01 1.559380000000000109e+03
1.600000000000000033e-02 5.142530000000000712e-01 -3.234853999999999896e+00 9.145255000000000223e+01 1.558940000000000055e+03
1.700000000000000122e-02 5.140339999999999909e-01 -3.450790500000000094e+00 9.001935000000000286e+01 1.558509999999999991e+03
1.800000000000000211e-02 5.138599999999999834e-01 -3.454866945000000023e+00 8.873874999999999602e+01 1.558105000000000018e+03
1.900000000000000300e-02 5.137114999999999876e-01 -3.278398500000000215e+00 8.759640000000000271e+01 1.557724999999999909e+03
2.000000000000000042e-02 5.135655000000000081e-01 -2.974792000000000325e+00 8.653620000000000800e+01 1.557360000000000127e+03
2.100000000000000130e-02 5.134015000000000661e-01 -2.598529499999999715e+00 8.548650000000000659e+01 1.557000000000000000e+03
2.200000000000000219e-02 5.132069999999999688e-01 -2.188994999999999802e+00 8.438585000000000491e+01 1.556619999999999891e+03
2.299999999999999961e-02 5.129810000000000203e-01 -1.762350000000000083e+00 8.320040000000000191e+01 1.556220000000000027e+03
2.400000000000000050e-02 5.127304999999999779e-01 -1.312475000000000058e+00 8.193039999999999168e+01 1.555800000000000182e+03
2.500000000000000139e-02 5.124680000000000346e-01 -8.196350000000001135e-01 8.060374999999999091e+01 1.555355000000000018e+03
2.600000000000000228e-02 5.122079999999999966e-01 -2.630750000000001698e-01 7.926175000000000637e+01 1.554904999999999973e+03
2.700000000000000316e-02 5.119565000000000365e-01 3.671099999999998253e-01 7.794124999999999659e+01 1.554460000000000036e+03
2.800000000000000058e-02 5.117154999999999898e-01 1.062635000000000218e+00 7.666094999999999970e+01 1.554025000000000091e+03
2.900000000000000147e-02 5.114775000000000293e-01 1.795549999999999979e+00 7.541384999999999650e+01 1.553590000000000146e+03
3.000000000000000236e-02 5.112309999999999910e-01 2.522280000000000300e+00 7.416775000000001228e+01 1.553159999999999854e+03
3.099999999999999978e-02 5.109599999999999698e-01 3.191600000000000215e+00 7.287280000000001223e+01 1.552720000000000027e+03
3.200000000000000067e-02 5.106530000000000236e-01 3.754580000000000251e+00 7.147329999999999472e+01 1.552255000000000109e+03
3.300000000000000155e-02 5.103014999999999635e-01 4.174344999999999750e+00 6.992230000000000700e+01 1.551759999999999991e+03
3.400000000000000244e-02 5.099039999999999129e-01 4.433494999999999742e+00 6.819429999999999836e+01 1.551215000000000146e+03
3.500000000000000333e-02 5.094684999999999908e-01 4.537085000000000257e+00 6.629394999999999527e+01 1.550630000000000109e+03
3.600000000000000422e-02 5.090084999999999749e-01 4.510914999999999786e+00 6.425780000000000314e+01 1.550009999999999991e+03
3.700000000000000511e-02 5.085429999999999673e-01 4.395604999999999762e+00 6.214945000000000164e+01 1.549369999999999891e+03
3.799999999999999906e-02 5.080915000000000292e-01 4.238324999999999676e+00 6.004930000000000234e+01 1.548730000000000018e+03
3.899999999999999994e-02 5.076734999999999998e-01 4.084999999999999964e+00 5.804364999999999952e+01 1.548105000000000018e+03
4.000000000000000083e-02 5.073030000000000594e-01 3.974685000000000024e+00 5.621359999999999957e+01 1.547529999999999973e+03
4.100000000000000172e-02 5.069909999999999695e-01 3.936415000000000219e+00 5.462744999999999607e+01 1.547014999999999873e+03
4.200000000000000261e-02 5.067439999999999722e-01 3.988665000000000127e+00 5.333684999999999832e+01 1.546579999999999927e+03
4.300000000000000350e-02 5.065640000000000143e-01 4.141393500000000394e+00 5.237584999999999980e+01 1.546240000000000009e+03
4.400000000000000439e-02 5.064535000000000009e-01 4.398570000000000313e+00 5.176304999999999978e+01 1.545990000000000009e+03
4.499999999999999833e-02 5.064104999999999857e-01 4.761465000000000281e+00 5.150549999999999784e+01 1.545849999999999909e+03
4.599999999999999922e-02 5.064340000000000508e-01 5.231304999999999872e+00 5.160259999999999536e+01 1.545819999999999936e+03
4.700000000000000011e-02 5.065239999999999743e-01 5.811020000000000074e+00 5.205060000000000286e+01 1.545889999999999873e+03
4.800000000000000100e-02 5.066804999999999781e-01 6.505749999999999922e+00 5.284465000000000146e+01 1.546069999999999936e+03
4.900000000000000189e-02 5.069040000000000212e-01 7.322074999999999889e+00 5.398040000000000305e+01 1.546355000000000018e+03
5.000000000000000278e-02 5.071940000000000337e-01 8.266479999999999606e+00 5.545320000000000249e+01 1.546744999999999891e+03
5.100000000000000366e-02 5.075505000000000155e-01 9.343450000000000699e+00 5.725685000000000002e+01 1.547240000000000009e+03
5.200000000000000455e-02 5.079709999999999503e-01 1.055367500000000014e+01 5.938125000000000142e+01 1.547835000000000036e+03
5.300000000000000544e-02 5.084514999999999452e-01 1.189278000000000013e+01 6.181099999999999994e+01 1.548519999999999982e+03
5.399999999999999939e-02 5.089874999999999261e-01 1.335104999999999897e+01 6.452389999999999759e+01 1.549299999999999955e+03
5.500000000000000028e-02 5.095715000000000661e-01 1.491355500000000056e+01 6.749115000000000464e+01 1.550164999999999964e+03
5.600000000000000117e-02 5.101955000000000240e-01 1.656136500000000211e+01 7.067775000000000318e+01 1.551099999999999909e+03
5.700000000000000205e-02 5.108519999999999728e-01 1.827289499999999833e+01 7.404445000000001187e+01 1.552099999999999909e+03
5.800000000000000294e-02 5.115309999999999580e-01 2.002550000000000097e+01 7.754970000000000141e+01 1.553150000000000091e+03
5.900000000000000383e-02 5.122249999999999304e-01 2.179704999999999870e+01 8.115215000000000600e+01 1.554244999999999891e+03
6.000000000000000472e-02 5.129274999999999807e-01 2.356730000000000302e+01 8.481315000000000737e+01 1.555365000000000009e+03
6.099999999999999867e-02 5.136309999999999487e-01 2.531850000000000023e+01 8.849795000000000300e+01 1.556500000000000000e+03
6.199999999999999956e-02 5.143325000000000813e-01 2.703640000000000043e+01 9.217735000000000412e+01 1.557644999999999982e+03
6.300000000000000044e-02 5.150274999999999714e-01 2.870969999999999800e+01 9.582939999999999259e+01 1.558789999999999964e+03
6.400000000000000133e-02 5.157140000000000057e-01 3.033050000000000068e+01 9.943744999999999834e+01 1.559940000000000055e+03
6.500000000000000222e-02 5.163919999999999622e-01 3.189329999999999643e+01 1.029907499999999914e+02 1.561070000000000164e+03
6.600000000000000311e-02 5.170595000000000052e-01 3.339475000000000193e+01 1.064849999999999994e+02 1.562190000000000055e+03
6.700000000000000400e-02 5.177180000000000115e-01 3.483315000000000339e+01 1.099180499999999938e+02 1.563299999999999955e+03
6.800000000000000488e-02 5.183680000000000510e-01 3.620759999999999934e+01 1.132914999999999992e+02 1.564394999999999982e+03
6.900000000000000577e-02 5.190090000000000536e-01 3.751789999999999736e+01 1.166089999999999947e+02 1.565470000000000027e+03
7.000000000000000666e-02 5.196425000000000072e-01 3.876364999999999839e+01 1.198734999999999928e+02 1.566534999999999854e+03
7.100000000000000755e-02 5.202685000000000226e-01 3.994450000000000500e+01 1.230875000000000057e+02 1.567585000000000036e+03
7.200000000000000844e-02 5.208865000000000300e-01 4.105935000000000201e+01 1.262540000000000049e+02 1.568619999999999891e+03
7.300000000000000933e-02 5.214969999999999883e-01 4.210670000000000357e+01 1.293704999999999927e+02 1.569650000000000091e+03
7.399999999999999634e-02 5.220974999999999921e-01 4.308409999999999940e+01 1.324344999999999857e+02 1.570654999999999973e+03
7.499999999999999722e-02 5.226874999999999716e-01 4.398850000000000193e+01 1.354420000000000073e+02 1.571650000000000091e+03
7.599999999999999811e-02 5.232649999999999801e-01 4.481645000000000323e+01 1.383835000000000264e+02 1.572625000000000000e+03
7.699999999999999900e-02 5.238275000000000015e-01 4.556389999999999674e+01 1.412489999999999952e+02 1.573579999999999927e+03
7.799999999999999989e-02 5.243725000000000191e-01 4.622705000000000553e+01 1.440279999999999916e+02 1.574505000000000109e+03
7.900000000000000078e-02 5.248980000000000867e-01 4.680214999999999748e+01 1.467079999999999984e+02 1.575404999999999973e+03
8.000000000000000167e-02 5.254015000000000768e-01 4.728594999999999970e+01 1.492760000000000105e+02 1.576275000000000091e+03
8.100000000000000255e-02 5.258804999999999730e-01 4.767600000000000193e+01 1.517214999999999918e+02 1.577099999999999909e+03
8.200000000000000344e-02 5.263335000000000097e-01 4.797060000000000457e+01 1.540330000000000155e+02 1.577889999999999873e+03
8.300000000000000433e-02 5.267589999999999772e-01 4.816910000000000025e+01 1.562019999999999982e+02 1.578639999999999873e+03
8.400000000000000522e-02 5.271550000000000402e-01 4.827164999999999395e+01 1.582210000000000036e+02 1.579339999999999918e+03
8.500000000000000611e-02 5.275220000000000464e-01 4.827940000000000254e+01 1.600844999999999914e+02 1.579994999999999891e+03
8.600000000000000699e-02 5.278585000000000083e-01 4.819440000000000168e+01 1.617889999999999873e+02 1.580599999999999909e+03
8.700000000000000788e-02 5.281644999999999257e-01 4.801950000000000074e+01 1.633344999999999914e+02 1.581154999999999973e+03
8.800000000000000877e-02 5.284404999999999797e-01 4.775835000000000008e+01 1.647199999999999989e+02 1.581654999999999973e+03
8.899999999999999578e-02 5.286870000000000180e-01 4.741519999999999868e+01 1.659499999999999886e+02 1.582105000000000018e+03
8.999999999999999667e-02 5.289049999999999585e-01 4.699540000000000362e+01 1.670269999999999868e+02 1.582509999999999991e+03
9.099999999999999756e-02 5.290945000000000231e-01 4.650469999999999970e+01 1.679579999999999984e+02 1.582860000000000127e+03
9.199999999999999845e-02 5.292584999999999651e-01 4.594969999999999999e+01 1.687510000000000048e+02 1.583170000000000073e+03
9.299999999999999933e-02 5.293984999999999941e-01 4.533769999999999811e+01 1.694139999999999873e+02 1.583434999999999945e+03
9.400000000000000022e-02 5.295159999999999867e-01 4.467655000000000598e+01 1.699585000000000150e+02 1.583654999999999973e+03
9.500000000000000111e-02 5.296140000000000292e-01 4.397449999999999903e+01 1.703959999999999866e+02 1.583845000000000027e+03
9.600000000000000200e-02 5.296935000000000393e-01 4.324014999999999986e+01 1.707384999999999877e+02 1.583994999999999891e+03
9.700000000000000289e-02 5.297585000000000210e-01 4.248215000000000430e+01 1.709995000000000118e+02 1.584119999999999891e+03
9.800000000000000377e-02 5.298114999999999908e-01 4.170879999999999654e+01 1.711920000000000073e+02 1.584215000000000146e+03
9.900000000000000466e-02 5.298534999999999773e-01 4.092804999999999893e+01 1.713290000000000077e+02 1.584289999999999964e+03
1.000000000000000056e-01 5.298880000000000257e-01 4.014695000000000391e+01 1.714209999999999923e+02 1.584345000000000027e+03
1.010000000000000064e-01 5.299160000000000537e-01 3.937165000000000248e+01 1.714799999999999898e+02 1.584380000000000109e+03
1.020000000000000073e-01 5.299384999999999790e-01 3.860710000000000264e+01 1.715140000000000100e+02 1.584414999999999964e+03
1.030000000000000082e-01 5.299575000000000813e-01 3.785679999999999978e+01 1.715300000000000011e+02 1.584430000000000064e+03
1.040000000000000091e-01 5.299740000000000562e-01 3.712295000000000300e+01 1.715325000000000273e+02 1.584444999999999936e+03
1.050000000000000100e-01 5.299860000000000682e-01 3.640644999999999953e+01 1.715230000000000246e+02 1.584449999999999818e+03
1.059999999999999970e-01 5.299960000000000226e-01 3.570694999999999908e+01 1.715029999999999859e+02 1.584445000000000164e+03
1.069999999999999979e-01 5.300009999999999444e-01 3.502285000000000537e+01 1.714699999999999989e+02 1.584440000000000055e+03
1.079999999999999988e-01 5.300015000000000143e-01 3.435184999999999889e+01 1.714209999999999923e+02 1.584429999999999836e+03
1.089999999999999997e-01 5.299970000000000514e-01 3.369100000000000250e+01 1.713509999999999991e+02 1.584409999999999854e+03
1.100000000000000006e-01 5.299854999999999983e-01 3.303659999999999997e+01 1.712549999999999955e+02 1.584380000000000109e+03
1.110000000000000014e-01 5.299660000000000482e-01 3.238519999999999754e+01 1.711270000000000095e+02 1.584344999999999800e+03
1.120000000000000023e-01 5.299375000000000613e-01 3.173290000000000077e+01 1.709615000000000009e+02 1.584295000000000073e+03
1.130000000000000032e-01 5.298994999999999678e-01 3.107645000000000124e+01 1.707534999999999741e+02 1.584235000000000127e+03
1.140000000000000041e-01 5.298510000000000719e-01 3.041264999999999930e+01 1.704975000000000023e+02 1.584155000000000200e+03
1.150000000000000050e-01 5.297914999999999708e-01 2.973900000000000077e+01 1.701915000000000191e+02 1.584059999999999945e+03
1.160000000000000059e-01 5.297209999999999974e-01 2.905355000000000132e+01 1.698319999999999936e+02 1.583954999999999927e+03
1.170000000000000068e-01 5.296395000000000408e-01 2.835520000000000351e+01 1.694184999999999945e+02 1.583829999999999927e+03
1.180000000000000077e-01 5.295474999999999488e-01 2.764365000000000094e+01 1.689524999999999864e+02 1.583690000000000055e+03
1.190000000000000085e-01 5.294449999999999434e-01 2.691939999999999955e+01 1.684360000000000070e+02 1.583534999999999854e+03
1.200000000000000094e-01 5.293339999999999712e-01 2.618379999999999797e+01 1.678729999999999905e+02 1.583360000000000127e+03
1.209999999999999964e-01 5.292149999999999910e-01 2.543905000000000172e+01 1.672690000000000055e+02 1.583180000000000064e+03
1.219999999999999973e-01 5.290894999999999904e-01 2.468805000000000049e+01 1.666304999999999836e+02 1.582980000000000018e+03
1.229999999999999982e-01 5.289595000000000269e-01 2.393439999999999657e+01 1.659649999999999750e+02 1.582769999999999982e+03
1.239999999999999991e-01 5.288269999999999360e-01 2.318220000000000169e+01 1.652820000000000107e+02 1.582559999999999945e+03
1.250000000000000000e-01 5.286929999999999685e-01 2.243589999999999662e+01 1.645900000000000034e+02 1.582345000000000027e+03
1.260000000000000009e-01 5.285604999999999887e-01 2.170040000000000191e+01 1.638990000000000009e+02 1.582125000000000000e+03
1.270000000000000018e-01 5.284299999999999553e-01 2.098039999999999949e+01 1.632180000000000177e+02 1.581905000000000200e+03
1.280000000000000027e-01 5.283044999999999547e-01 2.028065000000000140e+01 1.625564999999999998e+02 1.581695000000000164e+03
1.290000000000000036e-01 5.281854999999999745e-01 1.960569999999999879e+01 1.619234999999999900e+02 1.581490000000000009e+03
1.300000000000000044e-01 5.280734999999999735e-01 1.895945000000000036e+01 1.613260000000000218e+02 1.581289999999999964e+03
1.310000000000000053e-01 5.279705000000000092e-01 1.834564999999999912e+01 1.607704999999999984e+02 1.581109999999999900e+03
1.320000000000000062e-01 5.278770000000000406e-01 1.776695000000000135e+01 1.602624999999999886e+02 1.580934999999999945e+03
1.330000000000000071e-01 5.277939999999999854e-01 1.722569999999999979e+01 1.598059999999999832e+02 1.580775000000000091e+03
1.340000000000000080e-01 5.277209999999999956e-01 1.672325000000000017e+01 1.594029999999999916e+02 1.580634999999999991e+03
1.350000000000000089e-01 5.276589999999999892e-01 1.626014999999999944e+01 1.590539999999999736e+02 1.580509999999999991e+03
1.360000000000000098e-01 5.276064999999999783e-01 1.583644999999999925e+01 1.587584999999999980e+02 1.580400000000000091e+03
1.370000000000000107e-01 5.275640000000000329e-01 1.545115000000000016e+01 1.585140000000000100e+02 1.580304999999999836e+03
1.380000000000000115e-01 5.275305000000000133e-01 1.510294999999999987e+01 1.583179999999999836e+02 1.580224999999999909e+03
1.390000000000000124e-01 5.275050000000000017e-01 1.478979999999999961e+01 1.581664999999999850e+02 1.580159999999999854e+03
1.400000000000000133e-01 5.274860000000000104e-01 1.450939999999999941e+01 1.580534999999999854e+02 1.580115000000000009e+03
1.410000000000000142e-01 5.274735000000000396e-01 1.425919999999999987e+01 1.579745000000000061e+02 1.580070000000000164e+03
1.420000000000000151e-01 5.274655000000000316e-01 1.403624999999999901e+01 1.579240000000000066e+02 1.580039999999999964e+03
1.430000000000000160e-01 5.274619999999999864e-01 1.383800000000000097e+01 1.578965000000000032e+02 1.580025000000000091e+03
1.440000000000000169e-01 5.274604999999999988e-01 1.366145000000000032e+01 1.578865000000000123e+02 1.580005000000000109e+03
1.450000000000000178e-01 5.274619999999999864e-01 1.350414999999999921e+01 1.578899999999999864e+02 1.580000000000000000e+03
1.459999999999999909e-01 5.274645000000000028e-01 1.336359999999999992e+01 1.579029999999999916e+02 1.579990000000000009e+03
1.469999999999999918e-01 5.274680000000000479e-01 1.323764999999999858e+01 1.579209999999999923e+02 1.579990000000000009e+03
1.479999999999999927e-01 5.274714999999999820e-01 1.312424999999999997e+01 1.579424999999999955e+02 1.579990000000000009e+03
1.489999999999999936e-01 5.274754999999999860e-01 1.302165000000000106e+01 1.579639999999999986e+02 1.579990000000000009e+03
1.499999999999999944e-01 5.274790000000000312e-01 1.292844999999999978e+01 1.579855000000000018e+02 1.579990000000000009e+03
1.509999999999999953e-01 5.274820000000000064e-01 1.284315000000000140e+01 1.580045000000000073e+02 1.579994999999999891e+03
1.519999999999999962e-01 5.274849999999999817e-01 1.276470000000000127e+01 1.580210000000000150e+02 1.579990000000000009e+03
1.529999999999999971e-01 5.274870000000000392e-01 1.269205000000000005e+01 1.580349999999999966e+02 1.579994999999999891e+03
1.539999999999999980e-01 5.274889999999999857e-01 1.262434999999999974e+01 1.580459999999999923e+02 1.580000000000000000e+03
1.549999999999999989e-01 5.274900000000000144e-01 1.256085000000000029e+01 1.580539999999999736e+02 1.580000000000000000e+03
1.559999999999999998e-01 5.274904999999999733e-01 1.250079999999999991e+01 1.580600000000000023e+02 1.579994999999999891e+03
1.570000000000000007e-01 5.274910000000000432e-01 1.244379999999999953e+01 1.580629999999999882e+02 1.580000000000000000e+03
1.580000000000000016e-01 5.274909999999999322e-01 1.238930000000000042e+01 1.580645000000000095e+02 1.579994999999999891e+03
1.590000000000000024e-01 5.274905000000000843e-01 1.233694999999999986e+01 1.580645000000000095e+02 1.579994999999999891e+03
