# t [s], A [cm^2], U [cm/s], P [cPa], c [cm/s]
1.000000000000000021e-03 1.391100000000000114e-01 3.443215000000000026e-01 9.374190000000000111e+01 1.815055000000000064e+03
2.000000000000000042e-03 1.390820000000000112e-01 1.889515999999999973e+00 9.074889999999999191e+01 1.814755000000000109e+03
3.000000000000000062e-03 1.389859999999999984e-01 3.754636499999999710e+00 8.684380000000000166e+01 1.813764999999999873e+03
4.000000000000000083e-03 1.388455000000000106e-01 5.810120500000000021e+00 8.258559999999999945e+01 1.812340000000000146e+03
5.000000000000000104e-03 1.386859999999999760e-01 8.002950000000000230e+00 7.868710000000000093e+01 1.810735000000000127e+03
6.000000000000000125e-03 1.385254999999999959e-01 1.021453500000000147e+01 7.546295000000000641e+01 1.809134999999999991e+03
7.000000000000000146e-03 1.383729999999999960e-01 1.227825499999999970e+01 7.280840000000000600e+01 1.807625000000000000e+03
8.000000000000000167e-03 1.382295000000000051e-01 1.408277999999999963e+01 7.048775000000000546e+01 1.806235000000000127e+03
9.000000000000001055e-03 1.380979999999999985e-01 1.562265000000000015e+01 6.842504999999999882e+01 1.804985000000000127e+03
1.000000000000000194e-02 1.379825000000000079e-01 1.693314999999999770e+01 6.667099999999999227e+01 1.803889999999999873e+03
1.099999999999999936e-02 1.378829999999999778e-01 1.803359999999999985e+01 6.524214999999999520e+01 1.802960000000000036e+03
1.200000000000000025e-02 1.377995000000000192e-01 1.893404999999999916e+01 6.410089999999999577e+01 1.802194999999999936e+03
1.300000000000000114e-02 1.377309999999999923e-01 1.964620000000000033e+01 6.319884999999999309e+01 1.801569999999999936e+03
1.400000000000000203e-02 1.376749999999999918e-01 2.017869999999999919e+01 6.247865000000000180e+01 1.801065000000000055e+03
1.499999999999999944e-02 1.376295000000000157e-01 2.054240000000000066e+01 6.187640000000000384e+01 1.800660000000000082e+03
1.600000000000000033e-02 1.375919999999999921e-01 2.077315000000000111e+01 6.137415000000000020e+01 1.800340000000000146e+03
1.700000000000000122e-02 1.375635000000000052e-01 2.094664999999999822e+01 6.105930000000000035e+01 1.800094999999999800e+03
1.800000000000000211e-02 1.375469999999999748e-01 2.116280000000000072e+01 6.111710000000000065e+01 1.799970000000000027e+03
1.900000000000000300e-02 1.375490000000000046e-01 2.150634999999999764e+01 6.174430000000000263e+01 1.800000000000000000e+03
2.000000000000000042e-02 1.375719999999999998e-01 2.200925000000000153e+01 6.303544999999999732e+01 1.800230000000000018e+03
2.100000000000000130e-02 1.376169999999999893e-01 2.263499999999999801e+01 6.491034999999999400e+01 1.800650000000000091e+03
2.200000000000000219e-02 1.376784999999999815e-01 2.329084999999999894e+01 6.711820000000000164e+01 1.801240000000000009e+03
2.299999999999999961e-02 1.377495000000000247e-01 2.385924999999999940e+01 6.930844999999999345e+01 1.801904999999999973e+03
2.400000000000000050e-02 1.378185000000000104e-01 2.423460000000000036e+01 7.113339999999999463e+01 1.802575000000000045e+03
2.500000000000000139e-02 1.378774999999999862e-01 2.435190000000000055e+01 7.234319999999999595e+01 1.803150000000000091e+03
2.600000000000000228e-02 1.379205000000000014e-01 2.419995000000000118e+01 7.284284999999999854e+01 1.803570000000000164e+03
2.700000000000000316e-02 1.379440000000000111e-01 2.381739999999999924e+01 7.269804999999999495e+01 1.803820000000000164e+03
2.800000000000000058e-02 1.379505000000000037e-01 2.327475000000000094e+01 7.209494999999999720e+01 1.803900000000000091e+03
2.900000000000000147e-02 1.379440000000000111e-01 2.265060000000000073e+01 7.127084999999999582e+01 1.803855000000000018e+03
3.000000000000000236e-02 1.379305000000000114e-01 2.200979999999999848e+01 7.044255000000001132e+01 1.803744999999999891e+03
3.099999999999999978e-02 1.379144999999999954e-01 2.138935000000000031e+01 6.975274999999999181e+01 1.803599999999999909e+03
3.200000000000000067e-02 1.379000000000000226e-01 2.079574999999999818e+01 6.924780000000001223e+01 1.803465000000000146e+03
3.300000000000000155e-02 1.378874999999999962e-01 2.021155000000000257e+01 6.888704999999998790e+01 1.803349999999999909e+03
3.400000000000000244e-02 1.378759999999999986e-01 1.960754999999999981e+01 6.857589999999999009e+01 1.803240000000000009e+03
3.500000000000000333e-02 1.378639999999999866e-01 1.895730000000000004e+01 6.820815000000000339e+01 1.803130000000000109e+03
3.600000000000000422e-02 1.378485000000000127e-01 1.824895000000000067e+01 6.770770000000000266e+01 1.802989999999999782e+03
3.700000000000000511e-02 1.378300000000000081e-01 1.749259999999999948e+01 6.705629999999999313e+01 1.802819999999999936e+03
3.799999999999999906e-02 1.378070000000000128e-01 1.672054999999999936e+01 6.630405000000000371e+01 1.802605000000000018e+03
3.899999999999999994e-02 1.377820000000000156e-01 1.598230000000000040e+01 6.555979999999999563e+01 1.802375000000000000e+03
4.000000000000000083e-02 1.377585000000000059e-01 1.533404999999999951e+01 6.496569999999999823e+01 1.802159999999999854e+03
4.100000000000000172e-02 1.377410000000000023e-01 1.482679999999999865e+01 6.466274999999998840e+01 1.801989999999999782e+03
4.200000000000000261e-02 1.377325000000000077e-01 1.449474999999999980e+01 6.475594999999999857e+01 1.801909999999999854e+03
4.300000000000000350e-02 1.377369999999999983e-01 1.434809999999999874e+01 6.528905000000000314e+01 1.801934999999999945e+03
4.400000000000000439e-02 1.377539999999999876e-01 1.437030000000000030e+01 6.623195000000001187e+01 1.802089999999999918e+03
4.499999999999999833e-02 1.377835000000000032e-01 1.452070000000000149e+01 6.748454999999999870e+01 1.802355000000000018e+03
4.599999999999999922e-02 1.378225000000000144e-01 1.474105000000000132e+01 6.889324999999999477e+01 1.802710000000000036e+03
4.700000000000000011e-02 1.378669999999999896e-01 1.496415000000000006e+01 7.027635000000000787e+01 1.803109999999999900e+03
4.800000000000000100e-02 1.379094999999999904e-01 1.512359999999999971e+01 7.145154999999999745e+01 1.803519999999999982e+03
4.900000000000000189e-02 1.379475000000000007e-01 1.516130000000000067e+01 7.226099999999999568e+01 1.803865000000000009e+03
5.000000000000000278e-02 1.379739999999999855e-01 1.503340000000000032e+01 7.258944999999999936e+01 1.804119999999999891e+03
5.100000000000000366e-02 1.379859999999999975e-01 1.471330000000000027e+01 7.237375000000000114e+01 1.804240000000000009e+03
5.200000000000000455e-02 1.379809999999999925e-01 1.419164999999999921e+01 7.160370000000000346e+01 1.804200000000000045e+03
5.300000000000000544e-02 1.379585000000000117e-01 1.347489999999999988e+01 7.031544999999999845e+01 1.804000000000000000e+03
5.399999999999999939e-02 1.379190000000000138e-01 1.258174999999999955e+01 6.858044999999999902e+01 1.803639999999999873e+03
5.500000000000000028e-02 1.378639999999999866e-01 1.153986000000000089e+01 6.649219999999999686e+01 1.803125000000000000e+03
5.600000000000000117e-02 1.377964999999999884e-01 1.038222500000000004e+01 6.415415000000000134e+01 1.802494999999999891e+03
5.700000000000000205e-02 1.377184999999999937e-01 9.144515000000000171e+00 6.166980000000000217e+01 1.801769999999999982e+03
5.800000000000000294e-02 1.376339999999999786e-01 7.863344999999999807e+00 5.913670000000000471e+01 1.800974999999999909e+03
5.900000000000000383e-02 1.375454999999999872e-01 6.575309999999999988e+00 5.664345000000000141e+01 1.800150000000000091e+03
6.000000000000000472e-02 1.374560000000000226e-01 5.316575000000000273e+00 5.426940000000000452e+01 1.799315000000000055e+03
6.099999999999999867e-02 1.373694999999999777e-01 4.122811000000000448e+00 5.208674999999999500e+01 1.798494999999999891e+03
6.199999999999999956e-02 1.372880000000000211e-01 3.029323999999999906e+00 5.016204999999999359e+01 1.797730000000000018e+03
6.300000000000000044e-02 1.372140000000000026e-01 2.070707500000000145e+00 4.855789999999999651e+01 1.797029999999999973e+03
6.400000000000000133e-02 1.371505000000000085e-01 1.280311500000000047e+00 4.733374999999999488e+01 1.796424999999999955e+03
6.500000000000000222e-02 1.370994999999999853e-01 6.893099999999999783e-01 4.654465000000000430e+01 1.795940000000000055e+03
6.600000000000000311e-02 1.370635000000000048e-01 3.254845000000000654e-01 4.623985000000000412e+01 1.795590000000000146e+03
6.700000000000000400e-02 1.370445000000000135e-01 2.118730000000000058e-01 4.645974999999999966e+01 1.795390000000000100e+03
6.800000000000000488e-02 1.370434999999999848e-01 3.654419999999999891e-01 4.723310000000000031e+01 1.795365000000000009e+03
6.900000000000000577e-02 1.370620000000000172e-01 7.960045000000000037e-01 4.857415000000000305e+01 1.795525000000000091e+03
7.000000000000000666e-02 1.371010000000000006e-01 1.505479100000000070e+00 5.048080000000000211e+01 1.795869999999999891e+03
7.100000000000000755e-02 1.371605000000000185e-01 2.487645999999999802e+00 5.293390000000000128e+01 1.796414999999999964e+03
7.200000000000000844e-02 1.372404999999999875e-01 3.728374999999999773e+00 5.589754999999999541e+01 1.797139999999999873e+03
7.300000000000000933e-02 1.373389999999999889e-01 5.206329999999999458e+00 5.932094999999999629e+01 1.798050000000000182e+03
7.399999999999999634e-02 1.374549999999999939e-01 6.894009999999999749e+00 6.314105000000000700e+01 1.799125000000000000e+03
7.499999999999999722e-02 1.375870000000000148e-01 8.759199999999999875e+00 6.728589999999999804e+01 1.800349999999999909e+03
7.599999999999999811e-02 1.377319999999999933e-01 1.076621000000000095e+01 7.167849999999999966e+01 1.801704999999999927e+03
7.699999999999999900e-02 1.378880000000000106e-01 1.287778499999999937e+01 7.624049999999999727e+01 1.803164999999999964e+03
7.799999999999999989e-02 1.380514999999999937e-01 1.505630000000000024e+01 8.089580000000000837e+01 1.804710000000000036e+03
7.900000000000000078e-02 1.382209999999999828e-01 1.726524999999999821e+01 8.557349999999999568e+01 1.806304999999999836e+03
8.000000000000000167e-02 1.383935000000000026e-01 1.947044999999999959e+01 9.021070000000000277e+01 1.807934999999999945e+03
8.100000000000000255e-02 1.385660000000000225e-01 2.164134999999999920e+01 9.475469999999999970e+01 1.809579999999999927e+03
8.200000000000000344e-02 1.387375000000000136e-01 2.375165000000000148e+01 9.916374999999999318e+01 1.811215000000000146e+03
8.300000000000000433e-02 1.389064999999999883e-01 2.577984999999999971e+01 1.034083500000000129e+02 1.812829999999999927e+03
8.400000000000000522e-02 1.390699999999999992e-01 2.771005000000000251e+01 1.074722500000000025e+02 1.814400000000000091e+03
8.500000000000000611e-02 1.392289999999999917e-01 2.953139999999999787e+01 1.113495000000000061e+02 1.815934999999999945e+03
8.600000000000000699e-02 1.393825000000000203e-01 3.123850000000000193e+01 1.150455000000000041e+02 1.817414999999999964e+03
8.700000000000000788e-02 1.395305000000000017e-01 3.283055000000000234e+01 1.185745000000000005e+02 1.818845000000000027e+03
8.800000000000000877e-02 1.396729999999999916e-01 3.431085000000000207e+01 1.219585000000000150e+02 1.820230000000000018e+03
8.899999999999999578e-02 1.398105000000000042e-01 3.568585000000000207e+01 1.252235000000000014e+02 1.821565000000000055e+03
8.999999999999999667e-02 1.399440000000000128e-01 3.696419999999999817e+01 1.283960000000000150e+02 1.822865000000000009e+03
9.099999999999999756e-02 1.400734999999999897e-01 3.815574999999999761e+01 1.315035000000000025e+02 1.824134999999999991e+03
9.199999999999999845e-02 1.402010000000000201e-01 3.927060000000000173e+01 1.345709999999999980e+02 1.825384999999999991e+03
9.299999999999999933e-02 1.403270000000000073e-01 4.031804999999999950e+01 1.376179999999999950e+02 1.826610000000000127e+03
9.400000000000000022e-02 1.404509999999999925e-01 4.130620000000000402e+01 1.406580000000000155e+02 1.827829999999999927e+03
9.500000000000000111e-02 1.405744999999999911e-01 4.224105000000000132e+01 1.436985000000000241e+02 1.829039999999999964e+03
9.600000000000000200e-02 1.406979999999999897e-01 4.312635000000000218e+01 1.467389999999999759e+02 1.830244999999999891e+03
9.700000000000000289e-02 1.408205000000000151e-01 4.396325000000000216e+01 1.497719999999999914e+02 1.831449999999999818e+03
9.800000000000000377e-02 1.409420000000000117e-01 4.475045000000000073e+01 1.527845000000000084e+02 1.832650000000000091e+03
9.900000000000000466e-02 1.410635000000000083e-01 4.548430000000000462e+01 1.557570000000000050e+02 1.833840000000000146e+03
1.000000000000000056e-01 1.411824999999999886e-01 4.615919999999999845e+01 1.586659999999999968e+02 1.835014999999999873e+03
1.010000000000000064e-01 1.412994999999999945e-01 4.676789999999999736e+01 1.614855000000000018e+02 1.836164999999999964e+03
1.020000000000000073e-01 1.414134999999999975e-01 4.730219999999999914e+01 1.641875000000000000e+02 1.837289999999999964e+03
1.030000000000000082e-01 1.415224999999999955e-01 4.775314999999999799e+01 1.667434999999999832e+02 1.838365000000000009e+03
1.040000000000000091e-01 1.416264999999999885e-01 4.811180000000000234e+01 1.691279999999999859e+02 1.839394999999999982e+03
1.050000000000000100e-01 1.417245000000000033e-01 4.836970000000000169e+01 1.713154999999999859e+02 1.840365000000000009e+03
1.059999999999999970e-01 1.418159999999999976e-01 4.851924999999999955e+01 1.732844999999999800e+02 1.841275000000000091e+03
1.069999999999999979e-01 1.418989999999999974e-01 4.855410000000000537e+01 1.750185000000000173e+02 1.842099999999999909e+03
1.079999999999999988e-01 1.419739999999999891e-01 4.846970000000000312e+01 1.765049999999999955e+02 1.842849999999999909e+03
1.089999999999999997e-01 1.420394999999999852e-01 4.826330000000000098e+01 1.777350000000000136e+02 1.843505000000000109e+03
1.100000000000000006e-01 1.420960000000000001e-01 4.793424999999999869e+01 1.787065000000000055e+02 1.844075000000000045e+03
1.110000000000000014e-01 1.421430000000000193e-01 4.748425000000000296e+01 1.794215000000000089e+02 1.844545000000000073e+03
1.120000000000000023e-01 1.421800000000000008e-01 4.691720000000000113e+01 1.798885000000000218e+02 1.844924999999999955e+03
1.130000000000000032e-01 1.422080000000000011e-01 4.623924999999999841e+01 1.801189999999999998e+02 1.845210000000000036e+03
1.140000000000000041e-01 1.422269999999999923e-01 4.545870000000000033e+01 1.801295000000000073e+02 1.845414999999999964e+03
1.150000000000000050e-01 1.422374999999999889e-01 4.458565000000000111e+01 1.799415000000000191e+02 1.845525000000000091e+03
1.160000000000000059e-01 1.422404999999999919e-01 4.363179999999999836e+01 1.795774999999999864e+02 1.845565000000000055e+03
1.170000000000000068e-01 1.422360000000000013e-01 4.261014999999999731e+01 1.790640000000000214e+02 1.845530000000000200e+03
1.180000000000000077e-01 1.422255000000000047e-01 4.153459999999999752e+01 1.784275000000000091e+02 1.845434999999999945e+03
1.190000000000000085e-01 1.422094999999999887e-01 4.041929999999999978e+01 1.776954999999999814e+02 1.845284999999999854e+03
1.200000000000000094e-01 1.421890000000000098e-01 3.927850000000000108e+01 1.768954999999999984e+02 1.845090000000000146e+03
1.209999999999999964e-01 1.421655000000000002e-01 3.812609999999999388e+01 1.760534999999999854e+02 1.844860000000000127e+03
1.219999999999999973e-01 1.421395000000000020e-01 3.697485000000000355e+01 1.751920000000000073e+02 1.844605000000000018e+03
1.229999999999999982e-01 1.421109999999999873e-01 3.583660000000000423e+01 1.743319999999999936e+02 1.844335000000000036e+03
1.239999999999999991e-01 1.420825000000000005e-01 3.472144999999999726e+01 1.734904999999999973e+02 1.844054999999999836e+03
1.250000000000000000e-01 1.420540000000000136e-01 3.363785000000000025e+01 1.726814999999999998e+02 1.843769999999999982e+03
1.260000000000000009e-01 1.420254999999999990e-01 3.259224999999999994e+01 1.719130000000000109e+02 1.843490000000000009e+03
1.270000000000000018e-01 1.419974999999999987e-01 3.158905000000000030e+01 1.711904999999999859e+02 1.843215000000000146e+03
1.280000000000000027e-01 1.419710000000000139e-01 3.063070000000000093e+01 1.705149999999999864e+02 1.842950000000000045e+03
1.290000000000000036e-01 1.419455000000000022e-01 2.971755000000000280e+01 1.698840000000000146e+02 1.842690000000000055e+03
1.300000000000000044e-01 1.419210000000000194e-01 2.884815000000000040e+01 1.692905000000000086e+02 1.842449999999999818e+03
1.310000000000000053e-01 1.418975000000000097e-01 2.801950000000000074e+01 1.687249999999999943e+02 1.842215000000000146e+03
1.320000000000000062e-01 1.418750000000000011e-01 2.722695000000000221e+01 1.681770000000000209e+02 1.841990000000000009e+03
1.330000000000000071e-01 1.418530000000000069e-01 2.646484999999999843e+01 1.676315000000000168e+02 1.841764999999999873e+03
1.340000000000000080e-01 1.418304999999999982e-01 2.572675000000000267e+01 1.670755000000000052e+02 1.841539999999999964e+03
1.350000000000000089e-01 1.418085000000000040e-01 2.500580000000000069e+01 1.664939999999999998e+02 1.841315000000000055e+03
1.360000000000000098e-01 1.417849999999999944e-01 2.429464999999999719e+01 1.658720000000000141e+02 1.841085000000000036e+03
1.370000000000000107e-01 1.417599999999999971e-01 2.358660000000000068e+01 1.651965000000000146e+02 1.840835000000000036e+03
1.380000000000000115e-01 1.417339999999999989e-01 2.287500000000000000e+01 1.644569999999999936e+02 1.840575000000000045e+03
1.390000000000000124e-01 1.417049999999999976e-01 2.215425000000000111e+01 1.636415000000000077e+02 1.840289999999999964e+03
1.400000000000000133e-01 1.416735000000000078e-01 2.141960000000000264e+01 1.627450000000000045e+02 1.839980000000000018e+03
1.410000000000000142e-01 1.416395000000000015e-01 2.066754999999999853e+01 1.617624999999999886e+02 1.839644999999999982e+03
1.420000000000000151e-01 1.416025000000000200e-01 1.989600000000000080e+01 1.606929999999999836e+02 1.839275000000000091e+03
1.430000000000000160e-01 1.415625000000000078e-01 1.910410000000000252e+01 1.595384999999999991e+02 1.838880000000000109e+03
1.440000000000000169e-01 1.415190000000000059e-01 1.829265000000000185e+01 1.583040000000000020e+02 1.838460000000000036e+03
1.450000000000000178e-01 1.414730000000000154e-01 1.746385000000000076e+01 1.569975000000000023e+02 1.838005000000000109e+03
1.459999999999999909e-01 1.414239999999999942e-01 1.662120000000000175e+01 1.556299999999999955e+02 1.837530000000000200e+03
1.469999999999999918e-01 1.413729999999999987e-01 1.576954999999999885e+01 1.542144999999999868e+02 1.837030000000000200e+03
1.479999999999999927e-01 1.413200000000000012e-01 1.491469999999999985e+01 1.527660000000000196e+02 1.836509999999999991e+03
1.489999999999999936e-01 1.412654999999999883e-01 1.406344999999999956e+01 1.513004999999999995e+02 1.835974999999999909e+03
1.499999999999999944e-01 1.412100000000000022e-01 1.322289999999999921e+01 1.498354999999999961e+02 1.835434999999999945e+03
1.509999999999999953e-01 1.411540000000000017e-01 1.240069499999999891e+01 1.483885000000000218e+02 1.834889999999999873e+03
1.519999999999999962e-01 1.410990000000000022e-01 1.160445500000000152e+01 1.469755000000000109e+02 1.834349999999999909e+03
1.529999999999999971e-01 1.410445000000000171e-01 1.084153500000000037e+01 1.456134999999999877e+02 1.833815000000000055e+03
1.539999999999999980e-01 1.409914999999999918e-01 1.011879500000000043e+01 1.443160000000000025e+02 1.833295000000000073e+03
1.549999999999999989e-01 1.409404999999999963e-01 9.442254999999999399e+00 1.430960000000000036e+02 1.832795000000000073e+03
1.559999999999999998e-01 1.408920000000000172e-01 8.817194999999999894e+00 1.419630000000000223e+02 1.832315000000000055e+03
1.570000000000000007e-01 1.408464999999999856e-01 8.247654999999999959e+00 1.409250000000000114e+02 1.831869999999999891e+03
1.580000000000000016e-01 1.408039999999999847e-01 7.736439999999999984e+00 1.399864999999999782e+02 1.831450000000000045e+03
1.590000000000000024e-01 1.407650000000000012e-01 7.285220000000000695e+00 1.391494999999999891e+02 1.831065000000000055e+03
