# t [s], A [cm^2], U [cm/s], P [cPa], c [cm/s]
1.000000000000000021e-03 5.236809999999999521e-01 3.116400000000005277e-03 9.866614999999998759e+01 1.441619999999999891e+03
2.000000000000000042e-03 5.236735000000000140e-01 -3.098149999999999602e-04 9.864795000000000869e+01 1.441614999999999782e+03
3.000000000000000062e-03 5.237119999999999553e-01 7.152120000000000699e-02 9.871269999999999811e+01 1.441634999999999991e+03
4.000000000000000083e-03 5.237589999999999746e-01 1.619196499999999983e-01 9.881704999999999472e+01 1.441664999999999964e+03
5.000000000000000104e-03 5.237570000000000281e-01 1.653910000000000102e-01 9.881759999999999877e+01 1.441670000000000073e+03
6.000000000000000125e-03 5.237140000000000128e-01 9.109549999999999592e-02 9.868549999999999045e+01 1.441639999999999873e+03
7.000000000000000146e-03 5.236680000000000224e-01 6.076499999999984691e-03 9.848215000000000430e+01 1.441595000000000027e+03
8.000000000000000167e-03 5.236115000000000075e-01 -1.040830000000000366e-01 9.820345000000000368e+01 1.441525000000000091e+03
9.000000000000001055e-03 5.235155000000000225e-01 -2.988300000000000400e-01 9.777949999999999875e+01 1.441414999999999964e+03
1.000000000000000194e-02 5.233710000000000306e-01 -5.941949999999999177e-01 9.716534999999998945e+01 1.441259999999999991e+03
1.099999999999999936e-02 5.231734999999999580e-01 -9.905450000000001198e-01 9.633109999999999218e+01 1.441045000000000073e+03
1.200000000000000025e-02 5.229105000000000558e-01 -1.499240000000000128e+00 9.523545000000000016e+01 1.440750000000000000e+03
1.300000000000000114e-02 5.225775000000000281e-01 -2.113344999999999807e+00 9.385450000000000159e+01 1.440380000000000109e+03
1.400000000000000203e-02 5.221945000000000059e-01 -2.774529999999999941e+00 9.222724999999999795e+01 1.439924999999999955e+03
1.499999999999999944e-02 5.218019999999999881e-01 -3.379785000000000039e+00 9.046370000000000289e+01 1.439420000000000073e+03
1.600000000000000033e-02 5.214419999999999611e-01 -3.821094999999999686e+00 8.870770000000000266e+01 1.438894999999999982e+03
1.700000000000000122e-02 5.211419999999999941e-01 -4.025188499999999614e+00 8.708480000000000132e+01 1.438389999999999873e+03
1.800000000000000211e-02 5.209040000000000337e-01 -3.972117499999999524e+00 8.566634999999999422e+01 1.437920000000000073e+03
1.900000000000000300e-02 5.207140000000000102e-01 -3.691597999999999935e+00 8.445769999999998845e+01 1.437490000000000009e+03
2.000000000000000042e-02 5.205429999999999779e-01 -3.245565999999999729e+00 8.340934999999998922e+01 1.437094999999999800e+03
2.100000000000000130e-02 5.203645000000000076e-01 -2.705770499999999856e+00 8.244059999999998922e+01 1.436724999999999909e+03
2.200000000000000219e-02 5.201575000000000504e-01 -2.133093000000000128e+00 8.146744999999999948e+01 1.436349999999999909e+03
2.299999999999999961e-02 5.199124999999999996e-01 -1.563649999999999984e+00 8.042754999999999654e+01 1.435970000000000027e+03
2.400000000000000050e-02 5.196319999999999828e-01 -1.005144999999999955e+00 7.929404999999999859e+01 1.435559999999999945e+03
2.500000000000000139e-02 5.193289999999999296e-01 -4.437050000000000161e-01 7.807550000000000523e+01 1.435130000000000109e+03
2.600000000000000228e-02 5.190185000000000493e-01 1.425849999999999618e-01 7.680400000000000205e+01 1.434690000000000055e+03
2.700000000000000316e-02 5.187100000000000044e-01 7.691149999999997711e-01 7.551670000000000016e+01 1.434240000000000009e+03
2.800000000000000058e-02 5.184084999999999388e-01 1.434255000000000058e+00 7.423894999999998845e+01 1.433784999999999854e+03
2.900000000000000147e-02 5.181090000000000417e-01 2.115299999999999958e+00 7.297310000000000230e+01 1.433340000000000146e+03
3.000000000000000236e-02 5.178000000000000380e-01 2.770925000000000082e+00 7.169504999999999484e+01 1.432884999999999991e+03
3.099999999999999978e-02 5.174650000000000638e-01 3.348435000000000272e+00 7.035900000000000887e+01 1.432414999999999964e+03
3.200000000000000067e-02 5.170875000000000332e-01 3.793880000000000141e+00 6.890760000000000218e+01 1.431920000000000073e+03
3.300000000000000155e-02 5.166545000000000165e-01 4.062734999999999985e+00 6.728589999999999804e+01 1.431384999999999991e+03
3.400000000000000244e-02 5.161605000000000221e-01 4.128920000000000812e+00 6.545515000000000327e+01 1.430789999999999964e+03
3.500000000000000333e-02 5.156089999999999840e-01 3.990299999999999958e+00 6.340470000000000539e+01 1.430144999999999982e+03
3.600000000000000422e-02 5.150124999999999842e-01 3.669584999999999653e+00 6.115775000000000006e+01 1.429450000000000045e+03
3.700000000000000511e-02 5.143915000000000015e-01 3.210500000000000131e+00 5.877094999999999914e+01 1.428704999999999927e+03
3.799999999999999906e-02 5.137709999999999777e-01 2.670554999999999790e+00 5.632795000000000130e+01 1.427944999999999936e+03
3.899999999999999994e-02 5.131780000000000230e-01 2.112675000000000303e+00 5.392914999999999992e+01 1.427190000000000055e+03
4.000000000000000083e-02 5.126359999999999806e-01 1.597164999999999946e+00 5.167945000000000277e+01 1.426470000000000027e+03
4.100000000000000172e-02 5.121664999999999690e-01 1.175794999999999924e+00 4.967784999999999940e+01 1.425809999999999945e+03
4.200000000000000261e-02 5.117855000000000043e-01 8.885600000000000165e-01 4.800854999999999961e+01 1.425239999999999782e+03
4.300000000000000350e-02 5.115034999999999998e-01 7.627000000000001556e-01 4.673590000000000089e+01 1.424779999999999973e+03
4.400000000000000439e-02 5.113265000000000171e-01 8.138849999999999696e-01 4.590274999999999750e+01 1.424440000000000055e+03
4.499999999999999833e-02 5.112544999999999451e-01 1.048607999999999985e+00 4.553110000000000213e+01 1.424230000000000018e+03
4.599999999999999922e-02 5.112875000000000059e-01 1.467105000000000103e+00 4.562519999999999953e+01 1.424164999999999964e+03
4.700000000000000011e-02 5.114225000000000021e-01 2.066047999999999885e+00 4.617600000000000193e+01 1.424240000000000009e+03
4.800000000000000100e-02 5.116540000000000532e-01 2.840523999999999827e+00 4.716505000000000081e+01 1.424454999999999927e+03
4.900000000000000189e-02 5.119774999999999743e-01 3.785003500000000187e+00 4.856815000000000282e+01 1.424799999999999955e+03
5.000000000000000278e-02 5.123874999999999957e-01 4.893312500000000398e+00 5.035764999999999958e+01 1.425275000000000091e+03
5.100000000000000366e-02 5.128779999999999450e-01 6.157737000000000016e+00 5.250339999999999918e+01 1.425869999999999891e+03
5.200000000000000455e-02 5.134425000000000239e-01 7.568108000000000501e+00 5.497305000000000064e+01 1.426570000000000164e+03
5.300000000000000544e-02 5.140730000000000022e-01 9.110566500000000900e+00 5.773109999999999786e+01 1.427369999999999891e+03
5.399999999999999939e-02 5.147595000000000365e-01 1.076727999999999952e+01 6.073859999999999815e+01 1.428255000000000109e+03
5.500000000000000028e-02 5.154925000000000201e-01 1.251606500000000111e+01 6.395309999999999917e+01 1.429220000000000027e+03
5.600000000000000117e-02 5.162610000000000809e-01 1.433154500000000020e+01 6.732899999999999352e+01 1.430250000000000000e+03
5.700000000000000205e-02 5.170525000000000260e-01 1.618591999999999942e+01 7.081839999999999691e+01 1.431320000000000164e+03
5.800000000000000294e-02 5.178565000000000529e-01 1.805080500000000043e+01 7.437330000000000041e+01 1.432425000000000182e+03
5.900000000000000383e-02 5.186625000000000263e-01 1.989849999999999852e+01 7.794714999999999350e+01 1.433554999999999836e+03
6.000000000000000472e-02 5.194600000000000328e-01 2.170360000000000156e+01 8.149715000000000487e+01 1.434690000000000055e+03
6.099999999999999867e-02 5.202425000000000521e-01 2.344429999999999836e+01 8.498595000000000255e+01 1.435820000000000164e+03
6.199999999999999956e-02 5.210034999999999528e-01 2.510285000000000366e+01 8.838329999999999131e+01 1.436929999999999836e+03
6.300000000000000044e-02 5.217389999999999528e-01 2.666605000000000203e+01 9.166630000000000678e+01 1.438019999999999982e+03
6.400000000000000133e-02 5.224465000000000359e-01 2.812550000000000239e+01 9.482085000000000719e+01 1.439074999999999818e+03
6.500000000000000222e-02 5.231259999999999799e-01 2.947690000000000055e+01 9.784074999999999989e+01 1.440099999999999909e+03
6.600000000000000311e-02 5.237775000000000070e-01 3.071974999999999767e+01 1.007256999999999891e+02 1.441090000000000146e+03
6.700000000000000400e-02 5.244044999999999401e-01 3.185689999999999955e+01 1.034827500000000100e+02 1.442039999999999964e+03
6.800000000000000488e-02 5.250079999999999192e-01 3.289339999999999975e+01 1.061237500000000011e+02 1.442960000000000036e+03
6.900000000000000577e-02 5.255935000000000468e-01 3.383630000000000138e+01 1.086634999999999991e+02 1.443849999999999909e+03
7.000000000000000666e-02 5.261635000000000062e-01 3.469375000000000142e+01 1.111179999999999950e+02 1.444704999999999927e+03
7.100000000000000755e-02 5.267224999999999824e-01 3.547459999999999525e+01 1.135065000000000026e+02 1.445539999999999964e+03
7.200000000000000844e-02 5.272729999999999917e-01 3.618750000000000000e+01 1.158439999999999941e+02 1.446365000000000009e+03
7.300000000000000933e-02 5.278190000000000381e-01 3.684069999999999823e+01 1.181469999999999914e+02 1.447170000000000073e+03
7.399999999999999634e-02 5.283619999999999983e-01 3.744154999999999944e+01 1.204270000000000067e+02 1.447965000000000146e+03
7.499999999999999722e-02 5.289040000000000408e-01 3.799580000000000268e+01 1.226935000000000002e+02 1.448759999999999991e+03
7.599999999999999811e-02 5.294444999999999846e-01 3.850769999999999982e+01 1.249514999999999958e+02 1.449545000000000073e+03
7.699999999999999900e-02 5.299840000000000106e-01 3.897920000000000584e+01 1.271995000000000005e+02 1.450329999999999927e+03
7.799999999999999989e-02 5.305210000000000203e-01 3.941049999999999898e+01 1.294345000000000141e+02 1.451099999999999909e+03
7.900000000000000078e-02 5.310525000000000384e-01 3.979979999999999762e+01 1.316465000000000032e+02 1.451869999999999891e+03
8.000000000000000167e-02 5.315739999999999910e-01 4.014355000000000473e+01 1.338229999999999791e+02 1.452630000000000109e+03
8.100000000000000255e-02 5.320835000000000425e-01 4.043670000000000186e+01 1.359470000000000027e+02 1.453369999999999891e+03
8.200000000000000344e-02 5.325744999999999507e-01 4.067324999999999591e+01 1.380015000000000214e+02 1.454089999999999918e+03
8.300000000000000433e-02 5.330445000000000322e-01 4.084675000000000011e+01 1.399660000000000082e+02 1.454780000000000200e+03
8.400000000000000522e-02 5.334870000000000445e-01 4.095080000000000098e+01 1.418199999999999932e+02 1.455440000000000055e+03
8.500000000000000611e-02 5.338990000000000125e-01 4.097920000000000584e+01 1.435450000000000159e+02 1.456065000000000055e+03
8.600000000000000699e-02 5.342765000000000430e-01 4.092685000000000173e+01 1.451245000000000118e+02 1.456634999999999991e+03
8.700000000000000788e-02 5.346155000000000213e-01 4.078960000000000008e+01 1.465420000000000016e+02 1.457164999999999964e+03
8.800000000000000877e-02 5.349150000000000293e-01 4.056499999999999773e+01 1.477874999999999943e+02 1.457634999999999991e+03
8.899999999999999578e-02 5.351725000000000509e-01 4.025204999999999700e+01 1.488530000000000086e+02 1.458050000000000182e+03
8.999999999999999667e-02 5.353875000000000162e-01 3.985155000000000314e+01 1.497350000000000136e+02 1.458404999999999973e+03
9.099999999999999756e-02 5.355610000000000648e-01 3.936610000000000298e+01 1.504329999999999927e+02 1.458699999999999818e+03
9.199999999999999845e-02 5.356940000000000035e-01 3.879994999999999550e+01 1.509515000000000100e+02 1.458940000000000055e+03
9.299999999999999933e-02 5.357874999999999721e-01 3.815895000000000437e+01 1.512984999999999900e+02 1.459115000000000009e+03
9.400000000000000022e-02 5.358454999999999746e-01 3.745050000000000523e+01 1.514859999999999900e+02 1.459235000000000127e+03
9.500000000000000111e-02 5.358699999999999575e-01 3.668305000000000149e+01 1.515264999999999986e+02 1.459309999999999945e+03
9.600000000000000200e-02 5.358654999999999946e-01 3.586629999999999541e+01 1.514379999999999882e+02 1.459335000000000036e+03
9.700000000000000289e-02 5.358359999999999790e-01 3.501035000000000252e+01 1.512375000000000114e+02 1.459320000000000164e+03
9.800000000000000377e-02 5.357859999999999845e-01 3.412600000000000477e+01 1.509440000000000168e+02 1.459269999999999982e+03
9.900000000000000466e-02 5.357195000000000151e-01 3.322404999999999831e+01 1.505790000000000077e+02 1.459184999999999945e+03
1.000000000000000056e-01 5.356410000000000338e-01 3.231490000000000151e+01 1.501614999999999895e+02 1.459079999999999927e+03
1.010000000000000064e-01 5.355550000000000033e-01 3.140879999999999939e+01 1.497094999999999914e+02 1.458960000000000036e+03
1.020000000000000073e-01 5.354649999999999688e-01 3.051480000000000103e+01 1.492420000000000186e+02 1.458824999999999818e+03
1.030000000000000082e-01 5.353740000000000165e-01 2.964095000000000013e+01 1.487740000000000009e+02 1.458690000000000055e+03
1.040000000000000091e-01 5.352864999999999984e-01 2.879390000000000072e+01 1.483195000000000050e+02 1.458550000000000182e+03
1.050000000000000100e-01 5.352035000000000542e-01 2.797879999999999967e+01 1.478894999999999982e+02 1.458410000000000082e+03
1.059999999999999970e-01 5.351264999999999494e-01 2.719899999999999807e+01 1.474915000000000020e+02 1.458280000000000200e+03
1.069999999999999979e-01 5.350565000000000460e-01 2.645620000000000260e+01 1.471310000000000002e+02 1.458155000000000200e+03
1.079999999999999988e-01 5.349939999999999696e-01 2.575034999999999741e+01 1.468095000000000141e+02 1.458039999999999964e+03
1.089999999999999997e-01 5.349384999999999835e-01 2.507965000000000089e+01 1.465260000000000105e+02 1.457934999999999945e+03
1.100000000000000006e-01 5.348889999999999478e-01 2.444105000000000061e+01 1.462769999999999868e+02 1.457845000000000027e+03
1.110000000000000014e-01 5.348439999999999861e-01 2.383004999999999995e+01 1.460564999999999998e+02 1.457755000000000109e+03
1.120000000000000023e-01 5.348019999999999996e-01 2.324125000000000085e+01 1.458559999999999945e+02 1.457680000000000064e+03
1.130000000000000032e-01 5.347604999999999720e-01 2.266859999999999786e+01 1.456674999999999898e+02 1.457605000000000018e+03
1.140000000000000041e-01 5.347169999999999979e-01 2.210539999999999949e+01 1.454795000000000016e+02 1.457529999999999973e+03
1.150000000000000050e-01 5.346699999999999786e-01 2.154520000000000124e+01 1.452824999999999989e+02 1.457460000000000036e+03
1.160000000000000059e-01 5.346165000000000500e-01 2.098150000000000048e+01 1.450654999999999859e+02 1.457380000000000109e+03
1.170000000000000068e-01 5.345550000000000024e-01 2.040840000000000032e+01 1.448199999999999932e+02 1.457295000000000073e+03
1.180000000000000077e-01 5.344839999999999591e-01 1.982070000000000221e+01 1.445374999999999943e+02 1.457195000000000164e+03
1.190000000000000085e-01 5.344025000000000025e-01 1.921405000000000030e+01 1.442110000000000127e+02 1.457090000000000146e+03
1.200000000000000094e-01 5.343084999999999640e-01 1.858525000000000205e+01 1.438354999999999961e+02 1.456970000000000027e+03
1.209999999999999964e-01 5.342029999999999834e-01 1.793244999999999933e+01 1.434089999999999918e+02 1.456835000000000036e+03
1.219999999999999973e-01 5.340849999999999209e-01 1.725479999999999947e+01 1.429304999999999950e+02 1.456690000000000055e+03
1.229999999999999982e-01 5.339564999999999451e-01 1.655299999999999727e+01 1.424014999999999986e+02 1.456519999999999982e+03
1.239999999999999991e-01 5.338169999999999860e-01 1.582884999999999920e+01 1.418259999999999934e+02 1.456339999999999918e+03
1.250000000000000000e-01 5.336689999999999490e-01 1.508549999999999969e+01 1.412100000000000080e+02 1.456144999999999982e+03
1.260000000000000009e-01 5.335149999999999615e-01 1.432712500000000055e+01 1.405604999999999905e+02 1.455940000000000055e+03
1.270000000000000018e-01 5.333554999999999824e-01 1.355882000000000076e+01 1.398860000000000241e+02 1.455724999999999909e+03
1.280000000000000027e-01 5.331949999999999745e-01 1.278648000000000096e+01 1.391980000000000075e+02 1.455505000000000109e+03
1.290000000000000036e-01 5.330340000000000078e-01 1.201651999999999987e+01 1.385074999999999932e+02 1.455279999999999973e+03
1.300000000000000044e-01 5.328760000000000163e-01 1.125571500000000036e+01 1.378240000000000123e+02 1.455059999999999945e+03
1.310000000000000053e-01 5.327245000000000452e-01 1.051081999999999894e+01 1.371610000000000014e+02 1.454840000000000146e+03
1.320000000000000062e-01 5.325805000000000122e-01 9.788594999999999047e+00 1.365285000000000082e+02 1.454630000000000109e+03
1.330000000000000071e-01 5.324480000000000324e-01 9.095394999999999897e+00 1.359364999999999952e+02 1.454429999999999836e+03
1.340000000000000080e-01 5.323264999999999247e-01 8.436914999999999054e+00 1.353949999999999818e+02 1.454240000000000009e+03
1.350000000000000089e-01 5.322195000000000675e-01 7.818119999999999514e+00 1.349099999999999966e+02 1.454070000000000164e+03
1.360000000000000098e-01 5.321274999999999755e-01 7.243065000000000531e+00 1.344889999999999759e+02 1.453920000000000073e+03
1.370000000000000107e-01 5.320515000000000105e-01 6.714790000000000703e+00 1.341345000000000027e+02 1.453784999999999854e+03
1.380000000000000115e-01 5.319920000000000204e-01 6.235200000000000742e+00 1.338495000000000061e+02 1.453674999999999955e+03
1.390000000000000124e-01 5.319479999999999764e-01 5.805044999999999789e+00 1.336340000000000146e+02 1.453585000000000036e+03
1.400000000000000133e-01 5.319190000000000307e-01 5.423970000000000624e+00 1.334855000000000018e+02 1.453514999999999873e+03
1.410000000000000142e-01 5.319045000000000023e-01 5.090555000000000163e+00 1.334010000000000105e+02 1.453469999999999800e+03
1.420000000000000151e-01 5.319030000000000147e-01 4.802389999999999937e+00 1.333745000000000118e+02 1.453434999999999945e+03
1.430000000000000160e-01 5.319125000000000103e-01 4.556224999999999525e+00 1.333994999999999891e+02 1.453424999999999955e+03
1.440000000000000169e-01 5.319309999999999317e-01 4.348094999999999821e+00 1.334685000000000059e+02 1.453430000000000064e+03
1.450000000000000178e-01 5.319574999999999720e-01 4.173519999999999897e+00 1.335720000000000027e+02 1.453444999999999936e+03
1.459999999999999909e-01 5.319890000000000452e-01 4.027610000000000134e+00 1.337015000000000100e+02 1.453470000000000027e+03
1.469999999999999918e-01 5.320234999999999825e-01 3.905305000000000248e+00 1.338475000000000250e+02 1.453500000000000000e+03
1.479999999999999927e-01 5.320589999999999486e-01 3.801489999999999814e+00 1.340014999999999930e+02 1.453539999999999964e+03
1.489999999999999936e-01 5.320934999999999970e-01 3.711170000000000080e+00 1.341544999999999845e+02 1.453579999999999927e+03
1.499999999999999944e-01 5.321255000000000290e-01 3.629574999999999996e+00 1.342990000000000066e+02 1.453619999999999891e+03
1.509999999999999953e-01 5.321534999999999460e-01 3.552315000000000111e+00 1.344269999999999925e+02 1.453654999999999973e+03
1.519999999999999962e-01 5.321759999999999824e-01 3.475424999999999986e+00 1.345335000000000036e+02 1.453690000000000055e+03
1.529999999999999971e-01 5.321924999999999573e-01 3.395484999999999864e+00 1.346125000000000114e+02 1.453710000000000036e+03
1.539999999999999980e-01 5.322014999999999940e-01 3.309610000000000163e+00 1.346610000000000014e+02 1.453730000000000018e+03
1.549999999999999989e-01 5.322029999999999816e-01 3.215535000000000032e+00 1.346759999999999877e+02 1.453734999999999900e+03
1.559999999999999998e-01 5.321960000000000024e-01 3.111600000000000144e+00 1.346554999999999893e+02 1.453735000000000127e+03
1.570000000000000007e-01 5.321819999999999329e-01 2.996719999999999828e+00 1.346005000000000109e+02 1.453724999999999909e+03
1.580000000000000016e-01 5.321590000000000487e-01 2.870420000000000194e+00 1.345099999999999909e+02 1.453695000000000164e+03
1.590000000000000024e-01 5.321299999999999919e-01 2.732730000000000103e+00 1.343859999999999957e+02 1.453664999999999964e+03
