# t [s], A [cm^2], U [cm/s], P [cPa], c [cm/s]
1.000000000000000021e-03 8.027684999999999960e-01 4.787999999999993650e-03 1.049844999999999970e+02 1.570414999999999964e+03
2.000000000000000042e-03 8.027560000000000251e-01 -1.874669999999999939e-03 1.049639999999999986e+02 1.570414999999999964e+03
3.000000000000000062e-03 8.027940000000000076e-01 4.477299999999999336e-02 1.050134999999999934e+02 1.570424999999999955e+03
4.000000000000000083e-03 8.028604999999999769e-01 1.318094999999999961e-01 1.051260000000000048e+02 1.570460000000000036e+03
5.000000000000000104e-03 8.028740000000000876e-01 1.591047499999999892e-01 1.051599999999999966e+02 1.570465000000000146e+03
6.000000000000000125e-03 8.028234999999999122e-01 1.064739999999999853e-01 1.050600000000000023e+02 1.570449999999999818e+03
7.000000000000000146e-03 8.027664999999999385e-01 4.278649999999997733e-02 1.048954999999999984e+02 1.570409999999999854e+03
8.000000000000000167e-03 8.027150000000000674e-01 -1.908500000000001862e-02 1.046955000000000098e+02 1.570365000000000009e+03
9.000000000000001055e-03 8.026284999999999670e-01 -1.358689999999999620e-01 1.044004999999999939e+02 1.570295000000000073e+03
1.000000000000000194e-02 8.024879999999999791e-01 -3.381849999999999579e-01 1.039575000000000102e+02 1.570194999999999936e+03
1.099999999999999936e-02 8.022839999999999971e-01 -6.370150000000001089e-01 1.033284999999999911e+02 1.570050000000000182e+03
1.200000000000000025e-02 8.019979999999999887e-01 -1.049325000000000063e+00 1.024648499999999984e+02 1.569849999999999909e+03
1.300000000000000114e-02 8.016250000000000320e-01 -1.572529999999999761e+00 1.013355999999999995e+02 1.569579999999999927e+03
1.400000000000000203e-02 8.011904999999999166e-01 -2.154560000000000031e+00 9.997229999999998995e+01 1.569250000000000000e+03
1.499999999999999944e-02 8.007459999999999578e-01 -2.703840000000000021e+00 9.847310000000000230e+01 1.568880000000000109e+03
1.600000000000000033e-02 8.003389999999999116e-01 -3.128294499999999978e+00 9.695964999999999634e+01 1.568490000000000009e+03
1.700000000000000122e-02 7.999964999999999993e-01 -3.369361500000000120e+00 9.552769999999999584e+01 1.568105000000000018e+03
1.800000000000000211e-02 7.997145000000001058e-01 -3.413654500000000258e+00 9.422254999999999825e+01 1.567735000000000127e+03
1.900000000000000300e-02 7.994689999999999852e-01 -3.285152249999999885e+00 9.303710000000000946e+01 1.567384999999999991e+03
2.000000000000000042e-02 7.992295000000000371e-01 -3.028002350000000398e+00 9.192699999999999250e+01 1.567045000000000073e+03
2.100000000000000130e-02 7.989680000000000115e-01 -2.688604999999999912e+00 9.083359999999998990e+01 1.566704999999999927e+03
2.200000000000000219e-02 7.986685000000000034e-01 -2.301896000000000164e+00 8.970539999999999736e+01 1.566360000000000127e+03
2.299999999999999961e-02 7.983259999999999801e-01 -1.884364999999999846e+00 8.851319999999999766e+01 1.565994999999999891e+03
2.400000000000000050e-02 7.979519999999999946e-01 -1.434495000000000298e+00 8.725520000000000209e+01 1.565610000000000127e+03
2.500000000000000139e-02 7.975615000000000343e-01 -9.395749999999998270e-01 8.595250000000000057e+01 1.565210000000000036e+03
2.600000000000000228e-02 7.971709999999999630e-01 -3.860500000000000043e-01 8.463720000000000709e+01 1.564815000000000055e+03
2.700000000000000316e-02 7.967889999999999695e-01 2.306499999999997996e-01 8.333760000000000900e+01 1.564410000000000082e+03
2.800000000000000058e-02 7.964160000000000128e-01 8.998249999999998749e-01 8.206680000000000064e+01 1.564014999999999873e+03
2.900000000000000147e-02 7.960434999999999039e-01 1.594225000000000003e+00 8.081640000000000157e+01 1.563625000000000000e+03
3.000000000000000236e-02 7.956539999999999724e-01 2.273474999999999913e+00 7.955655000000000143e+01 1.563235000000000127e+03
3.099999999999999978e-02 7.952280000000000459e-01 2.890844999999999665e+00 7.824280000000000257e+01 1.562829999999999927e+03
3.200000000000000067e-02 7.947489999999999277e-01 3.401699999999999946e+00 7.682599999999999341e+01 1.562405000000000200e+03
3.300000000000000155e-02 7.942050000000000498e-01 3.771705000000000307e+00 7.526429999999999154e+01 1.561945000000000164e+03
3.400000000000000244e-02 7.935944999999999805e-01 3.982960000000000278e+00 7.353425000000000011e+01 1.561454999999999927e+03
3.500000000000000333e-02 7.929270000000000485e-01 4.036789999999999878e+00 7.163750000000000284e+01 1.560920000000000073e+03
3.600000000000000422e-02 7.922194999999999654e-01 3.952239999999999753e+00 6.960274999999998613e+01 1.560360000000000127e+03
3.700000000000000511e-02 7.914974999999999650e-01 3.761505000000000098e+00 6.748189999999999600e+01 1.559775000000000091e+03
3.799999999999999906e-02 7.907855000000000301e-01 3.503324999999999800e+00 6.534199999999999875e+01 1.559184999999999945e+03
3.899999999999999994e-02 7.901095000000000201e-01 3.216525000000000301e+00 6.325594999999999857e+01 1.558605000000000018e+03
4.000000000000000083e-02 7.894889999999999963e-01 2.934755000000000003e+00 6.129319999999999879e+01 1.558045000000000073e+03
4.100000000000000172e-02 7.889390000000000569e-01 2.684179999999999566e+00 5.951359999999999673e+01 1.557534999999999854e+03
4.200000000000000261e-02 7.884689999999999754e-01 2.482585000000000264e+00 5.796345000000000169e+01 1.557079999999999927e+03
4.300000000000000350e-02 7.880834999999999368e-01 2.340714999999999879e+00 5.667449999999999477e+01 1.556684999999999945e+03
4.400000000000000439e-02 7.877844999999999986e-01 2.264520000000000088e+00 5.566585000000000605e+01 1.556369999999999891e+03
4.499999999999999833e-02 7.875719999999999388e-01 2.257608000000000281e+00 5.494655000000000200e+01 1.556125000000000000e+03
4.599999999999999922e-02 7.874455000000000204e-01 2.323504499999999862e+00 5.451919999999999789e+01 1.555960000000000036e+03
4.700000000000000011e-02 7.874039999999999928e-01 2.466959999999999820e+00 5.438290000000000646e+01 1.555875000000000000e+03
4.800000000000000100e-02 7.874494999999999134e-01 2.694390000000000285e+00 5.453560000000000230e+01 1.555875000000000000e+03
4.900000000000000189e-02 7.875815000000000454e-01 3.013259999999999827e+00 5.497475000000000023e+01 1.555950000000000045e+03
5.000000000000000278e-02 7.878005000000000146e-01 3.430850000000000399e+00 5.569709999999999894e+01 1.556105000000000018e+03
5.100000000000000366e-02 7.881055000000000144e-01 3.952653499999999820e+00 5.669754999999999967e+01 1.556340000000000146e+03
5.200000000000000455e-02 7.884934999999999583e-01 4.580904499999999935e+00 5.796750000000000114e+01 1.556644999999999982e+03
5.300000000000000544e-02 7.889604999999999535e-01 5.313585000000000669e+00 5.949339999999999407e+01 1.557025000000000091e+03
5.399999999999999939e-02 7.894989999999999508e-01 6.143918499999999838e+00 6.125574999999999193e+01 1.557474999999999909e+03
5.500000000000000028e-02 7.900985000000000369e-01 7.060670000000000002e+00 6.322925000000000750e+01 1.557985000000000127e+03
5.600000000000000117e-02 7.907494999999999941e-01 8.048885000000000289e+00 6.538309999999999889e+01 1.558549999999999955e+03
5.700000000000000205e-02 7.914394999999999625e-01 9.090944999999999609e+00 6.768250000000000455e+01 1.559160000000000082e+03
5.800000000000000294e-02 7.921574999999999589e-01 1.016812999999999967e+01 7.009029999999999916e+01 1.559805000000000064e+03
5.900000000000000383e-02 7.928904999999999426e-01 1.126179000000000130e+01 7.256935000000000002e+01 1.560480000000000018e+03
6.000000000000000472e-02 7.936304999999999055e-01 1.235456999999999894e+01 7.508435000000000059e+01 1.561170000000000073e+03
6.099999999999999867e-02 7.943664999999999754e-01 1.343130999999999986e+01 7.760339999999999350e+01 1.561875000000000000e+03
6.199999999999999956e-02 7.950935000000000086e-01 1.447961000000000098e+01 8.009964999999999691e+01 1.562575000000000045e+03
6.300000000000000044e-02 7.958054999999999435e-01 1.548986000000000018e+01 8.255199999999999250e+01 1.563264999999999873e+03
6.400000000000000133e-02 7.965005000000000557e-01 1.645544999999999902e+01 8.494495000000000573e+01 1.563954999999999927e+03
6.500000000000000222e-02 7.971755000000000368e-01 1.737215000000000131e+01 8.726904999999999291e+01 1.564625000000000000e+03
6.600000000000000311e-02 7.978309999999999569e-01 1.823780000000000001e+01 8.951939999999999031e+01 1.565280000000000200e+03
6.700000000000000400e-02 7.984674999999999967e-01 1.905180000000000007e+01 9.169540000000000646e+01 1.565920000000000073e+03
6.800000000000000488e-02 7.990865000000000329e-01 1.981450000000000244e+01 9.379935000000000400e+01 1.566539999999999964e+03
6.900000000000000577e-02 7.996889999999999832e-01 2.052684999999999960e+01 9.583584999999999354e+01 1.567140000000000100e+03
7.000000000000000666e-02 8.002759999999999874e-01 2.119000000000000128e+01 9.780920000000000414e+01 1.567724999999999909e+03
7.100000000000000755e-02 8.008489999999999220e-01 2.180465000000000231e+01 9.972485000000000355e+01 1.568295000000000073e+03
7.200000000000000844e-02 8.014084999999999681e-01 2.237130000000000152e+01 1.015868499999999983e+02 1.568849999999999909e+03
7.300000000000000933e-02 8.019549999999999734e-01 2.288974999999999937e+01 1.033969999999999914e+02 1.569394999999999982e+03
7.399999999999999634e-02 8.024875000000000203e-01 2.335914999999999964e+01 1.051564999999999941e+02 1.569920000000000073e+03
7.499999999999999722e-02 8.030045000000000099e-01 2.377819999999999823e+01 1.068619999999999948e+02 1.570434999999999945e+03
7.599999999999999811e-02 8.035054999999999836e-01 2.414495000000000147e+01 1.085120000000000005e+02 1.570934999999999945e+03
7.699999999999999900e-02 8.039875000000000771e-01 2.445720000000000027e+01 1.100995000000000061e+02 1.571420000000000073e+03
7.799999999999999989e-02 8.044485000000000108e-01 2.471280000000000143e+01 1.116184999999999974e+02 1.571880000000000109e+03
7.900000000000000078e-02 8.048855000000000315e-01 2.490975000000000250e+01 1.130619999999999976e+02 1.572319999999999936e+03
8.000000000000000167e-02 8.052974999999999994e-01 2.504630000000000223e+01 1.144214999999999947e+02 1.572739999999999782e+03
8.100000000000000255e-02 8.056820000000000093e-01 2.512124999999999986e+01 1.156895000000000095e+02 1.573134999999999991e+03
8.200000000000000344e-02 8.060359999999999747e-01 2.513394999999999868e+01 1.168599999999999994e+02 1.573505000000000109e+03
8.300000000000000433e-02 8.063599999999999657e-01 2.508460000000000178e+01 1.179275000000000091e+02 1.573840000000000146e+03
8.400000000000000522e-02 8.066515000000000768e-01 2.497380000000000067e+01 1.188865000000000123e+02 1.574150000000000091e+03
8.500000000000000611e-02 8.069105000000000860e-01 2.480279999999999774e+01 1.197344999999999970e+02 1.574430000000000064e+03
8.600000000000000699e-02 8.071360000000000756e-01 2.457334999999999781e+01 1.204689999999999941e+02 1.574674999999999955e+03
8.700000000000000788e-02 8.073280000000000456e-01 2.428770000000000095e+01 1.210900000000000034e+02 1.574884999999999991e+03
8.800000000000000877e-02 8.074870000000000658e-01 2.394845000000000113e+01 1.215974999999999966e+02 1.575069999999999936e+03
8.899999999999999578e-02 8.076134999999999842e-01 2.355870000000000175e+01 1.219929999999999950e+02 1.575214999999999918e+03
8.999999999999999667e-02 8.077079999999999815e-01 2.312199999999999989e+01 1.222795000000000130e+02 1.575335000000000036e+03
9.099999999999999756e-02 8.077715000000000867e-01 2.264229999999999876e+01 1.224604999999999961e+02 1.575420000000000073e+03
9.199999999999999845e-02 8.078060000000000240e-01 2.212389999999999901e+01 1.225414999999999992e+02 1.575470000000000027e+03
9.299999999999999933e-02 8.078130000000000033e-01 2.157175000000000153e+01 1.225285000000000082e+02 1.575500000000000000e+03
9.400000000000000022e-02 8.077944999999999709e-01 2.099119999999999919e+01 1.224285000000000139e+02 1.575494999999999891e+03
9.500000000000000111e-02 8.077539999999999720e-01 2.038795000000000002e+01 1.222500000000000000e+02 1.575474999999999909e+03
9.600000000000000200e-02 8.076929999999999943e-01 1.976794999999999902e+01 1.220014999999999930e+02 1.575425000000000182e+03
9.700000000000000289e-02 8.076155000000000417e-01 1.913735000000000142e+01 1.216935000000000002e+02 1.575360000000000127e+03
9.800000000000000377e-02 8.075229999999999908e-01 1.850230000000000175e+01 1.213350000000000080e+02 1.575275000000000091e+03
9.900000000000000466e-02 8.074204999999999854e-01 1.786864999999999881e+01 1.209375000000000000e+02 1.575174999999999955e+03
1.000000000000000056e-01 8.073084999999999845e-01 1.724174999999999969e+01 1.205100000000000051e+02 1.575065000000000055e+03
1.010000000000000064e-01 8.071909999999999918e-01 1.662644999999999840e+01 1.200620000000000118e+02 1.574945000000000164e+03
1.020000000000000073e-01 8.070699999999999541e-01 1.602665000000000006e+01 1.196015000000000015e+02 1.574824999999999818e+03
1.030000000000000082e-01 8.069470000000000809e-01 1.544534999999999947e+01 1.191359999999999957e+02 1.574694999999999936e+03
1.040000000000000091e-01 8.068235000000000268e-01 1.488459999999999894e+01 1.186705000000000041e+02 1.574565000000000055e+03
1.050000000000000100e-01 8.067005000000000425e-01 1.434544999999999959e+01 1.182094999999999914e+02 1.574430000000000064e+03
1.059999999999999970e-01 8.065774999999999473e-01 1.382785000000000153e+01 1.177549999999999955e+02 1.574299999999999955e+03
1.069999999999999979e-01 8.064554999999999918e-01 1.333091500000000096e+01 1.173084999999999951e+02 1.574170000000000073e+03
1.079999999999999988e-01 8.063329999999999664e-01 1.285304499999999983e+01 1.168684999999999974e+02 1.574039999999999964e+03
1.089999999999999997e-01 8.062110000000000110e-01 1.239192999999999856e+01 1.164344999999999999e+02 1.573909999999999854e+03
1.100000000000000006e-01 8.060869999999999980e-01 1.194475999999999871e+01 1.160030000000000001e+02 1.573775000000000091e+03
1.110000000000000014e-01 8.059614999999999974e-01 1.150852000000000075e+01 1.155720000000000027e+02 1.573650000000000091e+03
1.120000000000000023e-01 8.058320000000001038e-01 1.107998000000000083e+01 1.151370000000000005e+02 1.573519999999999982e+03
1.130000000000000032e-01 8.056984999999999841e-01 1.065592499999999987e+01 1.146955000000000098e+02 1.573384999999999991e+03
1.140000000000000041e-01 8.055600000000000538e-01 1.023332999999999871e+01 1.142429999999999950e+02 1.573255000000000109e+03
1.150000000000000050e-01 8.054164999999999797e-01 9.809435000000000571e+00 1.137775000000000034e+02 1.573115000000000009e+03
1.160000000000000059e-01 8.052660000000000373e-01 9.381869999999999266e+00 1.132965000000000089e+02 1.572970000000000027e+03
1.170000000000000068e-01 8.051099999999999923e-01 8.948859999999999815e+00 1.127994999999999948e+02 1.572829999999999927e+03
1.180000000000000077e-01 8.049479999999999968e-01 8.509049999999998448e+00 1.122849999999999966e+02 1.572680000000000064e+03
1.190000000000000085e-01 8.047809999999999686e-01 8.061844999999999928e+00 1.117549999999999955e+02 1.572525000000000091e+03
1.200000000000000094e-01 8.046085000000000598e-01 7.607230000000000381e+00 1.112104999999999961e+02 1.572369999999999891e+03
1.209999999999999964e-01 8.044335000000000235e-01 7.145949999999999136e+00 1.106544999999999987e+02 1.572210000000000036e+03
1.219999999999999973e-01 8.042559999999999709e-01 6.679395000000000415e+00 1.100904999999999916e+02 1.572050000000000182e+03
1.229999999999999982e-01 8.040785000000000293e-01 6.209589999999999499e+00 1.095250000000000057e+02 1.571889999999999873e+03
1.239999999999999991e-01 8.039030000000000342e-01 5.739129999999999399e+00 1.089625000000000057e+02 1.571724999999999909e+03
1.250000000000000000e-01 8.037315000000000431e-01 5.271130000000000315e+00 1.084095000000000084e+02 1.571565000000000055e+03
1.260000000000000009e-01 8.035665000000000724e-01 4.809045000000000236e+00 1.078739999999999952e+02 1.571404999999999973e+03
1.270000000000000018e-01 8.034099999999999575e-01 4.356630000000000003e+00 1.073635000000000019e+02 1.571255000000000109e+03
1.280000000000000027e-01 8.032639999999999780e-01 3.917765000000000164e+00 1.068840000000000003e+02 1.571115000000000009e+03
1.290000000000000036e-01 8.031314999999999982e-01 3.496290000000000120e+00 1.064435000000000002e+02 1.570985000000000127e+03
1.300000000000000044e-01 8.030140000000000056e-01 3.095909999999999940e+00 1.060490000000000066e+02 1.570865000000000009e+03
1.310000000000000053e-01 8.029129999999999878e-01 2.719999999999999751e+00 1.057055000000000007e+02 1.570755000000000109e+03
1.320000000000000062e-01 8.028299999999999326e-01 2.371529999999999916e+00 1.054194999999999993e+02 1.570664999999999964e+03
1.330000000000000071e-01 8.027664999999999385e-01 2.052902500000000074e+00 1.051935000000000002e+02 1.570590000000000146e+03
1.340000000000000080e-01 8.027220000000000466e-01 1.765895500000000062e+00 1.050310000000000059e+02 1.570534999999999854e+03
1.350000000000000089e-01 8.026975000000000637e-01 1.511596000000000162e+00 1.049320000000000022e+02 1.570494999999999891e+03
1.360000000000000098e-01 8.026925000000000310e-01 1.290375000000000050e+00 1.048969999999999914e+02 1.570470000000000027e+03
1.370000000000000107e-01 8.027059999999999196e-01 1.101879999999999971e+00 1.049244999999999948e+02 1.570465000000000146e+03
1.380000000000000115e-01 8.027370000000000339e-01 9.450840000000000352e-01 1.050109999999999957e+02 1.570474999999999909e+03
1.390000000000000124e-01 8.027839999999999421e-01 8.183664999999999967e-01 1.051519999999999868e+02 1.570505000000000109e+03
1.400000000000000133e-01 8.028455000000001007e-01 7.195515000000000105e-01 1.053425000000000011e+02 1.570539999999999964e+03
1.410000000000000142e-01 8.029189999999999383e-01 6.460625000000000950e-01 1.055765000000000100e+02 1.570599999999999909e+03
1.420000000000000151e-01 8.030024999999999524e-01 5.950090000000000101e-01 1.058464999999999918e+02 1.570664999999999964e+03
1.430000000000000160e-01 8.030945000000000444e-01 5.633029999999998871e-01 1.061465000000000032e+02 1.570740000000000009e+03
1.440000000000000169e-01 8.031920000000000170e-01 5.477530000000000454e-01 1.064675000000000011e+02 1.570824999999999818e+03
1.450000000000000178e-01 8.032939999999999525e-01 5.451994999999999481e-01 1.068040000000000020e+02 1.570914999999999964e+03
1.459999999999999909e-01 8.033970000000000278e-01 5.525634999999999852e-01 1.071490000000000009e+02 1.571000000000000000e+03
1.469999999999999918e-01 8.034999999999999920e-01 5.669405000000000694e-01 1.074960000000000093e+02 1.571095000000000027e+03
1.479999999999999927e-01 8.036020000000000385e-01 5.856425000000000658e-01 1.078384999999999962e+02 1.571194999999999936e+03
1.489999999999999936e-01 8.037014999999999576e-01 6.062449999999999228e-01 1.081719999999999970e+02 1.571285000000000082e+03
1.499999999999999944e-01 8.037959999999999550e-01 6.266169999999999796e-01 1.084925000000000068e+02 1.571375000000000000e+03
1.509999999999999953e-01 8.038859999999999895e-01 6.449309999999999210e-01 1.087965000000000089e+02 1.571465000000000146e+03
1.519999999999999962e-01 8.039700000000000735e-01 6.596800000000000441e-01 1.090805000000000007e+02 1.571549999999999955e+03
1.529999999999999971e-01 8.040475000000000261e-01 6.696630000000000082e-01 1.093429999999999893e+02 1.571625000000000000e+03
1.539999999999999980e-01 8.041184999999999583e-01 6.739863000000000381e-01 1.095819999999999936e+02 1.571695000000000164e+03
1.549999999999999989e-01 8.041829999999999812e-01 6.720452999999999566e-01 1.097969999999999970e+02 1.571759999999999991e+03
1.559999999999999998e-01 8.042400000000000659e-01 6.634974999999999623e-01 1.099875000000000114e+02 1.571824999999999818e+03
1.570000000000000007e-01 8.042899999999999494e-01 6.482650000000000912e-01 1.101529999999999916e+02 1.571875000000000000e+03
1.580000000000000016e-01 8.043335000000000345e-01 6.264650000000000496e-01 1.102959999999999923e+02 1.571920000000000073e+03
1.590000000000000024e-01 8.043709999999999471e-01 5.984165000000000179e-01 1.104149999999999920e+02 1.571960000000000036e+03
