# t [s], A [cm^2], U [cm/s], P [cPa], c [cm/s]
1.000000000000000021e-03 5.466490000000000515e-01 3.634600000000001718e-03 1.039749999999999943e+02 1.435405000000000200e+03
2.000000000000000042e-03 5.466404999999999736e-01 2.450749999999999804e-04 1.039544999999999959e+02 1.435405000000000200e+03
3.000000000000000062e-03 5.466910000000000380e-01 9.139030000000000764e-02 1.040370000000000061e+02 1.435424999999999955e+03
4.000000000000000083e-03 5.467405000000000737e-01 1.849945500000000076e-01 1.041430000000000007e+02 1.435460000000000036e+03
5.000000000000000104e-03 5.467239999999999878e-01 1.676847499999999935e-01 1.041084999999999923e+02 1.435454999999999927e+03
6.000000000000000125e-03 5.466640000000000388e-01 6.837799999999996658e-02 1.039205000000000041e+02 1.435409999999999854e+03
7.000000000000000146e-03 5.466039999999999788e-01 -3.804499999999999549e-02 1.036550000000000011e+02 1.435344999999999800e+03
8.000000000000000167e-03 5.465195000000000469e-01 -1.970750000000000002e-01 1.032759999999999962e+02 1.435259999999999991e+03
9.000000000000001055e-03 5.463770000000000016e-01 -4.726950000000000873e-01 1.026970000000000027e+02 1.435119999999999891e+03
1.000000000000000194e-02 5.461745000000000072e-01 -8.635650000000000270e-01 1.018819000000000017e+02 1.434920000000000073e+03
1.099999999999999936e-02 5.459064999999999612e-01 -1.365690000000000071e+00 1.008010000000000019e+02 1.434654999999999973e+03
1.200000000000000025e-02 5.455569999999999586e-01 -1.991629999999999789e+00 9.940719999999998890e+01 1.434304999999999836e+03
1.300000000000000114e-02 5.451255000000000406e-01 -2.720724999999999838e+00 9.768659999999999854e+01 1.433865000000000009e+03
1.400000000000000203e-02 5.446459999999999635e-01 -3.461650000000000560e+00 9.571604999999999563e+01 1.433340000000000146e+03
1.499999999999999944e-02 5.441779999999999395e-01 -4.074880000000000280e+00 9.365755000000000052e+01 1.432775000000000091e+03
1.600000000000000033e-02 5.437745000000000495e-01 -4.431772999999999740e+00 9.169899999999999807e+01 1.432214999999999918e+03
1.700000000000000122e-02 5.434600000000000541e-01 -4.462845500000000243e+00 8.998154999999999859e+01 1.431690000000000055e+03
1.800000000000000211e-02 5.432289999999999619e-01 -4.173060000000000436e+00 8.856135000000000446e+01 1.431224999999999909e+03
1.900000000000000300e-02 5.430479999999999752e-01 -3.628838000000000008e+00 8.740475000000000705e+01 1.430815000000000055e+03
2.000000000000000042e-02 5.428755000000000663e-01 -2.929771199999999798e+00 8.641120000000000800e+01 1.430445000000000164e+03
2.100000000000000130e-02 5.426720000000000432e-01 -2.176034500000000094e+00 8.545275000000000887e+01 1.430085000000000036e+03
2.200000000000000219e-02 5.424145000000000216e-01 -1.440525000000000055e+00 8.441554999999999609e+01 1.429715000000000146e+03
2.299999999999999961e-02 5.420964999999999812e-01 -7.537400000000000766e-01 8.323224999999999341e+01 1.429309999999999945e+03
2.400000000000000050e-02 5.417330000000000201e-01 -1.060349999999998793e-01 8.189334999999999809e+01 1.428880000000000109e+03
2.500000000000000139e-02 5.413449999999999651e-01 5.351549999999996032e-01 8.043630000000000280e+01 1.428409999999999854e+03
2.600000000000000228e-02 5.409534999999999760e-01 1.202065000000000161e+00 7.891925000000000523e+01 1.427925000000000182e+03
2.700000000000000316e-02 5.405704999999999538e-01 1.907059999999999977e+00 7.739260000000000161e+01 1.427434999999999945e+03
2.800000000000000058e-02 5.401949999999999807e-01 2.632520000000000415e+00 7.587715000000000032e+01 1.426940000000000055e+03
2.900000000000000147e-02 5.398119999999999585e-01 3.331219999999999626e+00 7.435455000000000325e+01 1.426445000000000164e+03
3.000000000000000236e-02 5.393999999999999906e-01 3.935019999999999740e+00 7.277009999999999934e+01 1.425929999999999836e+03
3.099999999999999978e-02 5.389329999999999954e-01 4.368834999999999802e+00 7.104554999999999154e+01 1.425384999999999991e+03
3.200000000000000067e-02 5.383904999999999941e-01 4.566440000000000055e+00 6.909844999999999970e+01 1.424789999999999964e+03
3.300000000000000155e-02 5.377594999999999459e-01 4.484724999999999184e+00 6.686365000000000691e+01 1.424130000000000109e+03
3.400000000000000244e-02 5.370420000000000194e-01 4.113794999999999646e+00 6.431239999999999668e+01 1.423384999999999991e+03
3.500000000000000333e-02 5.362514999999999921e-01 3.479805000000000259e+00 6.146339999999999293e+01 1.422570000000000164e+03
3.600000000000000422e-02 5.354149999999999743e-01 2.640814999999999912e+00 5.838490000000000180e+01 1.421690000000000055e+03
3.700000000000000511e-02 5.345685000000000020e-01 1.676789999999999559e+00 5.518649999999999523e+01 1.420775000000000091e+03
3.799999999999999906e-02 5.337499999999999467e-01 6.768999999999998352e-01 5.200414999999999566e+01 1.419849999999999909e+03
3.899999999999999994e-02 5.329939999999999678e-01 -2.724499999999991928e-01 4.898310000000000031e+01 1.418960000000000036e+03
4.000000000000000083e-02 5.323324999999999863e-01 -1.096379999999999910e+00 4.626069999999999993e+01 1.418134999999999991e+03
4.100000000000000172e-02 5.317874999999999686e-01 -1.737694999999999546e+00 4.395374999999999943e+01 1.417409999999999854e+03
4.200000000000000261e-02 5.313744999999999719e-01 -2.157880000000000464e+00 4.215010000000000190e+01 1.416804999999999836e+03
4.300000000000000350e-02 5.311010000000000453e-01 -2.336015000000000175e+00 4.090510000000000446e+01 1.416349999999999909e+03
4.400000000000000439e-02 5.309669999999999668e-01 -2.265391500000000224e+00 4.024329999999999785e+01 1.416059999999999945e+03
4.499999999999999833e-02 5.309694999999999832e-01 -1.949269999999999836e+00 4.016275000000000261e+01 1.415920000000000073e+03
4.599999999999999922e-02 5.311004999999999754e-01 -1.396858500000000003e+00 4.064124999999999943e+01 1.415954999999999927e+03
4.700000000000000011e-02 5.313525000000000054e-01 -6.202599999999998115e-01 4.164300000000000068e+01 1.416134999999999991e+03
4.800000000000000100e-02 5.317144999999999788e-01 3.671350000000002112e-01 4.312425000000000352e+01 1.416464999999999918e+03
4.900000000000000189e-02 5.321765000000000523e-01 1.550860000000000127e+00 4.503714999999999691e+01 1.416929999999999836e+03
5.000000000000000278e-02 5.327279999999999793e-01 2.914449999999999985e+00 4.733129999999999882e+01 1.417509999999999991e+03
5.100000000000000366e-02 5.333575000000000399e-01 4.438039999999999985e+00 4.995444999999999425e+01 1.418204999999999927e+03
5.200000000000000455e-02 5.340509999999999424e-01 6.097230000000000594e+00 5.285155000000000314e+01 1.418985000000000127e+03
5.300000000000000544e-02 5.347939999999999916e-01 7.862739999999999618e+00 5.596460000000000434e+01 1.419839999999999918e+03
5.399999999999999939e-02 5.355725000000000069e-01 9.700469899999999868e+00 5.923245000000000005e+01 1.420755000000000109e+03
5.500000000000000028e-02 5.363689999999999847e-01 1.157322000000000095e+01 6.259194999999999709e+01 1.421715000000000146e+03
5.600000000000000117e-02 5.371694999999999665e-01 1.344228500000000004e+01 6.597974999999999568e+01 1.422694999999999936e+03
5.700000000000000205e-02 5.379579999999999362e-01 1.526996499999999912e+01 6.933480000000000132e+01 1.423675000000000182e+03
5.800000000000000294e-02 5.387214999999999643e-01 1.702167500000000189e+01 7.260130000000000905e+01 1.424654999999999973e+03
5.900000000000000383e-02 5.394495000000000262e-01 1.866795000000000115e+01 7.573144999999999527e+01 1.425605000000000018e+03
6.000000000000000472e-02 5.401350000000000318e-01 2.018560000000000088e+01 7.868755000000000166e+01 1.426514999999999873e+03
6.099999999999999867e-02 5.407724999999999893e-01 2.155870000000000175e+01 8.144360000000000355e+01 1.427375000000000000e+03
6.199999999999999956e-02 5.413609999999999811e-01 2.277844999999999942e+01 8.398579999999999757e+01 1.428190000000000055e+03
6.300000000000000044e-02 5.419005000000000072e-01 2.384279999999999688e+01 8.631199999999999761e+01 1.428945000000000164e+03
6.400000000000000133e-02 5.423949999999999605e-01 2.475570000000000093e+01 8.843084999999999241e+01 1.429650000000000091e+03
6.500000000000000222e-02 5.428490000000000260e-01 2.552590000000000003e+01 9.035980000000000700e+01 1.430295000000000073e+03
6.600000000000000311e-02 5.432690000000000019e-01 2.616599999999999682e+01 9.212340000000000373e+01 1.430894999999999982e+03
6.700000000000000400e-02 5.436624999999999375e-01 2.669140000000000157e+01 9.375095000000000312e+01 1.431450000000000045e+03
6.800000000000000488e-02 5.440359999999999641e-01 2.711929999999999907e+01 9.527465000000000828e+01 1.431974999999999909e+03
6.900000000000000577e-02 5.443979999999999375e-01 2.746795000000000186e+01 9.672769999999999868e+01 1.432474999999999909e+03
7.000000000000000666e-02 5.447554999999999481e-01 2.775594999999999857e+01 9.814260000000000161e+01 1.432960000000000036e+03
7.100000000000000755e-02 5.451154999999999751e-01 2.800130000000000052e+01 9.954964999999999975e+01 1.433434999999999945e+03
7.200000000000000844e-02 5.454829999999999401e-01 2.822090000000000032e+01 1.009754999999999967e+02 1.433910000000000082e+03
7.300000000000000933e-02 5.458635000000000570e-01 2.842960000000000065e+01 1.024429999999999978e+02 1.434389999999999873e+03
7.399999999999999634e-02 5.462599999999999678e-01 2.863960000000000150e+01 1.039664999999999964e+02 1.434884999999999991e+03
7.499999999999999722e-02 5.466739999999999933e-01 2.885985000000000156e+01 1.055575000000000045e+02 1.435394999999999982e+03
7.599999999999999811e-02 5.471044999999999936e-01 2.909519999999999840e+01 1.072169999999999987e+02 1.435914999999999964e+03
7.699999999999999900e-02 5.475505000000000511e-01 2.934665000000000035e+01 1.089405000000000001e+02 1.436460000000000036e+03
7.799999999999999989e-02 5.480080000000000506e-01 2.961090000000000089e+01 1.107139999999999986e+02 1.437014999999999873e+03
7.900000000000000078e-02 5.484704999999999719e-01 2.988090000000000046e+01 1.125174999999999983e+02 1.437579999999999927e+03
8.000000000000000167e-02 5.489319999999999755e-01 3.014634999999999820e+01 1.143259999999999934e+02 1.438144999999999982e+03
8.100000000000000255e-02 5.493839999999999835e-01 3.039450000000000074e+01 1.161099999999999994e+02 1.438704999999999927e+03
8.200000000000000344e-02 5.498190000000000577e-01 3.061100000000000065e+01 1.178354999999999961e+02 1.439244999999999891e+03
8.300000000000000433e-02 5.502289999999999681e-01 3.078074999999999761e+01 1.194699999999999989e+02 1.439775000000000091e+03
8.400000000000000522e-02 5.506055000000000810e-01 3.088919999999999888e+01 1.209790000000000134e+02 1.440264999999999873e+03
8.500000000000000611e-02 5.509425000000000017e-01 3.092279999999999873e+01 1.223345000000000056e+02 1.440715000000000146e+03
8.600000000000000699e-02 5.512335000000000429e-01 3.086994999999999933e+01 1.235095000000000027e+02 1.441110000000000127e+03
8.700000000000000788e-02 5.514740000000000197e-01 3.072155000000000058e+01 1.244819999999999993e+02 1.441450000000000045e+03
8.800000000000000877e-02 5.516609999999999570e-01 3.047135000000000105e+01 1.252394999999999925e+02 1.441735000000000127e+03
8.899999999999999578e-02 5.517940000000000067e-01 3.011630000000000251e+01 1.257724999999999937e+02 1.441950000000000045e+03
8.999999999999999667e-02 5.518720000000000292e-01 2.965650000000000119e+01 1.260794999999999959e+02 1.442099999999999909e+03
9.099999999999999756e-02 5.518974999999999298e-01 2.909525000000000006e+01 1.261665000000000134e+02 1.442184999999999945e+03
9.199999999999999845e-02 5.518724999999999881e-01 2.843880000000000052e+01 1.260440000000000111e+02 1.442204999999999927e+03
9.299999999999999933e-02 5.518024999999999736e-01 2.769600000000000151e+01 1.257295000000000016e+02 1.442164999999999964e+03
9.400000000000000022e-02 5.516929999999999890e-01 2.687804999999999822e+01 1.252429999999999950e+02 1.442069999999999936e+03
9.500000000000000111e-02 5.515490000000000670e-01 2.599795000000000300e+01 1.246109999999999900e+02 1.441924999999999955e+03
9.600000000000000200e-02 5.513774999999999649e-01 2.507000000000000028e+01 1.238605000000000018e+02 1.441740000000000009e+03
9.700000000000000289e-02 5.511859999999999538e-01 2.410949999999999704e+01 1.230195000000000078e+02 1.441519999999999982e+03
9.800000000000000377e-02 5.509805000000000952e-01 2.313185000000000002e+01 1.221180000000000092e+02 1.441275000000000091e+03
9.900000000000000466e-02 5.507684999999999942e-01 2.215220000000000056e+01 1.211850000000000023e+02 1.441019999999999982e+03
1.000000000000000056e-01 5.505560000000000453e-01 2.118509999999999849e+01 1.202469999999999999e+02 1.440750000000000000e+03
1.010000000000000064e-01 5.503485000000000182e-01 2.024364999999999881e+01 1.193294999999999959e+02 1.440485000000000127e+03
1.020000000000000073e-01 5.501515000000000155e-01 1.933934999999999960e+01 1.184530000000000030e+02 1.440220000000000027e+03
1.030000000000000082e-01 5.499685000000000823e-01 1.848174999999999812e+01 1.176364999999999981e+02 1.439970000000000027e+03
1.040000000000000091e-01 5.498020000000000129e-01 1.767779999999999774e+01 1.168924999999999983e+02 1.439735000000000127e+03
1.050000000000000100e-01 5.496550000000000047e-01 1.693229999999999791e+01 1.162299999999999898e+02 1.439519999999999982e+03
1.059999999999999970e-01 5.495269999999999877e-01 1.624725000000000108e+01 1.156529999999999916e+02 1.439324999999999818e+03
1.069999999999999979e-01 5.494175000000000031e-01 1.562225000000000108e+01 1.151624999999999943e+02 1.439159999999999854e+03
1.079999999999999988e-01 5.493265000000000509e-01 1.505460000000000065e+01 1.147524999999999977e+02 1.439009999999999991e+03
1.089999999999999997e-01 5.492515000000000036e-01 1.453934999999999889e+01 1.144159999999999968e+02 1.438880000000000109e+03
1.100000000000000006e-01 5.491884999999999684e-01 1.406974999999999909e+01 1.141409999999999911e+02 1.438775000000000091e+03
1.110000000000000014e-01 5.491354999999999986e-01 1.363755000000000095e+01 1.139145000000000039e+02 1.438684999999999945e+03
1.120000000000000023e-01 5.490869999999999918e-01 1.323349999999999937e+01 1.137189999999999941e+02 1.438605000000000018e+03
1.130000000000000032e-01 5.490410000000000013e-01 1.284764999999999979e+01 1.135390000000000015e+02 1.438534999999999854e+03
1.140000000000000041e-01 5.489919999999999245e-01 1.246989999999999910e+01 1.133569999999999993e+02 1.438460000000000036e+03
1.150000000000000050e-01 5.489370000000000083e-01 1.209041500000000013e+01 1.131560000000000059e+02 1.438389999999999873e+03
1.160000000000000059e-01 5.488714999999999566e-01 1.169996499999999884e+01 1.129219999999999970e+02 1.438309999999999945e+03
1.170000000000000068e-01 5.487934999999999341e-01 1.129035000000000011e+01 1.126394999999999982e+02 1.438220000000000027e+03
1.180000000000000077e-01 5.487009999999999943e-01 1.085482999999999976e+01 1.122994999999999948e+02 1.438115000000000009e+03
1.190000000000000085e-01 5.485910000000000508e-01 1.038814999999999955e+01 1.118930000000000007e+02 1.437994999999999891e+03
1.200000000000000094e-01 5.484639999999999516e-01 9.887010000000000076e+00 1.114145000000000039e+02 1.437855000000000018e+03
1.209999999999999964e-01 5.483195000000000707e-01 9.350134999999999863e+00 1.108635000000000019e+02 1.437694999999999936e+03
1.219999999999999973e-01 5.481580000000000341e-01 8.778085000000000804e+00 1.102409999999999997e+02 1.437514999999999873e+03
1.229999999999999982e-01 5.479819999999999691e-01 8.173535000000001105e+00 1.095534999999999997e+02 1.437315000000000055e+03
1.239999999999999991e-01 5.477929999999999744e-01 7.541085000000000704e+00 1.088085000000000093e+02 1.437099999999999909e+03
1.250000000000000000e-01 5.475940000000000252e-01 6.886925000000000630e+00 1.080174999999999983e+02 1.436869999999999891e+03
1.260000000000000009e-01 5.473894999999999733e-01 6.218840000000000146e+00 1.071959999999999980e+02 1.436625000000000000e+03
1.270000000000000018e-01 5.471820000000000572e-01 5.545679999999999943e+00 1.063569999999999993e+02 1.436380000000000109e+03
1.280000000000000027e-01 5.469775000000000054e-01 4.877195000000000391e+00 1.055190000000000055e+02 1.436130000000000109e+03
1.290000000000000036e-01 5.467779999999999863e-01 4.223546999999999940e+00 1.046990499999999997e+02 1.435875000000000000e+03
1.300000000000000044e-01 5.465895000000000614e-01 3.594958500000000168e+00 1.039145499999999913e+02 1.435639999999999873e+03
1.310000000000000053e-01 5.464154999999999429e-01 3.001302350000000008e+00 1.031821999999999946e+02 1.435410000000000082e+03
1.320000000000000062e-01 5.462584999999999802e-01 2.451694999999999958e+00 1.025168999999999926e+02 1.435199999999999818e+03
1.330000000000000071e-01 5.461230000000000251e-01 1.954178500000000041e+00 1.019321500000000071e+02 1.435009999999999991e+03
1.340000000000000080e-01 5.460095000000000365e-01 1.515390000000000015e+00 1.014388500000000022e+02 1.434840000000000146e+03
1.350000000000000089e-01 5.459209999999999896e-01 1.140341500000000119e+00 1.010440499999999986e+02 1.434704999999999927e+03
1.360000000000000098e-01 5.458579999999999544e-01 8.322344999999999882e-01 1.007532999999999959e+02 1.434590000000000146e+03
1.370000000000000107e-01 5.458205000000000418e-01 5.924057999999999824e-01 1.005673500000000047e+02 1.434509999999999991e+03
1.380000000000000115e-01 5.458065000000000833e-01 4.203025000000000233e-01 1.004840999999999980e+02 1.434460000000000036e+03
1.390000000000000124e-01 5.458165000000000378e-01 3.135609999999999786e-01 1.004994499999999960e+02 1.434440000000000055e+03
1.400000000000000133e-01 5.458469999999999711e-01 2.681613999999999942e-01 1.006045000000000016e+02 1.434440000000000055e+03
1.410000000000000142e-01 5.458960000000000479e-01 2.786254999999999704e-01 1.007899999999999920e+02 1.434470000000000027e+03
1.420000000000000151e-01 5.459605000000000707e-01 3.382610000000000339e-01 1.010430000000000064e+02 1.434525000000000091e+03
1.430000000000000160e-01 5.460359999999999658e-01 4.394534999999999969e-01 1.013504999999999967e+02 1.434594999999999800e+03
1.440000000000000169e-01 5.461205000000000087e-01 5.739404999999999646e-01 1.016980000000000075e+02 1.434679999999999836e+03
1.450000000000000178e-01 5.462095000000000145e-01 7.331370000000000386e-01 1.020699999999999932e+02 1.434769999999999982e+03
1.459999999999999909e-01 5.462995000000000489e-01 9.084184999999999066e-01 1.024540000000000077e+02 1.434875000000000000e+03
1.469999999999999918e-01 5.463884999999999437e-01 1.091377099999999878e+00 1.028334999999999866e+02 1.434980000000000018e+03
1.479999999999999927e-01 5.464725000000000277e-01 1.274101499999999998e+00 1.031974999999999909e+02 1.435079999999999927e+03
1.489999999999999936e-01 5.465489999999999515e-01 1.449363500000000027e+00 1.035345000000000084e+02 1.435180000000000064e+03
1.499999999999999944e-01 5.466159999999999908e-01 1.610816500000000095e+00 1.038349999999999937e+02 1.435269999999999982e+03
1.509999999999999953e-01 5.466725000000000056e-01 1.753114999999999979e+00 1.040910000000000082e+02 1.435349999999999909e+03
1.519999999999999962e-01 5.467165000000000497e-01 1.872009999999999952e+00 1.042974999999999994e+02 1.435414999999999964e+03
1.529999999999999971e-01 5.467480000000000118e-01 1.964415000000000022e+00 1.044505000000000052e+02 1.435470000000000027e+03
1.539999999999999980e-01 5.467670000000000030e-01 2.028405000000000236e+00 1.045490000000000066e+02 1.435509999999999991e+03
1.549999999999999989e-01 5.467729999999999535e-01 2.063180000000000014e+00 1.045935000000000059e+02 1.435535000000000082e+03
1.559999999999999998e-01 5.467670000000000030e-01 2.069040000000000212e+00 1.045854999999999961e+02 1.435539999999999964e+03
1.570000000000000007e-01 5.467500000000000693e-01 2.047254999999999825e+00 1.045289999999999964e+02 1.435534999999999854e+03
1.580000000000000016e-01 5.467229999999999590e-01 1.999969999999999803e+00 1.044290000000000020e+02 1.435514999999999873e+03
1.590000000000000024e-01 5.466880000000000628e-01 1.930074999999999985e+00 1.042914999999999992e+02 1.435490000000000009e+03
