# t [s], A [cm^2], U [cm/s], P [cPa], c [cm/s]
1.000000000000000021e-03 1.737469999999999848e-01 3.896059999999999524e-01 1.034329999999999927e+02 2.090465000000000146e+03
2.000000000000000042e-03 1.736964999999999759e-01 2.083340999999999887e+00 9.970735000000000525e+01 2.090019999999999982e+03
3.000000000000000062e-03 1.735585000000000044e-01 4.151844500000000160e+00 9.463779999999999859e+01 2.088880000000000109e+03
4.000000000000000083e-03 1.733724999999999850e-01 6.469503500000000074e+00 8.925589999999999691e+01 2.087349999999999909e+03
5.000000000000000104e-03 1.731745000000000090e-01 8.943699999999999761e+00 8.453929999999999723e+01 2.085735000000000127e+03
6.000000000000000125e-03 1.729844999999999855e-01 1.135875000000000057e+01 8.070969999999999800e+01 2.084199999999999818e+03
7.000000000000000146e-03 1.728065000000000018e-01 1.348619500000000038e+01 7.742410000000000991e+01 2.082795000000000073e+03
8.000000000000000167e-03 1.726435000000000053e-01 1.526790000000000092e+01 7.446860000000000923e+01 2.081529999999999745e+03
9.000000000000001055e-03 1.725015000000000021e-01 1.675549999999999784e+01 7.193565000000000964e+01 2.080444999999999709e+03
1.000000000000000194e-02 1.723824999999999941e-01 1.798179999999999978e+01 6.988599999999999568e+01 2.079539999999999964e+03
1.099999999999999936e-02 1.722845000000000071e-01 1.896265000000000001e+01 6.827245000000000630e+01 2.078804999999999836e+03
1.200000000000000025e-02 1.722064999999999846e-01 1.971265000000000001e+01 6.701515000000000555e+01 2.078224999999999909e+03
1.300000000000000114e-02 1.721439999999999915e-01 2.023680000000000234e+01 6.599379999999999313e+01 2.077775000000000091e+03
1.400000000000000203e-02 1.720924999999999816e-01 2.055995000000000061e+01 6.510269999999999868e+01 2.077409999999999854e+03
1.499999999999999944e-02 1.720514999999999961e-01 2.077674999999999983e+01 6.441214999999999691e+01 2.077125000000000000e+03
1.600000000000000033e-02 1.720269999999999855e-01 2.104650000000000176e+01 6.423264999999999247e+01 2.076954999999999927e+03
1.700000000000000122e-02 1.720295000000000019e-01 2.151794999999999902e+01 6.495295000000000130e+01 2.076989999999999782e+03
1.800000000000000211e-02 1.720655000000000101e-01 2.224390000000000001e+01 6.676605000000000700e+01 2.077264999999999873e+03
1.900000000000000300e-02 1.721334999999999948e-01 2.314665000000000106e+01 6.948945000000000505e+01 2.077779999999999745e+03
2.000000000000000042e-02 1.722230000000000150e-01 2.405035000000000167e+01 7.259114999999999895e+01 2.078465000000000146e+03
2.100000000000000130e-02 1.723159999999999969e-01 2.475534999999999997e+01 7.538644999999999641e+01 2.079190000000000055e+03
2.200000000000000219e-02 1.723950000000000204e-01 2.511394999999999911e+01 7.729120000000000346e+01 2.079815000000000055e+03
2.299999999999999961e-02 1.724474999999999758e-01 2.507714999999999961e+01 7.801470000000000482e+01 2.080239999999999782e+03
2.400000000000000050e-02 1.724684999999999968e-01 2.469819999999999993e+01 7.762325000000001296e+01 2.080435000000000400e+03
2.500000000000000139e-02 1.724625000000000186e-01 2.409790000000000276e+01 7.646429999999999438e+01 2.080404999999999745e+03
2.600000000000000228e-02 1.724380000000000079e-01 2.341084999999999994e+01 7.499934999999999263e+01 2.080235000000000127e+03
2.700000000000000316e-02 1.724054999999999893e-01 2.273684999999999690e+01 7.362465000000000259e+01 2.079994999999999891e+03
2.800000000000000058e-02 1.723739999999999994e-01 2.211444999999999794e+01 7.254845000000000255e+01 2.079755000000000109e+03
2.900000000000000147e-02 1.723470000000000002e-01 2.152349999999999852e+01 7.176144999999999641e+01 2.079545000000000073e+03
3.000000000000000236e-02 1.723224999999999896e-01 2.090805000000000291e+01 7.109225000000000705e+01 2.079355000000000018e+03
3.099999999999999978e-02 1.722960000000000047e-01 2.021069999999999922e+01 7.031350000000000477e+01 2.079149999999999636e+03
3.200000000000000067e-02 1.722629999999999995e-01 1.940319999999999823e+01 6.925530000000000541e+01 2.078904999999999745e+03
3.300000000000000155e-02 1.722214999999999996e-01 1.850554999999999950e+01 6.788769999999999527e+01 2.078594999999999800e+03
3.400000000000000244e-02 1.721734999999999793e-01 1.758705000000000140e+01 6.634825000000000728e+01 2.078229999999999563e+03
3.500000000000000333e-02 1.721239999999999992e-01 1.674994999999999834e+01 6.490840000000000032e+01 2.077855000000000018e+03
3.600000000000000422e-02 1.720814999999999984e-01 1.610135000000000005e+01 6.389195000000000135e+01 2.077524999999999636e+03
3.700000000000000511e-02 1.720555000000000001e-01 1.572289999999999921e+01 6.357560000000000144e+01 2.077314999999999600e+03
3.799999999999999906e-02 1.720514999999999961e-01 1.564805000000000135e+01 6.410354999999999848e+01 2.077269999999999982e+03
3.899999999999999994e-02 1.720730000000000037e-01 1.585234999999999950e+01 6.544204999999999472e+01 2.077420000000000073e+03
4.000000000000000083e-02 1.721165000000000056e-01 1.625954999999999728e+01 6.738380000000000791e+01 2.077734999999999673e+03
4.100000000000000172e-02 1.721759999999999957e-01 1.675784999999999769e+01 6.959524999999999295e+01 2.078175000000000182e+03
4.200000000000000261e-02 1.722410000000000052e-01 1.722274999999999778e+01 7.168819999999999482e+01 2.078670000000000073e+03
4.300000000000000350e-02 1.723004999999999953e-01 1.753860000000000241e+01 7.329560000000000741e+01 2.079125000000000000e+03
4.400000000000000439e-02 1.723445000000000116e-01 1.761554999999999893e+01 7.413304999999999723e+01 2.079465000000000146e+03
4.499999999999999833e-02 1.723644999999999761e-01 1.739889999999999759e+01 7.403530000000000655e+01 2.079630000000000109e+03
4.599999999999999922e-02 1.723569999999999824e-01 1.687055000000000149e+01 7.296424999999999272e+01 2.079579999999999927e+03
4.700000000000000011e-02 1.723195000000000143e-01 1.604424999999999812e+01 7.099254999999999427e+01 2.079304999999999836e+03
4.800000000000000100e-02 1.722539999999999905e-01 1.495720000000000027e+01 6.827185000000000059e+01 2.078820000000000164e+03
4.900000000000000189e-02 1.721654999999999991e-01 1.366034999999999933e+01 6.499545000000000528e+01 2.078150000000000091e+03
5.000000000000000278e-02 1.720579999999999887e-01 1.221056499999999900e+01 6.136504999999999654e+01 2.077340000000000146e+03
5.100000000000000366e-02 1.719380000000000075e-01 1.066492000000000040e+01 5.756794999999999618e+01 2.076425000000000182e+03
5.200000000000000455e-02 1.718109999999999915e-01 9.078229999999999578e+00 5.376614999999999611e+01 2.075454999999999927e+03
5.300000000000000544e-02 1.716820000000000013e-01 7.502805000000000391e+00 5.009560000000000457e+01 2.074465000000000146e+03
5.399999999999999939e-02 1.715554999999999997e-01 5.989309999999999690e+00 4.667305000000000348e+01 2.073494999999999891e+03
5.500000000000000028e-02 1.714364999999999917e-01 4.588100000000000733e+00 4.360385000000000133e+01 2.072579999999999927e+03
5.600000000000000117e-02 1.713275000000000214e-01 3.349437500000000068e+00 4.098919999999999675e+01 2.071739999999999782e+03
5.700000000000000205e-02 1.712345000000000117e-01 2.322919999999999874e+00 3.892914999999999992e+01 2.071019999999999982e+03
5.800000000000000294e-02 1.711594999999999922e-01 1.555528000000000022e+00 3.752039999999999509e+01 2.070434999999999945e+03
5.900000000000000383e-02 1.711070000000000091e-01 1.088832499999999870e+00 3.685085000000000122e+01 2.070015000000000327e+03
6.000000000000000472e-02 1.710800000000000098e-01 9.558815000000000506e-01 3.699139999999999873e+01 2.069789999999999964e+03
6.099999999999999867e-02 1.710804999999999965e-01 1.178358000000000017e+00 3.798740000000000094e+01 2.069775000000000091e+03
6.199999999999999956e-02 1.711104999999999987e-01 1.764524499999999829e+00 3.985200000000000387e+01 2.069975000000000364e+03
6.300000000000000044e-02 1.711705000000000032e-01 2.708306000000000324e+00 4.256289999999999907e+01 2.070409999999999854e+03
6.400000000000000133e-02 1.712589999999999946e-01 3.989614999999999689e+00 4.606250000000000000e+01 2.071069999999999709e+03
6.500000000000000222e-02 1.713755000000000139e-01 5.575809999999999711e+00 5.026154999999999973e+01 2.071934999999999945e+03
6.600000000000000311e-02 1.715154999999999874e-01 7.423930000000000362e+00 5.504599999999999937e+01 2.072994999999999891e+03
6.700000000000000400e-02 1.716774999999999829e-01 9.483609999999998763e+00 6.028479999999999706e+01 2.074220000000000255e+03
6.800000000000000488e-02 1.718554999999999944e-01 1.170001500000000050e+01 6.583944999999999936e+01 2.075574999999999818e+03
6.900000000000000577e-02 1.720455000000000179e-01 1.401686499999999924e+01 7.157184999999999775e+01 2.077030000000000200e+03
7.000000000000000666e-02 1.722440000000000082e-01 1.637959999999999994e+01 7.735259999999999536e+01 2.078554999999999836e+03
7.100000000000000755e-02 1.724455000000000016e-01 1.873770000000000024e+01 8.306770000000000209e+01 2.080105000000000018e+03
7.200000000000000844e-02 1.726469999999999949e-01 2.104724999999999824e+01 8.862364999999999782e+01 2.081664999999999964e+03
7.300000000000000933e-02 1.728449999999999986e-01 2.327264999999999873e+01 9.395144999999999413e+01 2.083194999999999709e+03
7.399999999999999634e-02 1.730369999999999964e-01 2.538770000000000238e+01 9.900910000000000366e+01 2.084690000000000055e+03
7.499999999999999722e-02 1.732210000000000139e-01 2.737635000000000218e+01 1.037809499999999900e+02 2.086130000000000109e+03
7.599999999999999811e-02 1.733969999999999956e-01 2.923214999999999719e+01 1.082754999999999939e+02 2.087510000000000218e+03
7.699999999999999900e-02 1.735649999999999971e-01 3.095759999999999934e+01 1.125240000000000009e+02 2.088824999999999818e+03
7.799999999999999989e-02 1.737259999999999915e-01 3.256230000000000047e+01 1.165709999999999980e+02 2.090090000000000146e+03
7.900000000000000078e-02 1.738804999999999934e-01 3.406105000000000160e+01 1.204720000000000084e+02 2.091309999999999945e+03
8.000000000000000167e-02 1.740304999999999769e-01 3.547155000000000058e+01 1.242839999999999918e+02 2.092489999999999782e+03
8.100000000000000255e-02 1.741774999999999851e-01 3.681234999999999502e+01 1.280610000000000070e+02 2.093649999999999636e+03
8.200000000000000344e-02 1.743230000000000057e-01 3.810044999999999504e+01 1.318474999999999966e+02 2.094800000000000182e+03
8.300000000000000433e-02 1.744684999999999986e-01 3.935030000000000427e+01 1.356775000000000091e+02 2.095945000000000164e+03
8.400000000000000522e-02 1.746154999999999791e-01 4.057169999999999987e+01 1.395654999999999859e+02 2.097105000000000018e+03
8.500000000000000611e-02 1.747635000000000161e-01 4.176999999999999602e+01 1.435144999999999982e+02 2.098269999999999982e+03
8.600000000000000699e-02 1.749125000000000263e-01 4.294530000000000314e+01 1.475079999999999814e+02 2.099449999999999818e+03
8.700000000000000788e-02 1.750625000000000098e-01 4.409275000000000233e+01 1.515194999999999936e+02 2.100635000000000218e+03
8.800000000000000877e-02 1.752134999999999942e-01 4.520319999999999538e+01 1.555084999999999980e+02 2.101820000000000164e+03
8.899999999999999578e-02 1.753625000000000045e-01 4.626404999999999745e+01 1.594275000000000091e+02 2.103000000000000000e+03
8.999999999999999667e-02 1.755085000000000117e-01 4.725990000000000180e+01 1.632255000000000109e+02 2.104155000000000200e+03
9.099999999999999756e-02 1.756500000000000006e-01 4.817400000000000659e+01 1.668474999999999966e+02 2.105279999999999745e+03
9.199999999999999845e-02 1.757854999999999834e-01 4.898895000000000266e+01 1.702415000000000020e+02 2.106355000000000018e+03
9.299999999999999933e-02 1.759124999999999994e-01 4.968819999999999482e+01 1.733594999999999970e+02 2.107369999999999891e+03
9.400000000000000022e-02 1.760305000000000064e-01 5.025655000000000427e+01 1.761589999999999918e+02 2.108305000000000291e+03
9.500000000000000111e-02 1.761375000000000024e-01 5.068139999999999645e+01 1.786064999999999827e+02 2.109159999999999854e+03
9.600000000000000200e-02 1.762314999999999854e-01 5.095315000000000083e+01 1.806775000000000091e+02 2.109920000000000073e+03
9.700000000000000289e-02 1.763124999999999831e-01 5.106600000000000250e+01 1.823575000000000159e+02 2.110569999999999709e+03
9.800000000000000377e-02 1.763804999999999956e-01 5.101829999999999643e+01 1.836440000000000055e+02 2.111114999999999782e+03
9.900000000000000466e-02 1.764344999999999941e-01 5.081264999999999787e+01 1.845455000000000041e+02 2.111559999999999945e+03
1.000000000000000056e-01 1.764745000000000064e-01 5.045610000000000639e+01 1.850805000000000007e+02 2.111890000000000327e+03
1.010000000000000064e-01 1.765019999999999922e-01 4.995949999999999847e+01 1.852769999999999868e+02 2.112119999999999891e+03
1.020000000000000073e-01 1.765174999999999939e-01 4.933735000000000070e+01 1.851725000000000136e+02 2.112255000000000109e+03
1.030000000000000082e-01 1.765214999999999979e-01 4.860694999999999766e+01 1.848079999999999927e+02 2.112300000000000182e+03
1.040000000000000091e-01 1.765164999999999929e-01 4.778790000000000049e+01 1.842315000000000111e+02 2.112269999999999982e+03
1.050000000000000100e-01 1.765034999999999799e-01 4.690064999999999884e+01 1.834925000000000068e+02 2.112175000000000182e+03
1.059999999999999970e-01 1.764840000000000020e-01 4.596630000000000393e+01 1.826374999999999886e+02 2.112025000000000091e+03
1.069999999999999979e-01 1.764594999999999914e-01 4.500515000000000043e+01 1.817139999999999986e+02 2.111840000000000146e+03
1.079999999999999988e-01 1.764319999999999777e-01 4.403610000000000468e+01 1.807624999999999886e+02 2.111625000000000000e+03
1.089999999999999997e-01 1.764030000000000042e-01 4.307600000000000051e+01 1.798195000000000050e+02 2.111394999999999982e+03
1.100000000000000006e-01 1.763724999999999876e-01 4.213899999999999579e+01 1.789124999999999943e+02 2.111159999999999854e+03
1.110000000000000014e-01 1.763429999999999997e-01 4.123600000000000421e+01 1.780625000000000000e+02 2.110925000000000182e+03
1.120000000000000023e-01 1.763144999999999851e-01 4.037470000000000425e+01 1.772810000000000059e+02 2.110699999999999818e+03
1.130000000000000032e-01 1.762880000000000003e-01 3.955910000000000082e+01 1.765730000000000075e+02 2.110480000000000018e+03
1.140000000000000041e-01 1.762630000000000030e-01 3.878990000000000293e+01 1.759335000000000093e+02 2.110279999999999745e+03
1.150000000000000050e-01 1.762394999999999934e-01 3.806445000000000078e+01 1.753514999999999873e+02 2.110095000000000255e+03
1.160000000000000059e-01 1.762174999999999991e-01 3.737730000000000530e+01 1.748104999999999905e+02 2.109920000000000073e+03
1.170000000000000068e-01 1.761969999999999925e-01 3.672050000000000125e+01 1.742869999999999777e+02 2.109750000000000000e+03
1.180000000000000077e-01 1.761765000000000136e-01 3.608445000000000391e+01 1.737560000000000002e+02 2.109585000000000036e+03
1.190000000000000085e-01 1.761560000000000070e-01 3.545810000000000173e+01 1.731899999999999977e+02 2.109420000000000073e+03
1.200000000000000094e-01 1.761330000000000118e-01 3.483020000000000493e+01 1.725610000000000070e+02 2.109239999999999782e+03
1.209999999999999964e-01 1.761089999999999878e-01 3.418949999999999534e+01 1.718435000000000059e+02 2.109045000000000073e+03
1.219999999999999973e-01 1.760809999999999875e-01 3.352579999999999671e+01 1.710140000000000100e+02 2.108824999999999818e+03
1.229999999999999982e-01 1.760499999999999843e-01 3.283019999999999783e+01 1.700539999999999736e+02 2.108574999999999818e+03
1.239999999999999991e-01 1.760140000000000038e-01 3.209604999999999819e+01 1.689515000000000100e+02 2.108289999999999964e+03
1.250000000000000000e-01 1.759735000000000049e-01 3.131905000000000072e+01 1.677004999999999768e+02 2.107974999999999909e+03
1.260000000000000009e-01 1.759280000000000010e-01 3.049770000000000181e+01 1.663004999999999995e+02 2.107614999999999782e+03
1.270000000000000018e-01 1.758775000000000199e-01 2.963340000000000174e+01 1.647615000000000123e+02 2.107215000000000146e+03
1.280000000000000027e-01 1.758220000000000061e-01 2.873039999999999949e+01 1.630969999999999800e+02 2.106784999999999854e+03
1.290000000000000036e-01 1.757624999999999882e-01 2.779579999999999984e+01 1.613299999999999841e+02 2.106315000000000055e+03
1.300000000000000044e-01 1.756995000000000084e-01 2.683905000000000030e+01 1.594875000000000114e+02 2.105819999999999709e+03
1.310000000000000053e-01 1.756334999999999980e-01 2.587144999999999939e+01 1.576014999999999873e+02 2.105300000000000182e+03
1.320000000000000062e-01 1.755659999999999998e-01 2.490595000000000070e+01 1.557044999999999959e+02 2.104769999999999982e+03
1.330000000000000071e-01 1.754979999999999873e-01 2.395615000000000094e+01 1.538335000000000150e+02 2.104234999999999673e+03
1.340000000000000080e-01 1.754310000000000036e-01 2.303575000000000017e+01 1.520230000000000246e+02 2.103704999999999927e+03
1.350000000000000089e-01 1.753655000000000075e-01 2.215804999999999936e+01 1.503050000000000068e+02 2.103184999999999945e+03
1.360000000000000098e-01 1.753035000000000010e-01 2.133494999999999919e+01 1.487090000000000032e+02 2.102694999999999709e+03
1.370000000000000107e-01 1.752449999999999841e-01 2.057695000000000007e+01 1.472579999999999814e+02 2.102230000000000018e+03
1.380000000000000115e-01 1.751909999999999856e-01 1.989220000000000255e+01 1.459714999999999918e+02 2.101805000000000291e+03
1.390000000000000124e-01 1.751429999999999931e-01 1.928654999999999831e+01 1.448605000000000018e+02 2.101420000000000073e+03
1.400000000000000133e-01 1.751004999999999923e-01 1.876340000000000074e+01 1.439304999999999950e+02 2.101079999999999927e+03
1.410000000000000142e-01 1.750639999999999974e-01 1.832330000000000325e+01 1.431804999999999950e+02 2.100784999999999854e+03
1.420000000000000151e-01 1.750339999999999951e-01 1.796455000000000268e+01 1.426039999999999850e+02 2.100545000000000073e+03
1.430000000000000160e-01 1.750094999999999845e-01 1.768314999999999770e+01 1.421885000000000048e+02 2.100349999999999909e+03
1.440000000000000169e-01 1.749910000000000077e-01 1.747319999999999851e+01 1.419174999999999898e+02 2.100194999999999709e+03
1.450000000000000178e-01 1.749775000000000080e-01 1.732724999999999937e+01 1.417724999999999795e+02 2.100085000000000036e+03
1.459999999999999909e-01 1.749684999999999990e-01 1.723669999999999902e+01 1.417325000000000159e+02 2.100000000000000000e+03
1.469999999999999918e-01 1.749629999999999797e-01 1.719229999999999947e+01 1.417750000000000057e+02 2.099960000000000036e+03
1.479999999999999927e-01 1.749614999999999920e-01 1.718455000000000155e+01 1.418790000000000191e+02 2.099940000000000055e+03
1.489999999999999936e-01 1.749614999999999920e-01 1.720404999999999873e+01 1.420235000000000127e+02 2.099934999999999945e+03
1.499999999999999944e-01 1.749640000000000084e-01 1.724179999999999779e+01 1.421895000000000095e+02 2.099949999999999818e+03
1.509999999999999953e-01 1.749669999999999837e-01 1.728965000000000174e+01 1.423609999999999900e+02 2.099975000000000364e+03
1.519999999999999962e-01 1.749715000000000020e-01 1.734029999999999916e+01 1.425229999999999961e+02 2.100005000000000109e+03
1.529999999999999971e-01 1.749749999999999917e-01 1.738770000000000238e+01 1.426655000000000086e+02 2.100029999999999745e+03
1.539999999999999980e-01 1.749784999999999813e-01 1.742685000000000173e+01 1.427805000000000177e+02 2.100059999999999945e+03
1.549999999999999989e-01 1.749815000000000120e-01 1.745420000000000016e+01 1.428625000000000114e+02 2.100085000000000036e+03
1.559999999999999998e-01 1.749835000000000140e-01 1.746750000000000114e+01 1.429094999999999800e+02 2.100099999999999909e+03
1.570000000000000007e-01 1.749844999999999873e-01 1.746555000000000035e+01 1.429220000000000255e+02 2.100110000000000127e+03
1.580000000000000016e-01 1.749850000000000017e-01 1.744839999999999947e+01 1.429039999999999964e+02 2.100109999999999673e+03
1.590000000000000024e-01 1.749844999999999873e-01 1.741709999999999781e+01 1.428580000000000041e+02 2.100105000000000018e+03
