# t [s], A [cm^2], U [cm/s], P [cPa], c [cm/s]
1.000000000000000021e-03 7.103059999999999929e-01 7.661500000000001642e-03 1.086370000000000005e+02 1.812139999999999873e+03
2.000000000000000042e-03 7.102960000000000385e-01 2.839599999999999416e-03 1.086030000000000086e+02 1.812135000000000218e+03
3.000000000000000062e-03 7.103710000000000857e-01 1.392114999999999880e-01 1.087719999999999914e+02 1.812164999999999964e+03
4.000000000000000083e-03 7.104040000000000354e-01 2.233687999999999785e-01 1.088760000000000048e+02 1.812190000000000055e+03
5.000000000000000104e-03 7.103334999999999511e-01 1.320714999999999806e-01 1.086694999999999993e+02 1.812144999999999982e+03
6.000000000000000125e-03 7.102539999999999409e-01 1.608949999999997882e-02 1.083185000000000002e+02 1.812085000000000036e+03
7.000000000000000146e-03 7.101669999999999927e-01 -1.285849999999999493e-01 1.078605000000000018e+02 1.811994999999999891e+03
8.000000000000000167e-03 7.100035000000000096e-01 -4.329899999999999860e-01 1.071099999999999994e+02 1.811855000000000018e+03
9.000000000000001055e-03 7.097590000000000288e-01 -9.054449999999999443e-01 1.059960000000000093e+02 1.811650000000000091e+03
1.000000000000000194e-02 7.094129999999999603e-01 -1.569690000000000030e+00 1.044283000000000072e+02 1.811349999999999909e+03
1.099999999999999936e-02 7.089434999999999487e-01 -2.444080000000000030e+00 1.023100000000000023e+02 1.810949999999999818e+03
1.200000000000000025e-02 7.083994999999999598e-01 -3.407480000000000064e+00 9.974459999999999127e+01 1.810449999999999818e+03
1.300000000000000114e-02 7.078889999999999905e-01 -4.220775500000000235e+00 9.706254999999998745e+01 1.809905000000000200e+03
1.400000000000000203e-02 7.074959999999999027e-01 -4.676661000000000179e+00 9.462760000000000105e+01 1.809380000000000109e+03
1.499999999999999944e-02 7.072359999999999758e-01 -4.706164999999999488e+00 9.263820000000001187e+01 1.808920000000000073e+03
1.600000000000000033e-02 7.070585000000000342e-01 -4.380584999999999951e+00 9.106735000000000468e+01 1.808534999999999854e+03
1.700000000000000122e-02 7.068879999999999608e-01 -3.848060000000000258e+00 8.972370000000000800e+01 1.808179999999999836e+03
1.800000000000000211e-02 7.066589999999999261e-01 -3.255439500000000042e+00 8.836570000000000391e+01 1.807829999999999927e+03
1.900000000000000300e-02 7.063450000000000006e-01 -2.688200999999999841e+00 8.681550000000000011e+01 1.807450000000000045e+03
2.000000000000000042e-02 7.059599999999999209e-01 -2.148475000000000357e+00 8.502514999999999645e+01 1.807025000000000091e+03
2.100000000000000130e-02 7.055460000000000065e-01 -1.577519999999999811e+00 8.307219999999999516e+01 1.806569999999999936e+03
2.200000000000000219e-02 7.051475000000000382e-01 -9.067599999999997884e-01 8.109370000000001255e+01 1.806105000000000018e+03
2.299999999999999961e-02 7.047845000000000359e-01 -1.078149999999999942e-01 7.920045000000000357e+01 1.805654999999999973e+03
2.400000000000000050e-02 7.044475000000000042e-01 7.811400000000001675e-01 7.741384999999999650e+01 1.805215000000000146e+03
2.500000000000000139e-02 7.040980000000000016e-01 1.658410000000000162e+00 7.564625000000000909e+01 1.804784999999999854e+03
2.600000000000000228e-02 7.036835000000000173e-01 2.385205000000000020e+00 7.372329999999999472e+01 1.804324999999999818e+03
2.700000000000000316e-02 7.031540000000000568e-01 2.824969999999999981e+00 7.143919999999999959e+01 1.803809999999999945e+03
2.800000000000000058e-02 7.024820000000000508e-01 2.884209999999999940e+00 6.862624999999999886e+01 1.803195000000000164e+03
2.900000000000000147e-02 7.016694999999999460e-01 2.541475000000000151e+00 6.521729999999999450e+01 1.802470000000000027e+03
3.000000000000000236e-02 7.007550000000000168e-01 1.853740000000000165e+00 6.127734999999999843e+01 1.801650000000000091e+03
3.099999999999999978e-02 6.997975000000000723e-01 9.377750000000002473e-01 5.699349999999999739e+01 1.800750000000000000e+03
3.200000000000000067e-02 6.988634999999999708e-01 -6.360000000000010090e-02 5.262989999999999924e+01 1.799824999999999818e+03
3.300000000000000155e-02 6.980135000000000645e-01 -1.015249999999999986e+00 4.846970000000000312e+01 1.798924999999999955e+03
3.400000000000000244e-02 6.972914999999999530e-01 -1.813045000000000240e+00 4.476370000000000005e+01 1.798099999999999909e+03
3.500000000000000333e-02 6.967205000000000759e-01 -2.392895000000000216e+00 4.169735000000000014e+01 1.797389999999999873e+03
3.600000000000000422e-02 6.963084999999999969e-01 -2.728095000000000159e+00 3.937879999999999825e+01 1.796824999999999818e+03
3.700000000000000511e-02 6.960509999999999753e-01 -2.818703499999999806e+00 3.784510000000000218e+01 1.796414999999999964e+03
3.799999999999999906e-02 6.959370000000000278e-01 -2.678085000000000271e+00 3.708039999999999736e+01 1.796170000000000073e+03
3.899999999999999994e-02 6.959564999999999779e-01 -2.320629999999999971e+00 3.703889999999999816e+01 1.796079999999999927e+03
4.000000000000000083e-02 6.960990000000000233e-01 -1.754006500000000024e+00 3.766655000000000086e+01 1.796139999999999873e+03
4.100000000000000172e-02 6.963584999999999914e-01 -9.776149999999999007e-01 3.891344999999999743e+01 1.796339999999999918e+03
4.200000000000000261e-02 6.967320000000000180e-01 1.344000000000011852e-02 4.073774999999999835e+01 1.796670000000000073e+03
4.300000000000000350e-02 6.972140000000000004e-01 1.221249999999999947e+00 4.310070000000000334e+01 1.797119999999999891e+03
4.400000000000000439e-02 6.977955000000000130e-01 2.638059999999999850e+00 4.595735000000000525e+01 1.797680000000000064e+03
4.499999999999999833e-02 6.984635000000000149e-01 4.241939999999999600e+00 4.924884999999999735e+01 1.798349999999999909e+03
4.599999999999999922e-02 6.991985000000000561e-01 5.996290000000000120e+00 5.289809999999999945e+01 1.799095000000000027e+03
4.700000000000000011e-02 6.999800000000000466e-01 7.852516500000000121e+00 5.681080000000000041e+01 1.799909999999999854e+03
4.800000000000000100e-02 7.007829999999999337e-01 9.755770000000000053e+00 6.088134999999999764e+01 1.800769999999999982e+03
4.900000000000000189e-02 7.015854999999999730e-01 1.165072499999999955e+01 6.500204999999999700e+01 1.801654999999999973e+03
5.000000000000000278e-02 7.023684999999999512e-01 1.348771499999999968e+01 6.907255000000000678e+01 1.802545000000000073e+03
5.100000000000000366e-02 7.031175000000000619e-01 1.522662000000000049e+01 7.300910000000000366e+01 1.803414999999999964e+03
5.200000000000000455e-02 7.038234999999999353e-01 1.683919999999999817e+01 7.675000000000000000e+01 1.804259999999999991e+03
5.300000000000000544e-02 7.044825000000000115e-01 1.830934999999999846e+01 8.025839999999999463e+01 1.805059999999999945e+03
5.399999999999999939e-02 7.050954999999999862e-01 1.963204999999999956e+01 8.352190000000000225e+01 1.805815000000000055e+03
5.500000000000000028e-02 7.056670000000000442e-01 2.081094999999999828e+01 8.654935000000000400e+01 1.806525000000000091e+03
5.600000000000000117e-02 7.062040000000000539e-01 2.185649999999999693e+01 8.936655000000000371e+01 1.807190000000000055e+03
5.700000000000000205e-02 7.067139999999999533e-01 2.278345000000000198e+01 9.201104999999999734e+01 1.807819999999999936e+03
5.800000000000000294e-02 7.072069999999999190e-01 2.360929999999999751e+01 9.452700000000000102e+01 1.808414999999999964e+03
5.900000000000000383e-02 7.076910000000000700e-01 2.435219999999999985e+01 9.696110000000000184e+01 1.808994999999999891e+03
6.000000000000000472e-02 7.081735000000000113e-01 2.502944999999999709e+01 9.935564999999999714e+01 1.809559999999999945e+03
6.099999999999999867e-02 7.086609999999999854e-01 2.565590000000000259e+01 1.017469999999999999e+02 1.810119999999999891e+03
6.199999999999999956e-02 7.091564999999999674e-01 2.624255000000000138e+01 1.041604999999999990e+02 1.810684999999999945e+03
6.300000000000000044e-02 7.096614999999999451e-01 2.679554999999999865e+01 1.066090000000000089e+02 1.811255000000000109e+03
6.400000000000000133e-02 7.101735000000000131e-01 2.731589999999999918e+01 1.090895000000000010e+02 1.811829999999999927e+03
6.500000000000000222e-02 7.106869999999999576e-01 2.779919999999999902e+01 1.115870000000000033e+02 1.812404999999999973e+03
6.600000000000000311e-02 7.111959999999999393e-01 2.823724999999999952e+01 1.140720000000000027e+02 1.812980000000000018e+03
6.700000000000000400e-02 7.116925000000000612e-01 2.861860000000000070e+01 1.165090000000000003e+02 1.813545000000000073e+03
6.800000000000000488e-02 7.121669999999999945e-01 2.893045000000000044e+01 1.188534999999999968e+02 1.814090000000000146e+03
6.900000000000000577e-02 7.126109999999999944e-01 2.916019999999999968e+01 1.210635000000000048e+02 1.814610000000000127e+03
7.000000000000000666e-02 7.130164999999999420e-01 2.929614999999999725e+01 1.230960000000000036e+02 1.815095000000000027e+03
7.100000000000000755e-02 7.133780000000000676e-01 2.932910000000000039e+01 1.249159999999999968e+02 1.815534999999999854e+03
7.200000000000000844e-02 7.136895000000000877e-01 2.925244999999999962e+01 1.264929999999999950e+02 1.815920000000000073e+03
7.300000000000000933e-02 7.139474999999999572e-01 2.906264999999999787e+01 1.278079999999999927e+02 1.816255000000000109e+03
7.399999999999999634e-02 7.141515000000000502e-01 2.875935000000000130e+01 1.288485000000000014e+02 1.816530000000000200e+03
7.499999999999999722e-02 7.143014999999999226e-01 2.834564999999999912e+01 1.296129999999999995e+02 1.816744999999999891e+03
7.599999999999999811e-02 7.143984999999999363e-01 2.782755000000000223e+01 1.301080000000000041e+02 1.816894999999999982e+03
7.699999999999999900e-02 7.144475000000000131e-01 2.721434999999999960e+01 1.303489999999999895e+02 1.816994999999999891e+03
7.799999999999999989e-02 7.144520000000000870e-01 2.651794999999999902e+01 1.303575000000000159e+02 1.817029999999999973e+03
7.900000000000000078e-02 7.144179999999999975e-01 2.575280000000000058e+01 1.301614999999999895e+02 1.817025000000000091e+03
8.000000000000000167e-02 7.143534999999999746e-01 2.493515000000000015e+01 1.297964999999999804e+02 1.816974999999999909e+03
8.100000000000000255e-02 7.142644999999999689e-01 2.408254999999999768e+01 1.292965000000000089e+02 1.816894999999999982e+03
8.200000000000000344e-02 7.141584999999999184e-01 2.321269999999999811e+01 1.287005000000000052e+02 1.816785000000000082e+03
8.300000000000000433e-02 7.140435000000000532e-01 2.234294999999999831e+01 1.280450000000000159e+02 1.816654999999999973e+03
8.400000000000000522e-02 7.139254999999999907e-01 2.148920000000000030e+01 1.273650000000000091e+02 1.816514999999999873e+03
8.500000000000000611e-02 7.138094999999999857e-01 2.066494999999999749e+01 1.266914999999999907e+02 1.816375000000000000e+03
8.600000000000000699e-02 7.137000000000000011e-01 1.988074999999999903e+01 1.260485000000000042e+02 1.816235000000000127e+03
8.700000000000000788e-02 7.136005000000000820e-01 1.914379999999999882e+01 1.254534999999999911e+02 1.816099999999999909e+03
8.800000000000000877e-02 7.135110000000000063e-01 1.845734999999999815e+01 1.249165000000000134e+02 1.815974999999999909e+03
8.899999999999999578e-02 7.134329999999999838e-01 1.782144999999999868e+01 1.244410000000000025e+02 1.815865000000000009e+03
8.999999999999999667e-02 7.133629999999999693e-01 1.723245000000000005e+01 1.240224999999999937e+02 1.815755000000000109e+03
9.099999999999999756e-02 7.133000000000000451e-01 1.668410000000000082e+01 1.236484999999999985e+02 1.815664999999999964e+03
9.199999999999999845e-02 7.132389999999999564e-01 1.616769999999999996e+01 1.233050000000000068e+02 1.815579999999999927e+03
9.299999999999999933e-02 7.131769999999999499e-01 1.567314999999999969e+01 1.229710000000000036e+02 1.815494999999999891e+03
9.400000000000000022e-02 7.131095000000000628e-01 1.518925000000000125e+01 1.226250000000000000e+02 1.815409999999999854e+03
9.500000000000000111e-02 7.130319999999999991e-01 1.470490000000000030e+01 1.222459999999999951e+02 1.815319999999999936e+03
9.600000000000000200e-02 7.129404999999999770e-01 1.420929999999999893e+01 1.218119999999999976e+02 1.815220000000000027e+03
9.700000000000000289e-02 7.128324999999999800e-01 1.369310000000000116e+01 1.213050000000000068e+02 1.815110000000000127e+03
9.800000000000000377e-02 7.127044999999999630e-01 1.314876999999999896e+01 1.207104999999999961e+02 1.814980000000000018e+03
9.900000000000000466e-02 7.125565000000000371e-01 1.257100999999999935e+01 1.200180000000000007e+02 1.814829999999999927e+03
1.000000000000000056e-01 7.123874999999999513e-01 1.195744000000000007e+01 1.192245000000000061e+02 1.814654999999999973e+03
1.010000000000000064e-01 7.121990000000000265e-01 1.130862999999999907e+01 1.183319999999999936e+02 1.814464999999999918e+03
1.020000000000000073e-01 7.119929999999999870e-01 1.062830500000000100e+01 1.173495000000000061e+02 1.814255000000000109e+03
1.030000000000000082e-01 7.117740000000000178e-01 9.923049999999999926e+00 1.162920000000000016e+02 1.814019999999999982e+03
1.040000000000000091e-01 7.115460000000000118e-01 9.201909999999999812e+00 1.151790000000000020e+02 1.813785000000000082e+03
1.050000000000000100e-01 7.113145000000000717e-01 8.476160000000000139e+00 1.140365000000000038e+02 1.813530000000000200e+03
1.059999999999999970e-01 7.110849999999999671e-01 7.758390000000000342e+00 1.128909999999999911e+02 1.813280000000000200e+03
1.069999999999999979e-01 7.108634999999999815e-01 7.061775000000000801e+00 1.117719999999999914e+02 1.813030000000000200e+03
1.079999999999999988e-01 7.106559999999999544e-01 6.399649999999999395e+00 1.107090000000000032e+02 1.812789999999999964e+03
1.089999999999999997e-01 7.104669999999999597e-01 5.784330000000000638e+00 1.097274999999999920e+02 1.812559999999999945e+03
1.100000000000000006e-01 7.103019999999999889e-01 5.226725000000000065e+00 1.088530000000000086e+02 1.812355000000000018e+03
1.110000000000000014e-01 7.101625000000000298e-01 4.735669999999999824e+00 1.081034999999999968e+02 1.812175000000000182e+03
1.120000000000000023e-01 7.100524999999999753e-01 4.317484999999999573e+00 1.074935000000000116e+02 1.812025000000000091e+03
1.130000000000000032e-01 7.099714999999999776e-01 3.975735000000000241e+00 1.070300000000000011e+02 1.811904999999999973e+03
1.140000000000000041e-01 7.099199999999999955e-01 3.711135000000000073e+00 1.067150000000000034e+02 1.811815000000000055e+03
1.150000000000000050e-01 7.098955000000000126e-01 3.521630000000000038e+00 1.065424999999999898e+02 1.811755000000000109e+03
1.160000000000000059e-01 7.098970000000000002e-01 3.402664999999999829e+00 1.065030000000000001e+02 1.811724999999999909e+03
1.170000000000000068e-01 7.099195000000000366e-01 3.347560000000000091e+00 1.065819999999999936e+02 1.811720000000000027e+03
1.180000000000000077e-01 7.099604999999999944e-01 3.347974999999999923e+00 1.067609999999999957e+02 1.811744999999999891e+03
1.190000000000000085e-01 7.100150000000000627e-01 3.394445000000000157e+00 1.070180000000000007e+02 1.811779999999999973e+03
1.200000000000000094e-01 7.100785000000000569e-01 3.476879999999999971e+00 1.073329999999999984e+02 1.811839999999999918e+03
1.209999999999999964e-01 7.101474999999999316e-01 3.585099999999999731e+00 1.076839999999999975e+02 1.811904999999999973e+03
1.219999999999999973e-01 7.102174999999999461e-01 3.709245000000000125e+00 1.080509999999999877e+02 1.811969999999999800e+03
1.229999999999999982e-01 7.102859999999999729e-01 3.840149999999999508e+00 1.084145000000000039e+02 1.812050000000000182e+03
1.239999999999999991e-01 7.103494999999999671e-01 3.969640000000000057e+00 1.087599999999999909e+02 1.812119999999999891e+03
1.250000000000000000e-01 7.104059999999999819e-01 4.090740000000000265e+00 1.090745000000000005e+02 1.812184999999999945e+03
1.260000000000000009e-01 7.104539999999999189e-01 4.197779999999999845e+00 1.093479999999999990e+02 1.812244999999999891e+03
1.270000000000000018e-01 7.104920000000000124e-01 4.286514999999999631e+00 1.095745000000000005e+02 1.812304999999999836e+03
1.280000000000000027e-01 7.105209999999999582e-01 4.354110000000000369e+00 1.097510000000000048e+02 1.812340000000000146e+03
1.290000000000000036e-01 7.105395000000001016e-01 4.399100000000000676e+00 1.098770000000000095e+02 1.812380000000000109e+03
1.300000000000000044e-01 7.105500000000000149e-01 4.421310000000000073e+00 1.099544999999999959e+02 1.812400000000000091e+03
1.310000000000000053e-01 7.105520000000000724e-01 4.421755000000000102e+00 1.099885000000000019e+02 1.812414999999999964e+03
1.320000000000000062e-01 7.105474999999999985e-01 4.402445000000000164e+00 1.099849999999999994e+02 1.812414999999999964e+03
1.330000000000000071e-01 7.105380000000000029e-01 4.366200000000000081e+00 1.099509999999999934e+02 1.812414999999999964e+03
1.340000000000000080e-01 7.105250000000000732e-01 4.316415000000000113e+00 1.098944999999999936e+02 1.812409999999999854e+03
1.350000000000000089e-01 7.105105000000000448e-01 4.256835000000000591e+00 1.098239999999999981e+02 1.812394999999999982e+03
1.360000000000000098e-01 7.104960000000000164e-01 4.191284999999999705e+00 1.097479999999999905e+02 1.812384999999999991e+03
1.370000000000000107e-01 7.104825000000000168e-01 4.123435000000000628e+00 1.096724999999999994e+02 1.812369999999999891e+03
1.380000000000000115e-01 7.104709999999999637e-01 4.056569999999999787e+00 1.096050000000000040e+02 1.812355000000000018e+03
1.390000000000000124e-01 7.104630000000000667e-01 3.993419999999999970e+00 1.095499999999999972e+02 1.812345000000000027e+03
1.400000000000000133e-01 7.104580000000000339e-01 3.936024999999999885e+00 1.095095000000000027e+02 1.812340000000000146e+03
1.410000000000000142e-01 7.104559999999999764e-01 3.885665000000000369e+00 1.094849999999999994e+02 1.812335000000000036e+03
1.420000000000000151e-01 7.104574999999999640e-01 3.842844999999999622e+00 1.094765000000000015e+02 1.812329999999999927e+03
1.430000000000000160e-01 7.104615000000000791e-01 3.807370000000000143e+00 1.094805000000000064e+02 1.812329999999999927e+03
1.440000000000000169e-01 7.104665000000000008e-01 3.778419999999999668e+00 1.094945000000000022e+02 1.812335000000000036e+03
1.450000000000000178e-01 7.104725000000000623e-01 3.754735000000000156e+00 1.095134999999999934e+02 1.812335000000000036e+03
1.459999999999999909e-01 7.104785000000000128e-01 3.734760000000000524e+00 1.095330000000000013e+02 1.812339999999999918e+03
1.469999999999999918e-01 7.104820000000000579e-01 3.716844999999999732e+00 1.095469999999999970e+02 1.812344999999999800e+03
1.479999999999999927e-01 7.104835000000000456e-01 3.699404999999999610e+00 1.095515000000000043e+02 1.812344999999999800e+03
1.489999999999999936e-01 7.104814999999999880e-01 3.681095000000000006e+00 1.095425000000000040e+02 1.812344999999999800e+03
1.499999999999999944e-01 7.104764999999999553e-01 3.660865000000000258e+00 1.095160000000000053e+02 1.812339999999999918e+03
1.509999999999999953e-01 7.104669999999999597e-01 3.638069999999999915e+00 1.094715000000000060e+02 1.812324999999999818e+03
1.519999999999999962e-01 7.104535000000000711e-01 3.612495000000000012e+00 1.094074999999999989e+02 1.812315000000000055e+03
1.529999999999999971e-01 7.104369999999999852e-01 3.584315000000000140e+00 1.093255000000000052e+02 1.812299999999999955e+03
1.539999999999999980e-01 7.104170000000000762e-01 3.554100000000000037e+00 1.092274999999999920e+02 1.812279999999999973e+03
1.549999999999999989e-01 7.103945000000000398e-01 3.522750000000000270e+00 1.091159999999999997e+02 1.812255000000000109e+03
1.559999999999999998e-01 7.103705000000000158e-01 3.491430000000000256e+00 1.089945000000000022e+02 1.812224999999999909e+03
1.570000000000000007e-01 7.103455000000000741e-01 3.461534999999999584e+00 1.088684999999999974e+02 1.812200000000000045e+03
1.580000000000000016e-01 7.103205000000000213e-01 3.434629999999999850e+00 1.087420000000000044e+02 1.812174999999999955e+03
1.590000000000000024e-01 7.102969999999999562e-01 3.412395000000000067e+00 1.086200000000000045e+02 1.812144999999999982e+03
