# t [s], A [cm^2], U [cm/s], P [cPa], c [cm/s]
1.000000000000000021e-03 7.813790000000000457e-01 4.427149999999997754e-03 1.008605000000000018e+02 1.565920000000000073e+03
2.000000000000000042e-03 7.813669999999999227e-01 -1.711189500000000066e-03 1.008375000000000057e+02 1.565914999999999964e+03
3.000000000000000062e-03 7.814250000000000362e-01 7.602549999999999586e-02 1.009180000000000064e+02 1.565934999999999945e+03
4.000000000000000083e-03 7.814889999999999892e-01 1.692380500000000010e-01 1.010341499999999968e+02 1.565960000000000036e+03
5.000000000000000104e-03 7.814754999999999896e-01 1.658044999999999936e-01 1.010185000000000031e+02 1.565960000000000036e+03
6.000000000000000125e-03 7.814065000000000039e-01 8.502450000000003061e-02 1.008539999999999992e+02 1.565929999999999836e+03
7.000000000000000146e-03 7.813425000000000509e-01 5.101999999999995428e-03 1.006285000000000025e+02 1.565880000000000109e+03
8.000000000000000167e-03 7.812584999999999669e-01 -1.105845000000000300e-01 1.003170000000000073e+02 1.565815000000000055e+03
9.000000000000001055e-03 7.811120000000000285e-01 -3.260099999999999110e-01 9.983389999999999986e+01 1.565710000000000036e+03
1.000000000000000194e-02 7.808939999999999770e-01 -6.539349999999999330e-01 9.913249999999999318e+01 1.565559999999999945e+03
1.099999999999999936e-02 7.805900000000000061e-01 -1.105474999999999985e+00 9.816624999999999091e+01 1.565345000000000027e+03
1.200000000000000025e-02 7.801819999999999311e-01 -1.693119999999999958e+00 9.688120000000000687e+01 1.565065000000000055e+03
1.300000000000000114e-02 7.796830000000000149e-01 -2.381404999999999994e+00 9.528170000000000073e+01 1.564700000000000045e+03
1.400000000000000203e-02 7.791460000000000052e-01 -3.069740000000000357e+00 9.346689999999999543e+01 1.564280000000000200e+03
1.499999999999999944e-02 7.786405000000000687e-01 -3.631439999999999557e+00 9.159890000000000043e+01 1.563825000000000045e+03
1.600000000000000033e-02 7.782139999999999613e-01 -3.968678000000000150e+00 8.983509999999999707e+01 1.563380000000000109e+03
1.700000000000000122e-02 7.778784999999999172e-01 -4.043613500000000194e+00 8.827055000000000007e+01 1.562965000000000146e+03
1.800000000000000211e-02 7.776119999999999699e-01 -3.878012000000000015e+00 8.692005000000000337e+01 1.562585000000000036e+03
1.900000000000000300e-02 7.773730000000000917e-01 -3.532751500000000267e+00 8.573120000000000118e+01 1.562235000000000127e+03
2.000000000000000042e-02 7.771200000000000330e-01 -3.080779499999999782e+00 8.461500000000000909e+01 1.561894999999999982e+03
2.100000000000000130e-02 7.768235000000000001e-01 -2.582826499999999914e+00 8.348160000000000025e+01 1.561549999999999955e+03
2.200000000000000219e-02 7.764725000000000099e-01 -2.071940000000000115e+00 8.226975000000000193e+01 1.561195000000000164e+03
2.299999999999999961e-02 7.760759999999999881e-01 -1.550640000000000018e+00 8.096119999999999095e+01 1.560820000000000164e+03
2.400000000000000050e-02 7.756545000000000245e-01 -1.000290000000000123e+00 7.957724999999999227e+01 1.560420000000000073e+03
2.500000000000000139e-02 7.752304999999999335e-01 -3.979200000000000514e-01 7.816049999999999898e+01 1.560019999999999982e+03
2.600000000000000228e-02 7.748175000000000479e-01 2.671350000000001224e-01 7.675114999999999554e+01 1.559610000000000127e+03
2.700000000000000316e-02 7.744150000000000755e-01 9.826799999999999979e-01 7.536684999999999945e+01 1.559204999999999927e+03
2.800000000000000058e-02 7.740095000000000169e-01 1.711629999999999985e+00 7.399254999999999427e+01 1.558805000000000064e+03
2.900000000000000147e-02 7.735765000000000002e-01 2.397775000000000212e+00 7.258105000000000473e+01 1.558394999999999982e+03
3.000000000000000236e-02 7.730879999999999974e-01 2.976880000000000415e+00 7.106380000000000052e+01 1.557969999999999800e+03
3.099999999999999978e-02 7.725199999999999845e-01 3.390170000000000350e+00 6.936799999999999500e+01 1.557500000000000000e+03
3.200000000000000067e-02 7.718585000000000029e-01 3.597010000000000041e+00 6.743580000000000041e+01 1.556985000000000127e+03
3.300000000000000155e-02 7.711060000000000692e-01 3.583629999999999871e+00 6.524155000000000371e+01 1.556414999999999964e+03
3.400000000000000244e-02 7.702780000000000182e-01 3.366059999999999608e+00 6.280134999999999934e+01 1.555785000000000082e+03
3.500000000000000333e-02 7.694050000000000056e-01 2.986169999999999991e+00 6.017399999999999949e+01 1.555109999999999900e+03
3.600000000000000422e-02 7.685245000000000548e-01 2.503134999999999888e+00 5.745270000000000010e+01 1.554420000000000073e+03
3.700000000000000511e-02 7.676754999999999551e-01 1.982420000000000293e+00 5.475090000000000146e+01 1.553720000000000027e+03
3.799999999999999906e-02 7.668934999999998947e-01 1.485824999999999729e+00 5.218634999999999735e+01 1.553045000000000073e+03
3.899999999999999994e-02 7.662065000000000126e-01 1.064644999999999619e+00 4.986719999999999686e+01 1.552424999999999955e+03
4.000000000000000083e-02 7.656350000000000655e-01 7.563300000000001688e-01 4.788219999999999743e+01 1.551875000000000000e+03
4.100000000000000172e-02 7.651905000000001067e-01 5.843199999999999505e-01 4.629534999999999911e+01 1.551414999999999964e+03
4.200000000000000261e-02 7.648770000000000291e-01 5.605349999999997834e-01 4.514565000000000339e+01 1.551059999999999945e+03
4.300000000000000350e-02 7.646960000000000424e-01 6.890450000000000186e-01 4.445024999999999693e+01 1.550809999999999945e+03
4.400000000000000439e-02 7.646429999999999616e-01 9.698908499999999711e-01 4.420969999999999800e+01 1.550680000000000064e+03
4.499999999999999833e-02 7.647144999999999637e-01 1.402211499999999944e+00 4.441355000000000075e+01 1.550670000000000073e+03
4.599999999999999922e-02 7.649070000000000036e-01 1.985899000000000081e+00 4.504549999999999699e+01 1.550764999999999873e+03
4.700000000000000011e-02 7.652160000000000073e-01 2.721824499999999869e+00 4.608675000000000210e+01 1.550965000000000146e+03
4.800000000000000100e-02 7.656380000000000408e-01 3.610695999999999906e+00 4.751699999999999591e+01 1.551269999999999982e+03
4.900000000000000189e-02 7.661664999999999726e-01 4.651183500000000137e+00 4.931390000000000384e+01 1.551675000000000182e+03
5.000000000000000278e-02 7.667950000000000044e-01 5.837997500000000173e+00 5.145170000000000243e+01 1.552170000000000073e+03
5.100000000000000366e-02 7.675144999999999884e-01 7.160455999999999932e+00 5.389949999999999619e+01 1.552755000000000109e+03
5.200000000000000455e-02 7.683115000000000361e-01 8.601980000000001070e+00 5.662010000000000787e+01 1.553414999999999964e+03
5.300000000000000544e-02 7.691734999999999545e-01 1.014045999999999914e+01 5.956994999999999862e+01 1.554139999999999873e+03
5.399999999999999939e-02 7.700829999999999620e-01 1.174961500000000036e+01 6.270004999999999740e+01 1.554924999999999955e+03
5.500000000000000028e-02 7.710245000000000015e-01 1.340066999999999986e+01 6.595799999999999841e+01 1.555744999999999891e+03
5.600000000000000117e-02 7.719819999999999460e-01 1.506457499999999960e+01 6.929095000000000937e+01 1.556595000000000027e+03
5.700000000000000205e-02 7.729409999999999892e-01 1.671375499999999903e+01 7.264825000000000443e+01 1.557465000000000146e+03
5.800000000000000294e-02 7.738890000000000491e-01 1.832385000000000019e+01 7.598430000000000462e+01 1.558339999999999918e+03
5.900000000000000383e-02 7.748159999999999492e-01 1.987470000000000070e+01 7.926079999999998904e+01 1.559210000000000036e+03
6.000000000000000472e-02 7.757164999999999200e-01 2.135125000000000028e+01 8.244825000000000159e+01 1.560059999999999945e+03
6.099999999999999867e-02 7.765855000000000397e-01 2.274314999999999998e+01 8.552649999999999864e+01 1.560900000000000091e+03
6.199999999999999956e-02 7.774214999999999876e-01 2.404469999999999885e+01 8.848470000000000368e+01 1.561704999999999927e+03
6.300000000000000044e-02 7.782264999999999322e-01 2.525430000000000064e+01 9.132049999999999557e+01 1.562490000000000009e+03
6.400000000000000133e-02 7.790015000000000134e-01 2.637344999999999828e+01 9.403839999999999577e+01 1.563250000000000000e+03
6.500000000000000222e-02 7.797509999999999719e-01 2.740615000000000023e+01 9.664894999999999925e+01 1.563980000000000018e+03
6.600000000000000311e-02 7.804794999999999927e-01 2.835800000000000054e+01 9.916570000000000107e+01 1.564690000000000055e+03
6.700000000000000400e-02 7.811905000000000099e-01 2.923554999999999993e+01 1.016046499999999924e+02 1.565380000000000109e+03
6.800000000000000488e-02 7.818895000000000151e-01 3.004530000000000101e+01 1.039822999999999951e+02 1.566049999999999955e+03
6.900000000000000577e-02 7.825794999999999835e-01 3.079364999999999952e+01 1.063130000000000024e+02 1.566715000000000146e+03
7.000000000000000666e-02 7.832630000000000425e-01 3.148569999999999780e+01 1.086090000000000089e+02 1.567360000000000127e+03
7.100000000000000755e-02 7.839424999999999866e-01 3.212534999999999741e+01 1.108795000000000073e+02 1.568005000000000109e+03
7.200000000000000844e-02 7.846170000000000089e-01 3.271484999999999843e+01 1.131270000000000095e+02 1.568639999999999873e+03
7.300000000000000933e-02 7.852860000000000396e-01 3.325444999999999851e+01 1.153515000000000015e+02 1.569259999999999991e+03
7.399999999999999634e-02 7.859464999999999923e-01 3.374290000000000589e+01 1.175465000000000089e+02 1.569884999999999991e+03
7.499999999999999722e-02 7.865944999999999743e-01 3.417719999999999914e+01 1.197025000000000006e+02 1.570494999999999891e+03
7.599999999999999811e-02 7.872255000000000225e-01 3.455320000000000391e+01 1.218050000000000068e+02 1.571089999999999918e+03
7.699999999999999900e-02 7.878350000000000630e-01 3.486610000000000298e+01 1.238375000000000057e+02 1.571664999999999964e+03
7.799999999999999989e-02 7.884169999999999234e-01 3.511060000000000514e+01 1.257819999999999965e+02 1.572224999999999909e+03
7.900000000000000078e-02 7.889665000000000150e-01 3.528159999999999741e+01 1.276200000000000045e+02 1.572755000000000109e+03
8.000000000000000167e-02 7.894775000000000542e-01 3.537444999999999595e+01 1.293340000000000032e+02 1.573250000000000000e+03
8.100000000000000255e-02 7.899469999999999548e-01 3.538540000000000418e+01 1.309064999999999941e+02 1.573710000000000036e+03
8.200000000000000344e-02 7.903700000000000170e-01 3.531194999999999595e+01 1.323254999999999768e+02 1.574139999999999873e+03
8.300000000000000433e-02 7.907450000000000312e-01 3.515264999999999418e+01 1.335794999999999959e+02 1.574519999999999982e+03
8.400000000000000522e-02 7.910690000000000222e-01 3.490755000000000052e+01 1.346610000000000014e+02 1.574855000000000018e+03
8.500000000000000611e-02 7.913424999999999487e-01 3.457824999999999704e+01 1.355670000000000073e+02 1.575144999999999982e+03
8.600000000000000699e-02 7.915645000000000042e-01 3.416769999999999641e+01 1.362965000000000089e+02 1.575389999999999873e+03
8.700000000000000788e-02 7.917374999999999829e-01 3.368035000000000423e+01 1.368534999999999968e+02 1.575585000000000036e+03
8.800000000000000877e-02 7.918635000000000534e-01 3.312189999999999657e+01 1.372450000000000045e+02 1.575730000000000018e+03
8.899999999999999578e-02 7.919450000000000101e-01 3.249954999999999927e+01 1.374805000000000064e+02 1.575840000000000146e+03
8.999999999999999667e-02 7.919859999999999678e-01 3.182140000000000057e+01 1.375729999999999791e+02 1.575909999999999854e+03
9.099999999999999756e-02 7.919910000000000005e-01 3.109660000000000224e+01 1.375374999999999943e+02 1.575934999999999945e+03
9.199999999999999845e-02 7.919650000000000301e-01 3.033485000000000298e+01 1.373905000000000030e+02 1.575930000000000064e+03
9.299999999999999933e-02 7.919125000000000192e-01 2.954640000000000200e+01 1.371494999999999891e+02 1.575900000000000091e+03
9.400000000000000022e-02 7.918395000000000294e-01 2.874155000000000015e+01 1.368335000000000150e+02 1.575845000000000027e+03
9.500000000000000111e-02 7.917514999999999414e-01 2.793029999999999902e+01 1.364615000000000009e+02 1.575764999999999873e+03
9.600000000000000200e-02 7.916524999999999812e-01 2.712214999999999776e+01 1.360500000000000114e+02 1.575679999999999836e+03
9.700000000000000289e-02 7.915475000000000705e-01 2.632564999999999955e+01 1.356175000000000068e+02 1.575575000000000045e+03
9.800000000000000377e-02 7.914410000000000611e-01 2.554800000000000182e+01 1.351765000000000043e+02 1.575469999999999800e+03
9.900000000000000466e-02 7.913345000000000518e-01 2.479504999999999981e+01 1.347404999999999973e+02 1.575360000000000127e+03
1.000000000000000056e-01 7.912320000000000464e-01 2.407099999999999795e+01 1.343179999999999836e+02 1.575244999999999891e+03
1.010000000000000064e-01 7.911340000000000039e-01 2.337805000000000177e+01 1.339164999999999850e+02 1.575139999999999873e+03
1.020000000000000073e-01 7.910409999999999942e-01 2.271705000000000041e+01 1.335380000000000109e+02 1.575034999999999854e+03
1.030000000000000082e-01 7.909524999999999473e-01 2.208680000000000021e+01 1.331829999999999927e+02 1.574934999999999945e+03
1.040000000000000091e-01 7.908679999999999044e-01 2.148489999999999966e+01 1.328485000000000014e+02 1.574840000000000146e+03
1.050000000000000100e-01 7.907855000000000301e-01 2.090739999999999910e+01 1.325305000000000177e+02 1.574744999999999891e+03
1.059999999999999970e-01 7.907025000000000858e-01 2.034965000000000046e+01 1.322199999999999989e+02 1.574659999999999854e+03
1.069999999999999979e-01 7.906170000000000142e-01 1.980615000000000236e+01 1.319099999999999966e+02 1.574570000000000164e+03
1.079999999999999988e-01 7.905254999999999921e-01 1.927110000000000056e+01 1.315910000000000082e+02 1.574474999999999909e+03
1.089999999999999997e-01 7.904260000000000730e-01 1.873855000000000004e+01 1.312535000000000025e+02 1.574380000000000109e+03
1.100000000000000006e-01 7.903165000000000884e-01 1.820299999999999940e+01 1.308880000000000052e+02 1.574279999999999973e+03
1.110000000000000014e-01 7.901945000000000219e-01 1.765930000000000177e+01 1.304869999999999948e+02 1.574164999999999964e+03
1.120000000000000023e-01 7.900575000000000792e-01 1.710314999999999941e+01 1.300430000000000064e+02 1.574049999999999955e+03
1.130000000000000032e-01 7.899065000000000669e-01 1.653115000000000023e+01 1.295519999999999925e+02 1.573914999999999964e+03
1.140000000000000041e-01 7.897389999999999688e-01 1.594109999999999872e+01 1.290104999999999791e+02 1.573769999999999982e+03
1.150000000000000050e-01 7.895560000000000356e-01 1.533195000000000086e+01 1.284170000000000016e+02 1.573619999999999891e+03
1.160000000000000059e-01 7.893589999999999218e-01 1.470394999999999897e+01 1.277745000000000033e+02 1.573450000000000045e+03
1.170000000000000068e-01 7.891489999999999894e-01 1.405863999999999869e+01 1.270859999999999985e+02 1.573269999999999982e+03
1.180000000000000077e-01 7.889275000000000038e-01 1.339886500000000069e+01 1.263580000000000041e+02 1.573079999999999927e+03
1.190000000000000085e-01 7.886984999999999690e-01 1.272843500000000105e+01 1.255974999999999966e+02 1.572880000000000109e+03
1.200000000000000094e-01 7.884644999999999015e-01 1.205227999999999966e+01 1.248164999999999907e+02 1.572674999999999955e+03
1.209999999999999964e-01 7.882289999999999575e-01 1.137606500000000054e+01 1.240235000000000127e+02 1.572465000000000146e+03
1.219999999999999973e-01 7.879950000000000010e-01 1.070598000000000027e+01 1.232325000000000017e+02 1.572255000000000109e+03
1.229999999999999982e-01 7.877669999999999950e-01 1.004866499999999974e+01 1.224559999999999889e+02 1.572045000000000073e+03
1.239999999999999991e-01 7.875484999999999847e-01 9.410610000000000142e+00 1.217049999999999983e+02 1.571835000000000036e+03
1.250000000000000000e-01 7.873430000000000151e-01 8.798325000000000173e+00 1.209925000000000068e+02 1.571644999999999982e+03
1.260000000000000009e-01 7.871535000000000615e-01 8.217715000000000103e+00 1.203294999999999959e+02 1.571460000000000036e+03
1.270000000000000018e-01 7.869824999999999182e-01 7.674089999999999634e+00 1.197249999999999943e+02 1.571289999999999964e+03
1.280000000000000027e-01 7.868314999999999060e-01 7.171844999999999359e+00 1.191869999999999976e+02 1.571130000000000109e+03
1.290000000000000036e-01 7.867024999999999713e-01 6.714335000000000164e+00 1.187220000000000084e+02 1.570994999999999891e+03
1.300000000000000044e-01 7.865964999999999208e-01 6.303830000000000489e+00 1.183325000000000102e+02 1.570875000000000000e+03
1.310000000000000053e-01 7.865124999999999478e-01 5.941415000000000113e+00 1.180204999999999984e+02 1.570775000000000091e+03
1.320000000000000062e-01 7.864510000000000112e-01 5.626974999999999838e+00 1.177839999999999918e+02 1.570694999999999936e+03
1.330000000000000071e-01 7.864100000000000534e-01 5.359304999999999986e+00 1.176219999999999999e+02 1.570634999999999991e+03
1.340000000000000080e-01 7.863884999999999348e-01 5.136174999999999713e+00 1.175279999999999916e+02 1.570595000000000027e+03
1.350000000000000089e-01 7.863839999999999719e-01 4.954464999999999897e+00 1.174950000000000045e+02 1.570565000000000055e+03
1.360000000000000098e-01 7.863940000000000374e-01 4.810354999999999492e+00 1.175159999999999911e+02 1.570554999999999836e+03
1.370000000000000107e-01 7.864160000000000039e-01 4.699500000000000455e+00 1.175819999999999936e+02 1.570555000000000064e+03
1.380000000000000115e-01 7.864470000000000072e-01 4.617210000000000036e+00 1.176829999999999927e+02 1.570569999999999936e+03
1.390000000000000124e-01 7.864850000000001007e-01 4.558634999999999771e+00 1.178114999999999952e+02 1.570595000000000027e+03
1.400000000000000133e-01 7.865260000000000584e-01 4.518934999999999924e+00 1.179560000000000031e+02 1.570625000000000000e+03
1.410000000000000142e-01 7.865690000000000737e-01 4.493439999999999657e+00 1.181090000000000089e+02 1.570654999999999973e+03
1.420000000000000151e-01 7.866115000000000190e-01 4.477759999999999962e+00 1.182625000000000028e+02 1.570684999999999945e+03
1.430000000000000160e-01 7.866515000000000590e-01 4.467880000000000074e+00 1.184095000000000084e+02 1.570720000000000027e+03
1.440000000000000169e-01 7.866870000000000251e-01 4.460255000000000081e+00 1.185444999999999993e+02 1.570755000000000109e+03
1.450000000000000178e-01 7.867180000000000284e-01 4.451819999999999666e+00 1.186629999999999967e+02 1.570785000000000082e+03
1.459999999999999909e-01 7.867425000000000113e-01 4.440059999999999896e+00 1.187609999999999957e+02 1.570809999999999945e+03
1.469999999999999918e-01 7.867604999999999738e-01 4.422975000000000101e+00 1.188359999999999985e+02 1.570829999999999927e+03
1.479999999999999927e-01 7.867714999999999570e-01 4.399089999999999279e+00 1.188864999999999981e+02 1.570840000000000146e+03
1.489999999999999936e-01 7.867760000000000309e-01 4.367420000000000080e+00 1.189134999999999991e+02 1.570855000000000018e+03
1.499999999999999944e-01 7.867739999999999734e-01 4.327474999999999739e+00 1.189159999999999968e+02 1.570855000000000018e+03
1.509999999999999953e-01 7.867655000000000065e-01 4.279150000000000453e+00 1.188960000000000008e+02 1.570849999999999909e+03
1.519999999999999962e-01 7.867515000000000480e-01 4.222739999999999938e+00 1.188549999999999898e+02 1.570844999999999800e+03
1.529999999999999971e-01 7.867329999999999046e-01 4.158854999999999968e+00 1.187944999999999993e+02 1.570835000000000036e+03
1.539999999999999980e-01 7.867089999999999916e-01 4.088370000000000282e+00 1.187175000000000011e+02 1.570815000000000055e+03
1.549999999999999989e-01 7.866819999999999924e-01 4.012355000000000338e+00 1.186269999999999953e+02 1.570795000000000073e+03
1.559999999999999998e-01 7.866524999999999768e-01 3.932015000000000260e+00 1.185250000000000057e+02 1.570769999999999982e+03
1.570000000000000007e-01 7.866210000000000147e-01 3.848629999999999995e+00 1.184140000000000015e+02 1.570744999999999891e+03
1.580000000000000016e-01 7.865874999999999950e-01 3.763469999999999871e+00 1.182969999999999970e+02 1.570714999999999918e+03
1.590000000000000024e-01 7.865539999999999754e-01 3.677780000000000271e+00 1.181754999999999995e+02 1.570684999999999945e+03
