# t [s], A [cm^2], U [cm/s], P [cPa], c [cm/s]
1.000000000000000021e-03 7.689995000000000580e-01 5.346499999999997088e-03 9.230984999999999729e+01 1.645694999999999936e+03
2.000000000000000042e-03 7.689859999999999474e-01 -3.299489999999999975e-03 9.227819999999999823e+01 1.645690000000000055e+03
3.000000000000000062e-03 7.690544999999999742e-01 1.006361000000000061e-01 9.238884999999999081e+01 1.645715000000000146e+03
4.000000000000000083e-03 7.691110000000001001e-01 2.016694199999999881e-01 9.251040000000000418e+01 1.645750000000000000e+03
5.000000000000000104e-03 7.690690000000000026e-01 1.673242000000000063e-01 9.242950000000000443e+01 1.645730000000000018e+03
6.000000000000000125e-03 7.689799999999999969e-01 5.803099999999999925e-02 9.217629999999999768e+01 1.645674999999999955e+03
7.000000000000000146e-03 7.689040000000000319e-01 -4.199449999999999017e-02 9.186785000000000423e+01 1.645599999999999909e+03
8.000000000000000167e-03 7.687805000000000888e-01 -2.276500000000000190e-01 9.140659999999999741e+01 1.645490000000000009e+03
9.000000000000001055e-03 7.685775000000000245e-01 -5.510000000000000453e-01 9.069939999999999714e+01 1.645324999999999818e+03
1.000000000000000194e-02 7.682960000000000900e-01 -1.007854999999999945e+00 8.971119999999999095e+01 1.645095000000000027e+03
1.099999999999999936e-02 7.679089999999999527e-01 -1.624819999999999931e+00 8.836860000000000070e+01 1.644775000000000091e+03
1.200000000000000025e-02 7.674045000000000449e-01 -2.404329999999999856e+00 8.661924999999999386e+01 1.644360000000000127e+03
1.300000000000000114e-02 7.668325000000000280e-01 -3.245484999999999953e+00 8.455020000000000380e+01 1.643849999999999909e+03
1.400000000000000203e-02 7.662885000000000391e-01 -3.968772499999999592e+00 8.239085000000000036e+01 1.643304999999999836e+03
1.499999999999999944e-02 7.658544999999999936e-01 -4.412674100000000266e+00 8.039785000000000537e+01 1.642775000000000091e+03
1.600000000000000033e-02 7.655549999999999855e-01 -4.506616499999999803e+00 7.873564999999999259e+01 1.642300000000000182e+03
1.700000000000000122e-02 7.653594999999999704e-01 -4.282389999999999475e+00 7.742645000000000266e+01 1.641900000000000091e+03
1.800000000000000211e-02 7.652025000000000077e-01 -3.841334999999999944e+00 7.636905000000000143e+01 1.641554999999999836e+03
1.900000000000000300e-02 7.650174999999999059e-01 -3.305109999999999992e+00 7.539764999999999873e+01 1.641224999999999909e+03
2.000000000000000042e-02 7.647599999999999953e-01 -2.769929999999999559e+00 7.435269999999999868e+01 1.640884999999999991e+03
2.100000000000000130e-02 7.644185000000000008e-01 -2.277950999999999837e+00 7.313819999999999766e+01 1.640509999999999991e+03
2.200000000000000219e-02 7.640154999999999585e-01 -1.814434999999999798e+00 7.174604999999999677e+01 1.640099999999999909e+03
2.299999999999999961e-02 7.635914999999999786e-01 -1.329704999999999915e+00 7.024155000000000371e+01 1.639664999999999964e+03
2.400000000000000050e-02 7.631829999999999448e-01 -7.733800000000001784e-01 6.871969999999998890e+01 1.639215000000000146e+03
2.500000000000000139e-02 7.628085000000000004e-01 -1.244900000000002116e-01 6.725650000000000261e+01 1.638775000000000091e+03
2.600000000000000228e-02 7.624619999999999731e-01 5.931599999999999095e-01 6.587385000000000446e+01 1.638360000000000127e+03
2.700000000000000316e-02 7.621134999999999993e-01 1.312429999999999763e+00 6.452665000000000362e+01 1.637945000000000164e+03
2.800000000000000058e-02 7.617209999999999814e-01 1.937640000000000251e+00 6.311275000000000546e+01 1.637514999999999873e+03
2.900000000000000147e-02 7.612379999999999702e-01 2.367474999999999774e+00 6.149985000000000213e+01 1.637050000000000182e+03
3.000000000000000236e-02 7.606334999999999624e-01 2.520344999999999835e+00 5.956315000000000026e+01 1.636510000000000218e+03
3.099999999999999978e-02 7.598959999999999049e-01 2.355679999999999996e+00 5.722294999999999732e+01 1.635880000000000109e+03
3.200000000000000067e-02 7.590405000000000069e-01 1.884909999999999641e+00 5.447244999999999493e+01 1.635159999999999854e+03
3.300000000000000155e-02 7.581070000000000864e-01 1.168415000000000425e+00 5.138530000000000086e+01 1.634349999999999909e+03
3.400000000000000244e-02 7.571505000000000596e-01 3.002549999999999386e-01 4.810300000000000153e+01 1.633490000000000009e+03
3.500000000000000333e-02 7.562284999999999702e-01 -6.129550000000003607e-01 4.480754999999999910e+01 1.632615000000000009e+03
3.600000000000000422e-02 7.553935000000000510e-01 -1.471520000000000383e+00 4.168909999999999627e+01 1.631764999999999873e+03
3.700000000000000511e-02 7.546835000000000626e-01 -2.196275000000000421e+00 3.891850000000000165e+01 1.630994999999999891e+03
3.799999999999999906e-02 7.541234999999999467e-01 -2.734600000000000364e+00 3.662819999999999965e+01 1.630329999999999927e+03
3.899999999999999994e-02 7.537245000000000195e-01 -3.059675000000000367e+00 3.490364999999999895e+01 1.629799999999999955e+03
4.000000000000000083e-02 7.534849999999999604e-01 -3.165310999999999986e+00 3.378425000000000011e+01 1.629424999999999955e+03
4.100000000000000172e-02 7.533974999999999422e-01 -3.058259999999999756e+00 3.327109999999999701e+01 1.629204999999999927e+03
4.200000000000000261e-02 7.534520000000000106e-01 -2.750449999999999839e+00 3.333914999999999651e+01 1.629134999999999991e+03
4.300000000000000350e-02 7.536380000000000301e-01 -2.252872350000000079e+00 3.394940000000000424e+01 1.629215000000000146e+03
4.400000000000000439e-02 7.539454999999999352e-01 -1.572505000000000264e+00 3.505965000000000487e+01 1.629444999999999936e+03
4.499999999999999833e-02 7.543684999999999974e-01 -7.125300000000001077e-01 3.662955000000000183e+01 1.629795000000000073e+03
4.599999999999999922e-02 7.548995000000000566e-01 3.248950000000001559e-01 3.862199999999999989e+01 1.630264999999999873e+03
4.700000000000000011e-02 7.555309999999999526e-01 1.534545000000000048e+00 4.100050000000000239e+01 1.630855000000000018e+03
4.800000000000000100e-02 7.562530000000000641e-01 2.904565000000000285e+00 4.372455000000000069e+01 1.631539999999999964e+03
4.900000000000000189e-02 7.570514999999999883e-01 4.414419999999999789e+00 4.674625000000000341e+01 1.632309999999999945e+03
5.000000000000000278e-02 7.579089999999999439e-01 6.034715000000000273e+00 5.000844999999999629e+01 1.633150000000000091e+03
5.100000000000000366e-02 7.588064999999999394e-01 7.728968000000000949e+00 5.344544999999999391e+01 1.634055000000000064e+03
5.200000000000000455e-02 7.597229999999999261e-01 9.456843000000000998e+00 5.698614999999999498e+01 1.635000000000000000e+03
5.300000000000000544e-02 7.606384999999999952e-01 1.117759999999999998e+01 6.055825000000000102e+01 1.635965000000000146e+03
5.399999999999999939e-02 7.615365000000000606e-01 1.285383500000000012e+01 6.409404999999999575e+01 1.636929999999999836e+03
5.500000000000000028e-02 7.624029999999999418e-01 1.445401000000000025e+01 6.753489999999999327e+01 1.637884999999999991e+03
5.600000000000000117e-02 7.632280000000000175e-01 1.595424500000000023e+01 7.083509999999999707e+01 1.638809999999999945e+03
5.700000000000000205e-02 7.640065000000000328e-01 1.733910000000000196e+01 7.396395000000001119e+01 1.639704999999999927e+03
5.800000000000000294e-02 7.647390000000000576e-01 1.860099999999999909e+01 7.690604999999999336e+01 1.640550000000000182e+03
5.900000000000000383e-02 7.654250000000000220e-01 1.973939999999999984e+01 7.966055000000000064e+01 1.641355000000000018e+03
6.000000000000000472e-02 7.660715000000000163e-01 2.075925000000000153e+01 8.223859999999999104e+01 1.642115000000000009e+03
6.099999999999999867e-02 7.666844999999999910e-01 2.166975000000000051e+01 8.466110000000000468e+01 1.642835000000000036e+03
6.199999999999999956e-02 7.672710000000000363e-01 2.248295000000000243e+01 8.695529999999999404e+01 1.643519999999999982e+03
6.300000000000000044e-02 7.678405000000000369e-01 2.321235000000000070e+01 8.915234999999999843e+01 1.644179999999999836e+03
6.400000000000000133e-02 7.683990000000000542e-01 2.387215000000000131e+01 9.128419999999999845e+01 1.644809999999999945e+03
6.500000000000000222e-02 7.689559999999999729e-01 2.447615000000000052e+01 9.338114999999999100e+01 1.645434999999999945e+03
6.600000000000000311e-02 7.695155000000000189e-01 2.503650000000000020e+01 9.546934999999999150e+01 1.646055000000000064e+03
6.700000000000000400e-02 7.700819999999999332e-01 2.556305000000000049e+01 9.756884999999999764e+01 1.646670000000000073e+03
6.800000000000000488e-02 7.706570000000000364e-01 2.606279999999999930e+01 9.969245000000000800e+01 1.647295000000000073e+03
6.900000000000000577e-02 7.712410000000000654e-01 2.653875000000000028e+01 1.018435499999999934e+02 1.647920000000000073e+03
7.000000000000000666e-02 7.718309999999999338e-01 2.699045000000000272e+01 1.040155000000000030e+02 1.648550000000000182e+03
7.100000000000000755e-02 7.724210000000000242e-01 2.741375000000000028e+01 1.061959999999999980e+02 1.649179999999999836e+03
7.200000000000000844e-02 7.730049999999999422e-01 2.780140000000000100e+01 1.083605000000000018e+02 1.649809999999999945e+03
7.300000000000000933e-02 7.735739999999999839e-01 2.814414999999999978e+01 1.104834999999999923e+02 1.650425000000000182e+03
7.399999999999999634e-02 7.741204999999999892e-01 2.843135000000000190e+01 1.125319999999999965e+02 1.651025000000000091e+03
7.499999999999999722e-02 7.746355000000000324e-01 2.865214999999999890e+01 1.144735000000000014e+02 1.651599999999999909e+03
7.599999999999999811e-02 7.751114999999999533e-01 2.879650000000000176e+01 1.162764999999999986e+02 1.652139999999999873e+03
7.699999999999999900e-02 7.755404999999999660e-01 2.885555000000000092e+01 1.179124999999999943e+02 1.652634999999999991e+03
7.799999999999999989e-02 7.759179999999999966e-01 2.882280000000000086e+01 1.193574999999999875e+02 1.653079999999999927e+03
7.900000000000000078e-02 7.762394999999999712e-01 2.869395000000000095e+01 1.205929999999999893e+02 1.653470000000000027e+03
8.000000000000000167e-02 7.765029999999999433e-01 2.846755000000000280e+01 1.216080000000000041e+02 1.653800000000000182e+03
8.100000000000000255e-02 7.767079999999999540e-01 2.814470000000000027e+01 1.223979999999999961e+02 1.654070000000000164e+03
8.200000000000000344e-02 7.768565000000000609e-01 2.772935000000000016e+01 1.229650000000000034e+02 1.654275000000000091e+03
8.300000000000000433e-02 7.769504999999999884e-01 2.722789999999999822e+01 1.233179999999999978e+02 1.654420000000000073e+03
8.400000000000000522e-02 7.769945000000000324e-01 2.664905000000000257e+01 1.234705000000000155e+02 1.654509999999999991e+03
8.500000000000000611e-02 7.769935000000000036e-01 2.600345000000000084e+01 1.234429999999999978e+02 1.654545000000000073e+03
8.600000000000000699e-02 7.769535000000000746e-01 2.530335000000000178e+01 1.232590000000000003e+02 1.654535000000000082e+03
8.700000000000000788e-02 7.768825000000000314e-01 2.456214999999999904e+01 1.229435000000000002e+02 1.654480000000000018e+03
8.800000000000000877e-02 7.767870000000000053e-01 2.379375000000000284e+01 1.225254999999999939e+02 1.654394999999999982e+03
8.899999999999999578e-02 7.766740000000000865e-01 2.301239999999999952e+01 1.220335000000000036e+02 1.654280000000000200e+03
8.999999999999999667e-02 7.765515000000000612e-01 2.223144999999999882e+01 1.214960000000000093e+02 1.654154999999999973e+03
9.099999999999999756e-02 7.764250000000000318e-01 2.146359999999999957e+01 1.209385000000000048e+02 1.654009999999999991e+03
9.199999999999999845e-02 7.763010000000000188e-01 2.071979999999999933e+01 1.203864999999999981e+02 1.653865000000000009e+03
9.299999999999999933e-02 7.761839999999999851e-01 2.000900000000000034e+01 1.198590000000000089e+02 1.653724999999999909e+03
9.400000000000000022e-02 7.760770000000000168e-01 1.933784999999999954e+01 1.193719999999999999e+02 1.653585000000000036e+03
9.500000000000000111e-02 7.759825000000000195e-01 1.871044999999999803e+01 1.189369999999999976e+02 1.653460000000000036e+03
9.600000000000000200e-02 7.759015000000000217e-01 1.812829999999999941e+01 1.185594999999999999e+02 1.653339999999999918e+03
9.700000000000000289e-02 7.758344999999999825e-01 1.759035000000000082e+01 1.182404999999999973e+02 1.653244999999999891e+03
9.800000000000000377e-02 7.757789999999999964e-01 1.709325000000000117e+01 1.179780000000000086e+02 1.653160000000000082e+03
9.900000000000000466e-02 7.757330000000000059e-01 1.663170000000000215e+01 1.177630000000000052e+02 1.653079999999999927e+03
1.000000000000000056e-01 7.756929999999999659e-01 1.619865000000000066e+01 1.175850000000000080e+02 1.653025000000000091e+03
1.010000000000000064e-01 7.756564999999999710e-01 1.578604999999999947e+01 1.174314999999999998e+02 1.652965000000000146e+03
1.020000000000000073e-01 7.756195000000000173e-01 1.538514999999999944e+01 1.172870000000000061e+02 1.652914999999999964e+03
1.030000000000000082e-01 7.755769999999999609e-01 1.498689999999999856e+01 1.171359999999999957e+02 1.652869999999999891e+03
1.040000000000000091e-01 7.755259999999999376e-01 1.458249999999999957e+01 1.169634999999999962e+02 1.652809999999999945e+03
1.050000000000000100e-01 7.754635000000000833e-01 1.416394999999999982e+01 1.167555000000000121e+02 1.652750000000000000e+03
1.059999999999999970e-01 7.753864999999999785e-01 1.372439999999999927e+01 1.165000000000000000e+02 1.652679999999999836e+03
1.069999999999999979e-01 7.752934999999999688e-01 1.325835000000000008e+01 1.161875000000000000e+02 1.652589999999999918e+03
1.079999999999999988e-01 7.751829999999999554e-01 1.276227000000000089e+01 1.158129999999999882e+02 1.652490000000000009e+03
1.089999999999999997e-01 7.750550000000000495e-01 1.223445500000000052e+01 1.153735000000000070e+02 1.652375000000000000e+03
1.100000000000000006e-01 7.749114999999999753e-01 1.167544499999999985e+01 1.148704999999999927e+02 1.652240000000000009e+03
1.110000000000000014e-01 7.747534999999999838e-01 1.108781000000000105e+01 1.143094999999999999e+02 1.652085000000000036e+03
1.120000000000000023e-01 7.745839999999999392e-01 1.047615000000000052e+01 1.136999999999999886e+02 1.651924999999999955e+03
1.130000000000000032e-01 7.744074999999999154e-01 9.846819999999999240e+00 1.130550000000000068e+02 1.651755000000000109e+03
1.140000000000000041e-01 7.742275000000000684e-01 9.207650000000001000e+00 1.123890000000000100e+02 1.651575000000000045e+03
1.150000000000000050e-01 7.740495000000000569e-01 8.567524999999999835e+00 1.117194999999999965e+02 1.651389999999999873e+03
1.160000000000000059e-01 7.738784999999999137e-01 7.936125000000000540e+00 1.110655000000000001e+02 1.651210000000000036e+03
1.170000000000000068e-01 7.737184999999999757e-01 7.323109999999999786e+00 1.104449999999999932e+02 1.651034999999999854e+03
1.180000000000000077e-01 7.735745000000000537e-01 6.737955000000000361e+00 1.098764999999999930e+02 1.650869999999999891e+03
1.190000000000000085e-01 7.734505000000000408e-01 6.189434999999999576e+00 1.093760000000000048e+02 1.650720000000000027e+03
1.200000000000000094e-01 7.733505000000000518e-01 5.685119999999999507e+00 1.089569999999999936e+02 1.650599999999999909e+03
1.209999999999999964e-01 7.732755000000000045e-01 5.231110000000000149e+00 1.086320000000000050e+02 1.650494999999999891e+03
1.219999999999999973e-01 7.732284999999999853e-01 4.831780000000000186e+00 1.084074999999999989e+02 1.650420000000000073e+03
1.229999999999999982e-01 7.732080000000000064e-01 4.489620000000000388e+00 1.082865000000000038e+02 1.650365000000000009e+03
1.239999999999999991e-01 7.732155000000000555e-01 4.205189999999999984e+00 1.082694999999999936e+02 1.650345000000000027e+03
1.250000000000000000e-01 7.732479999999999354e-01 3.977170000000000094e+00 1.083524999999999920e+02 1.650349999999999909e+03
1.260000000000000009e-01 7.733034999999999215e-01 3.802534999999999776e+00 1.085264999999999986e+02 1.650385000000000218e+03
1.270000000000000018e-01 7.733794999999999975e-01 3.676745000000000374e+00 1.087829999999999870e+02 1.650434999999999945e+03
1.280000000000000027e-01 7.734714999999999785e-01 3.594060000000000255e+00 1.091080000000000041e+02 1.650509999999999991e+03
1.290000000000000036e-01 7.735754999999999715e-01 3.547820000000000196e+00 1.094869999999999948e+02 1.650599999999999909e+03
1.300000000000000044e-01 7.736879999999999313e-01 3.530820000000000292e+00 1.099044999999999987e+02 1.650704999999999927e+03
1.310000000000000053e-01 7.738045000000000062e-01 3.535610000000000142e+00 1.103449999999999989e+02 1.650819999999999936e+03
1.320000000000000062e-01 7.739219999999999988e-01 3.554784999999999862e+00 1.107930000000000064e+02 1.650930000000000064e+03
1.330000000000000071e-01 7.740359999999999463e-01 3.581269999999999953e+00 1.112344999999999970e+02 1.651049999999999955e+03
1.340000000000000080e-01 7.741439999999999433e-01 3.608520000000000394e+00 1.116569999999999965e+02 1.651164999999999964e+03
1.350000000000000089e-01 7.742430000000000145e-01 3.630720000000000169e+00 1.120480000000000018e+02 1.651275000000000091e+03
1.360000000000000098e-01 7.743309999999999915e-01 3.642875000000000085e+00 1.124004999999999939e+02 1.651375000000000000e+03
1.370000000000000107e-01 7.744064999999999976e-01 3.640934999999999810e+00 1.127059999999999889e+02 1.651465000000000146e+03
1.380000000000000115e-01 7.744685000000000041e-01 3.621809999999999974e+00 1.129604999999999961e+02 1.651545000000000073e+03
1.390000000000000124e-01 7.745170000000000110e-01 3.583384999999999820e+00 1.131610000000000014e+02 1.651605000000000018e+03
1.400000000000000133e-01 7.745515000000000594e-01 3.524499999999999744e+00 1.133069999999999879e+02 1.651650000000000091e+03
1.410000000000000142e-01 7.745720000000000383e-01 3.444900000000000073e+00 1.133990000000000009e+02 1.651690000000000055e+03
1.420000000000000151e-01 7.745804999999998941e-01 3.345134999999999970e+00 1.134405000000000001e+02 1.651710000000000036e+03
1.430000000000000160e-01 7.745770000000000710e-01 3.226519999999999833e+00 1.134339999999999975e+02 1.651714999999999918e+03
1.440000000000000169e-01 7.745630000000000015e-01 3.090969999999999995e+00 1.133840000000000003e+02 1.651710000000000036e+03
1.450000000000000178e-01 7.745405000000000761e-01 2.940890000000000004e+00 1.132969999999999970e+02 1.651695000000000164e+03
1.459999999999999909e-01 7.745100000000000318e-01 2.779065000000000119e+00 1.131779999999999973e+02 1.651670000000000073e+03
1.469999999999999918e-01 7.744739999999999958e-01 2.608495000000000008e+00 1.130335000000000036e+02 1.651639999999999873e+03
1.479999999999999927e-01 7.744340000000000668e-01 2.432249999999999801e+00 1.128684999999999974e+02 1.651599999999999909e+03
1.489999999999999936e-01 7.743904999999999816e-01 2.253330000000000055e+00 1.126895000000000095e+02 1.651555000000000064e+03
1.499999999999999944e-01 7.743444999999999911e-01 2.074564999999999770e+00 1.125004999999999882e+02 1.651505000000000109e+03
1.509999999999999953e-01 7.742985000000000007e-01 1.898460000000000036e+00 1.123054999999999950e+02 1.651454999999999927e+03
1.519999999999999962e-01 7.742515000000000924e-01 1.727143499999999943e+00 1.121084999999999923e+02 1.651404999999999973e+03
1.529999999999999971e-01 7.742050000000000320e-01 1.562276500000000068e+00 1.119114999999999895e+02 1.651345000000000027e+03
1.539999999999999980e-01 7.741584999999999717e-01 1.405041500000000054e+00 1.117150000000000034e+02 1.651295000000000073e+03
1.549999999999999989e-01 7.741119999999999113e-01 1.256124999999999936e+00 1.115194999999999936e+02 1.651240000000000009e+03
1.559999999999999998e-01 7.740659999999999208e-01 1.115757499999999958e+00 1.113250000000000028e+02 1.651184999999999945e+03
1.570000000000000007e-01 7.740194999999999714e-01 9.837755000000000249e-01 1.111290000000000049e+02 1.651130000000000109e+03
1.580000000000000016e-01 7.739709999999999646e-01 8.596930000000000405e-01 1.109309999999999974e+02 1.651070000000000164e+03
1.590000000000000024e-01 7.739210000000000811e-01 7.427993499999999694e-01 1.107270000000000039e+02 1.651015000000000100e+03
