# t [s], A [cm^2], U [cm/s], P [cPa], c [cm/s]
1.000000000000000021e-03 1.964154999999999929e-01 3.697343500000000449e-01 9.863134999999999764e+01 2.205710000000000036e+03
2.000000000000000042e-03 1.963554999999999884e-01 1.972692000000000112e+00 9.487930000000000064e+01 2.205204999999999927e+03
3.000000000000000062e-03 1.962045000000000039e-01 3.944223000000000035e+00 8.970185000000000741e+01 2.203994999999999891e+03
4.000000000000000083e-03 1.960069999999999868e-01 6.172831000000000401e+00 8.428719999999999857e+01 2.202434999999999945e+03
5.000000000000000104e-03 1.958030000000000048e-01 8.552255000000000607e+00 7.965874999999999773e+01 2.200835000000000036e+03
6.000000000000000125e-03 1.956110000000000071e-01 1.082768499999999889e+01 7.593250000000000455e+01 2.199350000000000364e+03
7.000000000000000146e-03 1.954325000000000090e-01 1.276808999999999905e+01 7.267109999999999559e+01 2.198005000000000109e+03
8.000000000000000167e-03 1.952725000000000155e-01 1.435857999999999990e+01 6.974729999999999563e+01 2.196815000000000055e+03
9.000000000000001055e-03 1.951364999999999905e-01 1.566185000000000116e+01 6.731239999999999668e+01 2.195815000000000055e+03
1.000000000000000194e-02 1.950244999999999895e-01 1.670410000000000039e+01 6.539419999999999789e+01 2.195005000000000109e+03
1.099999999999999936e-02 1.949359999999999982e-01 1.750370000000000203e+01 6.392444999999999311e+01 2.194369999999999891e+03
1.200000000000000025e-02 1.948670000000000124e-01 1.806879999999999953e+01 6.278815000000000168e+01 2.193889999999999873e+03
1.300000000000000114e-02 1.948114999999999986e-01 1.840229999999999677e+01 6.181640000000000157e+01 2.193500000000000000e+03
1.400000000000000203e-02 1.947654999999999803e-01 1.856974999999999909e+01 6.096500000000000341e+01 2.193185000000000400e+03
1.499999999999999944e-02 1.947339999999999904e-01 1.873949999999999960e+01 6.051765000000000327e+01 2.192980000000000018e+03
1.600000000000000033e-02 1.947300000000000142e-01 1.911404999999999887e+01 6.099085000000000178e+01 2.192965000000000146e+03
1.700000000000000122e-02 1.947659999999999947e-01 1.980444999999999922e+01 6.276444999999999652e+01 2.193230000000000018e+03
1.800000000000000211e-02 1.948420000000000152e-01 2.075294999999999845e+01 6.574800000000000466e+01 2.193784999999999854e+03
1.900000000000000300e-02 1.949474999999999958e-01 2.175455000000000183e+01 6.933164999999999623e+01 2.194560000000000400e+03
2.000000000000000042e-02 1.950585000000000235e-01 2.255235000000000056e+01 7.262735000000000696e+01 2.195385000000000218e+03
2.100000000000000130e-02 1.951505000000000045e-01 2.294725000000000037e+01 7.483674999999999500e+01 2.196090000000000146e+03
2.200000000000000219e-02 1.952074999999999783e-01 2.287015000000000242e+01 7.555180000000000007e+01 2.196539999999999964e+03
2.299999999999999961e-02 1.952229999999999799e-01 2.239059999999999917e+01 7.486369999999999436e+01 2.196685000000000400e+03
2.400000000000000050e-02 1.952035000000000020e-01 2.166805000000000092e+01 7.325544999999999618e+01 2.196570000000000164e+03
2.500000000000000139e-02 1.951630000000000031e-01 2.087539999999999907e+01 7.135479999999999734e+01 2.196284999999999854e+03
2.600000000000000228e-02 1.951180000000000136e-01 2.013159999999999883e+01 6.967160000000001219e+01 2.195954999999999927e+03
2.700000000000000316e-02 1.950764999999999860e-01 1.946934999999999860e+01 6.843225000000001046e+01 2.195645000000000437e+03
2.800000000000000058e-02 1.950425000000000075e-01 1.884389999999999787e+01 6.755764999999999532e+01 2.195389999999999873e+03
2.900000000000000147e-02 1.950109999999999899e-01 1.817190000000000083e+01 6.676654999999999518e+01 2.195155000000000200e+03
3.000000000000000236e-02 1.949760000000000104e-01 1.738040000000000163e+01 6.574305000000001087e+01 2.194899999999999636e+03
3.099999999999999978e-02 1.949299999999999922e-01 1.644825000000000159e+01 6.429909999999999570e+01 2.194565000000000055e+03
3.200000000000000067e-02 1.948725000000000041e-01 1.542525000000000190e+01 6.247504999999999598e+01 2.194144999999999982e+03
3.300000000000000155e-02 1.948079999999999812e-01 1.442370000000000019e+01 6.054614999999999725e+01 2.193680000000000291e+03
3.400000000000000244e-02 1.947479999999999767e-01 1.358555000000000135e+01 5.893659999999999854e+01 2.193230000000000018e+03
3.500000000000000333e-02 1.947039999999999882e-01 1.303814999999999991e+01 5.807649999999999579e+01 2.192900000000000091e+03
3.600000000000000422e-02 1.946869999999999989e-01 1.285454999999999970e+01 5.825585000000000235e+01 2.192755000000000109e+03
3.700000000000000511e-02 1.947030000000000149e-01 1.303134999999999977e+01 5.952720000000000056e+01 2.192849999999999909e+03
3.799999999999999906e-02 1.947510000000000074e-01 1.348949999999999960e+01 6.168469999999999942e+01 2.193180000000000291e+03
3.899999999999999994e-02 1.948215000000000086e-01 1.409444999999999837e+01 6.431645000000000323e+01 2.193680000000000291e+03
4.000000000000000083e-02 1.949009999999999909e-01 1.468694999999999951e+01 6.690594999999999004e+01 2.194269999999999982e+03
4.100000000000000172e-02 1.949760000000000104e-01 1.511550000000000082e+01 6.894659999999998945e+01 2.194814999999999600e+03
4.200000000000000261e-02 1.950304999999999955e-01 1.526174999999999926e+01 7.003945000000000221e+01 2.195224999999999909e+03
4.300000000000000350e-02 1.950545000000000195e-01 1.505470000000000041e+01 6.995284999999999798e+01 2.195420000000000073e+03
4.400000000000000439e-02 1.950409999999999922e-01 1.447355000000000125e+01 6.863710000000000377e+01 2.195335000000000036e+03
4.499999999999999833e-02 1.949899999999999967e-01 1.354009999999999891e+01 6.620000000000000284e+01 2.194980000000000018e+03
4.599999999999999922e-02 1.949044999999999805e-01 1.230633500000000069e+01 6.285745000000000005e+01 2.194354999999999563e+03
4.700000000000000011e-02 1.947900000000000187e-01 1.084015499999999932e+01 5.887615000000000265e+01 2.193524999999999636e+03
4.800000000000000100e-02 1.946545000000000081e-01 9.213939999999999131e+00 5.452465000000000117e+01 2.192534999999999854e+03
4.900000000000000189e-02 1.945060000000000122e-01 7.497765000000000235e+00 5.004155000000000086e+01 2.191444999999999709e+03
5.000000000000000278e-02 1.943515000000000104e-01 5.756610000000000227e+00 4.562344999999999828e+01 2.190300000000000182e+03
5.100000000000000366e-02 1.941979999999999817e-01 4.051144550000000066e+00 4.142875000000000085e+01 2.189170000000000073e+03
5.200000000000000455e-02 1.940500000000000003e-01 2.439805000000000224e+00 3.759000000000000341e+01 2.188074999999999818e+03
5.300000000000000544e-02 1.939144999999999897e-01 9.806850000000000289e-01 3.422799999999999443e+01 2.187059999999999945e+03
5.399999999999999939e-02 1.937945000000000084e-01 -2.680649999999999977e-01 3.146115000000000350e+01 2.186170000000000073e+03
5.500000000000000028e-02 1.936955000000000204e-01 -1.249750499999999986e+00 2.940760000000000218e+01 2.185420000000000073e+03
5.600000000000000117e-02 1.936220000000000163e-01 -1.912370000000000125e+00 2.817994999999999806e+01 2.184859999999999673e+03
5.700000000000000205e-02 1.935775000000000134e-01 -2.212794999999999845e+00 2.787465000000000259e+01 2.184514999999999873e+03
5.800000000000000294e-02 1.935660000000000158e-01 -2.120954999999999924e+00 2.855930000000000035e+01 2.184404999999999745e+03
5.900000000000000383e-02 1.935890000000000111e-01 -1.623121999999999954e+00 3.026180000000000092e+01 2.184550000000000182e+03
6.000000000000000472e-02 1.936479999999999868e-01 -7.235899999999999554e-01 3.296345000000000169e+01 2.184960000000000036e+03
6.099999999999999867e-02 1.937419999999999976e-01 5.554000000000001158e-01 3.659790000000000276e+01 2.185625000000000000e+03
6.199999999999999956e-02 1.938679999999999848e-01 2.175429999999999975e+00 4.105590000000000117e+01 2.186529999999999745e+03
6.300000000000000044e-02 1.940230000000000010e-01 4.084921500000000094e+00 4.619389999999999930e+01 2.187654999999999745e+03
6.400000000000000133e-02 1.942019999999999857e-01 6.222919999999999341e+00 5.184600000000000364e+01 2.188960000000000036e+03
6.500000000000000222e-02 1.944000000000000172e-01 8.523179999999999978e+00 5.783630000000000138e+01 2.190414999999999964e+03
6.600000000000000311e-02 1.946105000000000196e-01 1.091835000000000022e+01 6.399094999999999800e+01 2.191965000000000146e+03
6.700000000000000400e-02 1.948274999999999868e-01 1.334359500000000054e+01 7.014939999999999998e+01 2.193570000000000164e+03
6.800000000000000488e-02 1.950470000000000259e-01 1.574044999999999916e+01 7.617334999999999923e+01 2.195199999999999818e+03
6.900000000000000577e-02 1.952625000000000055e-01 1.805959999999999965e+01 8.195420000000000016e+01 2.196814999999999600e+03
7.000000000000000666e-02 1.954719999999999791e-01 2.026310000000000144e+01 8.741819999999999879e+01 2.198380000000000109e+03
7.100000000000000755e-02 1.956720000000000126e-01 2.232594999999999885e+01 9.252840000000000487e+01 2.199885000000000218e+03
7.200000000000000844e-02 1.958615000000000217e-01 2.423615000000000208e+01 9.728440000000000509e+01 2.201309999999999945e+03
7.300000000000000933e-02 1.960405000000000064e-01 2.599429999999999907e+01 1.017175500000000028e+02 2.202664999999999964e+03
7.399999999999999634e-02 1.962095000000000089e-01 2.761124999999999829e+01 1.058851999999999975e+02 2.203944999999999709e+03
7.499999999999999722e-02 1.963705000000000034e-01 2.910594999999999999e+01 1.098619999999999948e+02 2.205170000000000073e+03
7.599999999999999811e-02 1.965255000000000196e-01 3.050219999999999843e+01 1.137295000000000016e+02 2.206349999999999909e+03
7.699999999999999900e-02 1.966775000000000051e-01 3.182545000000000002e+01 1.175660000000000025e+02 2.207505000000000109e+03
7.799999999999999989e-02 1.968280000000000030e-01 3.309990000000000521e+01 1.214395000000000095e+02 2.208649999999999636e+03
7.900000000000000078e-02 1.969805000000000028e-01 3.434604999999999819e+01 1.254025000000000034e+02 2.209805000000000291e+03
8.000000000000000167e-02 1.971350000000000047e-01 3.557880000000000109e+01 1.294834999999999923e+02 2.210980000000000018e+03
8.100000000000000255e-02 1.972929999999999962e-01 3.680634999999999479e+01 1.336895000000000095e+02 2.212180000000000291e+03
8.200000000000000344e-02 1.974544999999999773e-01 3.803000000000000114e+01 1.380055000000000121e+02 2.213404999999999745e+03
8.300000000000000433e-02 1.976195000000000035e-01 3.924419999999999931e+01 1.423960000000000150e+02 2.214654999999999745e+03
8.400000000000000522e-02 1.977855000000000030e-01 4.043734999999999502e+01 1.468095000000000141e+02 2.215920000000000073e+03
8.500000000000000611e-02 1.979525000000000035e-01 4.159300000000000352e+01 1.511834999999999809e+02 2.217184999999999945e+03
8.600000000000000699e-02 1.981165000000000009e-01 4.269114999999999327e+01 1.554485000000000241e+02 2.218434999999999945e+03
8.700000000000000788e-02 1.982765000000000222e-01 4.371000000000000085e+01 1.595330000000000155e+02 2.219659999999999854e+03
8.800000000000000877e-02 1.984294999999999809e-01 4.462695000000000078e+01 1.633679999999999950e+02 2.220829999999999927e+03
8.899999999999999578e-02 1.985740000000000005e-01 4.542074999999999818e+01 1.668905000000000030e+02 2.221929999999999836e+03
8.999999999999999667e-02 1.987065000000000081e-01 4.607224999999999682e+01 1.700469999999999970e+02 2.222949999999999818e+03
9.099999999999999756e-02 1.988260000000000027e-01 4.656580000000000297e+01 1.727955000000000041e+02 2.223875000000000000e+03
9.199999999999999845e-02 1.989309999999999967e-01 4.689045000000000130e+01 1.751080000000000041e+02 2.224684999999999945e+03
9.299999999999999933e-02 1.990210000000000035e-01 4.704019999999999868e+01 1.769730000000000132e+02 2.225380000000000109e+03
9.400000000000000022e-02 1.990945000000000076e-01 4.701460000000000150e+01 1.783904999999999745e+02 2.225954999999999927e+03
9.500000000000000111e-02 1.991529999999999967e-01 4.681905000000000427e+01 1.793795000000000073e+02 2.226414999999999964e+03
9.600000000000000200e-02 1.991954999999999976e-01 4.646399999999999864e+01 1.799700000000000273e+02 2.226755000000000109e+03
9.700000000000000289e-02 1.992240000000000122e-01 4.596505000000000507e+01 1.802040000000000077e+02 2.226985000000000127e+03
9.800000000000000377e-02 1.992400000000000004e-01 4.534130000000000393e+01 1.801324999999999932e+02 2.227119999999999891e+03
9.900000000000000466e-02 1.992444999999999911e-01 4.461520000000000152e+01 1.798135000000000048e+02 2.227164999999999964e+03
1.000000000000000056e-01 1.992400000000000004e-01 4.381040000000000134e+01 1.793069999999999879e+02 2.227140000000000327e+03
1.010000000000000064e-01 1.992285000000000028e-01 4.295145000000000124e+01 1.786709999999999923e+02 2.227065000000000055e+03
1.020000000000000073e-01 1.992114999999999858e-01 4.206199999999999761e+01 1.779635000000000105e+02 2.226940000000000055e+03
1.030000000000000082e-01 1.991914999999999936e-01 4.116405000000000314e+01 1.772334999999999923e+02 2.226795000000000073e+03
1.040000000000000091e-01 1.991700000000000137e-01 4.027694999999999936e+01 1.765244999999999891e+02 2.226630000000000109e+03
1.050000000000000100e-01 1.991485000000000061e-01 3.941665000000000418e+01 1.758689999999999998e+02 2.226465000000000146e+03
1.059999999999999970e-01 1.991275000000000128e-01 3.859520000000000550e+01 1.752895000000000039e+02 2.226309999999999945e+03
1.069999999999999979e-01 1.991089999999999804e-01 3.782049999999999557e+01 1.747975000000000136e+02 2.226164999999999964e+03
1.079999999999999988e-01 1.990925000000000056e-01 3.709590000000000032e+01 1.743954999999999984e+02 2.226034999999999854e+03
1.089999999999999997e-01 1.990790000000000060e-01 3.642079999999999984e+01 1.740740000000000123e+02 2.225925000000000182e+03
1.100000000000000006e-01 1.990664999999999796e-01 3.579030000000000200e+01 1.738149999999999977e+02 2.225829999999999927e+03
1.110000000000000014e-01 1.990570000000000117e-01 3.519634999999999536e+01 1.735925000000000011e+02 2.225750000000000000e+03
1.120000000000000023e-01 1.990474999999999883e-01 3.462810000000000343e+01 1.733750000000000000e+02 2.225675000000000182e+03
1.130000000000000032e-01 1.990379999999999927e-01 3.407280000000000086e+01 1.731279999999999859e+02 2.225599999999999909e+03
1.140000000000000041e-01 1.990270000000000095e-01 3.351659999999999684e+01 1.728149999999999977e+02 2.225515000000000327e+03
1.150000000000000050e-01 1.990135000000000098e-01 3.294565000000000055e+01 1.724010000000000105e+02 2.225409999999999854e+03
1.160000000000000059e-01 1.989964999999999928e-01 3.234700000000000131e+01 1.718544999999999732e+02 2.225279999999999745e+03
1.170000000000000068e-01 1.989744999999999986e-01 3.170939999999999870e+01 1.711505000000000223e+02 2.225114999999999782e+03
1.180000000000000077e-01 1.989474999999999993e-01 3.102414999999999878e+01 1.702690000000000055e+02 2.224905000000000200e+03
1.190000000000000085e-01 1.989135000000000209e-01 3.028575000000000017e+01 1.692019999999999982e+02 2.224650000000000091e+03
1.200000000000000094e-01 1.988734999999999808e-01 2.949210000000000065e+01 1.679490000000000123e+02 2.224350000000000364e+03
1.209999999999999964e-01 1.988274999999999904e-01 2.864499999999999957e+01 1.665210000000000150e+02 2.223994999999999891e+03
1.219999999999999973e-01 1.987750000000000072e-01 2.774980000000000047e+01 1.649364999999999952e+02 2.223605000000000018e+03
1.229999999999999982e-01 1.987170000000000047e-01 2.681555000000000177e+01 1.632244999999999777e+02 2.223164999999999964e+03
1.239999999999999991e-01 1.986549999999999983e-01 2.585410000000000252e+01 1.614215000000000089e+02 2.222694999999999709e+03
1.250000000000000000e-01 1.985899999999999888e-01 2.487969999999999970e+01 1.595670000000000073e+02 2.222204999999999927e+03
1.260000000000000009e-01 1.985230000000000050e-01 2.390825000000000244e+01 1.577049999999999841e+02 2.221695000000000164e+03
1.270000000000000018e-01 1.984560000000000213e-01 2.295609999999999928e+01 1.558804999999999836e+02 2.221184999999999945e+03
1.280000000000000027e-01 1.983900000000000108e-01 2.203969999999999985e+01 1.541359999999999957e+02 2.220680000000000291e+03
1.290000000000000036e-01 1.983260000000000023e-01 2.117425000000000068e+01 1.525099999999999909e+02 2.220199999999999818e+03
1.300000000000000044e-01 1.982669999999999988e-01 2.037315000000000254e+01 1.510360000000000014e+02 2.219744999999999891e+03
1.310000000000000053e-01 1.982130000000000003e-01 1.964739999999999753e+01 1.497389999999999759e+02 2.219329999999999927e+03
1.320000000000000062e-01 1.981649999999999801e-01 1.900520000000000209e+01 1.486384999999999934e+02 2.218954999999999927e+03
1.330000000000000071e-01 1.981229999999999936e-01 1.845145000000000124e+01 1.477425000000000068e+02 2.218635000000000218e+03
1.340000000000000080e-01 1.980885000000000007e-01 1.798795000000000144e+01 1.470525000000000091e+02 2.218369999999999891e+03
1.350000000000000089e-01 1.980620000000000158e-01 1.761345000000000027e+01 1.465620000000000118e+02 2.218154999999999745e+03
1.360000000000000098e-01 1.980414999999999814e-01 1.732375000000000043e+01 1.462570000000000050e+02 2.217989999999999782e+03
1.370000000000000107e-01 1.980270000000000086e-01 1.711224999999999952e+01 1.461184999999999832e+02 2.217880000000000109e+03
1.380000000000000115e-01 1.980190000000000006e-01 1.697030000000000172e+01 1.461229999999999905e+02 2.217809999999999945e+03
1.390000000000000124e-01 1.980164999999999842e-01 1.688800000000000168e+01 1.462450000000000045e+02 2.217779999999999745e+03
1.400000000000000133e-01 1.980175000000000129e-01 1.685425000000000040e+01 1.464565000000000055e+02 2.217784999999999854e+03
1.410000000000000142e-01 1.980220000000000036e-01 1.685770000000000124e+01 1.467314999999999827e+02 2.217820000000000164e+03
1.420000000000000151e-01 1.980295000000000250e-01 1.688719999999999999e+01 1.470430000000000064e+02 2.217869999999999891e+03
1.430000000000000160e-01 1.980379999999999918e-01 1.693189999999999884e+01 1.473665000000000020e+02 2.217935000000000400e+03
1.440000000000000169e-01 1.980474999999999874e-01 1.698195000000000121e+01 1.476820000000000164e+02 2.218000000000000000e+03
1.450000000000000178e-01 1.980569999999999831e-01 1.702875000000000227e+01 1.479720000000000084e+02 2.218070000000000164e+03
1.459999999999999909e-01 1.980665000000000064e-01 1.706510000000000105e+01 1.482219999999999800e+02 2.218140000000000327e+03
1.469999999999999918e-01 1.980740000000000001e-01 1.708530000000000015e+01 1.484219999999999970e+02 2.218199999999999818e+03
1.479999999999999927e-01 1.980799999999999783e-01 1.708549999999999969e+01 1.485670000000000073e+02 2.218244999999999891e+03
1.489999999999999936e-01 1.980850000000000111e-01 1.706340000000000146e+01 1.486545000000000130e+02 2.218284999999999854e+03
1.499999999999999944e-01 1.980879999999999863e-01 1.701834999999999809e+01 1.486864999999999952e+02 2.218304999999999836e+03
1.509999999999999953e-01 1.980890000000000151e-01 1.695120000000000005e+01 1.486689999999999827e+02 2.218315000000000055e+03
1.519999999999999962e-01 1.980885000000000007e-01 1.686420000000000030e+01 1.486080000000000041e+02 2.218315000000000055e+03
1.529999999999999971e-01 1.980870000000000131e-01 1.676044999999999874e+01 1.485144999999999982e+02 2.218304999999999836e+03
1.539999999999999980e-01 1.980839999999999823e-01 1.664405000000000001e+01 1.483985000000000127e+02 2.218284999999999854e+03
1.549999999999999989e-01 1.980804999999999927e-01 1.651934999999999931e+01 1.482729999999999961e+02 2.218260000000000218e+03
1.559999999999999998e-01 1.980770000000000031e-01 1.639095000000000013e+01 1.481485000000000127e+02 2.218230000000000018e+03
1.570000000000000007e-01 1.980729999999999991e-01 1.626314999999999955e+01 1.480355000000000132e+02 2.218204999999999927e+03
1.580000000000000016e-01 1.980695000000000094e-01 1.613994999999999891e+01 1.479424999999999955e+02 2.218179999999999836e+03
1.590000000000000024e-01 1.980664999999999787e-01 1.602445000000000164e+01 1.478760000000000048e+02 2.218154999999999745e+03
