# t [s], A [cm^2], U [cm/s], P [cPa], c [cm/s]
1.000000000000000021e-03 7.394715000000000593e-01 5.933000000000000773e-03 1.033785000000000025e+02 1.752069999999999936e+03
2.000000000000000042e-03 7.394635000000000513e-01 5.285849999999999924e-03 1.033499999999999943e+02 1.752059999999999945e+03
3.000000000000000062e-03 7.395434999999999093e-01 1.405714500000000144e-01 1.035105000000000075e+02 1.752095000000000027e+03
4.000000000000000083e-03 7.395784999999999165e-01 2.205989999999999895e-01 1.036099999999999994e+02 1.752119999999999891e+03
5.000000000000000104e-03 7.395100000000000007e-01 1.369240000000000179e-01 1.034279999999999973e+02 1.752079999999999927e+03
6.000000000000000125e-03 7.394274999999999043e-01 1.927349999999999897e-02 1.030969999999999942e+02 1.752014999999999873e+03
7.000000000000000146e-03 7.393345000000000056e-01 -1.283549999999999969e-01 1.026529999999999916e+02 1.751925000000000182e+03
8.000000000000000167e-03 7.391640000000000432e-01 -4.254449999999999621e-01 1.019334999999999951e+02 1.751769999999999982e+03
9.000000000000001055e-03 7.389054999999999929e-01 -8.877999999999999226e-01 1.008625499999999988e+02 1.751545000000000073e+03
1.000000000000000194e-02 7.385429999999999495e-01 -1.532999999999999918e+00 9.936129999999999995e+01 1.751224999999999909e+03
1.099999999999999936e-02 7.380500000000000949e-01 -2.381415000000000060e+00 9.733930000000000859e+01 1.750795000000000073e+03
1.200000000000000025e-02 7.374659999999999549e-01 -3.339000000000000412e+00 9.486244999999999550e+01 1.750244999999999891e+03
1.300000000000000114e-02 7.368934999999999791e-01 -4.192836999999999925e+00 9.220964999999999634e+01 1.749644999999999982e+03
1.400000000000000203e-02 7.364280000000000825e-01 -4.732995100000000122e+00 8.972939999999999827e+01 1.749055000000000064e+03
1.499999999999999944e-02 7.361044999999999394e-01 -4.861410499999999857e+00 8.765645000000000664e+01 1.748525000000000091e+03
1.600000000000000033e-02 7.358899999999999331e-01 -4.614074999999999704e+00 8.602885000000000559e+01 1.748074999999999818e+03
1.700000000000000122e-02 7.357130000000000614e-01 -4.116830000000000211e+00 8.471219999999999573e+01 1.747680000000000064e+03
1.800000000000000211e-02 7.355024999999999480e-01 -3.517174999999999940e+00 8.348769999999998959e+01 1.747309999999999945e+03
1.900000000000000300e-02 7.352145000000001041e-01 -2.923103999999999925e+00 8.215514999999999191e+01 1.746925000000000182e+03
2.000000000000000042e-02 7.348449999999999704e-01 -2.369683500000000276e+00 8.061105000000000587e+01 1.746500000000000000e+03
2.100000000000000130e-02 7.344249999999999945e-01 -1.824540000000000051e+00 7.887090000000000600e+01 1.746039999999999964e+03
2.200000000000000219e-02 7.339975000000000804e-01 -1.225604999999999833e+00 7.703239999999999554e+01 1.745549999999999955e+03
2.299999999999999961e-02 7.335924999999999807e-01 -5.281399999999996098e-01 7.520580000000001064e+01 1.745059999999999945e+03
2.400000000000000050e-02 7.332159999999999789e-01 2.621400000000000396e-01 7.344929999999999382e+01 1.744579999999999927e+03
2.500000000000000139e-02 7.328419999999999934e-01 1.080660000000000176e+00 7.173409999999999798e+01 1.744110000000000127e+03
2.600000000000000228e-02 7.324284999999999268e-01 1.818305000000000060e+00 6.994669999999999277e+01 1.743619999999999891e+03
2.700000000000000316e-02 7.319249999999999368e-01 2.350749999999999673e+00 6.792154999999999632e+01 1.743090000000000146e+03
2.800000000000000058e-02 7.312944999999999585e-01 2.573505000000000376e+00 6.549414999999999054e+01 1.742474999999999909e+03
2.900000000000000147e-02 7.305220000000000047e-01 2.432495000000000296e+00 6.255700000000000216e+01 1.741760000000000218e+03
3.000000000000000236e-02 7.296245000000000092e-01 1.940465000000000106e+00 5.910174999999999557e+01 1.740934999999999945e+03
3.099999999999999978e-02 7.286475000000000035e-01 1.173359999999999737e+00 5.523185000000000144e+01 1.740014999999999873e+03
3.200000000000000067e-02 7.276519999999999655e-01 2.494000000000005102e-01 5.114334999999999809e+01 1.739039999999999964e+03
3.300000000000000155e-02 7.267029999999999879e-01 -6.997049999999997993e-01 4.708419999999999561e+01 1.738055000000000064e+03
3.400000000000000244e-02 7.258565000000000156e-01 -1.554585000000000328e+00 4.330740000000000123e+01 1.737119999999999891e+03
3.500000000000000333e-02 7.251529999999999365e-01 -2.225084999999999980e+00 4.003179999999999694e+01 1.736279999999999973e+03
3.600000000000000422e-02 7.246160000000000379e-01 -2.655629999999999491e+00 3.741750000000000398e+01 1.735585000000000036e+03
3.700000000000000511e-02 7.242539999999999534e-01 -2.822395000000000209e+00 3.555805000000000149e+01 1.735049999999999955e+03
3.799999999999999906e-02 7.240630000000000122e-01 -2.724214000000000357e+00 3.448574999999999591e+01 1.734695000000000164e+03
3.899999999999999994e-02 7.240334999999999965e-01 -2.371859999999999857e+00 3.418644999999999357e+01 1.734525000000000091e+03
4.000000000000000083e-02 7.241549999999999931e-01 -1.778557000000000166e+00 3.461804999999999666e+01 1.734529999999999973e+03
4.100000000000000172e-02 7.244174999999999365e-01 -9.542200000000000681e-01 3.572690000000000055e+01 1.734710000000000036e+03
4.200000000000000261e-02 7.248109999999999831e-01 9.556000000000031136e-02 3.745875000000000199e+01 1.735045000000000073e+03
4.300000000000000350e-02 7.253279999999999728e-01 1.366519999999999957e+00 3.976144999999999641e+01 1.735534999999999854e+03
4.400000000000000439e-02 7.259595000000000908e-01 2.850635000000000474e+00 4.258319999999999794e+01 1.736150000000000091e+03
4.499999999999999833e-02 7.266924999999999635e-01 4.531320000000000014e+00 4.586650000000000205e+01 1.736889999999999873e+03
4.599999999999999922e-02 7.275110000000000188e-01 6.380779999999999674e+00 4.954360000000000497e+01 1.737735000000000127e+03
4.700000000000000011e-02 7.283945000000000558e-01 8.360072499999999351e+00 5.353419999999999845e+01 1.738664999999999964e+03
4.800000000000000100e-02 7.293205000000000382e-01 1.042182999999999993e+01 5.774739999999999895e+01 1.739664999999999964e+03
4.900000000000000189e-02 7.302659999999999707e-01 1.251485500000000073e+01 6.208644999999999925e+01 1.740710000000000036e+03
5.000000000000000278e-02 7.312099999999999156e-01 1.458900000000000041e+01 6.645615000000000805e+01 1.741775000000000091e+03
5.100000000000000366e-02 7.321340000000000625e-01 1.659990000000000165e+01 7.077029999999999177e+01 1.742845000000000027e+03
5.200000000000000455e-02 7.330244999999999678e-01 1.851225000000000165e+01 7.495864999999999156e+01 1.743894999999999982e+03
5.300000000000000544e-02 7.338739999999999153e-01 2.030140000000000100e+01 7.897104999999999109e+01 1.744924999999999955e+03
5.399999999999999939e-02 7.346789999999999710e-01 2.195389999999999731e+01 8.277955000000000041e+01 1.745904999999999973e+03
5.500000000000000028e-02 7.354410000000000114e-01 2.346614999999999895e+01 8.637770000000000437e+01 1.746844999999999800e+03
5.600000000000000117e-02 7.361659999999999870e-01 2.484284999999999854e+01 8.977774999999999750e+01 1.747744999999999891e+03
5.700000000000000205e-02 7.368605000000000294e-01 2.609489999999999910e+01 9.300704999999999245e+01 1.748605000000000018e+03
5.800000000000000294e-02 7.375339999999999119e-01 2.723750000000000071e+01 9.610354999999999848e+01 1.749429999999999836e+03
5.900000000000000383e-02 7.381955000000000044e-01 2.828824999999999790e+01 9.911015000000000441e+01 1.750235000000000127e+03
6.000000000000000472e-02 7.388554999999999984e-01 2.926539999999999964e+01 1.020720000000000027e+02 1.751025000000000091e+03
6.099999999999999867e-02 7.395205000000000251e-01 3.018639999999999901e+01 1.050302499999999952e+02 1.751809999999999945e+03
6.199999999999999956e-02 7.401995000000000102e-01 3.106634999999999991e+01 1.080210000000000008e+02 1.752599999999999909e+03
6.300000000000000044e-02 7.408945000000000114e-01 3.191669999999999874e+01 1.110685000000000002e+02 1.753394999999999982e+03
6.400000000000000133e-02 7.416074999999999751e-01 3.274425000000000097e+01 1.141864999999999952e+02 1.754215000000000146e+03
6.500000000000000222e-02 7.423370000000000246e-01 3.355039999999999623e+01 1.173739999999999952e+02 1.755039999999999964e+03
6.600000000000000311e-02 7.430775000000000574e-01 3.433140000000000214e+01 1.206154999999999973e+02 1.755884999999999991e+03
6.700000000000000400e-02 7.438219999999999832e-01 3.507860000000000156e+01 1.238855000000000075e+02 1.756735000000000127e+03
6.800000000000000488e-02 7.445614999999999872e-01 3.577965000000000373e+01 1.271460000000000008e+02 1.757585000000000036e+03
6.900000000000000577e-02 7.452855000000000452e-01 3.641969999999999885e+01 1.303520000000000039e+02 1.758429999999999836e+03
7.000000000000000666e-02 7.459824999999999928e-01 3.698300000000000409e+01 1.334565000000000055e+02 1.759240000000000009e+03
7.100000000000000755e-02 7.466435000000000155e-01 3.745409999999999684e+01 1.364105000000000132e+02 1.760025000000000091e+03
7.200000000000000844e-02 7.472579999999999778e-01 3.781929999999999836e+01 1.391719999999999970e+02 1.760769999999999982e+03
7.300000000000000933e-02 7.478195000000000814e-01 3.806735000000000468e+01 1.417009999999999934e+02 1.761460000000000036e+03
7.399999999999999634e-02 7.483214999999999728e-01 3.819035000000000224e+01 1.439695000000000107e+02 1.762085000000000036e+03
7.499999999999999722e-02 7.487615000000000798e-01 3.818394999999999584e+01 1.459565000000000055e+02 1.762644999999999982e+03
7.599999999999999811e-02 7.491375000000000117e-01 3.804770000000000607e+01 1.476519999999999868e+02 1.763134999999999991e+03
7.699999999999999900e-02 7.494494999999999907e-01 3.778499999999999659e+01 1.490554999999999950e+02 1.763545000000000073e+03
7.799999999999999989e-02 7.497009999999999508e-01 3.740279999999999916e+01 1.501770000000000209e+02 1.763894999999999982e+03
7.900000000000000078e-02 7.498970000000000358e-01 3.691164999999999452e+01 1.510339999999999918e+02 1.764164999999999964e+03
8.000000000000000167e-02 7.500424999999999454e-01 3.632484999999999786e+01 1.516514999999999986e+02 1.764375000000000000e+03
8.100000000000000255e-02 7.501439999999999220e-01 3.565805000000000291e+01 1.520600000000000023e+02 1.764534999999999854e+03
8.200000000000000344e-02 7.502105000000000024e-01 3.492869999999999919e+01 1.522950000000000159e+02 1.764640000000000100e+03
8.300000000000000433e-02 7.502489999999999437e-01 3.415494999999999948e+01 1.523930000000000007e+02 1.764704999999999927e+03
8.400000000000000522e-02 7.502680000000000460e-01 3.335515000000000185e+01 1.523924999999999841e+02 1.764744999999999891e+03
8.500000000000000611e-02 7.502754999999999841e-01 3.254664999999999964e+01 1.523294999999999959e+02 1.764755000000000109e+03
8.600000000000000699e-02 7.502774999999999306e-01 3.174524999999999864e+01 1.522359999999999900e+02 1.764755000000000109e+03
8.700000000000000788e-02 7.502800000000000580e-01 3.096444999999999936e+01 1.521410000000000196e+02 1.764744999999999891e+03
8.800000000000000877e-02 7.502869999999999262e-01 3.021440000000000126e+01 1.520654999999999859e+02 1.764740000000000009e+03
8.899999999999999578e-02 7.503014999999999546e-01 2.950220000000000198e+01 1.520264999999999986e+02 1.764735000000000127e+03
8.999999999999999667e-02 7.503250000000000197e-01 2.883129999999999882e+01 1.520300000000000011e+02 1.764740000000000009e+03
9.099999999999999756e-02 7.503554999999999531e-01 2.820170000000000243e+01 1.520780000000000030e+02 1.764744999999999891e+03
9.199999999999999845e-02 7.503915000000001001e-01 2.761010000000000275e+01 1.521639999999999873e+02 1.764764999999999873e+03
9.299999999999999933e-02 7.504310000000000702e-01 2.705064999999999742e+01 1.522755000000000223e+02 1.764789999999999964e+03
9.400000000000000022e-02 7.504690000000000527e-01 2.651525000000000176e+01 1.523975000000000080e+02 1.764815000000000055e+03
9.500000000000000111e-02 7.505015000000000436e-01 2.599414999999999765e+01 1.525090000000000146e+02 1.764840000000000146e+03
9.600000000000000200e-02 7.505235000000000101e-01 2.547695000000000221e+01 1.525900000000000034e+02 1.764860000000000127e+03
9.700000000000000289e-02 7.505315000000000181e-01 2.495315000000000083e+01 1.526179999999999950e+02 1.764865000000000009e+03
9.800000000000000377e-02 7.505200000000000760e-01 2.441264999999999930e+01 1.525724999999999909e+02 1.764855000000000018e+03
9.900000000000000466e-02 7.504859999999999864e-01 2.384665000000000035e+01 1.524375000000000000e+02 1.764829999999999927e+03
1.000000000000000056e-01 7.504269999999999552e-01 2.324799999999999756e+01 1.521965000000000146e+02 1.764775000000000091e+03
1.010000000000000064e-01 7.503414999999999946e-01 2.261189999999999856e+01 1.518424999999999727e+02 1.764695000000000164e+03
1.020000000000000073e-01 7.502299999999999525e-01 2.193609999999999971e+01 1.513714999999999975e+02 1.764590000000000146e+03
1.030000000000000082e-01 7.500925000000000509e-01 2.122104999999999819e+01 1.507845000000000084e+02 1.764454999999999927e+03
1.040000000000000091e-01 7.499320000000000430e-01 2.047005000000000052e+01 1.500900000000000034e+02 1.764284999999999854e+03
1.050000000000000100e-01 7.497519999999999740e-01 1.968925000000000125e+01 1.493019999999999925e+02 1.764105000000000018e+03
1.059999999999999970e-01 7.495570000000000288e-01 1.888690000000000069e+01 1.484384999999999764e+02 1.763894999999999982e+03
1.069999999999999979e-01 7.493520000000000181e-01 1.807355000000000089e+01 1.475224999999999795e+02 1.763675000000000182e+03
1.079999999999999988e-01 7.491440000000000321e-01 1.726115000000000066e+01 1.465799999999999841e+02 1.763440000000000055e+03
1.089999999999999997e-01 7.489390000000000214e-01 1.646235000000000070e+01 1.456374999999999886e+02 1.763210000000000036e+03
1.100000000000000006e-01 7.487420000000000186e-01 1.569014999999999915e+01 1.447239999999999895e+02 1.762974999999999909e+03
1.110000000000000014e-01 7.485595000000000443e-01 1.495700000000000074e+01 1.438654999999999973e+02 1.762755000000000109e+03
1.120000000000000023e-01 7.483965000000000201e-01 1.427415000000000056e+01 1.430860000000000127e+02 1.762550000000000182e+03
1.130000000000000032e-01 7.482564999999999911e-01 1.365128999999999948e+01 1.424064999999999941e+02 1.762365000000000009e+03
1.140000000000000041e-01 7.481440000000000312e-01 1.309588000000000108e+01 1.418419999999999845e+02 1.762204999999999927e+03
1.150000000000000050e-01 7.480590000000000295e-01 1.261295499999999947e+01 1.414044999999999845e+02 1.762079999999999927e+03
1.160000000000000059e-01 7.480035000000000434e-01 1.220486999999999966e+01 1.410964999999999918e+02 1.761980000000000018e+03
1.170000000000000068e-01 7.479754999999999043e-01 1.187141000000000091e+01 1.409200000000000159e+02 1.761914999999999964e+03
1.180000000000000077e-01 7.479744999999999866e-01 1.160984499999999997e+01 1.408675000000000068e+02 1.761880000000000109e+03
1.190000000000000085e-01 7.479964999999999531e-01 1.141522000000000148e+01 1.409284999999999854e+02 1.761869999999999891e+03
1.200000000000000094e-01 7.480394999999999683e-01 1.128073499999999996e+01 1.410885000000000105e+02 1.761889999999999873e+03
1.209999999999999964e-01 7.480974999999999708e-01 1.119829999999999970e+01 1.413310000000000173e+02 1.761934999999999945e+03
1.219999999999999973e-01 7.481679999999999442e-01 1.115869999999999962e+01 1.416355000000000075e+02 1.761990000000000009e+03
1.229999999999999982e-01 7.482459999999999667e-01 1.115249999999999986e+01 1.419840000000000089e+02 1.762065000000000055e+03
1.239999999999999991e-01 7.483275000000000343e-01 1.117004999999999981e+01 1.423575000000000159e+02 1.762144999999999982e+03
1.250000000000000000e-01 7.484094999999999498e-01 1.120240000000000080e+01 1.427370000000000232e+02 1.762230000000000018e+03
1.260000000000000009e-01 7.484874999999999723e-01 1.124115000000000109e+01 1.431080000000000041e+02 1.762320000000000164e+03
1.270000000000000018e-01 7.485595000000000443e-01 1.127880000000000038e+01 1.434565000000000055e+02 1.762400000000000091e+03
1.280000000000000027e-01 7.486245000000000260e-01 1.130940000000000012e+01 1.437724999999999795e+02 1.762474999999999909e+03
1.290000000000000036e-01 7.486794999999999423e-01 1.132789999999999964e+01 1.440489999999999782e+02 1.762549999999999955e+03
1.300000000000000044e-01 7.487255000000000438e-01 1.133089999999999975e+01 1.442810000000000059e+02 1.762609999999999900e+03
1.310000000000000053e-01 7.487615000000000798e-01 1.131604499999999902e+01 1.444675000000000011e+02 1.762664999999999964e+03
1.320000000000000062e-01 7.487874999999999392e-01 1.128248999999999924e+01 1.446094999999999970e+02 1.762699999999999818e+03
1.330000000000000071e-01 7.488060000000000827e-01 1.123044000000000153e+01 1.447104999999999961e+02 1.762735000000000127e+03
1.340000000000000080e-01 7.488170000000000659e-01 1.116114999999999924e+01 1.447749999999999773e+02 1.762755000000000109e+03
1.350000000000000089e-01 7.488224999999999465e-01 1.107661000000000051e+01 1.448100000000000023e+02 1.762775000000000091e+03
1.360000000000000098e-01 7.488234999999999753e-01 1.097960499999999939e+01 1.448215000000000146e+02 1.762779999999999973e+03
1.370000000000000107e-01 7.488224999999999465e-01 1.087335500000000010e+01 1.448185000000000002e+02 1.762784999999999854e+03
1.380000000000000115e-01 7.488205000000000000e-01 1.076124000000000080e+01 1.448084999999999809e+02 1.762785000000000082e+03
1.390000000000000124e-01 7.488200000000000411e-01 1.064667999999999992e+01 1.447975000000000136e+02 1.762789999999999964e+03
1.400000000000000133e-01 7.488209999999999589e-01 1.053303000000000011e+01 1.447934999999999945e+02 1.762789999999999964e+03
1.410000000000000142e-01 7.488249999999999629e-01 1.042319499999999977e+01 1.448009999999999877e+02 1.762795000000000073e+03
1.420000000000000151e-01 7.488334999999999297e-01 1.031953000000000031e+01 1.448245000000000005e+02 1.762800000000000182e+03
1.430000000000000160e-01 7.488464999999999705e-01 1.022388499999999922e+01 1.448654999999999973e+02 1.762815000000000055e+03
1.440000000000000169e-01 7.488630000000000564e-01 1.013737500000000047e+01 1.449254999999999995e+02 1.762829999999999927e+03
1.450000000000000178e-01 7.488844999999999530e-01 1.006046500000000066e+01 1.450045000000000073e+02 1.762845000000000027e+03
1.459999999999999909e-01 7.489090000000000469e-01 9.992879999999999541e+00 1.450995000000000061e+02 1.762869999999999891e+03
1.469999999999999918e-01 7.489354999999999762e-01 9.933924999999998562e+00 1.452075000000000102e+02 1.762894999999999982e+03
1.479999999999999927e-01 7.489649999999999919e-01 9.882255000000000678e+00 1.453249999999999886e+02 1.762925000000000182e+03
1.489999999999999936e-01 7.489934999999999787e-01 9.836515000000000342e+00 1.454465000000000146e+02 1.762960000000000036e+03
1.499999999999999944e-01 7.490224999999999245e-01 9.794919999999999405e+00 1.455679999999999836e+02 1.762985000000000127e+03
1.509999999999999953e-01 7.490494999999999237e-01 9.755910000000000082e+00 1.456845000000000141e+02 1.763014999999999873e+03
1.519999999999999962e-01 7.490734999999999477e-01 9.717980000000000729e+00 1.457924999999999898e+02 1.763039999999999964e+03
1.529999999999999971e-01 7.490959999999999841e-01 9.680049999999999599e+00 1.458890000000000100e+02 1.763070000000000164e+03
1.539999999999999980e-01 7.491144999999999055e-01 9.641234999999999999e+00 1.459724999999999966e+02 1.763090000000000146e+03
1.549999999999999989e-01 7.491295000000000037e-01 9.601205000000000211e+00 1.460414999999999850e+02 1.763110000000000127e+03
1.559999999999999998e-01 7.491419999999999746e-01 9.560030000000001138e+00 1.460969999999999800e+02 1.763119999999999891e+03
1.570000000000000007e-01 7.491520000000000401e-01 9.518105000000000260e+00 1.461409999999999911e+02 1.763134999999999991e+03
1.580000000000000016e-01 7.491594999999999782e-01 9.476350000000000051e+00 1.461759999999999877e+02 1.763150000000000091e+03
1.590000000000000024e-01 7.491665000000000685e-01 9.435715000000000074e+00 1.462044999999999959e+02 1.763154999999999973e+03
