# t [s], A [cm^2], U [cm/s], P [cPa], c [cm/s]
1.000000000000000021e-03 1.219915000000000027e-01 3.227309999999999901e-01 1.039819999999999993e+02 1.988474999999999909e+03
2.000000000000000042e-03 1.219630000000000020e-01 1.930393499999999873e+00 1.006524500000000018e+02 1.988070000000000164e+03
3.000000000000000062e-03 1.218749999999999972e-01 3.909773500000000013e+00 9.615000000000000568e+01 1.986880000000000109e+03
4.000000000000000083e-03 1.217495000000000105e-01 6.119165999999999883e+00 9.118765000000000498e+01 1.985204999999999927e+03
5.000000000000000104e-03 1.216084999999999944e-01 8.489905000000000257e+00 8.662444999999999595e+01 1.983360000000000127e+03
6.000000000000000125e-03 1.214694999999999941e-01 1.087202000000000091e+01 8.282130000000000791e+01 1.981549999999999955e+03
7.000000000000000146e-03 1.213380000000000014e-01 1.306462999999999930e+01 7.962489999999999668e+01 1.979860000000000127e+03
8.000000000000000167e-03 1.212155000000000038e-01 1.495444499999999977e+01 7.677709999999999013e+01 1.978309999999999945e+03
9.000000000000001055e-03 1.211050000000000043e-01 1.655405000000000015e+01 7.425395000000000323e+01 1.976940000000000055e+03
1.000000000000000194e-02 1.210090000000000054e-01 1.790265000000000128e+01 7.213445000000000107e+01 1.975759999999999991e+03
1.099999999999999936e-02 1.209280000000000077e-01 1.901940000000000097e+01 7.042504999999999882e+01 1.974775000000000091e+03
1.200000000000000025e-02 1.208615000000000106e-01 1.991875000000000284e+01 6.907984999999999332e+01 1.973980000000000018e+03
1.300000000000000114e-02 1.208084999999999992e-01 2.061060000000000159e+01 6.802844999999999231e+01 1.973349999999999909e+03
1.400000000000000203e-02 1.207654999999999978e-01 2.109819999999999851e+01 6.716835000000000377e+01 1.972849999999999909e+03
1.499999999999999944e-02 1.207295000000000035e-01 2.140709999999999980e+01 6.642414999999999736e+01 1.972444999999999936e+03
1.600000000000000033e-02 1.207010000000000027e-01 2.161664999999999992e+01 6.585644999999999527e+01 1.972125000000000000e+03
1.700000000000000122e-02 1.206834999999999991e-01 2.185125000000000028e+01 6.569180000000000064e+01 1.971940000000000055e+03
1.800000000000000211e-02 1.206819999999999976e-01 2.222845000000000226e+01 6.621314999999999884e+01 1.971940000000000055e+03
1.900000000000000300e-02 1.207010000000000027e-01 2.280044999999999789e+01 6.758379999999999654e+01 1.972174999999999955e+03
2.000000000000000042e-02 1.207400000000000001e-01 2.352765000000000128e+01 6.972225000000000250e+01 1.972654999999999973e+03
2.100000000000000130e-02 1.207944999999999991e-01 2.429410000000000025e+01 7.229820000000000846e+01 1.973329999999999927e+03
2.200000000000000219e-02 1.208554999999999907e-01 2.495295000000000130e+01 7.484000000000000341e+01 1.974095000000000027e+03
2.299999999999999961e-02 1.209144999999999942e-01 2.537865000000000038e+01 7.689105000000000700e+01 1.974825000000000045e+03
2.400000000000000050e-02 1.209609999999999852e-01 2.550489999999999924e+01 7.814965000000000828e+01 1.975424999999999955e+03
2.500000000000000139e-02 1.209915000000000018e-01 2.533769999999999811e+01 7.854179999999999495e+01 1.975829999999999927e+03
2.600000000000000228e-02 1.210050000000000014e-01 2.494275000000000020e+01 7.821089999999999520e+01 1.976025000000000091e+03
2.700000000000000316e-02 1.210044999999999871e-01 2.441539999999999822e+01 7.743944999999999368e+01 1.976039999999999964e+03
2.800000000000000058e-02 1.209959999999999924e-01 2.384615000000000151e+01 7.653770000000000095e+01 1.975950000000000045e+03
2.900000000000000147e-02 1.209840000000000082e-01 2.329395000000000238e+01 7.574334999999999241e+01 1.975809999999999945e+03
3.000000000000000236e-02 1.209725000000000106e-01 2.277490000000000236e+01 7.516245000000000687e+01 1.975670000000000073e+03
3.099999999999999978e-02 1.209630000000000011e-01 2.226729999999999876e+01 7.476355000000000928e+01 1.975549999999999955e+03
3.200000000000000067e-02 1.209534999999999916e-01 2.172814999999999941e+01 7.441825000000000045e+01 1.975440000000000055e+03
3.300000000000000155e-02 1.209435000000000093e-01 2.111489999999999867e+01 7.396654999999999802e+01 1.975315000000000055e+03
3.400000000000000244e-02 1.209284999999999943e-01 2.040514999999999901e+01 7.328600000000000136e+01 1.975139999999999873e+03
3.500000000000000333e-02 1.209085000000000021e-01 1.960934999999999917e+01 7.234299999999998931e+01 1.974900000000000091e+03
3.600000000000000422e-02 1.208829999999999905e-01 1.877270000000000039e+01 7.121415000000000362e+01 1.974595000000000027e+03
3.700000000000000511e-02 1.208550000000000041e-01 1.796679999999999922e+01 7.007200000000000273e+01 1.974255000000000109e+03
3.799999999999999906e-02 1.208285000000000053e-01 1.727244999999999919e+01 6.914134999999998854e+01 1.973929999999999836e+03
3.899999999999999994e-02 1.208085000000000131e-01 1.676054999999999851e+01 6.863939999999999486e+01 1.973680000000000064e+03
4.000000000000000083e-02 1.207999999999999907e-01 1.647459999999999880e+01 6.871795000000000186e+01 1.973565000000000055e+03
4.100000000000000172e-02 1.208045000000000091e-01 1.642099999999999937e+01 6.942404999999999404e+01 1.973605000000000018e+03
4.200000000000000261e-02 1.208229999999999860e-01 1.656775000000000020e+01 7.068715000000000259e+01 1.973815000000000055e+03
4.300000000000000350e-02 1.208539999999999892e-01 1.685139999999999816e+01 7.233404999999999063e+01 1.974175000000000182e+03
4.400000000000000439e-02 1.208924999999999861e-01 1.718959999999999866e+01 7.412404999999999688e+01 1.974640000000000100e+03
4.499999999999999833e-02 1.209329999999999850e-01 1.749490000000000123e+01 7.579394999999999527e+01 1.975134999999999991e+03
4.599999999999999922e-02 1.209709999999999952e-01 1.768865000000000265e+01 7.710269999999999868e+01 1.975599999999999909e+03
4.700000000000000011e-02 1.210005000000000108e-01 1.770980000000000132e+01 7.786529999999999063e+01 1.975965000000000146e+03
4.800000000000000100e-02 1.210169999999999996e-01 1.752080000000000126e+01 7.797294999999999732e+01 1.976179999999999836e+03
4.900000000000000189e-02 1.210190000000000154e-01 1.710780000000000101e+01 7.739645000000000152e+01 1.976215000000000146e+03
5.000000000000000278e-02 1.210050000000000014e-01 1.647760000000000247e+01 7.617670000000001096e+01 1.976054999999999836e+03
5.100000000000000366e-02 1.209760000000000002e-01 1.565259999999999962e+01 7.440590000000000259e+01 1.975704999999999927e+03
5.200000000000000455e-02 1.209324999999999983e-01 1.466484999999999950e+01 7.220529999999999404e+01 1.975179999999999836e+03
5.300000000000000544e-02 1.208779999999999993e-01 1.355095000000000027e+01 6.970515000000000327e+01 1.974525000000000091e+03
5.399999999999999939e-02 1.208154999999999923e-01 1.234839500000000001e+01 6.702930000000000632e+01 1.973759999999999991e+03
5.500000000000000028e-02 1.207474999999999937e-01 1.109359500000000054e+01 6.428764999999999930e+01 1.972924999999999955e+03
5.600000000000000117e-02 1.206764999999999921e-01 9.821645000000000181e+00 6.157365000000000066e+01 1.972049999999999955e+03
5.700000000000000205e-02 1.206045000000000034e-01 8.566964999999999719e+00 5.896790000000000020e+01 1.971170000000000073e+03
5.800000000000000294e-02 1.205344999999999889e-01 7.364119999999999777e+00 5.654279999999999973e+01 1.970309999999999945e+03
5.900000000000000383e-02 1.204685000000000061e-01 6.248520000000000074e+00 5.436804999999999666e+01 1.969490000000000009e+03
6.000000000000000472e-02 1.204080000000000011e-01 5.256590000000000096e+00 5.251399999999999579e+01 1.968744999999999891e+03
6.099999999999999867e-02 1.203559999999999908e-01 4.424990000000000201e+00 5.105249999999999488e+01 1.968095000000000027e+03
6.199999999999999956e-02 1.203144999999999909e-01 3.789145000000000429e+00 5.005485000000000184e+01 1.967565000000000055e+03
6.300000000000000044e-02 1.202845000000000025e-01 3.381269999999999776e+00 4.958755000000000024e+01 1.967184999999999945e+03
6.400000000000000133e-02 1.202685000000000004e-01 3.228204999999999991e+00 4.970680000000000121e+01 1.966970000000000027e+03
6.500000000000000222e-02 1.202674999999999994e-01 3.349419999999999842e+00 5.045309999999999917e+01 1.966949999999999818e+03
6.600000000000000311e-02 1.202840000000000020e-01 3.755460000000000242e+00 5.184645000000000437e+01 1.967125000000000000e+03
6.700000000000000400e-02 1.203174999999999939e-01 4.447084999999999511e+00 5.388354999999999961e+01 1.967514999999999873e+03
6.800000000000000488e-02 1.203675000000000023e-01 5.415144999999999875e+00 5.653725000000000023e+01 1.968110000000000127e+03
6.900000000000000577e-02 1.204344999999999999e-01 6.641214999999999868e+00 5.975799999999999557e+01 1.968909999999999854e+03
7.000000000000000666e-02 1.205164999999999986e-01 8.098749999999999005e+00 6.347714999999999463e+01 1.969900000000000091e+03
7.100000000000000755e-02 1.206124999999999836e-01 9.754830000000000112e+00 6.761160000000000991e+01 1.971065000000000055e+03
7.200000000000000844e-02 1.207204999999999945e-01 1.157185999999999915e+01 7.206924999999999670e+01 1.972384999999999991e+03
7.300000000000000933e-02 1.208375000000000005e-01 1.350977999999999923e+01 7.675435000000000230e+01 1.973820000000000164e+03
7.399999999999999634e-02 1.209625000000000006e-01 1.552799999999999869e+01 8.157290000000000418e+01 1.975349999999999909e+03
7.499999999999999722e-02 1.210914999999999908e-01 1.758719999999999928e+01 8.643755000000000166e+01 1.976945000000000164e+03
7.599999999999999811e-02 1.212235000000000118e-01 1.965105000000000146e+01 9.127155000000000484e+01 1.978579999999999927e+03
7.699999999999999900e-02 1.213555000000000050e-01 2.168750000000000000e+01 9.601154999999999973e+01 1.980224999999999909e+03
7.799999999999999989e-02 1.214864999999999973e-01 2.367014999999999958e+01 1.006103499999999968e+02 1.981865000000000009e+03
7.900000000000000078e-02 1.216150000000000009e-01 2.557854999999999990e+01 1.050370999999999952e+02 1.983470000000000027e+03
8.000000000000000167e-02 1.217405000000000015e-01 2.739849999999999852e+01 1.092775000000000034e+02 1.985045000000000073e+03
8.100000000000000255e-02 1.218619999999999981e-01 2.912180000000000035e+01 1.133310000000000031e+02 1.986575000000000045e+03
8.200000000000000344e-02 1.219785000000000036e-01 3.074579999999999913e+01 1.172109999999999985e+02 1.988049999999999955e+03
8.300000000000000433e-02 1.220920000000000061e-01 3.227224999999999966e+01 1.209380000000000024e+02 1.989480000000000018e+03
8.400000000000000522e-02 1.222015000000000046e-01 3.370615000000000094e+01 1.245395000000000039e+02 1.990869999999999891e+03
8.500000000000000611e-02 1.223074999999999996e-01 3.505454999999999899e+01 1.280434999999999945e+02 1.992219999999999800e+03
8.600000000000000699e-02 1.224114999999999925e-01 3.632540000000000191e+01 1.314774999999999920e+02 1.993545000000000073e+03
8.700000000000000788e-02 1.225130000000000108e-01 3.752624999999999744e+01 1.348625000000000114e+02 1.994845000000000027e+03
8.800000000000000877e-02 1.226135000000000003e-01 3.866360000000000241e+01 1.382155000000000200e+02 1.996125000000000000e+03
8.899999999999999578e-02 1.227125000000000021e-01 3.974200000000000443e+01 1.415420000000000016e+02 1.997389999999999873e+03
8.999999999999999667e-02 1.228110000000000035e-01 4.076389999999999958e+01 1.448430000000000177e+02 1.998650000000000091e+03
9.099999999999999756e-02 1.229085000000000039e-01 4.172905000000000086e+01 1.481084999999999923e+02 1.999894999999999982e+03
9.199999999999999845e-02 1.230040000000000022e-01 4.263519999999999754e+01 1.513220000000000027e+02 2.001125000000000000e+03
9.299999999999999933e-02 1.230990000000000001e-01 4.347775000000000034e+01 1.544619999999999891e+02 2.002329999999999927e+03
9.400000000000000022e-02 1.231905000000000083e-01 4.425050000000000239e+01 1.575020000000000095e+02 2.003514999999999873e+03
9.500000000000000111e-02 1.232800000000000007e-01 4.494575000000000387e+01 1.604139999999999873e+02 2.004664999999999964e+03
9.600000000000000200e-02 1.233655000000000029e-01 4.555519999999999925e+01 1.631670000000000016e+02 2.005764999999999873e+03
9.700000000000000289e-02 1.234470000000000012e-01 4.607014999999999816e+01 1.657319999999999993e+02 2.006815000000000055e+03
9.800000000000000377e-02 1.235229999999999939e-01 4.648214999999999719e+01 1.680815000000000055e+02 2.007799999999999955e+03
9.900000000000000466e-02 1.235934999999999950e-01 4.678340000000000032e+01 1.701904999999999859e+02 2.008704999999999927e+03
1.000000000000000056e-01 1.236575000000000035e-01 4.696710000000000207e+01 1.720395000000000039e+02 2.009534999999999854e+03
1.010000000000000064e-01 1.237139999999999906e-01 4.702814999999999657e+01 1.736105000000000018e+02 2.010275000000000091e+03
1.020000000000000073e-01 1.237629999999999841e-01 4.696314999999999884e+01 1.748940000000000055e+02 2.010920000000000073e+03
1.030000000000000082e-01 1.238044999999999979e-01 4.677084999999999582e+01 1.758849999999999909e+02 2.011460000000000036e+03
1.040000000000000091e-01 1.238380000000000036e-01 4.645244999999999891e+01 1.765840000000000032e+02 2.011904999999999973e+03
1.050000000000000100e-01 1.238635000000000014e-01 4.601139999999999475e+01 1.769975000000000023e+02 2.012240000000000009e+03
1.059999999999999970e-01 1.238805000000000045e-01 4.545390000000000441e+01 1.771390000000000100e+02 2.012480000000000018e+03
1.069999999999999979e-01 1.238910000000000011e-01 4.478825000000000500e+01 1.770280000000000200e+02 2.012619999999999891e+03
1.079999999999999988e-01 1.238934999999999897e-01 4.402510000000000190e+01 1.766870000000000118e+02 2.012670000000000073e+03
1.089999999999999997e-01 1.238895000000000135e-01 4.317685000000000173e+01 1.761444999999999936e+02 2.012630000000000109e+03
1.100000000000000006e-01 1.238805000000000045e-01 4.225735000000000241e+01 1.754300000000000068e+02 2.012519999999999982e+03
1.110000000000000014e-01 1.238654999999999895e-01 4.128140000000000498e+01 1.745774999999999864e+02 2.012345000000000027e+03
1.120000000000000023e-01 1.238464999999999983e-01 4.026409999999999911e+01 1.736195000000000164e+02 2.012110000000000127e+03
1.130000000000000032e-01 1.238245000000000040e-01 3.922044999999999959e+01 1.725869999999999891e+02 2.011829999999999927e+03
1.140000000000000041e-01 1.237999999999999934e-01 3.816485000000000127e+01 1.715120000000000005e+02 2.011515000000000100e+03
1.150000000000000050e-01 1.237735000000000085e-01 3.711055000000000348e+01 1.704205000000000041e+02 2.011179999999999836e+03
1.160000000000000059e-01 1.237459999999999949e-01 3.606919999999999504e+01 1.693350000000000080e+02 2.010829999999999927e+03
1.170000000000000068e-01 1.237175000000000080e-01 3.505080000000000240e+01 1.682755000000000223e+02 2.010470000000000027e+03
1.180000000000000077e-01 1.236899999999999944e-01 3.406289999999999907e+01 1.672545000000000073e+02 2.010110000000000127e+03
1.190000000000000085e-01 1.236625000000000085e-01 3.311124999999999829e+01 1.662810000000000059e+02 2.009759999999999991e+03
1.200000000000000094e-01 1.236359999999999959e-01 3.219890000000000185e+01 1.653580000000000041e+02 2.009420000000000073e+03
1.209999999999999964e-01 1.236105000000000120e-01 3.132695000000000007e+01 1.644839999999999804e+02 2.009085000000000036e+03
1.219999999999999973e-01 1.235855000000000148e-01 3.049415000000000120e+01 1.636519999999999868e+02 2.008764999999999873e+03
1.229999999999999982e-01 1.235614999999999908e-01 2.969735000000000014e+01 1.628525000000000205e+02 2.008460000000000036e+03
1.239999999999999991e-01 1.235384999999999955e-01 2.893195000000000050e+01 1.620720000000000027e+02 2.008154999999999973e+03
1.250000000000000000e-01 1.235155000000000003e-01 2.819180000000000064e+01 1.612944999999999993e+02 2.007855000000000018e+03
1.260000000000000009e-01 1.234930000000000055e-01 2.746985000000000099e+01 1.605035000000000025e+02 2.007554999999999836e+03
1.270000000000000018e-01 1.234694999999999959e-01 2.675844999999999985e+01 1.596800000000000068e+02 2.007255000000000109e+03
1.280000000000000027e-01 1.234449999999999992e-01 2.604999999999999716e+01 1.588075000000000045e+02 2.006940000000000055e+03
1.290000000000000036e-01 1.234195000000000014e-01 2.533695000000000164e+01 1.578704999999999927e+02 2.006615000000000009e+03
1.300000000000000044e-01 1.233920000000000017e-01 2.461260000000000048e+01 1.568539999999999850e+02 2.006259999999999991e+03
1.310000000000000053e-01 1.233630000000000004e-01 2.387115000000000009e+01 1.557479999999999905e+02 2.005884999999999991e+03
1.320000000000000062e-01 1.233314999999999967e-01 2.310829999999999984e+01 1.545444999999999993e+02 2.005484999999999900e+03
1.330000000000000071e-01 1.232970000000000038e-01 2.232114999999999938e+01 1.532415000000000020e+02 2.005045000000000073e+03
1.340000000000000080e-01 1.232604999999999951e-01 2.150865000000000293e+01 1.518385000000000105e+02 2.004579999999999927e+03
1.350000000000000089e-01 1.232215000000000116e-01 2.067170000000000130e+01 1.503425000000000011e+02 2.004079999999999927e+03
1.360000000000000098e-01 1.231789999999999968e-01 1.981280000000000285e+01 1.487630000000000052e+02 2.003545000000000073e+03
1.370000000000000107e-01 1.231355000000000088e-01 1.893650000000000233e+01 1.471129999999999995e+02 2.002985000000000127e+03
1.380000000000000115e-01 1.230890000000000040e-01 1.804870000000000019e+01 1.454105000000000132e+02 2.002400000000000091e+03
1.390000000000000124e-01 1.230420000000000125e-01 1.715690000000000026e+01 1.436754999999999995e+02 2.001795000000000073e+03
1.400000000000000133e-01 1.229930000000000051e-01 1.626935000000000286e+01 1.419304999999999950e+02 2.001180000000000064e+03
1.410000000000000142e-01 1.229445000000000121e-01 1.539524999999999899e+01 1.401980000000000075e+02 2.000559999999999945e+03
1.420000000000000151e-01 1.228959999999999914e-01 1.454394999999999882e+01 1.385015000000000214e+02 1.999940000000000055e+03
1.430000000000000160e-01 1.228479999999999989e-01 1.372465000000000046e+01 1.368629999999999995e+02 1.999335000000000036e+03
1.440000000000000169e-01 1.228019999999999945e-01 1.294599999999999973e+01 1.353029999999999973e+02 1.998739999999999782e+03
1.450000000000000178e-01 1.227570000000000050e-01 1.221582500000000060e+01 1.338394999999999868e+02 1.998170000000000073e+03
1.459999999999999909e-01 1.227155000000000051e-01 1.154077999999999982e+01 1.324870000000000232e+02 1.997630000000000109e+03
1.469999999999999918e-01 1.226754999999999929e-01 1.092611499999999936e+01 1.312565000000000168e+02 1.997125000000000000e+03
1.479999999999999927e-01 1.226395000000000124e-01 1.037553499999999929e+01 1.301539999999999964e+02 1.996664999999999964e+03
1.489999999999999936e-01 1.226065000000000071e-01 9.891075000000000728e+00 1.291834999999999809e+02 1.996240000000000009e+03
1.499999999999999944e-01 1.225770000000000054e-01 9.473195000000000476e+00 1.283449999999999989e+02 1.995859999999999900e+03
1.509999999999999953e-01 1.225509999999999933e-01 9.120855000000000601e+00 1.276320000000000050e+02 1.995519999999999982e+03
1.519999999999999962e-01 1.225279999999999980e-01 8.831519999999999371e+00 1.270390000000000015e+02 1.995224999999999909e+03
1.529999999999999971e-01 1.225085000000000063e-01 8.601520000000000721e+00 1.265554999999999950e+02 1.994974999999999909e+03
1.539999999999999980e-01 1.224920000000000037e-01 8.426164999999999239e+00 1.261709999999999923e+02 1.994759999999999991e+03
1.549999999999999989e-01 1.224784999999999902e-01 8.300024999999999764e+00 1.258719999999999999e+02 1.994579999999999927e+03
1.559999999999999998e-01 1.224674999999999930e-01 8.217144999999998589e+00 1.256450000000000102e+02 1.994434999999999945e+03
1.570000000000000007e-01 1.224584999999999979e-01 8.171285000000001020e+00 1.254775000000000063e+02 1.994309999999999945e+03
1.580000000000000016e-01 1.224515000000000048e-01 8.156140000000000612e+00 1.253559999999999945e+02 1.994214999999999918e+03
1.590000000000000024e-01 1.224455000000000127e-01 8.165494999999999948e+00 1.252685000000000031e+02 1.994134999999999991e+03
