# t [s], A [cm^2], U [cm/s], P [cPa], c [cm/s]
1.000000000000000021e-03 1.700869999999999882e-01 2.429020000000000068e-01 1.044710000000000036e+02 2.243000000000000000e+03
2.000000000000000042e-03 1.700460000000000027e-01 1.714294000000000207e+00 1.010816999999999979e+02 2.242590000000000146e+03
3.000000000000000062e-03 1.699299999999999977e-01 3.587605500000000003e+00 9.624965000000000259e+01 2.241505000000000109e+03
4.000000000000000083e-03 1.697704999999999909e-01 5.723925000000000374e+00 9.085224999999999795e+01 2.240039999999999964e+03
5.000000000000000104e-03 1.695989999999999998e-01 8.043084999999999596e+00 8.589124999999999943e+01 2.238470000000000255e+03
6.000000000000000125e-03 1.694330000000000003e-01 1.035739500000000035e+01 8.174500000000000455e+01 2.236970000000000255e+03
7.000000000000000146e-03 1.692770000000000108e-01 1.242948999999999948e+01 7.816655000000000086e+01 2.235590000000000146e+03
8.000000000000000167e-03 1.691334999999999922e-01 1.416910000000000025e+01 7.492660000000000764e+01 2.234345000000000255e+03
9.000000000000001055e-03 1.690075000000000049e-01 1.561464999999999925e+01 7.210739999999999839e+01 2.233269999999999982e+03
1.000000000000000194e-02 1.689019999999999966e-01 1.680245000000000033e+01 6.980140000000000100e+01 2.232369999999999891e+03
1.099999999999999936e-02 1.688155000000000072e-01 1.775120000000000076e+01 6.799164999999999281e+01 2.231654999999999745e+03
1.200000000000000025e-02 1.687474999999999947e-01 1.847129999999999939e+01 6.659649999999999181e+01 2.231090000000000146e+03
1.300000000000000114e-02 1.686930000000000096e-01 1.895899999999999963e+01 6.546455000000000268e+01 2.230650000000000091e+03
1.400000000000000203e-02 1.686479999999999924e-01 1.923389999999999844e+01 6.445789999999999509e+01 2.230295000000000073e+03
1.499999999999999944e-02 1.686114999999999975e-01 1.939350000000000307e+01 6.364199999999999591e+01 2.230010000000000218e+03
1.600000000000000033e-02 1.685905000000000042e-01 1.960329999999999728e+01 6.334925000000000495e+01 2.229845000000000255e+03
1.700000000000000122e-02 1.685939999999999939e-01 2.001534999999999798e+01 6.399360000000000070e+01 2.229885000000000218e+03
1.800000000000000211e-02 1.686274999999999857e-01 2.068135000000000190e+01 6.577545000000000641e+01 2.230170000000000073e+03
1.900000000000000300e-02 1.686894999999999922e-01 2.152275000000000205e+01 6.850244999999999607e+01 2.230694999999999709e+03
2.000000000000000042e-02 1.687684999999999880e-01 2.236970000000000169e+01 7.163249999999999318e+01 2.231375000000000000e+03
2.100000000000000130e-02 1.688500000000000001e-01 2.303784999999999883e+01 7.448840000000001282e+01 2.232079999999999927e+03
2.200000000000000219e-02 1.689184999999999992e-01 2.339999999999999858e+01 7.651460000000000150e+01 2.232690000000000055e+03
2.299999999999999961e-02 1.689650000000000041e-01 2.342419999999999902e+01 7.745605000000000473e+01 2.233119999999999891e+03
2.400000000000000050e-02 1.689864999999999839e-01 2.316880000000000095e+01 7.739834999999999354e+01 2.233335000000000036e+03
2.500000000000000139e-02 1.689884999999999859e-01 2.274394999999999811e+01 7.667440000000000566e+01 2.233364999999999782e+03
2.600000000000000228e-02 1.689775000000000027e-01 2.225999999999999801e+01 7.569470000000001164e+01 2.233279999999999745e+03
2.700000000000000316e-02 1.689610000000000001e-01 2.178594999999999970e+01 7.477930000000000632e+01 2.233149999999999636e+03
2.800000000000000058e-02 1.689450000000000118e-01 2.133155000000000001e+01 7.405655000000000143e+01 2.233010000000000218e+03
2.900000000000000147e-02 1.689289999999999958e-01 2.085624999999999929e+01 7.345435000000000514e+01 2.232875000000000000e+03
3.000000000000000236e-02 1.689109999999999778e-01 2.029720000000000013e+01 7.277119999999999322e+01 2.232720000000000255e+03
3.099999999999999978e-02 1.688860000000000083e-01 1.960340000000000060e+01 7.179134999999999422e+01 2.232510000000000218e+03
3.200000000000000067e-02 1.688510000000000011e-01 1.876569999999999894e+01 7.039789999999999281e+01 2.232220000000000255e+03
3.300000000000000155e-02 1.688054999999999972e-01 1.782934999999999803e+01 6.864430000000000121e+01 2.231835000000000036e+03
3.400000000000000244e-02 1.687540000000000151e-01 1.688790000000000191e+01 6.676089999999999236e+01 2.231404999999999745e+03
3.500000000000000333e-02 1.687045000000000072e-01 1.605869999999999820e+01 6.509400000000000830e+01 2.230974999999999909e+03
3.600000000000000422e-02 1.686644999999999950e-01 1.544989999999999952e+01 6.400235000000000696e+01 2.230630000000000109e+03
3.700000000000000511e-02 1.686429999999999874e-01 1.513025000000000020e+01 6.374794999999999590e+01 2.230425000000000182e+03
3.799999999999999906e-02 1.686449999999999894e-01 1.511149999999999949e+01 6.441925000000000523e+01 2.230420000000000073e+03
3.899999999999999994e-02 1.686695000000000000e-01 1.534765000000000157e+01 6.590755000000000052e+01 2.230609999999999673e+03
4.000000000000000083e-02 1.687124999999999875e-01 1.574794999999999945e+01 6.793765000000000498e+01 2.230965000000000146e+03
4.100000000000000172e-02 1.687659999999999993e-01 1.619869999999999877e+01 7.013720000000000709e+01 2.231409999999999854e+03
4.200000000000000261e-02 1.688209999999999988e-01 1.658725000000000094e+01 7.211945000000000050e+01 2.231880000000000109e+03
4.300000000000000350e-02 1.688680000000000181e-01 1.682079999999999842e+01 7.355789999999998940e+01 2.232289999999999964e+03
4.400000000000000439e-02 1.688999999999999946e-01 1.683814999999999884e+01 7.423574999999999591e+01 2.232570000000000164e+03
4.499999999999999833e-02 1.689114999999999922e-01 1.661244999999999905e+01 7.406419999999999959e+01 2.232680000000000291e+03
4.599999999999999922e-02 1.689014999999999822e-01 1.614659999999999940e+01 7.307040000000000646e+01 2.232605000000000018e+03
4.700000000000000011e-02 1.688700000000000201e-01 1.546480000000000032e+01 7.136584999999999468e+01 2.232349999999999909e+03
4.800000000000000100e-02 1.688195000000000112e-01 1.460205000000000197e+01 6.910585000000000377e+01 2.231930000000000291e+03
4.900000000000000189e-02 1.687549999999999883e-01 1.359590000000000032e+01 6.645260000000000389e+01 2.231380000000000109e+03
5.000000000000000278e-02 1.686779999999999946e-01 1.248162999999999911e+01 6.355010000000000048e+01 2.230729999999999563e+03
5.100000000000000366e-02 1.685939999999999939e-01 1.129045499999999969e+01 6.051344999999999885e+01 2.230010000000000218e+03
5.200000000000000455e-02 1.685050000000000159e-01 1.005121499999999912e+01 5.743115000000000236e+01 2.229250000000000000e+03
5.300000000000000544e-02 1.684134999999999938e-01 8.793155000000000499e+00 5.437610000000000099e+01 2.228465000000000146e+03
5.399999999999999939e-02 1.683219999999999994e-01 7.548994999999999678e+00 5.141920000000000357e+01 2.227680000000000291e+03
5.500000000000000028e-02 1.682339999999999947e-01 6.356555000000000177e+00 4.864064999999999372e+01 2.226920000000000073e+03
5.600000000000000117e-02 1.681504999999999805e-01 5.259095000000000297e+00 4.613580000000000325e+01 2.226199999999999818e+03
5.700000000000000205e-02 1.680765000000000176e-01 4.303449999999999775e+00 4.401389999999999958e+01 2.225550000000000182e+03
5.800000000000000294e-02 1.680134999999999823e-01 3.536884999999999835e+00 4.239095000000000368e+01 2.225000000000000000e+03
5.900000000000000383e-02 1.679664999999999908e-01 3.003120000000000012e+00 4.137859999999999872e+01 2.224585000000000036e+03
6.000000000000000472e-02 1.679379999999999762e-01 2.738324999999999676e+00 4.107130000000000081e+01 2.224324999999999818e+03
6.099999999999999867e-02 1.679304999999999826e-01 2.767840000000000078e+00 4.153529999999999944e+01 2.224235000000000127e+03
6.199999999999999956e-02 1.679454999999999976e-01 3.104010000000000158e+00 4.280110000000000525e+01 2.224345000000000255e+03
6.300000000000000044e-02 1.679839999999999944e-01 3.745325000000000237e+00 4.485985000000000156e+01 2.224650000000000091e+03
6.400000000000000133e-02 1.680449999999999999e-01 4.676969999999999850e+00 4.766434999999999889e+01 2.225154999999999745e+03
6.500000000000000222e-02 1.681285000000000140e-01 5.872334999999999638e+00 5.113439999999999941e+01 2.225855000000000018e+03
6.600000000000000311e-02 1.682310000000000194e-01 7.295415000000000205e+00 5.516400000000000148e+01 2.226715000000000146e+03
6.700000000000000400e-02 1.683494999999999853e-01 8.903644999999999143e+00 5.963085000000000235e+01 2.227725000000000364e+03
6.800000000000000488e-02 1.684820000000000206e-01 1.065106000000000108e+01 6.440614999999999668e+01 2.228845000000000255e+03
6.900000000000000577e-02 1.686235000000000095e-01 1.249145000000000039e+01 6.936459999999999582e+01 2.230055000000000291e+03
7.000000000000000666e-02 1.687710000000000043e-01 1.438125000000000142e+01 7.439254999999999995e+01 2.231329999999999927e+03
7.100000000000000755e-02 1.689215000000000022e-01 1.628194999999999837e+01 7.939539999999999509e+01 2.232625000000000000e+03
7.200000000000000844e-02 1.690725000000000144e-01 1.816190000000000282e+01 8.430209999999999582e+01 2.233930000000000291e+03
7.300000000000000933e-02 1.692214999999999969e-01 1.999734999999999729e+01 8.906714999999999804e+01 2.235225000000000364e+03
7.399999999999999634e-02 1.693675000000000042e-01 2.177239999999999753e+01 9.366990000000001260e+01 2.236500000000000000e+03
7.499999999999999722e-02 1.695105000000000084e-01 2.347874999999999801e+01 9.811175000000000068e+01 2.237744999999999891e+03
7.599999999999999811e-02 1.696495000000000086e-01 2.511390000000000100e+01 1.024099499999999949e+02 2.238960000000000036e+03
7.699999999999999900e-02 1.697849999999999915e-01 2.667970000000000041e+01 1.065922000000000054e+02 2.240155000000000200e+03
7.799999999999999989e-02 1.699180000000000135e-01 2.818054999999999666e+01 1.106889999999999930e+02 2.241320000000000164e+03
7.900000000000000078e-02 1.700495000000000201e-01 2.962185000000000201e+01 1.147289999999999992e+02 2.242474999999999909e+03
8.000000000000000167e-02 1.701789999999999969e-01 3.100829999999999842e+01 1.187349999999999994e+02 2.243609999999999673e+03
8.100000000000000255e-02 1.703075000000000006e-01 3.234369999999999834e+01 1.227195000000000107e+02 2.244744999999999891e+03
8.200000000000000344e-02 1.704350000000000032e-01 3.362960000000000349e+01 1.266855000000000047e+02 2.245869999999999891e+03
8.300000000000000433e-02 1.705625000000000058e-01 3.486575000000000557e+01 1.306270000000000095e+02 2.246989999999999782e+03
8.400000000000000522e-02 1.706880000000000064e-01 3.604995000000000260e+01 1.345285000000000082e+02 2.248099999999999909e+03
8.500000000000000611e-02 1.708125000000000060e-01 3.717830000000000013e+01 1.383704999999999927e+02 2.249199999999999818e+03
8.600000000000000699e-02 1.709355000000000180e-01 3.824535000000000196e+01 1.421260000000000048e+02 2.250279999999999745e+03
8.700000000000000788e-02 1.710550000000000126e-01 3.924460000000000548e+01 1.457685000000000173e+02 2.251340000000000146e+03
8.800000000000000877e-02 1.711710000000000176e-01 4.016840000000000543e+01 1.492669999999999959e+02 2.252364999999999782e+03
8.899999999999999578e-02 1.712819999999999898e-01 4.100854999999999961e+01 1.525905000000000200e+02 2.253349999999999909e+03
8.999999999999999667e-02 1.713875000000000259e-01 4.175619999999999976e+01 1.557090000000000032e+02 2.254289999999999964e+03
9.099999999999999756e-02 1.714870000000000005e-01 4.240255000000000507e+01 1.585919999999999845e+02 2.255180000000000291e+03
9.199999999999999845e-02 1.715789999999999815e-01 4.293914999999999793e+01 1.612115000000000009e+02 2.255994999999999891e+03
9.299999999999999933e-02 1.716634999999999966e-01 4.335844999999999771e+01 1.635439999999999827e+02 2.256750000000000000e+03
9.400000000000000022e-02 1.717385000000000161e-01 4.365455000000000041e+01 1.655679999999999836e+02 2.257420000000000073e+03
9.500000000000000111e-02 1.718040000000000123e-01 4.382359999999999900e+01 1.672710000000000150e+02 2.258010000000000218e+03
9.600000000000000200e-02 1.718600000000000128e-01 4.386464999999999748e+01 1.686465000000000032e+02 2.258515000000000327e+03
9.700000000000000289e-02 1.719060000000000032e-01 4.377944999999999709e+01 1.696980000000000075e+02 2.258935000000000400e+03
9.800000000000000377e-02 1.719419999999999837e-01 4.357340000000000657e+01 1.704375000000000000e+02 2.259265000000000327e+03
9.900000000000000466e-02 1.719689999999999830e-01 4.325455000000000183e+01 1.708845000000000027e+02 2.259510000000000218e+03
1.000000000000000056e-01 1.719864999999999866e-01 4.283414999999999395e+01 1.710695000000000050e+02 2.259684999999999945e+03
1.010000000000000064e-01 1.719964999999999966e-01 4.232535000000000025e+01 1.710250000000000057e+02 2.259779999999999745e+03
1.020000000000000073e-01 1.719999999999999862e-01 4.174304999999999666e+01 1.707900000000000205e+02 2.259809999999999945e+03
1.030000000000000082e-01 1.719970000000000110e-01 4.110290000000000532e+01 1.704050000000000011e+02 2.259795000000000073e+03
1.040000000000000091e-01 1.719890000000000030e-01 4.042074999999999818e+01 1.699080000000000155e+02 2.259734999999999673e+03
1.050000000000000100e-01 1.719775000000000054e-01 3.971160000000000423e+01 1.693369999999999891e+02 2.259640000000000327e+03
1.059999999999999970e-01 1.719630000000000047e-01 3.898940000000000339e+01 1.687255000000000109e+02 2.259515000000000327e+03
1.069999999999999979e-01 1.719474999999999754e-01 3.826619999999999777e+01 1.680995000000000061e+02 2.259380000000000109e+03
1.079999999999999988e-01 1.719310000000000005e-01 3.755190000000000339e+01 1.674814999999999827e+02 2.259235000000000127e+03
1.089999999999999997e-01 1.719144999999999979e-01 3.685419999999999874e+01 1.668859999999999957e+02 2.259085000000000036e+03
1.100000000000000006e-01 1.718974999999999809e-01 3.617779999999999774e+01 1.663199999999999932e+02 2.258940000000000055e+03
1.110000000000000014e-01 1.718810000000000060e-01 3.552510000000000190e+01 1.657839999999999918e+02 2.258789999999999964e+03
1.120000000000000023e-01 1.718649999999999900e-01 3.489585000000000292e+01 1.652744999999999891e+02 2.258650000000000091e+03
1.130000000000000032e-01 1.718500000000000028e-01 3.428744999999999976e+01 1.647800000000000011e+02 2.258510000000000218e+03
1.140000000000000041e-01 1.718345000000000011e-01 3.369519999999999982e+01 1.642849999999999966e+02 2.258375000000000000e+03
1.150000000000000050e-01 1.718189999999999995e-01 3.311290000000000333e+01 1.637704999999999984e+02 2.258230000000000018e+03
1.160000000000000059e-01 1.718020000000000103e-01 3.253309999999999746e+01 1.632144999999999868e+02 2.258079999999999927e+03
1.170000000000000068e-01 1.717834999999999779e-01 3.194774999999999920e+01 1.625969999999999800e+02 2.257914999999999964e+03
1.180000000000000077e-01 1.717635000000000134e-01 3.134880000000000422e+01 1.618949999999999818e+02 2.257739999999999782e+03
1.190000000000000085e-01 1.717405000000000181e-01 3.072860000000000014e+01 1.610905000000000200e+02 2.257534999999999854e+03
1.200000000000000094e-01 1.717144999999999921e-01 3.008070000000000022e+01 1.601675000000000182e+02 2.257309999999999945e+03
1.209999999999999964e-01 1.716850000000000043e-01 2.940005000000000024e+01 1.591154999999999973e+02 2.257050000000000182e+03
1.219999999999999973e-01 1.716515000000000124e-01 2.868345000000000056e+01 1.579290000000000020e+02 2.256755000000000109e+03
1.229999999999999982e-01 1.716139999999999888e-01 2.793009999999999948e+01 1.566080000000000041e+02 2.256425000000000182e+03
1.239999999999999991e-01 1.715725000000000167e-01 2.714140000000000086e+01 1.551610000000000014e+02 2.256065000000000055e+03
1.250000000000000000e-01 1.715274999999999994e-01 2.632124999999999915e+01 1.536014999999999873e+02 2.255670000000000073e+03
1.260000000000000009e-01 1.714795000000000069e-01 2.547579999999999956e+01 1.519485000000000241e+02 2.255250000000000000e+03
1.270000000000000018e-01 1.714284999999999837e-01 2.461325000000000074e+01 1.502280000000000086e+02 2.254805000000000291e+03
1.280000000000000027e-01 1.713755000000000139e-01 2.374340000000000117e+01 1.484685000000000059e+02 2.254335000000000036e+03
1.290000000000000036e-01 1.713220000000000021e-01 2.287729999999999819e+01 1.467010000000000218e+02 2.253859999999999673e+03
1.300000000000000044e-01 1.712675000000000169e-01 2.202645000000000053e+01 1.449585000000000150e+02 2.253385000000000218e+03
1.310000000000000053e-01 1.712140000000000051e-01 2.120240000000000080e+01 1.432730000000000246e+02 2.252914999999999964e+03
1.320000000000000062e-01 1.711624999999999952e-01 2.041610000000000014e+01 1.416720000000000255e+02 2.252460000000000036e+03
1.330000000000000071e-01 1.711135000000000017e-01 1.967734999999999701e+01 1.401825000000000045e+02 2.252024999999999636e+03
1.340000000000000080e-01 1.710669999999999968e-01 1.899435000000000073e+01 1.388249999999999886e+02 2.251614999999999782e+03
1.350000000000000089e-01 1.710249999999999826e-01 1.837349999999999994e+01 1.376140000000000043e+02 2.251239999999999782e+03
1.360000000000000098e-01 1.709870000000000001e-01 1.781895000000000095e+01 1.365579999999999927e+02 2.250899999999999636e+03
1.370000000000000107e-01 1.709534999999999805e-01 1.733295000000000030e+01 1.356619999999999777e+02 2.250599999999999909e+03
1.380000000000000115e-01 1.709245000000000070e-01 1.691554999999999964e+01 1.349230000000000018e+02 2.250340000000000146e+03
1.390000000000000124e-01 1.709005000000000107e-01 1.656499999999999773e+01 1.343340000000000032e+02 2.250119999999999891e+03
1.400000000000000133e-01 1.708804999999999907e-01 1.627789999999999893e+01 1.338849999999999909e+02 2.249940000000000055e+03
1.410000000000000142e-01 1.708649999999999891e-01 1.604949999999999832e+01 1.335620000000000118e+02 2.249795000000000073e+03
1.420000000000000151e-01 1.708529999999999771e-01 1.587415000000000020e+01 1.333495000000000061e+02 2.249684999999999945e+03
1.430000000000000160e-01 1.708439999999999959e-01 1.574525000000000041e+01 1.332309999999999945e+02 2.249605000000000018e+03
1.440000000000000169e-01 1.708385000000000042e-01 1.565615000000000023e+01 1.331904999999999859e+02 2.249550000000000182e+03
1.450000000000000178e-01 1.708355000000000012e-01 1.559984999999999999e+01 1.332099999999999795e+02 2.249514999999999873e+03
1.459999999999999909e-01 1.708339999999999859e-01 1.556944999999999979e+01 1.332755000000000223e+02 2.249500000000000000e+03
1.469999999999999918e-01 1.708345000000000002e-01 1.555855000000000032e+01 1.333725000000000023e+02 2.249500000000000000e+03
1.479999999999999927e-01 1.708355000000000012e-01 1.556119999999999948e+01 1.334879999999999995e+02 2.249510000000000218e+03
1.489999999999999936e-01 1.708375000000000032e-01 1.557209999999999894e+01 1.336129999999999995e+02 2.249524999999999636e+03
1.499999999999999944e-01 1.708405000000000062e-01 1.558674999999999855e+01 1.337370000000000232e+02 2.249545000000000073e+03
1.509999999999999953e-01 1.708429999999999949e-01 1.560154999999999959e+01 1.338549999999999898e+02 2.249569999999999709e+03
1.519999999999999962e-01 1.708459999999999979e-01 1.561380000000000123e+01 1.339635000000000105e+02 2.249595000000000255e+03
1.529999999999999971e-01 1.708485000000000142e-01 1.562175000000000047e+01 1.340589999999999975e+02 2.249619999999999891e+03
1.539999999999999980e-01 1.708510000000000029e-01 1.562444999999999951e+01 1.341430000000000007e+02 2.249640000000000327e+03
1.549999999999999989e-01 1.708534999999999915e-01 1.562195000000000000e+01 1.342169999999999845e+02 2.249659999999999854e+03
1.559999999999999998e-01 1.708554999999999935e-01 1.561479999999999890e+01 1.342845000000000084e+02 2.249680000000000291e+03
1.570000000000000007e-01 1.708570000000000089e-01 1.560415000000000063e+01 1.343489999999999895e+02 2.249695000000000164e+03
1.580000000000000016e-01 1.708594999999999975e-01 1.559154999999999802e+01 1.344170000000000016e+02 2.249715000000000146e+03
1.590000000000000024e-01 1.708614999999999995e-01 1.557884999999999920e+01 1.344925000000000068e+02 2.249734999999999673e+03
