# t [s], A [cm^2], U [cm/s], P [cPa], c [cm/s]
1.000000000000000021e-03 6.403469999999999995e-01 7.518250000000004096e-03 1.088340000000000032e+02 1.781679999999999836e+03
2.000000000000000042e-03 6.403360000000000163e-01 -2.869914999999999793e-03 1.087999999999999972e+02 1.781670000000000073e+03
3.000000000000000062e-03 6.403889999999999860e-01 9.793145000000000322e-02 1.089244999999999948e+02 1.781700000000000045e+03
4.000000000000000083e-03 6.404324999999999601e-01 1.945772000000000057e-01 1.090564999999999998e+02 1.781730000000000018e+03
5.000000000000000104e-03 6.403980000000000228e-01 1.545915999999999957e-01 1.089635000000000105e+02 1.781715000000000146e+03
6.000000000000000125e-03 6.403345000000000287e-01 5.505650000000000821e-02 1.087044999999999959e+02 1.781659999999999854e+03
7.000000000000000146e-03 6.402824999999999767e-01 -3.084950000000002968e-02 1.083984999999999985e+02 1.781595000000000027e+03
8.000000000000000167e-03 6.401930000000000121e-01 -2.048749999999999183e-01 1.079290000000000020e+02 1.781500000000000000e+03
9.000000000000001055e-03 6.400440000000000573e-01 -5.132499999999999840e-01 1.072005000000000052e+02 1.781355000000000018e+03
1.000000000000000194e-02 6.398274999999999935e-01 -9.686000000000000165e-01 1.061519999999999868e+02 1.781139999999999873e+03
1.099999999999999936e-02 6.395210000000000061e-01 -1.602494999999999781e+00 1.046878999999999991e+02 1.780845000000000027e+03
1.200000000000000025e-02 6.391314999999999635e-01 -2.381369999999999987e+00 1.027934500000000071e+02 1.780454999999999927e+03
1.300000000000000114e-02 6.387169999999999792e-01 -3.161685000000000301e+00 1.006280000000000001e+02 1.779985000000000127e+03
1.400000000000000203e-02 6.383495000000000141e-01 -3.762888500000000302e+00 9.845385000000000275e+01 1.779505000000000109e+03
1.499999999999999944e-02 6.380670000000000508e-01 -4.066803049999999864e+00 9.649009999999999820e+01 1.779045000000000073e+03
1.600000000000000033e-02 6.378624999999999989e-01 -4.058308499999999874e+00 9.481985000000000241e+01 1.778625000000000000e+03
1.700000000000000122e-02 6.376964999999999995e-01 -3.804593000000000114e+00 9.338790000000000191e+01 1.778244999999999891e+03
1.800000000000000211e-02 6.375200000000000866e-01 -3.406643000000000310e+00 9.205695000000000050e+01 1.777880000000000109e+03
1.900000000000000300e-02 6.372999999999999776e-01 -2.951957999999999860e+00 9.068099999999999739e+01 1.777509999999999991e+03
2.000000000000000042e-02 6.370244999999999935e-01 -2.484528000000000070e+00 8.916585000000000605e+01 1.777115000000000009e+03
2.100000000000000130e-02 6.367065000000000641e-01 -1.998759999999999870e+00 8.749750000000000227e+01 1.776679999999999836e+03
2.200000000000000219e-02 6.363719999999999377e-01 -1.456379999999999786e+00 8.573224999999999341e+01 1.776230000000000018e+03
2.299999999999999961e-02 6.360464999999999591e-01 -8.163850000000001383e-01 8.395699999999999363e+01 1.775775000000000091e+03
2.400000000000000050e-02 6.357414999999999594e-01 -6.361999999999978783e-02 8.224160000000000537e+01 1.775320000000000164e+03
2.500000000000000139e-02 6.354535000000000045e-01 7.756100000000001327e-01 8.060245000000000459e+01 1.774880000000000109e+03
2.600000000000000228e-02 6.351599999999999469e-01 1.634335000000000093e+00 7.898985000000000412e+01 1.774450000000000045e+03
2.700000000000000316e-02 6.348289999999999766e-01 2.419624999999999915e+00 7.729919999999999902e+01 1.774009999999999991e+03
2.800000000000000058e-02 6.344315000000000371e-01 3.035610000000000142e+00 7.540100000000001046e+01 1.773525000000000091e+03
2.900000000000000147e-02 6.339460000000000095e-01 3.408445000000000391e+00 7.318090000000000828e+01 1.772985000000000127e+03
3.000000000000000236e-02 6.333699999999999886e-01 3.505800000000000249e+00 7.057730000000000814e+01 1.772360000000000127e+03
3.099999999999999978e-02 6.327199999999999491e-01 3.344639999999999613e+00 6.760560000000000969e+01 1.771670000000000073e+03
3.200000000000000067e-02 6.320284999999999931e-01 2.984449999999999825e+00 6.435890000000000555e+01 1.770920000000000073e+03
3.300000000000000155e-02 6.313355000000000494e-01 2.509729999999999794e+00 6.098839999999999861e+01 1.770130000000000109e+03
3.400000000000000244e-02 6.306785000000000307e-01 2.008830000000000116e+00 5.767105000000000103e+01 1.769349999999999909e+03
3.500000000000000333e-02 6.300894999999999690e-01 1.557150000000000034e+00 5.457724999999999937e+01 1.768610000000000127e+03
3.600000000000000422e-02 6.295880000000000365e-01 1.207714999999999872e+00 5.184685000000000343e+01 1.767929999999999836e+03
3.700000000000000511e-02 6.291845000000000354e-01 9.898400000000000531e-01 4.957699999999999818e+01 1.767349999999999909e+03
3.799999999999999906e-02 6.288804999999999534e-01 9.138350000000001749e-01 4.782125000000000625e+01 1.766885000000000218e+03
3.899999999999999994e-02 6.286739999999999551e-01 9.786250000000000782e-01 4.659694999999999965e+01 1.766534999999999854e+03
4.000000000000000083e-02 6.285594999999999377e-01 1.179877499999999912e+00 4.589799999999999613e+01 1.766309999999999945e+03
4.100000000000000172e-02 6.285339999999999261e-01 1.516321000000000030e+00 4.570730000000000359e+01 1.766200000000000045e+03
4.200000000000000261e-02 6.285965000000000025e-01 1.992760000000000087e+00 4.600685000000000002e+01 1.766210000000000036e+03
4.300000000000000350e-02 6.287460000000000271e-01 2.619441000000000130e+00 4.678294999999999959e+01 1.766335000000000036e+03
4.400000000000000439e-02 6.289839999999999876e-01 3.408497499999999736e+00 4.802544999999999931e+01 1.766569999999999936e+03
4.499999999999999833e-02 6.293094999999999661e-01 4.369054999999999467e+00 4.972350000000000136e+01 1.766920000000000073e+03
4.599999999999999922e-02 6.297185000000000699e-01 5.502670000000000172e+00 5.185914999999999964e+01 1.767375000000000000e+03
4.700000000000000011e-02 6.302050000000000152e-01 6.800575500000000773e+00 5.440240000000000009e+01 1.767924999999999955e+03
4.800000000000000100e-02 6.307575000000000820e-01 8.242979999999999308e+00 5.730850000000000222e+01 1.768569999999999936e+03
4.900000000000000189e-02 6.313625000000000487e-01 9.800779999999999603e+00 6.051825000000000188e+01 1.769289999999999964e+03
5.000000000000000278e-02 6.320049999999999280e-01 1.143865500000000068e+01 6.396130000000000138e+01 1.770075000000000045e+03
5.100000000000000366e-02 6.326694999999999958e-01 1.311885000000000012e+01 6.756199999999999761e+01 1.770904999999999973e+03
5.200000000000000455e-02 6.333420000000000716e-01 1.480512000000000050e+01 7.124549999999999272e+01 1.771769999999999982e+03
5.300000000000000544e-02 6.340109999999999912e-01 1.646580000000000155e+01 7.494395000000000095e+01 1.772644999999999982e+03
5.399999999999999939e-02 6.346674999999999400e-01 1.807564999999999955e+01 7.860124999999999318e+01 1.773525000000000091e+03
5.500000000000000028e-02 6.353059999999999263e-01 1.961704999999999899e+01 8.217605000000000359e+01 1.774394999999999982e+03
5.600000000000000117e-02 6.359249999999999625e-01 2.107929999999999993e+01 8.564265000000000327e+01 1.775244999999999891e+03
5.700000000000000205e-02 6.365229999999999499e-01 2.245795000000000030e+01 8.898984999999998990e+01 1.776074999999999818e+03
5.800000000000000294e-02 6.371035000000000448e-01 2.375345000000000084e+01 9.221934999999999150e+01 1.776884999999999991e+03
5.900000000000000383e-02 6.376675000000000537e-01 2.496945000000000192e+01 9.534244999999999948e+01 1.777670000000000073e+03
6.000000000000000472e-02 6.382205000000000794e-01 2.611149999999999949e+01 9.837575000000001069e+01 1.778429999999999836e+03
6.099999999999999867e-02 6.387654999999999861e-01 2.718594999999999828e+01 1.013398499999999984e+02 1.779180000000000064e+03
6.199999999999999956e-02 6.393054999999999710e-01 2.819865000000000066e+01 1.042544000000000040e+02 1.779920000000000073e+03
6.300000000000000044e-02 6.398435000000000095e-01 2.915415000000000134e+01 1.071363999999999947e+02 1.780644999999999982e+03
6.400000000000000133e-02 6.403799999999999493e-01 3.005530000000000257e+01 1.099969999999999999e+02 1.781369999999999891e+03
6.500000000000000222e-02 6.409154999999999713e-01 3.090254999999999797e+01 1.128419999999999987e+02 1.782090000000000146e+03
6.600000000000000311e-02 6.414474999999999483e-01 3.169400000000000261e+01 1.156675000000000040e+02 1.782799999999999955e+03
6.700000000000000400e-02 6.419745000000000035e-01 3.242565000000000452e+01 1.184660000000000082e+02 1.783509999999999991e+03
6.800000000000000488e-02 6.424925000000000219e-01 3.309210000000000207e+01 1.212199999999999989e+02 1.784210000000000036e+03
6.900000000000000577e-02 6.429974999999999996e-01 3.368680000000000518e+01 1.239104999999999848e+02 1.784889999999999873e+03
7.000000000000000666e-02 6.434839999999999449e-01 3.420329999999999870e+01 1.265144999999999982e+02 1.785555000000000064e+03
7.100000000000000755e-02 6.439494999999999525e-01 3.463540000000000418e+01 1.290084999999999980e+02 1.786195000000000164e+03
7.200000000000000844e-02 6.443889999999999896e-01 3.497814999999999941e+01 1.313704999999999927e+02 1.786809999999999945e+03
7.300000000000000933e-02 6.447990000000000110e-01 3.522775000000000034e+01 1.335805000000000007e+02 1.787384999999999991e+03
7.399999999999999634e-02 6.451780000000000292e-01 3.538200000000000500e+01 1.356214999999999975e+02 1.787924999999999955e+03
7.499999999999999722e-02 6.455235000000000278e-01 3.543984999999999985e+01 1.374814999999999827e+02 1.788420000000000073e+03
7.599999999999999811e-02 6.458334999999999493e-01 3.540174999999999983e+01 1.391514999999999986e+02 1.788865000000000009e+03
7.699999999999999900e-02 6.461080000000000156e-01 3.526945000000000618e+01 1.406270000000000095e+02 1.789269999999999982e+03
7.799999999999999989e-02 6.463470000000000049e-01 3.504604999999999393e+01 1.419060000000000059e+02 1.789625000000000000e+03
7.900000000000000078e-02 6.465509999999999868e-01 3.473570000000000135e+01 1.429920000000000186e+02 1.789934999999999945e+03
8.000000000000000167e-02 6.467220000000000191e-01 3.434425000000000239e+01 1.438910000000000196e+02 1.790195000000000164e+03
8.100000000000000255e-02 6.468604999999999494e-01 3.387895000000000323e+01 1.446125000000000114e+02 1.790409999999999854e+03
8.200000000000000344e-02 6.469694999999999752e-01 3.334835000000000349e+01 1.451700000000000159e+02 1.790585000000000036e+03
8.300000000000000433e-02 6.470530000000001003e-01 3.276254999999999740e+01 1.455794999999999959e+02 1.790720000000000027e+03
8.400000000000000522e-02 6.471139999999999670e-01 3.213244999999999862e+01 1.458605000000000018e+02 1.790825000000000045e+03
8.500000000000000611e-02 6.471565000000000234e-01 3.146979999999999933e+01 1.460329999999999870e+02 1.790900000000000091e+03
8.600000000000000699e-02 6.471845000000000514e-01 3.078624999999999901e+01 1.461179999999999950e+02 1.790945000000000164e+03
8.700000000000000788e-02 6.472020000000000550e-01 3.009299999999999997e+01 1.461374999999999886e+02 1.790970000000000027e+03
8.800000000000000877e-02 6.472115000000000506e-01 2.940030000000000143e+01 1.461100000000000136e+02 1.790980000000000018e+03
8.899999999999999578e-02 6.472165000000000834e-01 2.871654999999999802e+01 1.460534999999999854e+02 1.790980000000000018e+03
8.999999999999999667e-02 6.472189999999999888e-01 2.804840000000000089e+01 1.459809999999999945e+02 1.790974999999999909e+03
9.099999999999999756e-02 6.472199999999999065e-01 2.740005000000000024e+01 1.459024999999999750e+02 1.790964999999999918e+03
9.199999999999999845e-02 6.472200000000000175e-01 2.677344999999999686e+01 1.458224999999999909e+02 1.790950000000000045e+03
9.299999999999999933e-02 6.472189999999999888e-01 2.616859999999999786e+01 1.457420000000000186e+02 1.790930000000000064e+03
9.400000000000000022e-02 6.472154999999999436e-01 2.558324999999999960e+01 1.456574999999999989e+02 1.790909999999999854e+03
9.500000000000000111e-02 6.472080000000000055e-01 2.501389999999999958e+01 1.455620000000000118e+02 1.790889999999999873e+03
9.600000000000000200e-02 6.471949999999999648e-01 2.445554999999999879e+01 1.454479999999999791e+02 1.790860000000000127e+03
9.700000000000000289e-02 6.471740000000000270e-01 2.390274999999999750e+01 1.453025000000000091e+02 1.790829999999999927e+03
9.800000000000000377e-02 6.471424999999999539e-01 2.334960000000000235e+01 1.451154999999999973e+02 1.790779999999999973e+03
9.900000000000000466e-02 6.471000000000000085e-01 2.279030000000000200e+01 1.448750000000000000e+02 1.790724999999999909e+03
1.000000000000000056e-01 6.470430000000000348e-01 2.221945000000000192e+01 1.445705000000000098e+02 1.790650000000000091e+03
1.010000000000000064e-01 6.469715000000000327e-01 2.163244999999999862e+01 1.441945000000000050e+02 1.790565000000000055e+03
1.020000000000000073e-01 6.468840000000000146e-01 2.102570000000000050e+01 1.437390000000000043e+02 1.790465000000000146e+03
1.030000000000000082e-01 6.467804999999999804e-01 2.039705000000000013e+01 1.432015000000000100e+02 1.790335000000000036e+03
1.040000000000000091e-01 6.466605000000000825e-01 1.974579999999999913e+01 1.425825000000000102e+02 1.790190000000000055e+03
1.050000000000000100e-01 6.465259999999999341e-01 1.907274999999999920e+01 1.418834999999999980e+02 1.790029999999999973e+03
1.059999999999999970e-01 6.463790000000000369e-01 1.838060000000000116e+01 1.411119999999999948e+02 1.789849999999999909e+03
1.069999999999999979e-01 6.462205000000000865e-01 1.767344999999999899e+01 1.402779999999999916e+02 1.789650000000000091e+03
1.079999999999999988e-01 6.460535000000000583e-01 1.695705000000000240e+01 1.393944999999999936e+02 1.789444999999999936e+03
1.089999999999999997e-01 6.458814999999999973e-01 1.623819999999999908e+01 1.384770000000000039e+02 1.789224999999999909e+03
1.100000000000000006e-01 6.457085000000000186e-01 1.552485000000000070e+01 1.375430000000000064e+02 1.789000000000000000e+03
1.110000000000000014e-01 6.455370000000000275e-01 1.482529999999999859e+01 1.366109999999999900e+02 1.788769999999999982e+03
1.120000000000000023e-01 6.453709999999999170e-01 1.414821500000000043e+01 1.356999999999999886e+02 1.788550000000000182e+03
1.130000000000000032e-01 6.452134999999999954e-01 1.350189999999999912e+01 1.348280000000000030e+02 1.788329999999999927e+03
1.140000000000000041e-01 6.450679999999999747e-01 1.289409000000000027e+01 1.340124999999999886e+02 1.788130000000000109e+03
1.150000000000000050e-01 6.449369999999999825e-01 1.233157999999999888e+01 1.332685000000000173e+02 1.787934999999999945e+03
1.160000000000000059e-01 6.448220000000000063e-01 1.181974999999999909e+01 1.326069999999999993e+02 1.787764999999999873e+03
1.170000000000000068e-01 6.447249999999999925e-01 1.136257499999999965e+01 1.320375000000000227e+02 1.787615000000000009e+03
1.180000000000000077e-01 6.446460000000000523e-01 1.096231500000000025e+01 1.315654999999999859e+02 1.787485000000000127e+03
1.190000000000000085e-01 6.445849999999999635e-01 1.061960000000000015e+01 1.311920000000000073e+02 1.787375000000000000e+03
1.200000000000000094e-01 6.445415000000001005e-01 1.033330499999999930e+01 1.309155000000000086e+02 1.787289999999999964e+03
1.209999999999999964e-01 6.445140000000000313e-01 1.010088999999999970e+01 1.307300000000000182e+02 1.787230000000000018e+03
1.219999999999999973e-01 6.445009999999999906e-01 9.918549999999999756e+00 1.306285000000000025e+02 1.787184999999999945e+03
1.229999999999999982e-01 6.445000000000000728e-01 9.781494999999999607e+00 1.305999999999999943e+02 1.787159999999999854e+03
1.239999999999999991e-01 6.445100000000000273e-01 9.684169999999999945e+00 1.306340000000000146e+02 1.787154999999999973e+03
1.250000000000000000e-01 6.445274999999999199e-01 9.620789999999999509e+00 1.307175000000000011e+02 1.787159999999999854e+03
1.260000000000000009e-01 6.445509999999999851e-01 9.585350000000000037e+00 1.308400000000000034e+02 1.787180000000000064e+03
1.270000000000000018e-01 6.445775000000000254e-01 9.572169999999999845e+00 1.309879999999999995e+02 1.787200000000000045e+03
1.280000000000000027e-01 6.446064999999999712e-01 9.575755000000000905e+00 1.311519999999999868e+02 1.787230000000000018e+03
1.290000000000000036e-01 6.446359999999999868e-01 9.591274999999999551e+00 1.313230000000000075e+02 1.787264999999999873e+03
1.300000000000000044e-01 6.446650000000000436e-01 9.614459999999999340e+00 1.314945000000000164e+02 1.787300000000000182e+03
1.310000000000000053e-01 6.446929999999999605e-01 9.641725000000000989e+00 1.316599999999999966e+02 1.787340000000000146e+03
1.320000000000000062e-01 6.447184999999999722e-01 9.670069999999999055e+00 1.318154999999999859e+02 1.787375000000000000e+03
1.330000000000000071e-01 6.447419999999999263e-01 9.697259999999999991e+00 1.319590000000000032e+02 1.787404999999999973e+03
1.340000000000000080e-01 6.447629999999999750e-01 9.721685000000000798e+00 1.320900000000000034e+02 1.787434999999999945e+03
1.350000000000000089e-01 6.447819999999999663e-01 9.742280000000000939e+00 1.322074999999999818e+02 1.787465000000000146e+03
1.360000000000000098e-01 6.447990000000000110e-01 9.758534999999998405e+00 1.323139999999999930e+02 1.787490000000000009e+03
1.370000000000000107e-01 6.448149999999999160e-01 9.770360000000000156e+00 1.324110000000000014e+02 1.787514999999999873e+03
1.380000000000000115e-01 6.448300000000000143e-01 9.778204999999999814e+00 1.325015000000000214e+02 1.787539999999999964e+03
1.390000000000000124e-01 6.448445000000000427e-01 9.782734999999998848e+00 1.325885000000000105e+02 1.787559999999999945e+03
1.400000000000000133e-01 6.448599999999999888e-01 9.784860000000000113e+00 1.326744999999999948e+02 1.787585000000000036e+03
1.410000000000000142e-01 6.448760000000000048e-01 9.785560000000000258e+00 1.327635000000000218e+02 1.787605000000000018e+03
1.420000000000000151e-01 6.448935000000000084e-01 9.786004999999999399e+00 1.328580000000000041e+02 1.787630000000000109e+03
1.430000000000000160e-01 6.449130000000000695e-01 9.787055000000000504e+00 1.329599999999999795e+02 1.787654999999999973e+03
1.440000000000000169e-01 6.449340000000000073e-01 9.789614999999999512e+00 1.330715000000000146e+02 1.787684999999999945e+03
1.450000000000000178e-01 6.449574999999999614e-01 9.794204999999999828e+00 1.331935000000000002e+02 1.787715000000000146e+03
1.459999999999999909e-01 6.449835000000000429e-01 9.801109999999999545e+00 1.333259999999999934e+02 1.787744999999999891e+03
1.469999999999999918e-01 6.450110000000000010e-01 9.810400000000001342e+00 1.334689999999999941e+02 1.787779999999999973e+03
1.479999999999999927e-01 6.450405000000000166e-01 9.821754999999999569e+00 1.336204999999999927e+02 1.787819999999999936e+03
1.489999999999999936e-01 6.450709999999999500e-01 9.834604999999999819e+00 1.337794999999999845e+02 1.787855000000000018e+03
1.499999999999999944e-01 6.451020000000000643e-01 9.848219999999999530e+00 1.339429999999999836e+02 1.787894999999999982e+03
1.509999999999999953e-01 6.451335000000000264e-01 9.861919999999999575e+00 1.341084999999999923e+02 1.787934999999999945e+03
1.519999999999999962e-01 6.451645000000000296e-01 9.874800000000000466e+00 1.342735000000000127e+02 1.787974999999999909e+03
1.529999999999999971e-01 6.451945000000000041e-01 9.886165000000000092e+00 1.344354999999999905e+02 1.788019999999999982e+03
1.539999999999999980e-01 6.452234999999999498e-01 9.895520000000001204e+00 1.345910000000000082e+02 1.788054999999999836e+03
1.549999999999999989e-01 6.452514999999999779e-01 9.902560000000001139e+00 1.347404999999999973e+02 1.788095000000000027e+03
1.559999999999999998e-01 6.452774999999999483e-01 9.907230000000000203e+00 1.348820000000000050e+02 1.788134999999999991e+03
1.570000000000000007e-01 6.453029999999999600e-01 9.909859999999998337e+00 1.350159999999999911e+02 1.788164999999999964e+03
1.580000000000000016e-01 6.453265000000000251e-01 9.911065000000000680e+00 1.351430000000000007e+02 1.788199999999999818e+03
1.590000000000000024e-01 6.453495000000000203e-01 9.911614999999999398e+00 1.352644999999999982e+02 1.788230000000000018e+03
