# t [s], A [cm^2], U [cm/s], P [cPa], c [cm/s]
1.000000000000000021e-03 2.044170000000000154e-01 1.268210499999999907e-01 9.521744999999999948e+01 2.089314999999999600e+03
2.000000000000000042e-03 2.043780000000000041e-01 1.383197500000000080e+00 9.256745000000000800e+01 2.089014999999999873e+03
3.000000000000000062e-03 2.042539999999999911e-01 3.030255499999999991e+00 8.871815000000000850e+01 2.088114999999999782e+03
4.000000000000000083e-03 2.040735000000000188e-01 4.920208499999999319e+00 8.417855000000000132e+01 2.086824999999999818e+03
5.000000000000000104e-03 2.038705000000000100e-01 6.995589999999999975e+00 7.974940000000000850e+01 2.085389999999999873e+03
6.000000000000000125e-03 2.036695000000000033e-01 9.139744999999999564e+00 7.590760000000000218e+01 2.083989999999999782e+03
7.000000000000000146e-03 2.034795000000000076e-01 1.115840999999999994e+01 7.264074999999999704e+01 2.082684999999999945e+03
8.000000000000000167e-03 2.033030000000000115e-01 1.290407500000000063e+01 6.971609999999999729e+01 2.081494999999999891e+03
9.000000000000001055e-03 2.031425000000000036e-01 1.436353499999999883e+01 6.708474999999999966e+01 2.080430000000000291e+03
1.000000000000000194e-02 2.030044999999999766e-01 1.557430000000000092e+01 6.483789999999999054e+01 2.079529999999999745e+03
1.099999999999999936e-02 2.028895000000000004e-01 1.656085000000000207e+01 6.301664999999999850e+01 2.078779999999999745e+03
1.200000000000000025e-02 2.027964999999999907e-01 1.734215000000000018e+01 6.160119999999999152e+01 2.078190000000000055e+03
1.300000000000000114e-02 2.027240000000000153e-01 1.792999999999999972e+01 6.053235000000000099e+01 2.077735000000000127e+03
1.400000000000000203e-02 2.026675000000000004e-01 1.832280000000000086e+01 5.969669999999999987e+01 2.077380000000000109e+03
1.499999999999999944e-02 2.026205000000000089e-01 1.853405000000000058e+01 5.898279999999999745e+01 2.077105000000000018e+03
1.600000000000000033e-02 2.025839999999999863e-01 1.863374999999999915e+01 5.840959999999999752e+01 2.076885000000000218e+03
1.700000000000000122e-02 2.025629999999999931e-01 1.874784999999999968e+01 5.818580000000000041e+01 2.076764999999999873e+03
1.800000000000000211e-02 2.025660000000000238e-01 1.900700000000000145e+01 5.861379999999999768e+01 2.076795000000000073e+03
1.900000000000000300e-02 2.026010000000000033e-01 1.948069999999999879e+01 5.990194999999999936e+01 2.077025000000000091e+03
2.000000000000000042e-02 2.026680000000000148e-01 2.014195000000000135e+01 6.201420000000000243e+01 2.077460000000000036e+03
2.100000000000000130e-02 2.027594999999999814e-01 2.087870000000000203e+01 6.464520000000000266e+01 2.078060000000000400e+03
2.200000000000000219e-02 2.028604999999999992e-01 2.154039999999999822e+01 6.732035000000000480e+01 2.078734999999999673e+03
2.299999999999999961e-02 2.029555000000000109e-01 2.199415000000000120e+01 6.956019999999999470e+01 2.079375000000000000e+03
2.400000000000000050e-02 2.030299999999999883e-01 2.216664999999999708e+01 7.103204999999999814e+01 2.079890000000000327e+03
2.500000000000000139e-02 2.030774999999999941e-01 2.205949999999999989e+01 7.163495000000000346e+01 2.080235000000000127e+03
2.600000000000000228e-02 2.030985000000000151e-01 2.173680000000000234e+01 7.149569999999999936e+01 2.080394999999999982e+03
2.700000000000000316e-02 2.030985000000000151e-01 2.129370000000000118e+01 7.089085000000000036e+01 2.080414999999999964e+03
2.800000000000000058e-02 2.030865000000000031e-01 2.081935000000000002e+01 7.013155000000000427e+01 2.080340000000000146e+03
2.900000000000000147e-02 2.030700000000000005e-01 2.036849999999999739e+01 6.945619999999999550e+01 2.080234999999999673e+03
3.000000000000000236e-02 2.030549999999999855e-01 1.994944999999999879e+01 6.896505000000000507e+01 2.080135000000000218e+03
3.099999999999999978e-02 2.030425000000000146e-01 1.952944999999999709e+01 6.861179999999998813e+01 2.080050000000000182e+03
3.200000000000000067e-02 2.030279999999999863e-01 1.905375000000000085e+01 6.824585000000000434e+01 2.079960000000000036e+03
3.300000000000000155e-02 2.030079999999999940e-01 1.847070000000000078e+01 6.768534999999999968e+01 2.079829999999999927e+03
3.400000000000000244e-02 2.029775000000000051e-01 1.775485000000000113e+01 6.679664999999999964e+01 2.079635000000000218e+03
3.500000000000000333e-02 2.029344999999999899e-01 1.692210000000000036e+01 6.555509999999999593e+01 2.079355000000000018e+03
3.600000000000000422e-02 2.028804999999999914e-01 1.603090000000000259e+01 6.406950000000000500e+01 2.079010000000000218e+03
3.700000000000000511e-02 2.028225000000000167e-01 1.517040000000000077e+01 6.256300000000000239e+01 2.078630000000000109e+03
3.799999999999999906e-02 2.027690000000000048e-01 1.443890000000000029e+01 6.131624999999999659e+01 2.078275000000000091e+03
3.899999999999999994e-02 2.027304999999999802e-01 1.391905000000000037e+01 6.059250000000000114e+01 2.078010000000000218e+03
4.000000000000000083e-02 2.027140000000000053e-01 1.365794999999999959e+01 6.056804999999999950e+01 2.077880000000000109e+03
4.100000000000000172e-02 2.027235000000000009e-01 1.365739999999999910e+01 6.128799999999999670e+01 2.077925000000000182e+03
4.200000000000000261e-02 2.027585000000000082e-01 1.387485000000000035e+01 6.265694999999999482e+01 2.078140000000000327e+03
4.300000000000000350e-02 2.028139999999999943e-01 1.423454999999999870e+01 6.446285000000000309e+01 2.078489999999999782e+03
4.400000000000000439e-02 2.028814999999999924e-01 1.464329999999999998e+01 6.642419999999999902e+01 2.078930000000000291e+03
4.499999999999999833e-02 2.029515000000000069e-01 1.500764999999999993e+01 6.824519999999999698e+01 2.079385000000000218e+03
4.599999999999999922e-02 2.030135000000000134e-01 1.524854999999999983e+01 6.966740000000000066e+01 2.079805000000000291e+03
4.700000000000000011e-02 2.030595000000000039e-01 1.531015000000000015e+01 7.050579999999999359e+01 2.080114999999999782e+03
4.800000000000000100e-02 2.030835000000000001e-01 1.516380000000000017e+01 7.066634999999999422e+01 2.080284999999999854e+03
4.900000000000000189e-02 2.030824999999999991e-01 1.480569999999999986e+01 7.014334999999999809e+01 2.080289999999999964e+03
5.000000000000000278e-02 2.030575000000000019e-01 1.425134999999999863e+01 6.900235000000000696e+01 2.080140000000000327e+03
5.100000000000000366e-02 2.030100000000000238e-01 1.352785000000000082e+01 6.735345000000000937e+01 2.079835000000000036e+03
5.200000000000000455e-02 2.029434999999999989e-01 1.266710000000000136e+01 6.532420000000000471e+01 2.079404999999999745e+03
5.300000000000000544e-02 2.028625000000000012e-01 1.169997499999999846e+01 6.303674999999999784e+01 2.078875000000000000e+03
5.399999999999999939e-02 2.027714999999999934e-01 1.065402999999999878e+01 6.059394999999999953e+01 2.078275000000000091e+03
5.500000000000000028e-02 2.026725000000000054e-01 9.552830000000000155e+00 5.807505000000000450e+01 2.077625000000000000e+03
5.600000000000000117e-02 2.025695000000000134e-01 8.417614999999999625e+00 5.553905000000000314e+01 2.076944999999999709e+03
5.700000000000000205e-02 2.024644999999999917e-01 7.269860000000000433e+00 5.303294999999999959e+01 2.076255000000000109e+03
5.800000000000000294e-02 2.023604999999999987e-01 6.133259999999999934e+00 5.060164999999999935e+01 2.075559999999999945e+03
5.900000000000000383e-02 2.022589999999999943e-01 5.035560000000000258e+00 4.829625000000000057e+01 2.074885000000000218e+03
6.000000000000000472e-02 2.021629999999999816e-01 4.008799999999999919e+00 4.617895000000000039e+01 2.074244999999999891e+03
6.099999999999999867e-02 2.020755000000000190e-01 3.088391000000000108e+00 4.432305000000000206e+01 2.073659999999999854e+03
6.199999999999999956e-02 2.019990000000000119e-01 2.311053999999999942e+00 4.280975000000000108e+01 2.073139999999999873e+03
6.300000000000000044e-02 2.019374999999999920e-01 1.712125000000000119e+00 4.172090000000000032e+01 2.072720000000000255e+03
6.400000000000000133e-02 2.018945000000000045e-01 1.322619999999999907e+00 4.113079999999999359e+01 2.072420000000000073e+03
6.500000000000000222e-02 2.018719999999999959e-01 1.166618000000000155e+00 4.109855000000000302e+01 2.072255000000000109e+03
6.600000000000000311e-02 2.018719999999999959e-01 1.259284999999999988e+00 4.166114999999999924e+01 2.072239999999999782e+03
6.700000000000000400e-02 2.018969999999999931e-01 1.605809000000000042e+00 4.282970000000000255e+01 2.072385000000000218e+03
6.800000000000000488e-02 2.019465000000000010e-01 2.201165000000000038e+00 4.458859999999999957e+01 2.072694999999999709e+03
6.900000000000000577e-02 2.020200000000000051e-01 3.030759999999999899e+00 4.689659999999999940e+01 2.073154999999999745e+03
7.000000000000000666e-02 2.021155000000000035e-01 4.071710000000000385e+00 4.969105000000000416e+01 2.073764999999999873e+03
7.100000000000000755e-02 2.022299999999999931e-01 5.294550000000000978e+00 5.289265000000000327e+01 2.074515000000000327e+03
7.200000000000000844e-02 2.023614999999999997e-01 6.665259999999999962e+00 5.641174999999999784e+01 2.075375000000000000e+03
7.300000000000000933e-02 2.025060000000000193e-01 8.147400000000001086e+00 6.015449999999999875e+01 2.076324999999999818e+03
7.399999999999999634e-02 2.026600000000000068e-01 9.704214999999999591e+00 6.402909999999999968e+01 2.077340000000000146e+03
7.499999999999999722e-02 2.028200000000000003e-01 1.130076500000000017e+01 6.795135000000000502e+01 2.078400000000000091e+03
7.599999999999999811e-02 2.029825000000000101e-01 1.290552500000000080e+01 7.184909999999999286e+01 2.079480000000000018e+03
7.699999999999999900e-02 2.031455000000000066e-01 1.449170000000000158e+01 7.566579999999999018e+01 2.080565000000000055e+03
7.799999999999999989e-02 2.033059999999999867e-01 1.603829999999999956e+01 7.936209999999999809e+01 2.081635000000000218e+03
7.900000000000000078e-02 2.034624999999999906e-01 1.753040000000000020e+01 8.291655000000000086e+01 2.082689999999999600e+03
8.000000000000000167e-02 2.036145000000000038e-01 1.895859999999999701e+01 8.632375000000000398e+01 2.083715000000000146e+03
8.100000000000000255e-02 2.037615000000000121e-01 2.031904999999999717e+01 8.959184999999999377e+01 2.084704999999999927e+03
8.200000000000000344e-02 2.039034999999999875e-01 2.161165000000000092e+01 9.273869999999999436e+01 2.085670000000000073e+03
8.300000000000000433e-02 2.040420000000000011e-01 2.283924999999999983e+01 9.578764999999999930e+01 2.086599999999999909e+03
8.400000000000000522e-02 2.041769999999999974e-01 2.400634999999999764e+01 9.876359999999999673e+01 2.087514999999999873e+03
8.500000000000000611e-02 2.043095000000000050e-01 2.511795000000000044e+01 1.016894000000000062e+02 2.088414999999999964e+03
8.600000000000000699e-02 2.044394999999999962e-01 2.617840000000000344e+01 1.045818000000000012e+02 2.089300000000000182e+03
8.700000000000000788e-02 2.045684999999999865e-01 2.719150000000000134e+01 1.074530000000000030e+02 2.090175000000000182e+03
8.800000000000000877e-02 2.046959999999999891e-01 2.815909999999999869e+01 1.103064999999999998e+02 2.091039999999999964e+03
8.899999999999999578e-02 2.048234999999999917e-01 2.908189999999999742e+01 1.131394999999999982e+02 2.091909999999999854e+03
8.999999999999999667e-02 2.049489999999999923e-01 2.995909999999999940e+01 1.159445000000000050e+02 2.092760000000000218e+03
9.099999999999999756e-02 2.050735000000000197e-01 3.078855000000000075e+01 1.187069999999999936e+02 2.093605000000000018e+03
9.199999999999999845e-02 2.051955000000000029e-01 3.156700000000000017e+01 1.214110000000000014e+02 2.094440000000000055e+03
9.299999999999999933e-02 2.053149999999999975e-01 3.229030000000000200e+01 1.240374999999999943e+02 2.095255000000000109e+03
9.400000000000000022e-02 2.054305000000000159e-01 3.295340000000000202e+01 1.265660000000000025e+02 2.096045000000000073e+03
9.500000000000000111e-02 2.055424999999999891e-01 3.355095000000000027e+01 1.289755000000000109e+02 2.096805000000000291e+03
9.600000000000000200e-02 2.056489999999999985e-01 3.407699999999999818e+01 1.312454999999999927e+02 2.097529999999999745e+03
9.700000000000000289e-02 2.057490000000000152e-01 3.452544999999999931e+01 1.333550000000000182e+02 2.098220000000000255e+03
9.800000000000000377e-02 2.058419999999999972e-01 3.489025000000000176e+01 1.352849999999999966e+02 2.098860000000000127e+03
9.900000000000000466e-02 2.059274999999999856e-01 3.516570000000000107e+01 1.370160000000000196e+02 2.099445000000000164e+03
1.000000000000000056e-01 2.060044999999999793e-01 3.534699999999999420e+01 1.385344999999999800e+02 2.099974999999999909e+03
1.010000000000000064e-01 2.060720000000000052e-01 3.543039999999999878e+01 1.398265000000000100e+02 2.100449999999999818e+03
1.020000000000000073e-01 2.061304999999999943e-01 3.541360000000000241e+01 1.408845000000000027e+02 2.100850000000000364e+03
1.030000000000000082e-01 2.061790000000000012e-01 3.529625000000000057e+01 1.417055000000000007e+02 2.101190000000000055e+03
1.040000000000000091e-01 2.062169999999999837e-01 3.508019999999999783e+01 1.422914999999999850e+02 2.101465000000000146e+03
1.050000000000000100e-01 2.062459999999999849e-01 3.476944999999999908e+01 1.426504999999999939e+02 2.101664999999999964e+03
1.059999999999999970e-01 2.062650000000000039e-01 3.437015000000000242e+01 1.427969999999999970e+02 2.101800000000000182e+03
1.069999999999999979e-01 2.062744999999999995e-01 3.389059999999999917e+01 1.427495000000000118e+02 2.101880000000000109e+03
1.079999999999999988e-01 2.062764999999999738e-01 3.334055000000000035e+01 1.425324999999999989e+02 2.101899999999999636e+03
1.089999999999999997e-01 2.062714999999999965e-01 3.273129999999999740e+01 1.421705000000000041e+02 2.101869999999999891e+03
1.100000000000000006e-01 2.062594999999999845e-01 3.207475000000000165e+01 1.416929999999999836e+02 2.101800000000000182e+03
1.110000000000000014e-01 2.062430000000000097e-01 3.138315000000000055e+01 1.411279999999999859e+02 2.101694999999999709e+03
1.120000000000000023e-01 2.062229999999999897e-01 3.066864999999999952e+01 1.405024999999999977e+02 2.101559999999999945e+03
1.130000000000000032e-01 2.061989999999999934e-01 2.994254999999999711e+01 1.398425000000000011e+02 2.101404999999999745e+03
1.140000000000000041e-01 2.061739999999999962e-01 2.921535000000000082e+01 1.391694999999999993e+02 2.101234999999999673e+03
1.150000000000000050e-01 2.061485000000000123e-01 2.849615000000000009e+01 1.385029999999999859e+02 2.101059999999999945e+03
1.160000000000000059e-01 2.061224999999999863e-01 2.779245000000000232e+01 1.378569999999999993e+02 2.100880000000000109e+03
1.170000000000000068e-01 2.060964999999999880e-01 2.710989999999999966e+01 1.372425000000000068e+02 2.100710000000000036e+03
1.180000000000000077e-01 2.060714999999999908e-01 2.645240000000000080e+01 1.366634999999999991e+02 2.100534999999999854e+03
1.190000000000000085e-01 2.060480000000000089e-01 2.582175000000000153e+01 1.361220000000000141e+02 2.100375000000000000e+03
1.200000000000000094e-01 2.060250000000000137e-01 2.521790000000000020e+01 1.356140000000000043e+02 2.100220000000000255e+03
1.209999999999999964e-01 2.060035000000000061e-01 2.463909999999999911e+01 1.351315000000000168e+02 2.100065000000000055e+03
1.219999999999999973e-01 2.059825000000000128e-01 2.408194999999999908e+01 1.346650000000000205e+02 2.099920000000000073e+03
1.229999999999999982e-01 2.059615000000000196e-01 2.354159999999999897e+01 1.341999999999999886e+02 2.099779999999999745e+03
1.239999999999999991e-01 2.059409999999999852e-01 2.301230000000000331e+01 1.337210000000000036e+02 2.099635000000000218e+03
1.250000000000000000e-01 2.059190000000000187e-01 2.248754999999999882e+01 1.332115000000000009e+02 2.099485000000000127e+03
1.260000000000000009e-01 2.058955000000000091e-01 2.196054999999999779e+01 1.326544999999999845e+02 2.099324999999999818e+03
1.270000000000000018e-01 2.058699999999999974e-01 2.142464999999999975e+01 1.320345000000000084e+02 2.099154999999999745e+03
1.280000000000000027e-01 2.058424999999999838e-01 2.087379999999999924e+01 1.313365000000000009e+02 2.098960000000000036e+03
1.290000000000000036e-01 2.058105000000000073e-01 2.030264999999999986e+01 1.305504999999999995e+02 2.098744999999999891e+03
1.300000000000000044e-01 2.057755000000000001e-01 1.970730000000000004e+01 1.296675000000000182e+02 2.098510000000000218e+03
1.310000000000000053e-01 2.057364999999999888e-01 1.908514999999999873e+01 1.286839999999999975e+02 2.098250000000000000e+03
1.320000000000000062e-01 2.056935000000000013e-01 1.843534999999999968e+01 1.276009999999999991e+02 2.097949999999999818e+03
1.330000000000000071e-01 2.056459999999999955e-01 1.775885000000000247e+01 1.264219999999999970e+02 2.097635000000000218e+03
1.340000000000000080e-01 2.055950000000000000e-01 1.705845000000000056e+01 1.251580000000000013e+02 2.097295000000000073e+03
1.350000000000000089e-01 2.055405000000000149e-01 1.633865000000000123e+01 1.238224999999999909e+02 2.096925000000000182e+03
1.360000000000000098e-01 2.054829999999999990e-01 1.560549999999999926e+01 1.224325000000000045e+02 2.096539999999999964e+03
1.370000000000000107e-01 2.054239999999999955e-01 1.486639999999999873e+01 1.210084999999999980e+02 2.096135000000000218e+03
1.380000000000000115e-01 2.053629999999999900e-01 1.412985000000000113e+01 1.195734999999999957e+02 2.095730000000000018e+03
1.390000000000000124e-01 2.053019999999999845e-01 1.340474999999999994e+01 1.181510000000000105e+02 2.095309999999999945e+03
1.400000000000000133e-01 2.052410000000000068e-01 1.270040000000000013e+01 1.167644999999999982e+02 2.094899999999999636e+03
1.410000000000000142e-01 2.051824999999999899e-01 1.202561500000000017e+01 1.154369999999999976e+02 2.094500000000000000e+03
1.420000000000000151e-01 2.051259999999999750e-01 1.138877499999999898e+01 1.141879999999999882e+02 2.094119999999999891e+03
1.430000000000000160e-01 2.050724999999999909e-01 1.079719000000000051e+01 1.130349999999999966e+02 2.093750000000000000e+03
1.440000000000000169e-01 2.050230000000000108e-01 1.025697500000000062e+01 1.119929999999999950e+02 2.093414999999999964e+03
1.450000000000000178e-01 2.049779999999999935e-01 9.772649999999998727e+00 1.110705000000000098e+02 2.093105000000000018e+03
1.459999999999999909e-01 2.049374999999999947e-01 9.347310000000000230e+00 1.102740000000000009e+02 2.092829999999999927e+03
1.469999999999999918e-01 2.049030000000000018e-01 8.982404999999999973e+00 1.096050000000000040e+02 2.092590000000000146e+03
1.479999999999999927e-01 2.048729999999999996e-01 8.677815000000000722e+00 1.090619999999999976e+02 2.092380000000000109e+03
1.489999999999999936e-01 2.048480000000000023e-01 8.432095000000000340e+00 1.086394999999999982e+02 2.092204999999999927e+03
1.499999999999999944e-01 2.048284999999999967e-01 8.242480000000000473e+00 1.083294999999999959e+02 2.092069999999999709e+03
1.509999999999999953e-01 2.048129999999999951e-01 8.105180000000000717e+00 1.081225000000000023e+02 2.091960000000000036e+03
1.519999999999999962e-01 2.048024999999999984e-01 8.015570000000000306e+00 1.080070000000000050e+02 2.091880000000000109e+03
1.529999999999999971e-01 2.047954999999999914e-01 7.968404999999999738e+00 1.079695000000000107e+02 2.091829999999999927e+03
1.539999999999999980e-01 2.047915000000000152e-01 7.958019999999999428e+00 1.079975000000000023e+02 2.091800000000000182e+03
1.549999999999999989e-01 2.047910000000000008e-01 7.978545000000000442e+00 1.080784999999999911e+02 2.091789999999999964e+03
1.559999999999999998e-01 2.047920000000000018e-01 8.024070000000000036e+00 1.082000000000000028e+02 2.091789999999999964e+03
1.570000000000000007e-01 2.047954999999999914e-01 8.088844999999999175e+00 1.083499999999999943e+02 2.091810000000000400e+03
1.580000000000000016e-01 2.047999999999999821e-01 8.167350000000000776e+00 1.085180000000000007e+02 2.091840000000000146e+03
1.590000000000000024e-01 2.048059999999999881e-01 8.254529999999999035e+00 1.086939999999999884e+02 2.091880000000000109e+03
