# t [s], A [cm^2], U [cm/s], P [cPa], c [cm/s]
1.000000000000000021e-03 1.626630000000000020e-01 3.628500000000000059e-01 8.685364999999998759e+01 1.855125000000000000e+03
2.000000000000000042e-03 1.626274999999999804e-01 1.842165999999999970e+00 8.389549999999999841e+01 1.854835000000000036e+03
3.000000000000000062e-03 1.625169999999999948e-01 3.608859999999999957e+00 8.003425000000000011e+01 1.853980000000000018e+03
4.000000000000000083e-03 1.623604999999999909e-01 5.554523500000000169e+00 7.593009999999999593e+01 1.852780000000000200e+03
5.000000000000000104e-03 1.621869999999999978e-01 7.625465000000000160e+00 7.230125000000001023e+01 1.851464999999999918e+03
6.000000000000000125e-03 1.620159999999999934e-01 9.685525000000000162e+00 6.938980000000000814e+01 1.850179999999999836e+03
7.000000000000000146e-03 1.618554999999999855e-01 1.155999999999999872e+01 6.700235000000000696e+01 1.848985000000000127e+03
8.000000000000000167e-03 1.617060000000000164e-01 1.316041500000000042e+01 6.489715000000001055e+01 1.847894999999999982e+03
9.000000000000001055e-03 1.615714999999999790e-01 1.450662999999999947e+01 6.305255000000000365e+01 1.846924999999999955e+03
1.000000000000000194e-02 1.614550000000000152e-01 1.563514999999999944e+01 6.153225000000000477e+01 1.846099999999999909e+03
1.099999999999999936e-02 1.613570000000000004e-01 1.655865000000000009e+01 6.032665000000000077e+01 1.845410000000000082e+03
1.200000000000000025e-02 1.612770000000000037e-01 1.728610000000000113e+01 5.938150000000000261e+01 1.844849999999999909e+03
1.300000000000000114e-02 1.612115000000000076e-01 1.782874999999999943e+01 5.864100000000000534e+01 1.844405000000000200e+03
1.400000000000000203e-02 1.611589999999999967e-01 1.819579999999999842e+01 5.804005000000000081e+01 1.844049999999999955e+03
1.499999999999999944e-02 1.611159999999999815e-01 1.840970000000000084e+01 5.753034999999999854e+01 1.843764999999999873e+03
1.600000000000000033e-02 1.610820000000000030e-01 1.853265000000000029e+01 5.715484999999999616e+01 1.843545000000000073e+03
1.700000000000000122e-02 1.610599999999999810e-01 1.866615000000000180e+01 5.708474999999999966e+01 1.843414999999999964e+03
1.800000000000000211e-02 1.610570000000000057e-01 1.891574999999999918e+01 5.755564999999999998e+01 1.843409999999999854e+03
1.900000000000000300e-02 1.610785000000000133e-01 1.934205000000000041e+01 5.873380000000000223e+01 1.843569999999999936e+03
2.000000000000000042e-02 1.611265000000000058e-01 1.992965000000000231e+01 6.060184999999999889e+01 1.843920000000000073e+03
2.100000000000000130e-02 1.611974999999999936e-01 2.059065000000000012e+01 6.292875000000000085e+01 1.844425000000000182e+03
2.200000000000000219e-02 1.612819999999999809e-01 2.119510000000000005e+01 6.533235000000000525e+01 1.845025000000000091e+03
2.299999999999999961e-02 1.613669999999999827e-01 2.161495000000000033e+01 6.739830000000000609e+01 1.845644999999999982e+03
2.400000000000000050e-02 1.614410000000000012e-01 2.176200000000000045e+01 6.880270000000000152e+01 1.846184999999999945e+03
2.500000000000000139e-02 1.614944999999999853e-01 2.160885000000000034e+01 6.939589999999999748e+01 1.846585000000000036e+03
2.600000000000000228e-02 1.615229999999999999e-01 2.118884999999999863e+01 6.922390000000000043e+01 1.846809999999999945e+03
2.700000000000000316e-02 1.615285000000000193e-01 2.057710000000000150e+01 6.848779999999999291e+01 1.846869999999999891e+03
2.800000000000000058e-02 1.615169999999999939e-01 1.986285000000000167e+01 6.746254999999999313e+01 1.846799999999999955e+03
2.900000000000000147e-02 1.614949999999999997e-01 1.912174999999999869e+01 6.640715000000000146e+01 1.846660000000000082e+03
3.000000000000000236e-02 1.614690000000000014e-01 1.839880000000000138e+01 6.549580000000000268e+01 1.846480000000000018e+03
3.099999999999999978e-02 1.614450000000000052e-01 1.770394999999999897e+01 6.478884999999999650e+01 1.846305000000000064e+03
3.200000000000000067e-02 1.614224999999999965e-01 1.701940000000000097e+01 6.424325000000000330e+01 1.846150000000000091e+03
3.300000000000000155e-02 1.614025000000000043e-01 1.631494999999999962e+01 6.375369999999999493e+01 1.846005000000000109e+03
3.400000000000000244e-02 1.613809999999999967e-01 1.556475000000000009e+01 6.320565000000000566e+01 1.845855000000000018e+03
3.500000000000000333e-02 1.613565000000000138e-01 1.476074999999999804e+01 6.252364999999999640e+01 1.845684999999999945e+03
3.600000000000000422e-02 1.613269999999999982e-01 1.392034999999999911e+01 6.170359999999999445e+01 1.845480000000000018e+03
3.700000000000000511e-02 1.612950000000000217e-01 1.308575000000000088e+01 6.082040000000000646e+01 1.845250000000000000e+03
3.799999999999999906e-02 1.612615000000000021e-01 1.231569999999999965e+01 6.001144999999999641e+01 1.845014999999999873e+03
3.899999999999999994e-02 1.612329999999999874e-01 1.167269999999999897e+01 5.944150000000000489e+01 1.844809999999999945e+03
4.000000000000000083e-02 1.612135000000000096e-01 1.120785000000000053e+01 5.925934999999999775e+01 1.844670000000000073e+03
4.100000000000000172e-02 1.612085000000000046e-01 1.094909999999999961e+01 5.955790000000000362e+01 1.844630000000000109e+03
4.200000000000000261e-02 1.612204999999999888e-01 1.089395000000000024e+01 6.034819999999999851e+01 1.844700000000000045e+03
4.300000000000000350e-02 1.612480000000000024e-01 1.100894999999999868e+01 6.155259999999999820e+01 1.844884999999999991e+03
4.400000000000000439e-02 1.612899999999999889e-01 1.123535000000000039e+01 6.301664999999999850e+01 1.845174999999999955e+03
4.499999999999999833e-02 1.613410000000000122e-01 1.149835000000000029e+01 6.453614999999999213e+01 1.845525000000000091e+03
4.599999999999999922e-02 1.613935000000000231e-01 1.171865000000000023e+01 6.589085000000000036e+01 1.845894999999999982e+03
4.700000000000000011e-02 1.614404999999999868e-01 1.182319999999999993e+01 6.687810000000000343e+01 1.846230000000000018e+03
4.800000000000000100e-02 1.614749999999999797e-01 1.175325000000000131e+01 6.733940000000001191e+01 1.846480000000000018e+03
4.900000000000000189e-02 1.614924999999999833e-01 1.146959999999999980e+01 6.717699999999999250e+01 1.846605000000000018e+03
5.000000000000000278e-02 1.614875000000000060e-01 1.095425000000000004e+01 6.635835000000000150e+01 1.846579999999999927e+03
5.100000000000000366e-02 1.614594999999999780e-01 1.020862999999999943e+01 6.491114999999999213e+01 1.846384999999999991e+03
5.200000000000000455e-02 1.614085000000000103e-01 9.250754999999999839e+00 6.291060000000000230e+01 1.846029999999999973e+03
5.300000000000000544e-02 1.613364999999999938e-01 8.110469999999999402e+00 6.046374999999999744e+01 1.845525000000000091e+03
5.399999999999999939e-02 1.612465000000000148e-01 6.825580000000000425e+00 5.769329999999999359e+01 1.844889999999999873e+03
5.500000000000000028e-02 1.611425000000000218e-01 5.438019999999999854e+00 5.472504999999999598e+01 1.844154999999999973e+03
5.600000000000000117e-02 1.610285000000000188e-01 3.991555500000000034e+00 5.167880000000000251e+01 1.843344999999999800e+03
5.700000000000000205e-02 1.609094999999999831e-01 2.530250000000000110e+00 4.866414999999999935e+01 1.842500000000000000e+03
5.800000000000000294e-02 1.607890000000000152e-01 1.097804999999999920e+00 4.577960000000000207e+01 1.841639999999999873e+03
5.900000000000000383e-02 1.606710000000000083e-01 -2.626400000000002066e-01 4.311384999999999934e+01 1.840804999999999836e+03
6.000000000000000472e-02 1.605599999999999805e-01 -1.508724999999999650e+00 4.074819999999999709e+01 1.840009999999999991e+03
6.099999999999999867e-02 1.604590000000000183e-01 -2.599246900000000249e+00 3.875809999999999889e+01 1.839284999999999854e+03
6.199999999999999956e-02 1.603715000000000002e-01 -3.494934999999999903e+00 3.721375000000000455e+01 1.838650000000000091e+03
6.300000000000000044e-02 1.603010000000000268e-01 -4.159675000000000011e+00 3.617914999999999992e+01 1.838139999999999873e+03
6.400000000000000133e-02 1.602494999999999892e-01 -4.561955000000000204e+00 3.570949999999999847e+01 1.837759999999999991e+03
6.500000000000000222e-02 1.602200000000000013e-01 -4.676544999999999952e+00 3.584815000000000396e+01 1.837539999999999964e+03
6.600000000000000311e-02 1.602139999999999953e-01 -4.485974999999999824e+00 3.662300000000000466e+01 1.837484999999999900e+03
6.700000000000000400e-02 1.602335000000000009e-01 -3.981794999999999973e+00 3.804340000000000543e+01 1.837605000000000018e+03
6.800000000000000488e-02 1.602794999999999914e-01 -3.165229999999999766e+00 4.009844999999999970e+01 1.837909999999999854e+03
6.900000000000000577e-02 1.603505000000000069e-01 -2.047363000000000266e+00 4.275639999999999930e+01 1.838400000000000091e+03
7.000000000000000666e-02 1.604470000000000063e-01 -6.485999999999998433e-01 4.596594999999999942e+01 1.839065000000000055e+03
7.100000000000000755e-02 1.605659999999999865e-01 1.002329999999999943e+00 4.965850000000000364e+01 1.839894999999999982e+03
7.200000000000000844e-02 1.607060000000000155e-01 2.869850000000000012e+00 5.375244999999999607e+01 1.840880000000000109e+03
7.300000000000000933e-02 1.608634999999999926e-01 4.913283500000000359e+00 5.815725000000000477e+01 1.841990000000000009e+03
7.399999999999999634e-02 1.610364999999999991e-01 7.088714999999999655e+00 6.277840000000000487e+01 1.843210000000000036e+03
7.499999999999999722e-02 1.612200000000000022e-01 9.350970000000000226e+00 6.752179999999999893e+01 1.844514999999999873e+03
7.599999999999999811e-02 1.614105000000000123e-01 1.165524500000000074e+01 7.229824999999999591e+01 1.845875000000000000e+03
7.699999999999999900e-02 1.616055000000000130e-01 1.395896000000000114e+01 7.702674999999999272e+01 1.847264999999999873e+03
7.799999999999999989e-02 1.618010000000000004e-01 1.622319999999999851e+01 8.163779999999999859e+01 1.848664999999999964e+03
7.900000000000000078e-02 1.619944999999999857e-01 1.841394999999999982e+01 8.607535000000000025e+01 1.850050000000000182e+03
8.000000000000000167e-02 1.621829999999999938e-01 2.050294999999999845e+01 9.029834999999999923e+01 1.851414999999999964e+03
8.100000000000000255e-02 1.623649999999999816e-01 2.246875000000000000e+01 9.428149999999999409e+01 1.852730000000000018e+03
8.200000000000000344e-02 1.625389999999999890e-01 2.429650000000000176e+01 9.801429999999999154e+01 1.854000000000000000e+03
8.300000000000000433e-02 1.627045000000000019e-01 2.597825000000000273e+01 1.015015999999999963e+02 1.855204999999999927e+03
8.400000000000000522e-02 1.628614999999999924e-01 2.751265000000000072e+01 1.047605000000000075e+02 1.856349999999999909e+03
8.500000000000000611e-02 1.630099999999999882e-01 2.890380000000000038e+01 1.078185000000000002e+02 1.857440000000000055e+03
8.600000000000000699e-02 1.631504999999999761e-01 3.016064999999999685e+01 1.107104999999999961e+02 1.858474999999999909e+03
8.700000000000000788e-02 1.632850000000000135e-01 3.129569999999999652e+01 1.134745000000000061e+02 1.859460000000000036e+03
8.800000000000000877e-02 1.634140000000000037e-01 3.232370000000000232e+01 1.161514999999999986e+02 1.860414999999999964e+03
8.899999999999999578e-02 1.635395000000000043e-01 3.326010000000000133e+01 1.187785000000000082e+02 1.861335000000000036e+03
8.999999999999999667e-02 1.636619999999999742e-01 3.412030000000000030e+01 1.213890000000000100e+02 1.862240000000000009e+03
9.099999999999999756e-02 1.637834999999999985e-01 3.491814999999999714e+01 1.240084999999999980e+02 1.863134999999999991e+03
9.199999999999999845e-02 1.639045000000000085e-01 3.566535000000000366e+01 1.266560000000000059e+02 1.864029999999999973e+03
9.299999999999999933e-02 1.640260000000000051e-01 3.637054999999999438e+01 1.293379999999999939e+02 1.864924999999999955e+03
9.400000000000000022e-02 1.641480000000000161e-01 3.703915000000000646e+01 1.320545000000000186e+02 1.865824999999999818e+03
9.500000000000000111e-02 1.642710000000000004e-01 3.767314999999999969e+01 1.347959999999999923e+02 1.866730000000000018e+03
9.600000000000000200e-02 1.643944999999999990e-01 3.827100000000000080e+01 1.375434999999999945e+02 1.867639999999999873e+03
9.700000000000000289e-02 1.645174999999999832e-01 3.882824999999999704e+01 1.402729999999999961e+02 1.868549999999999955e+03
9.800000000000000377e-02 1.646400000000000086e-01 3.933790000000000475e+01 1.429544999999999959e+02 1.869454999999999927e+03
9.900000000000000466e-02 1.647605000000000042e-01 3.979084999999999894e+01 1.455554999999999950e+02 1.870340000000000146e+03
1.000000000000000056e-01 1.648775000000000102e-01 4.017665000000000219e+01 1.480425000000000182e+02 1.871204999999999927e+03
1.010000000000000064e-01 1.649899999999999978e-01 4.048435000000000628e+01 1.503799999999999955e+02 1.872034999999999854e+03
1.020000000000000073e-01 1.650969999999999938e-01 4.070284999999999798e+01 1.525374999999999943e+02 1.872829999999999927e+03
1.030000000000000082e-01 1.651960000000000095e-01 4.082179999999999609e+01 1.544859999999999900e+02 1.873565000000000055e+03
1.040000000000000091e-01 1.652875000000000039e-01 4.083220000000000027e+01 1.562015000000000100e+02 1.874240000000000009e+03
1.050000000000000100e-01 1.653695000000000026e-01 4.072669999999999391e+01 1.576659999999999968e+02 1.874849999999999909e+03
1.059999999999999970e-01 1.654415000000000191e-01 4.050029999999999575e+01 1.588659999999999854e+02 1.875389999999999873e+03
1.069999999999999979e-01 1.655019999999999825e-01 4.015050000000000097e+01 1.597955000000000041e+02 1.875849999999999909e+03
1.079999999999999988e-01 1.655524999999999913e-01 3.967745000000000033e+01 1.604555000000000007e+02 1.876230000000000018e+03
1.089999999999999997e-01 1.655909999999999882e-01 3.908415000000000106e+01 1.608520000000000039e+02 1.876519999999999982e+03
1.100000000000000006e-01 1.656190000000000162e-01 3.837640000000000384e+01 1.609985000000000070e+02 1.876740000000000009e+03
1.110000000000000014e-01 1.656365000000000198e-01 3.756265000000000498e+01 1.609124999999999943e+02 1.876869999999999891e+03
1.120000000000000023e-01 1.656440000000000135e-01 3.665364999999999895e+01 1.606175000000000068e+02 1.876934999999999945e+03
1.130000000000000032e-01 1.656420000000000115e-01 3.566214999999999691e+01 1.601405000000000030e+02 1.876929999999999836e+03
1.140000000000000041e-01 1.656314999999999871e-01 3.460245000000000459e+01 1.595099999999999909e+02 1.876865000000000009e+03
1.150000000000000050e-01 1.656144999999999978e-01 3.349004999999999654e+01 1.587580000000000098e+02 1.876750000000000000e+03
1.160000000000000059e-01 1.655915000000000026e-01 3.234085000000000321e+01 1.579159999999999968e+02 1.876579999999999927e+03
1.170000000000000068e-01 1.655635000000000023e-01 3.117075000000000173e+01 1.570134999999999934e+02 1.876384999999999991e+03
1.180000000000000077e-01 1.655320000000000125e-01 2.999524999999999864e+01 1.560805000000000007e+02 1.876155000000000200e+03
1.190000000000000085e-01 1.654984999999999928e-01 2.882874999999999943e+01 1.551424999999999841e+02 1.875910000000000082e+03
1.200000000000000094e-01 1.654640000000000000e-01 2.768410000000000082e+01 1.542224999999999966e+02 1.875659999999999854e+03
1.209999999999999964e-01 1.654284999999999783e-01 2.657264999999999944e+01 1.533389999999999986e+02 1.875394999999999982e+03
1.219999999999999973e-01 1.653939999999999855e-01 2.550325000000000131e+01 1.525060000000000002e+02 1.875139999999999873e+03
1.229999999999999982e-01 1.653605000000000214e-01 2.448274999999999935e+01 1.517309999999999945e+02 1.874894999999999982e+03
1.239999999999999991e-01 1.653284999999999894e-01 2.351545000000000130e+01 1.510194999999999936e+02 1.874650000000000091e+03
1.250000000000000000e-01 1.652980000000000005e-01 2.260325000000000273e+01 1.503695000000000164e+02 1.874430000000000064e+03
1.260000000000000009e-01 1.652700000000000002e-01 2.174595000000000056e+01 1.497764999999999986e+02 1.874214999999999918e+03
1.270000000000000018e-01 1.652434999999999876e-01 2.094099999999999895e+01 1.492305000000000064e+02 1.874019999999999982e+03
1.280000000000000027e-01 1.652190000000000047e-01 2.018400000000000105e+01 1.487205000000000155e+02 1.873835000000000036e+03
1.290000000000000036e-01 1.651954999999999951e-01 1.946904999999999930e+01 1.482305000000000064e+02 1.873654999999999973e+03
1.300000000000000044e-01 1.651724999999999999e-01 1.878894999999999982e+01 1.477434999999999832e+02 1.873485000000000127e+03
1.310000000000000053e-01 1.651500000000000190e-01 1.813575000000000159e+01 1.472429999999999950e+02 1.873315000000000055e+03
1.320000000000000062e-01 1.651265000000000094e-01 1.750104999999999933e+01 1.467105000000000246e+02 1.873139999999999873e+03
1.330000000000000071e-01 1.651019999999999988e-01 1.687640000000000029e+01 1.461304999999999836e+02 1.872950000000000045e+03
1.340000000000000080e-01 1.650765000000000149e-01 1.625384999999999991e+01 1.454870000000000232e+02 1.872759999999999991e+03
1.350000000000000089e-01 1.650475000000000136e-01 1.562589999999999968e+01 1.447675000000000125e+02 1.872545000000000073e+03
1.360000000000000098e-01 1.650159999999999960e-01 1.498634999999999984e+01 1.439619999999999891e+02 1.872315000000000055e+03
1.370000000000000107e-01 1.649809999999999888e-01 1.433030000000000115e+01 1.430640000000000214e+02 1.872055000000000064e+03
1.380000000000000115e-01 1.649430000000000063e-01 1.365419999999999945e+01 1.420695000000000050e+02 1.871769999999999982e+03
1.390000000000000124e-01 1.649009999999999920e-01 1.295630000000000059e+01 1.409799999999999898e+02 1.871464999999999918e+03
1.400000000000000133e-01 1.648550000000000015e-01 1.223659999999999926e+01 1.398000000000000114e+02 1.871125000000000000e+03
1.410000000000000142e-01 1.648054999999999937e-01 1.149688000000000088e+01 1.385370000000000061e+02 1.870759999999999991e+03
1.420000000000000151e-01 1.647524999999999962e-01 1.074038499999999985e+01 1.372030000000000030e+02 1.870375000000000000e+03
1.430000000000000160e-01 1.646964999999999957e-01 9.972144999999999371e+00 1.358120000000000118e+02 1.869960000000000036e+03
1.440000000000000169e-01 1.646380000000000066e-01 9.198380000000000223e+00 1.343804999999999836e+02 1.869535000000000082e+03
1.450000000000000178e-01 1.645780000000000021e-01 8.426384999999999792e+00 1.329275000000000091e+02 1.869095000000000027e+03
1.459999999999999909e-01 1.645165000000000100e-01 7.664294999999999192e+00 1.314719999999999800e+02 1.868639999999999873e+03
1.469999999999999918e-01 1.644545000000000035e-01 6.920555000000000234e+00 1.300345000000000084e+02 1.868184999999999945e+03
1.479999999999999927e-01 1.643924999999999970e-01 6.203769999999999563e+00 1.286345000000000027e+02 1.867740000000000009e+03
1.489999999999999936e-01 1.643324999999999925e-01 5.522280000000000300e+00 1.272895000000000039e+02 1.867289999999999964e+03
1.499999999999999944e-01 1.642734999999999890e-01 4.883820000000000050e+00 1.260165000000000077e+02 1.866860000000000127e+03
1.509999999999999953e-01 1.642170000000000019e-01 4.295255000000000045e+00 1.248300000000000125e+02 1.866450000000000045e+03
1.519999999999999962e-01 1.641644999999999910e-01 3.762324999999999697e+00 1.237404999999999973e+02 1.866054999999999836e+03
1.529999999999999971e-01 1.641150000000000109e-01 3.289430000000000298e+00 1.227560000000000002e+02 1.865694999999999936e+03
1.539999999999999980e-01 1.640699999999999936e-01 2.879504999999999981e+00 1.218815000000000026e+02 1.865360000000000127e+03
1.549999999999999989e-01 1.640290000000000081e-01 2.533939999999999859e+00 1.211184999999999974e+02 1.865054999999999836e+03
1.559999999999999998e-01 1.639919999999999989e-01 2.252545000000000019e+00 1.204650000000000034e+02 1.864779999999999973e+03
1.570000000000000007e-01 1.639595000000000080e-01 2.033630000000000049e+00 1.199155000000000086e+02 1.864539999999999964e+03
1.580000000000000016e-01 1.639315000000000078e-01 1.874071999999999960e+00 1.194634999999999962e+02 1.864329999999999927e+03
1.590000000000000024e-01 1.639079999999999981e-01 1.769480000000000164e+00 1.190974999999999966e+02 1.864150000000000091e+03
