# t [s], A [cm^2], U [cm/s], P [cPa], c [cm/s]
1.000000000000000021e-03 6.123669999999999947e-01 2.458149999999999225e-03 9.156139999999999191e+01 1.473535000000000082e+03
2.000000000000000042e-03 6.123589999999999867e-01 7.489149999999997372e-04 9.154220000000000823e+01 1.473530000000000200e+03
3.000000000000000062e-03 6.124119999999999564e-01 9.004015000000001323e-02 9.162475000000000591e+01 1.473549999999999955e+03
4.000000000000000083e-03 6.124629999999999797e-01 1.800516500000000075e-01 9.172925000000000750e+01 1.473579999999999927e+03
5.000000000000000104e-03 6.124475000000000335e-01 1.653342500000000159e-01 9.170089999999999009e+01 1.473570000000000164e+03
6.000000000000000125e-03 6.123899999999999899e-01 7.780100000000000904e-02 9.153294999999999959e+01 1.473539999999999964e+03
7.000000000000000146e-03 6.123324999999999463e-01 -1.692900000000002736e-02 9.129310000000000969e+01 1.473490000000000009e+03
8.000000000000000167e-03 6.122505000000000308e-01 -1.606595000000000106e-01 9.094724999999999682e+01 1.473414999999999964e+03
9.000000000000001055e-03 6.121105000000000018e-01 -4.125100000000000433e-01 9.041454999999999131e+01 1.473299999999999955e+03
1.000000000000000194e-02 6.119069999999999787e-01 -7.794449999999999434e-01 8.965335000000000321e+01 1.473130000000000109e+03
1.099999999999999936e-02 6.116314999999999946e-01 -1.265159999999999840e+00 8.862765000000000271e+01 1.472894999999999982e+03
1.200000000000000025e-02 6.112695000000000212e-01 -1.878849999999999909e+00 8.729519999999999413e+01 1.472585000000000036e+03
1.300000000000000114e-02 6.108279999999999266e-01 -2.591535000000000366e+00 8.565659999999999741e+01 1.472200000000000045e+03
1.400000000000000203e-02 6.103464999999999030e-01 -3.312925000000000342e+00 8.379680000000000462e+01 1.471750000000000000e+03
1.499999999999999944e-02 6.098810000000000064e-01 -3.919050000000000367e+00 8.187014999999999532e+01 1.471269999999999982e+03
1.600000000000000033e-02 6.094800000000000217e-01 -4.303161500000000750e+00 8.004210000000000491e+01 1.470784999999999854e+03
1.700000000000000122e-02 6.091625000000000512e-01 -4.412171999999999983e+00 7.843224999999999625e+01 1.470339999999999918e+03
1.800000000000000211e-02 6.089204999999999757e-01 -4.254796999999999940e+00 7.708464999999999634e+01 1.469934999999999945e+03
1.900000000000000300e-02 6.087249999999999606e-01 -3.887543500000000041e+00 7.596864999999999668e+01 1.469579999999999927e+03
2.000000000000000042e-02 6.085384999999999822e-01 -3.389899000000000218e+00 7.500175000000000125e+01 1.469255000000000109e+03
2.100000000000000130e-02 6.083304999999999962e-01 -2.838137499999999758e+00 7.408270000000000266e+01 1.468950000000000045e+03
2.200000000000000219e-02 6.080820000000000114e-01 -2.284836499999999937e+00 7.312479999999999336e+01 1.468630000000000109e+03
2.299999999999999961e-02 6.077900000000000524e-01 -1.749804999999999833e+00 7.207880000000000109e+01 1.468305000000000064e+03
2.400000000000000050e-02 6.074669999999999792e-01 -1.224420000000000064e+00 7.093850000000000477e+01 1.467954999999999927e+03
2.500000000000000139e-02 6.071299999999999475e-01 -6.862149999999997974e-01 6.973035000000000139e+01 1.467590000000000146e+03
2.600000000000000228e-02 6.067940000000000556e-01 -1.167149999999996801e-01 6.849170000000000869e+01 1.467215000000000146e+03
2.700000000000000316e-02 6.064629999999999743e-01 4.846299999999996722e-01 6.724954999999999927e+01 1.466840000000000146e+03
2.800000000000000058e-02 6.061324999999999630e-01 1.094320000000000181e+00 6.600504999999999711e+01 1.466465000000000146e+03
2.900000000000000147e-02 6.057855000000000878e-01 1.666875000000000107e+00 6.472860000000000014e+01 1.466079999999999927e+03
3.000000000000000236e-02 6.054014999999999258e-01 2.143284999999999663e+00 6.336489999999999867e+01 1.465675000000000182e+03
3.099999999999999978e-02 6.049575000000000369e-01 2.463195000000000245e+00 6.184519999999999840e+01 1.465235000000000127e+03
3.200000000000000067e-02 6.044380000000000308e-01 2.577739999999999920e+00 6.010470000000000113e+01 1.464750000000000000e+03
3.300000000000000155e-02 6.038349999999998996e-01 2.460359999999999658e+00 5.809990000000000521e+01 1.464204999999999927e+03
3.400000000000000244e-02 6.031560000000000255e-01 2.113130000000000397e+00 5.582245000000000346e+01 1.463599999999999909e+03
3.500000000000000333e-02 6.024180000000000090e-01 1.567165000000000141e+00 5.330599999999999739e+01 1.462934999999999945e+03
3.600000000000000422e-02 6.016489999999999894e-01 8.773549999999996629e-01 5.062429999999999808e+01 1.462230000000000018e+03
3.700000000000000511e-02 6.008830000000000560e-01 1.131299999999999528e-01 4.788259999999999650e+01 1.461505000000000109e+03
3.799999999999999906e-02 6.001555000000000639e-01 -6.516649999999994947e-01 4.520354999999999990e+01 1.460779999999999973e+03
3.899999999999999994e-02 5.994975000000000165e-01 -1.348244999999999472e+00 4.271269999999999811e+01 1.460099999999999909e+03
4.000000000000000083e-02 5.989354999999999540e-01 -1.919280000000000097e+00 4.052490000000000236e+01 1.459474999999999909e+03
4.100000000000000172e-02 5.984890000000000487e-01 -2.322165000000000035e+00 3.873499999999999943e+01 1.458950000000000045e+03
4.200000000000000261e-02 5.981695000000000206e-01 -2.529279999999999973e+00 3.741204999999999359e+01 1.458525000000000091e+03
4.300000000000000350e-02 5.979830000000000423e-01 -2.526066310000000037e+00 3.659870000000000090e+01 1.458224999999999909e+03
4.400000000000000439e-02 5.979299999999999615e-01 -2.307814999999999728e+00 3.631284999999999741e+01 1.458065000000000055e+03
4.499999999999999833e-02 5.980075000000000252e-01 -1.876209999999999933e+00 3.655264999999999986e+01 1.458034999999999854e+03
4.599999999999999922e-02 5.982110000000000483e-01 -1.236469999999999958e+00 3.730134999999999934e+01 1.458144999999999982e+03
4.700000000000000011e-02 5.985329999999999817e-01 -3.955100000000002503e-01 3.853255000000000052e+01 1.458384999999999991e+03
4.800000000000000100e-02 5.989670000000000272e-01 6.386200000000004096e-01 4.021370000000000289e+01 1.458750000000000000e+03
4.900000000000000189e-02 5.995044999999999957e-01 1.856165000000000287e+00 4.230825000000000102e+01 1.459230000000000018e+03
5.000000000000000278e-02 6.001360000000000028e-01 3.244599999999999707e+00 4.477639999999999532e+01 1.459819999999999936e+03
5.100000000000000366e-02 6.008504999999999541e-01 4.787340000000000373e+00 4.757469999999999999e+01 1.460510000000000218e+03
5.200000000000000455e-02 6.016365000000000185e-01 6.463115000000000165e+00 5.065569999999999595e+01 1.461279999999999973e+03
5.300000000000000544e-02 6.024800000000000155e-01 8.245649999999999480e+00 5.396750000000000114e+01 1.462119999999999891e+03
5.399999999999999939e-02 6.033649999999999292e-01 1.010463124999999884e+01 5.745449999999999591e+01 1.463025000000000091e+03
5.500000000000000028e-02 6.042775000000000230e-01 1.200682000000000116e+01 6.105840000000000600e+01 1.463974999999999909e+03
5.600000000000000117e-02 6.052014999999999478e-01 1.391802000000000028e+01 6.472069999999999368e+01 1.464949999999999818e+03
5.700000000000000205e-02 6.061220000000000496e-01 1.580487999999999893e+01 6.838455000000000439e+01 1.465934999999999945e+03
5.800000000000000294e-02 6.070265000000000244e-01 1.763679499999999933e+01 7.199779999999999802e+01 1.466925000000000182e+03
5.900000000000000383e-02 6.079044999999999588e-01 1.938735000000000142e+01 7.551515000000000555e+01 1.467900000000000091e+03
6.000000000000000472e-02 6.087480000000000668e-01 2.103535000000000110e+01 7.889990000000000236e+01 1.468855000000000018e+03
6.099999999999999867e-02 6.095509999999999540e-01 2.256520000000000081e+01 8.212545000000000073e+01 1.469775000000000091e+03
6.199999999999999956e-02 6.103119999999999656e-01 2.396724999999999994e+01 8.517535000000000878e+01 1.470659999999999854e+03
6.300000000000000044e-02 6.110290000000000443e-01 2.523724999999999952e+01 8.804339999999999122e+01 1.471500000000000000e+03
6.400000000000000133e-02 6.117049999999999432e-01 2.637575000000000003e+01 9.073250000000000171e+01 1.472300000000000182e+03
6.500000000000000222e-02 6.123434999999999295e-01 2.738750000000000284e+01 9.325334999999999752e+01 1.473054999999999836e+03
6.600000000000000311e-02 6.129480000000000484e-01 2.828065000000000140e+01 9.562295000000000300e+01 1.473769999999999982e+03
6.700000000000000400e-02 6.135260000000000158e-01 2.906559999999999988e+01 9.786334999999999695e+01 1.474454999999999927e+03
6.800000000000000488e-02 6.140824999999999756e-01 2.975465000000000160e+01 9.999835000000000207e+01 1.475110000000000127e+03
6.900000000000000577e-02 6.146234999999999893e-01 3.036090000000000089e+01 1.020541000000000054e+02 1.475740000000000009e+03
7.000000000000000666e-02 6.151554999999999662e-01 3.089764999999999873e+01 1.040550000000000068e+02 1.476349999999999909e+03
7.100000000000000755e-02 6.156829999999999803e-01 3.137754999999999939e+01 1.060234999999999985e+02 1.476949999999999818e+03
7.200000000000000844e-02 6.162104999999999944e-01 3.181195000000000306e+01 1.079789999999999992e+02 1.477539999999999964e+03
7.300000000000000933e-02 6.167409999999999837e-01 3.221025000000000205e+01 1.099355000000000047e+02 1.478130000000000109e+03
7.399999999999999634e-02 6.172759999999999359e-01 3.257954999999999757e+01 1.119029999999999916e+02 1.478720000000000027e+03
7.499999999999999722e-02 6.178155000000000729e-01 3.292414999999999736e+01 1.138824999999999932e+02 1.479304999999999836e+03
7.599999999999999811e-02 6.183570000000000455e-01 3.324559999999999604e+01 1.158719999999999999e+02 1.479894999999999982e+03
7.699999999999999900e-02 6.188979999999999482e-01 3.354250000000000398e+01 1.178615000000000066e+02 1.480490000000000009e+03
7.799999999999999989e-02 6.194344999999999990e-01 3.381099999999999994e+01 1.198359999999999985e+02 1.481070000000000164e+03
7.900000000000000078e-02 6.199600000000000666e-01 3.404524999999999579e+01 1.217764999999999986e+02 1.481644999999999982e+03
8.000000000000000167e-02 6.204689999999999372e-01 3.423780000000000001e+01 1.236595000000000084e+02 1.482204999999999927e+03
8.100000000000000255e-02 6.209545000000000758e-01 3.438044999999999618e+01 1.254620000000000033e+02 1.482744999999999891e+03
8.200000000000000344e-02 6.214109999999999356e-01 3.446465000000000600e+01 1.271584999999999894e+02 1.483259999999999991e+03
8.300000000000000433e-02 6.218330000000000801e-01 3.448219999999999885e+01 1.287259999999999991e+02 1.483740000000000009e+03
8.400000000000000522e-02 6.222134999999999749e-01 3.442589999999999861e+01 1.301424999999999841e+02 1.484179999999999836e+03
8.500000000000000611e-02 6.225495000000000889e-01 3.428999999999999915e+01 1.313899999999999864e+02 1.484575000000000045e+03
8.600000000000000699e-02 6.228370000000000850e-01 3.407019999999999982e+01 1.324544999999999959e+02 1.484920000000000073e+03
8.700000000000000788e-02 6.230744999999999756e-01 3.376440000000000197e+01 1.333265000000000100e+02 1.485215000000000146e+03
8.800000000000000877e-02 6.232610000000000650e-01 3.337259999999999849e+01 1.340009999999999764e+02 1.485460000000000036e+03
8.899999999999999578e-02 6.233975000000000488e-01 3.289690000000000225e+01 1.344795000000000016e+02 1.485644999999999982e+03
8.999999999999999667e-02 6.234849999999999559e-01 3.234150000000000347e+01 1.347674999999999841e+02 1.485785000000000082e+03
9.099999999999999756e-02 6.235260000000000247e-01 3.171255000000000024e+01 1.348754999999999882e+02 1.485865000000000009e+03
9.199999999999999845e-02 6.235254999999999548e-01 3.101814999999999856e+01 1.348170000000000073e+02 1.485894999999999982e+03
9.299999999999999933e-02 6.234870000000000134e-01 3.026760000000000161e+01 1.346100000000000136e+02 1.485884999999999991e+03
9.400000000000000022e-02 6.234169999999999989e-01 2.947149999999999892e+01 1.342755000000000223e+02 1.485829999999999927e+03
9.500000000000000111e-02 6.233200000000000962e-01 2.864140000000000086e+01 1.338360000000000127e+02 1.485750000000000000e+03
9.600000000000000200e-02 6.232029999999999514e-01 2.778900000000000148e+01 1.333149999999999977e+02 1.485634999999999991e+03
9.700000000000000289e-02 6.230709999999999305e-01 2.692620000000000147e+01 1.327355000000000018e+02 1.485500000000000000e+03
9.800000000000000377e-02 6.229305000000000536e-01 2.606434999999999746e+01 1.321225000000000023e+02 1.485355000000000018e+03
9.900000000000000466e-02 6.227869999999999795e-01 2.521405000000000030e+01 1.314970000000000141e+02 1.485195000000000164e+03
1.000000000000000056e-01 6.226450000000000040e-01 2.438469999999999871e+01 1.308790000000000191e+02 1.485030000000000200e+03
1.010000000000000064e-01 6.225084999999999091e-01 2.358415000000000106e+01 1.302849999999999966e+02 1.484869999999999891e+03
1.020000000000000073e-01 6.223810000000000731e-01 2.281864999999999810e+01 1.297305000000000064e+02 1.484710000000000036e+03
1.030000000000000082e-01 6.222640000000000393e-01 2.209234999999999971e+01 1.292239999999999895e+02 1.484565000000000055e+03
1.040000000000000091e-01 6.221609999999999641e-01 2.140744999999999720e+01 1.287740000000000009e+02 1.484430000000000064e+03
1.050000000000000100e-01 6.220710000000000406e-01 2.076420000000000243e+01 1.283824999999999932e+02 1.484309999999999945e+03
1.059999999999999970e-01 6.219934999999999770e-01 2.016080000000000183e+01 1.280484999999999900e+02 1.484204999999999927e+03
1.069999999999999979e-01 6.219274999999999665e-01 1.959380000000000166e+01 1.277685000000000031e+02 1.484110000000000127e+03
1.079999999999999988e-01 6.218714999999999105e-01 1.905834999999999724e+01 1.275349999999999966e+02 1.484029999999999973e+03
1.089999999999999997e-01 6.218219999999999859e-01 1.854810000000000159e+01 1.273389999999999986e+02 1.483960000000000036e+03
1.100000000000000006e-01 6.217779999999999418e-01 1.805614999999999881e+01 1.271680000000000064e+02 1.483900000000000091e+03
1.110000000000000014e-01 6.217345000000000788e-01 1.757495000000000118e+01 1.270109999999999957e+02 1.483845000000000027e+03
1.120000000000000023e-01 6.216895000000000060e-01 1.709679999999999822e+01 1.268545000000000016e+02 1.483784999999999854e+03
1.130000000000000032e-01 6.216395000000000115e-01 1.661414999999999864e+01 1.266864999999999952e+02 1.483735000000000127e+03
1.140000000000000041e-01 6.215815000000000090e-01 1.612010000000000076e+01 1.264934999999999832e+02 1.483670000000000073e+03
1.150000000000000050e-01 6.215140000000000109e-01 1.560859999999999914e+01 1.262669999999999959e+02 1.483605000000000018e+03
1.160000000000000059e-01 6.214345000000000008e-01 1.507455000000000034e+01 1.259979999999999905e+02 1.483525000000000091e+03
1.170000000000000068e-01 6.213420000000000609e-01 1.451409999999999911e+01 1.256794999999999902e+02 1.483440000000000055e+03
1.180000000000000077e-01 6.212355000000000516e-01 1.392510000000000048e+01 1.253079999999999927e+02 1.483339999999999918e+03
1.190000000000000085e-01 6.211155000000000426e-01 1.330664499999999961e+01 1.248825000000000074e+02 1.483224999999999909e+03
1.200000000000000094e-01 6.209819999999999229e-01 1.265950999999999915e+01 1.244039999999999964e+02 1.483099999999999909e+03
1.209999999999999964e-01 6.208374999999999311e-01 1.198582999999999998e+01 1.238770000000000095e+02 1.482960000000000036e+03
1.219999999999999973e-01 6.206825000000000259e-01 1.128936500000000009e+01 1.233075000000000045e+02 1.482805000000000064e+03
1.229999999999999982e-01 6.205205000000000304e-01 1.057489500000000149e+01 1.227040000000000077e+02 1.482650000000000091e+03
1.239999999999999991e-01 6.203535000000000021e-01 9.848515000000000796e+00 1.220769999999999982e+02 1.482474999999999909e+03
1.250000000000000000e-01 6.201855000000000562e-01 9.116975000000000051e+00 1.214389999999999930e+02 1.482304999999999836e+03
1.260000000000000009e-01 6.200200000000000156e-01 8.387760000000000105e+00 1.208004999999999995e+02 1.482134999999999991e+03
1.270000000000000018e-01 6.198584999999999789e-01 7.668509999999999494e+00 1.201765000000000043e+02 1.481954999999999927e+03
1.280000000000000027e-01 6.197059999999999791e-01 6.966994999999999827e+00 1.195790000000000077e+02 1.481789999999999964e+03
1.290000000000000036e-01 6.195645000000000735e-01 6.290729999999999933e+00 1.190194999999999936e+02 1.481630000000000109e+03
1.300000000000000044e-01 6.194374999999999742e-01 5.646630000000000038e+00 1.185100000000000051e+02 1.481480000000000018e+03
1.310000000000000053e-01 6.193265000000000020e-01 5.040854999999999642e+00 1.180589999999999975e+02 1.481345000000000027e+03
1.320000000000000062e-01 6.192334999999999923e-01 4.478534999999999933e+00 1.176749999999999972e+02 1.481224999999999909e+03
1.330000000000000071e-01 6.191594999999999738e-01 3.963664999999999772e+00 1.173625000000000114e+02 1.481130000000000109e+03
1.340000000000000080e-01 6.191054999999999753e-01 3.498899999999999899e+00 1.171254999999999882e+02 1.481045000000000073e+03
1.350000000000000089e-01 6.190710000000000379e-01 3.085564999999999891e+00 1.169639999999999986e+02 1.480985000000000127e+03
1.360000000000000098e-01 6.190554999999999808e-01 2.723605000000000054e+00 1.168760000000000048e+02 1.480945000000000164e+03
1.370000000000000107e-01 6.190575000000000383e-01 2.411649999999999849e+00 1.168575000000000017e+02 1.480920000000000073e+03
1.380000000000000115e-01 6.190750000000000419e-01 2.147100000000000009e+00 1.169029999999999916e+02 1.480920000000000073e+03
1.390000000000000124e-01 6.191060000000000452e-01 1.926289999999999836e+00 1.170030000000000001e+02 1.480924999999999955e+03
1.400000000000000133e-01 6.191480000000000317e-01 1.744639999999999969e+00 1.171490000000000009e+02 1.480950000000000045e+03
1.410000000000000142e-01 6.191979999999999151e-01 1.596875000000000044e+00 1.173305000000000007e+02 1.480990000000000009e+03
1.420000000000000151e-01 6.192539999999999711e-01 1.477239500000000039e+00 1.175349999999999966e+02 1.481030000000000200e+03
1.430000000000000160e-01 6.193115000000000148e-01 1.379710499999999840e+00 1.177524999999999977e+02 1.481085000000000036e+03
1.440000000000000169e-01 6.193679999999999186e-01 1.298216000000000037e+00 1.179705000000000013e+02 1.481134999999999991e+03
1.450000000000000178e-01 6.194214999999999582e-01 1.226838499999999943e+00 1.181795000000000044e+02 1.481184999999999945e+03
1.459999999999999909e-01 6.194695000000000062e-01 1.160001999999999978e+00 1.183684999999999974e+02 1.481235000000000127e+03
1.469999999999999918e-01 6.195094999999999352e-01 1.092613500000000126e+00 1.185295000000000130e+02 1.481275000000000091e+03
1.479999999999999927e-01 6.195405000000000495e-01 1.020218999999999987e+00 1.186550000000000011e+02 1.481315000000000055e+03
1.489999999999999936e-01 6.195599999999999996e-01 9.390794999999999559e-01 1.187390000000000043e+02 1.481335000000000036e+03
1.499999999999999944e-01 6.195680000000000076e-01 8.462475000000000414e-01 1.187784999999999940e+02 1.481355000000000018e+03
1.509999999999999953e-01 6.195640000000000036e-01 7.396019999999999817e-01 1.187694999999999936e+02 1.481355000000000018e+03
1.519999999999999962e-01 6.195470000000000699e-01 6.178565000000000307e-01 1.187119999999999891e+02 1.481345000000000027e+03
1.529999999999999971e-01 6.195185000000000830e-01 4.805383999999999767e-01 1.186055000000000064e+02 1.481320000000000164e+03
1.539999999999999980e-01 6.194779999999999731e-01 3.279340000000000033e-01 1.184535000000000053e+02 1.481289999999999964e+03
1.549999999999999989e-01 6.194275000000000198e-01 1.610250000000000292e-01 1.182580000000000098e+02 1.481240000000000009e+03
1.559999999999999998e-01 6.193670000000000009e-01 -1.860749999999999904e-02 1.180229999999999961e+02 1.481184999999999945e+03
1.570000000000000007e-01 6.192979999999999041e-01 -2.088864999999999750e-01 1.177540000000000049e+02 1.481115000000000009e+03
1.580000000000000016e-01 6.192225000000000090e-01 -4.073614999999999320e-01 1.174555000000000007e+02 1.481039999999999964e+03
1.590000000000000024e-01 6.191415000000000113e-01 -6.113245000000000484e-01 1.171334999999999980e+02 1.480960000000000036e+03
