# t [s], A [cm^2], U [cm/s], P [cPa], c [cm/s]
1.000000000000000021e-03 8.120715000000000572e-01 7.027499999999999025e-03 1.008044999999999902e+02 1.744505000000000109e+03
2.000000000000000042e-03 8.120570000000000288e-01 -3.383904999999999986e-03 1.007685000000000031e+02 1.744500000000000000e+03
3.000000000000000062e-03 8.121300000000000185e-01 1.070162499999999794e-01 1.008975000000000080e+02 1.744519999999999982e+03
4.000000000000000083e-03 8.121844999999999759e-01 2.067255500000000079e-01 1.010244000000000000e+02 1.744549999999999955e+03
5.000000000000000104e-03 8.121294999999999487e-01 1.567690999999999946e-01 1.009080000000000013e+02 1.744530000000000200e+03
6.000000000000000125e-03 8.120384999999999964e-01 4.741149999999999531e-02 1.006239999999999952e+02 1.744474999999999909e+03
7.000000000000000146e-03 8.119625000000000314e-01 -5.063900000000004509e-02 1.002895000000000039e+02 1.744410000000000082e+03
8.000000000000000167e-03 8.118265000000000065e-01 -2.559649999999999981e-01 9.976664999999999850e+01 1.744309999999999945e+03
9.000000000000001055e-03 8.116079999999999961e-01 -6.077099999999999724e-01 9.896764999999999191e+01 1.744159999999999854e+03
1.000000000000000194e-02 8.113004999999999800e-01 -1.109979999999999967e+00 9.784080000000000155e+01 1.743945000000000164e+03
1.099999999999999936e-02 8.108724999999999961e-01 -1.796580000000000066e+00 9.629075000000000273e+01 1.743644999999999982e+03
1.200000000000000025e-02 8.103320000000000523e-01 -2.634535000000000071e+00 9.430035000000000878e+01 1.743255000000000109e+03
1.300000000000000114e-02 8.097600000000000353e-01 -3.468725000000000058e+00 9.204259999999999309e+01 1.742804999999999836e+03
1.400000000000000203e-02 8.092614999999999670e-01 -4.099860999999999756e+00 8.980594999999999573e+01 1.742335000000000036e+03
1.499999999999999944e-02 8.088929999999999731e-01 -4.396424500000000180e+00 8.783350000000000080e+01 1.741894999999999982e+03
1.600000000000000033e-02 8.086444999999999883e-01 -4.343040000000000234e+00 8.621725000000000705e+01 1.741514999999999873e+03
1.700000000000000122e-02 8.084560000000000635e-01 -4.019739999999999647e+00 8.489130000000000109e+01 1.741179999999999836e+03
1.800000000000000211e-02 8.082555000000000156e-01 -3.548165000000000013e+00 8.369185000000000230e+01 1.740865000000000009e+03
1.900000000000000300e-02 8.079880000000000395e-01 -3.036088499999999968e+00 8.244155000000000655e+01 1.740549999999999955e+03
2.000000000000000042e-02 8.076345000000000329e-01 -2.539273999999999809e+00 8.102315000000000111e+01 1.740194999999999936e+03
2.100000000000000130e-02 8.072150000000000158e-01 -2.051340000000000163e+00 7.941685000000001082e+01 1.739815000000000055e+03
2.200000000000000219e-02 8.067694999999999173e-01 -1.523295000000000066e+00 7.769050000000000011e+01 1.739404999999999973e+03
2.299999999999999961e-02 8.063400000000000567e-01 -9.009550000000001724e-01 7.595140000000000668e+01 1.738990000000000009e+03
2.400000000000000050e-02 8.059479999999999977e-01 -1.608099999999996754e-01 7.428719999999999857e+01 1.738585000000000036e+03
2.500000000000000139e-02 8.055864999999999831e-01 6.702899999999998304e-01 7.272104999999999109e+01 1.738195000000000164e+03
2.600000000000000228e-02 8.052209999999999646e-01 1.515915000000000123e+00 7.119620000000000459e+01 1.737820000000000164e+03
2.700000000000000316e-02 8.048035000000000050e-01 2.267595000000000027e+00 6.958850000000001046e+01 1.737420000000000073e+03
2.800000000000000058e-02 8.042839999999999989e-01 2.812689999999999912e+00 6.774275000000000091e+01 1.736990000000000009e+03
2.900000000000000147e-02 8.036309999999999842e-01 3.064910000000000245e+00 6.552044999999999675e+01 1.736494999999999891e+03
3.000000000000000236e-02 8.028390000000000803e-01 2.988734999999999697e+00 6.284675000000000011e+01 1.735910000000000082e+03
3.099999999999999978e-02 8.019340000000000357e-01 2.609449999999999825e+00 5.973980000000000246e+01 1.735244999999999891e+03
3.200000000000000067e-02 8.009669999999999845e-01 2.004780000000000229e+00 5.631300000000000239e+01 1.734509999999999991e+03
3.300000000000000155e-02 8.000015000000000320e-01 1.283125000000000071e+00 5.275060000000000571e+01 1.733744999999999891e+03
3.400000000000000244e-02 7.990990000000000038e-01 5.571449999999993352e-01 4.926805000000000234e+01 1.732985000000000127e+03
3.500000000000000333e-02 7.983089999999999353e-01 -7.732999999999989882e-02 4.607264999999999588e+01 1.732269999999999982e+03
3.600000000000000422e-02 7.976635000000000808e-01 -5.528750000000002274e-01 4.333389999999999986e+01 1.731639999999999873e+03
3.700000000000000511e-02 7.971774999999999833e-01 -8.324650000000000105e-01 4.116779999999999973e+01 1.731115000000000009e+03
3.799999999999999906e-02 7.968524999999999636e-01 -9.042799999999997507e-01 3.963530000000000086e+01 1.730724999999999909e+03
3.899999999999999994e-02 7.966830000000000300e-01 -7.724900000000001210e-01 3.875105000000000643e+01 1.730460000000000036e+03
4.000000000000000083e-02 7.966590000000000060e-01 -4.471881999999999802e-01 3.849810000000000088e+01 1.730339999999999918e+03
4.100000000000000172e-02 7.967714999999999659e-01 6.378000000000005887e-02 3.884435000000000571e+01 1.730344999999999800e+03
4.200000000000000261e-02 7.970140000000000002e-01 7.592050000000000187e-01 3.975589999999999691e+01 1.730485000000000127e+03
4.300000000000000350e-02 7.973850000000000104e-01 1.644355000000000011e+00 4.120389999999999731e+01 1.730744999999999891e+03
4.400000000000000439e-02 7.978815000000000213e-01 2.727055000000000007e+00 4.316514999999999702e+01 1.731119999999999891e+03
4.499999999999999833e-02 7.985014999999999752e-01 4.011969999999999814e+00 4.561700000000000443e+01 1.731610000000000127e+03
4.599999999999999922e-02 7.992375000000000451e-01 5.495165000000000077e+00 4.853054999999999808e+01 1.732200000000000045e+03
4.700000000000000011e-02 8.000769999999999271e-01 7.160860999999999699e+00 5.186435000000000173e+01 1.732889999999999873e+03
4.800000000000000100e-02 8.010019999999999918e-01 8.980895499999999032e+00 5.556125000000000114e+01 1.733664999999999964e+03
4.900000000000000189e-02 8.019924999999999971e-01 1.091671499999999995e+01 5.954910000000000281e+01 1.734514999999999873e+03
5.000000000000000278e-02 8.030235000000000012e-01 1.292336500000000044e+01 6.374495000000000289e+01 1.735409999999999854e+03
5.100000000000000366e-02 8.040734999999999966e-01 1.495421500000000137e+01 6.806104999999999450e+01 1.736355000000000018e+03
5.200000000000000455e-02 8.051209999999999756e-01 1.696524000000000143e+01 7.241259999999999764e+01 1.737315000000000055e+03
5.300000000000000544e-02 8.061495000000000744e-01 1.891874999999999929e+01 7.672424999999999784e+01 1.738275000000000091e+03
5.399999999999999939e-02 8.071470000000000589e-01 2.078555000000000064e+01 8.093529999999999802e+01 1.739224999999999909e+03
5.500000000000000028e-02 8.081059999999999910e-01 2.254560000000000031e+01 8.500254999999999939e+01 1.740154999999999973e+03
5.600000000000000117e-02 8.090239999999999654e-01 2.418744999999999834e+01 8.890104999999999791e+01 1.741054999999999836e+03
5.700000000000000205e-02 8.099020000000000108e-01 2.570730000000000004e+01 9.262239999999999895e+01 1.741924999999999955e+03
5.800000000000000294e-02 8.107440000000000202e-01 2.710714999999999719e+01 9.617270000000000607e+01 1.742759999999999991e+03
5.900000000000000383e-02 8.115550000000000264e-01 2.839329999999999998e+01 9.956929999999999836e+01 1.743559999999999945e+03
6.000000000000000472e-02 8.123420000000000085e-01 2.957495000000000118e+01 1.028355499999999978e+02 1.744335000000000036e+03
6.099999999999999867e-02 8.131124999999999048e-01 3.066275000000000261e+01 1.060005999999999915e+02 1.745085000000000036e+03
6.199999999999999956e-02 8.138714999999999700e-01 3.166745000000000232e+01 1.090925000000000011e+02 1.745819999999999936e+03
6.300000000000000044e-02 8.146255000000000024e-01 3.259915000000000163e+01 1.121370000000000005e+02 1.746545000000000073e+03
6.400000000000000133e-02 8.153774999999999773e-01 3.346585000000000321e+01 1.151539999999999964e+02 1.747260000000000218e+03
6.500000000000000222e-02 8.161294999999999522e-01 3.427270000000000039e+01 1.181560000000000059e+02 1.747970000000000027e+03
6.600000000000000311e-02 8.168804999999998984e-01 3.502154999999999774e+01 1.211470000000000056e+02 1.748674999999999955e+03
6.700000000000000400e-02 8.176269999999999927e-01 3.571075000000000443e+01 1.241189999999999998e+02 1.749375000000000000e+03
6.800000000000000488e-02 8.183639999999999803e-01 3.633554999999999779e+01 1.270564999999999998e+02 1.750065000000000055e+03
6.900000000000000577e-02 8.190850000000000630e-01 3.688870000000000005e+01 1.299364999999999952e+02 1.750744999999999891e+03
7.000000000000000666e-02 8.197820000000000107e-01 3.736159999999999570e+01 1.327300000000000182e+02 1.751409999999999854e+03
7.100000000000000755e-02 8.204464999999999675e-01 3.774540000000000362e+01 1.354060000000000059e+02 1.752045000000000073e+03
7.200000000000000844e-02 8.210714999999999542e-01 3.803154999999999575e+01 1.379320000000000164e+02 1.752659999999999854e+03
7.300000000000000933e-02 8.216509999999999092e-01 3.821320000000000050e+01 1.402800000000000011e+02 1.753230000000000018e+03
7.399999999999999634e-02 8.221775000000000055e-01 3.828509999999999991e+01 1.424250000000000114e+02 1.753755000000000109e+03
7.499999999999999722e-02 8.226495000000000335e-01 3.824434999999999718e+01 1.443470000000000084e+02 1.754230000000000018e+03
7.599999999999999811e-02 8.230625000000000302e-01 3.809005000000000507e+01 1.460319999999999823e+02 1.754654999999999973e+03
7.699999999999999900e-02 8.234164999999999957e-01 3.782379999999999853e+01 1.474730000000000132e+02 1.755029999999999973e+03
7.799999999999999989e-02 8.237105000000000121e-01 3.744924999999999926e+01 1.486689999999999827e+02 1.755340000000000146e+03
7.900000000000000078e-02 8.239475000000000549e-01 3.697225000000000250e+01 1.496235000000000070e+02 1.755605000000000018e+03
8.000000000000000167e-02 8.241290000000000004e-01 3.640075000000000216e+01 1.503489999999999895e+02 1.755815000000000055e+03
8.100000000000000255e-02 8.242599999999999927e-01 3.574470000000000169e+01 1.508584999999999923e+02 1.755970000000000027e+03
8.200000000000000344e-02 8.243460000000000232e-01 3.501569999999999538e+01 1.511739999999999782e+02 1.756079999999999927e+03
8.300000000000000433e-02 8.243914999999999438e-01 3.422724999999999795e+01 1.513170000000000073e+02 1.756144999999999982e+03
8.400000000000000522e-02 8.244040000000000257e-01 3.339359999999999928e+01 1.513160000000000025e+02 1.756179999999999836e+03
8.500000000000000611e-02 8.243910000000000959e-01 3.252984999999999616e+01 1.511984999999999957e+02 1.756179999999999836e+03
8.600000000000000699e-02 8.243579999999999242e-01 3.165095000000000169e+01 1.509929999999999950e+02 1.756154999999999973e+03
8.700000000000000788e-02 8.243134999999999213e-01 3.077120000000000033e+01 1.507280000000000086e+02 1.756115000000000009e+03
8.800000000000000877e-02 8.242620000000000502e-01 2.990350000000000108e+01 1.504300000000000068e+02 1.756065000000000055e+03
8.899999999999999578e-02 8.242089999999999694e-01 2.905870000000000175e+01 1.501210000000000093e+02 1.756005000000000109e+03
8.999999999999999667e-02 8.241585000000000161e-01 2.824510000000000076e+01 1.498190000000000168e+02 1.755945000000000164e+03
9.099999999999999756e-02 8.241119999999999557e-01 2.746819999999999951e+01 1.495375000000000227e+02 1.755880000000000109e+03
9.199999999999999845e-02 8.240715000000000678e-01 2.673064999999999714e+01 1.492835000000000036e+02 1.755820000000000164e+03
9.299999999999999933e-02 8.240365000000000606e-01 2.603219999999999956e+01 1.490584999999999809e+02 1.755769999999999982e+03
9.400000000000000022e-02 8.240054999999999463e-01 2.536994999999999933e+01 1.488600000000000136e+02 1.755714999999999918e+03
9.500000000000000111e-02 8.239754999999999718e-01 2.473895000000000266e+01 1.486784999999999854e+02 1.755670000000000073e+03
9.600000000000000200e-02 8.239434999999999398e-01 2.413240000000000052e+01 1.485034999999999741e+02 1.755630000000000109e+03
9.700000000000000289e-02 8.239060000000000272e-01 2.354240000000000066e+01 1.483209999999999980e+02 1.755579999999999927e+03
9.800000000000000377e-02 8.238594999999999668e-01 2.296054999999999779e+01 1.481139999999999759e+02 1.755529999999999973e+03
9.900000000000000466e-02 8.237999999999999767e-01 2.237800000000000011e+01 1.478675000000000068e+02 1.755470000000000027e+03
1.000000000000000056e-01 8.237235000000000529e-01 2.178665000000000163e+01 1.475664999999999907e+02 1.755404999999999973e+03
1.010000000000000064e-01 8.236274999999999569e-01 2.117909999999999826e+01 1.471974999999999909e+02 1.755320000000000164e+03
1.020000000000000073e-01 8.235099999999999643e-01 2.054935000000000045e+01 1.467490000000000236e+02 1.755219999999999800e+03
1.030000000000000082e-01 8.233699999999999353e-01 1.989290000000000092e+01 1.462144999999999868e+02 1.755105000000000018e+03
1.040000000000000091e-01 8.232070000000000221e-01 1.920739999999999981e+01 1.455900000000000034e+02 1.754965000000000146e+03
1.050000000000000100e-01 8.230215000000000725e-01 1.849269999999999925e+01 1.448770000000000095e+02 1.754815000000000055e+03
1.059999999999999970e-01 8.228165000000000617e-01 1.775080000000000169e+01 1.440805000000000007e+02 1.754639999999999873e+03
1.069999999999999979e-01 8.225940000000000474e-01 1.698595000000000255e+01 1.432104999999999961e+02 1.754450000000000045e+03
1.079999999999999988e-01 8.223580000000000334e-01 1.620445000000000135e+01 1.422805000000000177e+02 1.754244999999999891e+03
1.089999999999999997e-01 8.221145000000000813e-01 1.541425000000000090e+01 1.413079999999999927e+02 1.754029999999999973e+03
1.100000000000000006e-01 8.218674999999999731e-01 1.462466000000000044e+01 1.403129999999999882e+02 1.753809999999999945e+03
1.110000000000000014e-01 8.216234999999999511e-01 1.384591500000000153e+01 1.393170000000000073e+02 1.753585000000000036e+03
1.120000000000000023e-01 8.213865000000000194e-01 1.308843500000000049e+01 1.383414999999999964e+02 1.753360000000000127e+03
1.130000000000000032e-01 8.211630000000000873e-01 1.236246999999999829e+01 1.374089999999999918e+02 1.753150000000000091e+03
1.140000000000000041e-01 8.209565000000000889e-01 1.167753500000000066e+01 1.365389999999999873e+02 1.752945000000000164e+03
1.150000000000000050e-01 8.207725000000000160e-01 1.104195499999999974e+01 1.357479999999999905e+02 1.752755000000000109e+03
1.160000000000000059e-01 8.206120000000000081e-01 1.046238499999999938e+01 1.350509999999999877e+02 1.752585000000000036e+03
1.170000000000000068e-01 8.204789999999999583e-01 9.943680000000000518e+00 1.344569999999999936e+02 1.752440000000000055e+03
1.180000000000000077e-01 8.203724999999999490e-01 9.488564999999999472e+00 1.339724999999999966e+02 1.752315000000000055e+03
1.190000000000000085e-01 8.202929999999999389e-01 9.097770000000000579e+00 1.335974999999999966e+02 1.752215000000000146e+03
1.200000000000000094e-01 8.202389999999999404e-01 8.769774999999999210e+00 1.333294999999999959e+02 1.752134999999999991e+03
1.209999999999999964e-01 8.202074999999999783e-01 8.501350000000000406e+00 1.331599999999999966e+02 1.752079999999999927e+03
1.219999999999999973e-01 8.201964999999999950e-01 8.287610000000000809e+00 1.330799999999999841e+02 1.752050000000000182e+03
1.229999999999999982e-01 8.202024999999999455e-01 8.122474999999999667e+00 1.330755000000000052e+02 1.752029999999999973e+03
1.239999999999999991e-01 8.202209999999999779e-01 7.998969999999999914e+00 1.331314999999999884e+02 1.752029999999999973e+03
1.250000000000000000e-01 8.202484999999999360e-01 7.909655000000000769e+00 1.332330000000000041e+02 1.752039999999999964e+03
1.260000000000000009e-01 8.202814999999999968e-01 7.846999999999999531e+00 1.333640000000000043e+02 1.752054999999999836e+03
1.270000000000000018e-01 8.203165000000000040e-01 7.803740000000000343e+00 1.335109999999999957e+02 1.752079999999999927e+03
1.280000000000000027e-01 8.203504999999999825e-01 7.773085000000000022e+00 1.336599999999999966e+02 1.752110000000000127e+03
1.290000000000000036e-01 8.203810000000000269e-01 7.748965000000000103e+00 1.338000000000000114e+02 1.752130000000000109e+03
1.300000000000000044e-01 8.204059999999999686e-01 7.726189999999999003e+00 1.339214999999999804e+02 1.752155000000000200e+03
1.310000000000000053e-01 8.204245000000000010e-01 7.700450000000000017e+00 1.340185000000000173e+02 1.752180000000000064e+03
1.320000000000000062e-01 8.204355000000000953e-01 7.668419999999999348e+00 1.340860000000000127e+02 1.752195000000000164e+03
1.330000000000000071e-01 8.204389999999999183e-01 7.627670000000000172e+00 1.341215000000000259e+02 1.752200000000000045e+03
1.340000000000000080e-01 8.204344999999999555e-01 7.576674999999999827e+00 1.341250000000000000e+02 1.752204999999999927e+03
1.350000000000000089e-01 8.204230000000000134e-01 7.514714999999999812e+00 1.340964999999999918e+02 1.752199999999999818e+03
1.360000000000000098e-01 8.204044999999999810e-01 7.441774999999999807e+00 1.340399999999999920e+02 1.752190000000000055e+03
1.370000000000000107e-01 8.203810000000000269e-01 7.358465000000000700e+00 1.339585000000000150e+02 1.752170000000000073e+03
1.380000000000000115e-01 8.203525000000000400e-01 7.265919999999999490e+00 1.338555000000000064e+02 1.752154999999999973e+03
1.390000000000000124e-01 8.203209999999999669e-01 7.165644999999999598e+00 1.337359999999999900e+02 1.752130000000000109e+03
1.400000000000000133e-01 8.202875000000000583e-01 7.059445000000000192e+00 1.336049999999999898e+02 1.752099999999999909e+03
1.410000000000000142e-01 8.202534999999999688e-01 6.949275000000000091e+00 1.334669999999999845e+02 1.752069999999999936e+03
1.420000000000000151e-01 8.202190000000000314e-01 6.837114999999998943e+00 1.333269999999999982e+02 1.752045000000000073e+03
1.430000000000000160e-01 8.201849999999999419e-01 6.724880000000000635e+00 1.331875000000000000e+02 1.752009999999999991e+03
1.440000000000000169e-01 8.201534999999999798e-01 6.614295000000000258e+00 1.330534999999999854e+02 1.751985000000000127e+03
1.450000000000000178e-01 8.201235000000000053e-01 6.506819999999999382e+00 1.329265000000000043e+02 1.751950000000000045e+03
1.459999999999999909e-01 8.200959999999999361e-01 6.403575000000000017e+00 1.328075000000000045e+02 1.751925000000000182e+03
1.469999999999999918e-01 8.200709999999999944e-01 6.305329999999999657e+00 1.326974999999999909e+02 1.751900000000000091e+03
1.479999999999999927e-01 8.200479999999999992e-01 6.212439999999999962e+00 1.325964999999999918e+02 1.751880000000000109e+03
1.489999999999999936e-01 8.200274999999999093e-01 6.124909999999999854e+00 1.325035000000000025e+02 1.751855000000000018e+03
1.499999999999999944e-01 8.200075000000000003e-01 6.042405000000000470e+00 1.324155000000000086e+02 1.751835000000000036e+03
1.509999999999999953e-01 8.199879999999999391e-01 5.964349999999999596e+00 1.323319999999999936e+02 1.751809999999999945e+03
1.519999999999999962e-01 8.199689999999999479e-01 5.889974999999999739e+00 1.322489999999999952e+02 1.751795000000000073e+03
1.529999999999999971e-01 8.199490000000000389e-01 5.818439999999999834e+00 1.321649999999999920e+02 1.751769999999999982e+03
1.539999999999999980e-01 8.199270000000000724e-01 5.748950000000000671e+00 1.320759999999999934e+02 1.751755000000000109e+03
1.549999999999999989e-01 8.199039999999999662e-01 5.680839999999999890e+00 1.319805000000000064e+02 1.751730000000000018e+03
1.559999999999999998e-01 8.198784999999999545e-01 5.613640000000000185e+00 1.318770000000000095e+02 1.751710000000000036e+03
1.570000000000000007e-01 8.198499999999999677e-01 5.547169999999999490e+00 1.317649999999999864e+02 1.751679999999999836e+03
1.580000000000000016e-01 8.198199999999999932e-01 5.481564999999999799e+00 1.316440000000000055e+02 1.751654999999999973e+03
1.590000000000000024e-01 8.197885000000000311e-01 5.417245000000000310e+00 1.315155000000000030e+02 1.751625000000000000e+03
