# t [s], A [cm^2], U [cm/s], P [cPa], c [cm/s]
1.000000000000000021e-03 7.788319999999999688e-01 5.256000000000003725e-03 9.638949999999999818e+01 1.818525000000000091e+03
2.000000000000000042e-03 7.788285000000000347e-01 1.387764999999999832e-02 9.636544999999999561e+01 1.818519999999999982e+03
3.000000000000000062e-03 7.789190000000000280e-01 1.731323499999999904e-01 9.656020000000000891e+01 1.818555000000000064e+03
4.000000000000000083e-03 7.789369999999999905e-01 2.326584999999999903e-01 9.662264999999999304e+01 1.818575000000000045e+03
5.000000000000000104e-03 7.788444999999999396e-01 1.141615000000000268e-01 9.635070000000000334e+01 1.818519999999999982e+03
6.000000000000000125e-03 7.787534999999999874e-01 -1.701000000000002510e-02 9.594245000000000800e+01 1.818430000000000064e+03
7.000000000000000146e-03 7.786230000000000651e-01 -2.313100000000000156e-01 9.534149999999999636e+01 1.818305000000000064e+03
8.000000000000000167e-03 7.783904999999999852e-01 -6.377849999999999353e-01 9.436480000000000246e+01 1.818095000000000027e+03
9.000000000000001055e-03 7.780545000000000933e-01 -1.236519999999999619e+00 9.294495000000000573e+01 1.817789999999999964e+03
1.000000000000000194e-02 7.775805000000000078e-01 -2.065564999999999873e+00 9.096540000000000248e+01 1.817360000000000127e+03
1.099999999999999936e-02 7.769639999999999880e-01 -3.106780000000000097e+00 8.837489999999999668e+01 1.816789999999999964e+03
1.200000000000000025e-02 7.763005000000000599e-01 -4.165189999999999948e+00 8.540229999999999677e+01 1.816115000000000009e+03
1.300000000000000114e-02 7.757279999999999731e-01 -4.958338499999999982e+00 8.249174999999999613e+01 1.815424999999999955e+03
1.400000000000000203e-02 7.753295000000000048e-01 -5.294904999999999973e+00 8.003829999999999245e+01 1.814804999999999836e+03
1.499999999999999944e-02 7.750939999999999497e-01 -5.160444999999999283e+00 7.819370000000000687e+01 1.814295000000000073e+03
1.600000000000000033e-02 7.749420000000000197e-01 -4.687355000000000160e+00 7.684375000000000000e+01 1.813880000000000109e+03
1.700000000000000122e-02 7.747759999999999092e-01 -4.066964999999999719e+00 7.570935000000000059e+01 1.813514999999999873e+03
1.800000000000000211e-02 7.745235000000000314e-01 -3.457745000000000068e+00 7.449664999999998827e+01 1.813144999999999982e+03
1.900000000000000300e-02 7.741685000000000372e-01 -2.925678500000000071e+00 7.302594999999999459e+01 1.812734999999999900e+03
2.000000000000000042e-02 7.737439999999999873e-01 -2.439458500000000196e+00 7.128579999999999472e+01 1.812269999999999982e+03
2.100000000000000130e-02 7.733030000000000737e-01 -1.917259999999999964e+00 6.939305000000000234e+01 1.811769999999999982e+03
2.200000000000000219e-02 7.728885000000000893e-01 -1.292850000000000055e+00 6.749535000000000196e+01 1.811259999999999991e+03
2.299999999999999961e-02 7.725090000000000012e-01 -5.643000000000000238e-01 6.567494999999999550e+01 1.810759999999999991e+03
2.400000000000000050e-02 7.721344999999999459e-01 1.923449999999999882e-01 6.389570000000000505e+01 1.810269999999999982e+03
2.500000000000000139e-02 7.717060000000000031e-01 8.422450000000001324e-01 6.200489999999999213e+01 1.809750000000000000e+03
2.600000000000000228e-02 7.711620000000000141e-01 1.231914999999999871e+00 5.978105000000000047e+01 1.809170000000000073e+03
2.700000000000000316e-02 7.704535000000000133e-01 1.236985000000000223e+00 5.700919999999999987e+01 1.808480000000000018e+03
2.800000000000000058e-02 7.695674999999999599e-01 8.024199999999996891e-01 5.356065000000000254e+01 1.807644999999999982e+03
2.900000000000000147e-02 7.685314999999999230e-01 -3.882000000000029871e-02 4.944720000000000226e+01 1.806664999999999964e+03
3.000000000000000236e-02 7.674075000000000202e-01 -1.175580000000000069e+00 4.483109999999999928e+01 1.805565000000000055e+03
3.099999999999999978e-02 7.662759999999999572e-01 -2.450619999999999798e+00 3.998955000000000126e+01 1.804400000000000091e+03
3.200000000000000067e-02 7.652170000000000361e-01 -3.700010000000000243e+00 3.525204999999999700e+01 1.803244999999999891e+03
3.300000000000000155e-02 7.642945000000000988e-01 -4.785099999999999909e+00 3.093594999999999828e+01 1.802159999999999854e+03
3.400000000000000244e-02 7.635514999999999386e-01 -5.609960000000000058e+00 2.729749999999999943e+01 1.801204999999999927e+03
3.500000000000000333e-02 7.630084999999999784e-01 -6.124504499999999574e+00 2.450529999999999831e+01 1.800434999999999945e+03
3.600000000000000422e-02 7.626669999999999838e-01 -6.316359999999999530e+00 2.263725000000000165e+01 1.799875000000000000e+03
3.700000000000000511e-02 7.625170000000000003e-01 -6.197330000000000005e+00 2.169474999999999909e+01 1.799530000000000200e+03
3.799999999999999906e-02 7.625414999999999832e-01 -5.788940000000000197e+00 2.162734999999999985e+01 1.799400000000000091e+03
3.899999999999999994e-02 7.627254999999999452e-01 -5.111684999999999590e+00 2.235875000000000057e+01 1.799470000000000027e+03
4.000000000000000083e-02 7.630535000000000512e-01 -4.180479499999999682e+00 2.380684999999999718e+01 1.799724999999999909e+03
4.100000000000000172e-02 7.635140000000000260e-01 -3.006454999999999878e+00 2.589304999999999879e+01 1.800150000000000091e+03
4.200000000000000261e-02 7.640934999999999810e-01 -1.602735000000000021e+00 2.854200000000000159e+01 1.800719999999999800e+03
4.300000000000000350e-02 7.647760000000000113e-01 8.990000000000275548e-03 3.167555000000000121e+01 1.801420000000000073e+03
4.400000000000000439e-02 7.655419999999999447e-01 1.794255000000000155e+00 3.520550000000000068e+01 1.802230000000000018e+03
4.499999999999999833e-02 7.663664999999999505e-01 3.705304999999999627e+00 3.903034999999999854e+01 1.803125000000000000e+03
4.599999999999999922e-02 7.672219999999999596e-01 5.684309999999999974e+00 4.303614999999999924e+01 1.804079999999999927e+03
4.700000000000000011e-02 7.680814999999999726e-01 7.669159000000000503e+00 4.710354999999999848e+01 1.805065000000000055e+03
4.800000000000000100e-02 7.689194999999999780e-01 9.600035000000000096e+00 5.111695000000000277e+01 1.806059999999999945e+03
4.900000000000000189e-02 7.697145000000000792e-01 1.142558999999999969e+01 5.497480000000000189e+01 1.807025000000000091e+03
5.000000000000000278e-02 7.704539999999999722e-01 1.310688500000000012e+01 5.859839999999999804e+01 1.807954999999999927e+03
5.100000000000000366e-02 7.711295000000000233e-01 1.461966499999999947e+01 6.193744999999999834e+01 1.808829999999999927e+03
5.200000000000000455e-02 7.717420000000000391e-01 1.595420000000000016e+01 6.497169999999999845e+01 1.809634999999999991e+03
5.300000000000000544e-02 7.722960000000000935e-01 1.711345000000000027e+01 6.770929999999999893e+01 1.810375000000000000e+03
5.399999999999999939e-02 7.728005000000000013e-01 1.811060000000000159e+01 7.018215000000000714e+01 1.811055000000000064e+03
5.500000000000000028e-02 7.732684999999999143e-01 1.896624999999999872e+01 7.244014999999998849e+01 1.811684999999999945e+03
5.600000000000000117e-02 7.737129999999999841e-01 1.970570000000000022e+01 7.454484999999999673e+01 1.812269999999999982e+03
5.700000000000000205e-02 7.741495000000000459e-01 2.035650000000000048e+01 7.656274999999999409e+01 1.812829999999999927e+03
5.800000000000000294e-02 7.745900000000000007e-01 2.094644999999999868e+01 7.855979999999999563e+01 1.813380000000000109e+03
5.900000000000000383e-02 7.750459999999999017e-01 2.150130000000000052e+01 8.059544999999999959e+01 1.813930000000000064e+03
6.000000000000000472e-02 7.755270000000000774e-01 2.204279999999999973e+01 8.271809999999999263e+01 1.814500000000000000e+03
6.099999999999999867e-02 7.760385000000000755e-01 2.258709999999999951e+01 8.496089999999999520e+01 1.815089999999999918e+03
6.199999999999999956e-02 7.765805000000000069e-01 2.314325000000000188e+01 8.733885000000000787e+01 1.815710000000000036e+03
6.300000000000000044e-02 7.771514999999999951e-01 2.371249999999999858e+01 8.984745000000000914e+01 1.816360000000000127e+03
6.400000000000000133e-02 7.777430000000000732e-01 2.428880000000000194e+01 9.246334999999999127e+01 1.817034999999999854e+03
6.500000000000000222e-02 7.783455000000000235e-01 2.485934999999999917e+01 9.514635000000001241e+01 1.817730000000000018e+03
6.600000000000000311e-02 7.789464999999999861e-01 2.540650000000000119e+01 9.784335000000000093e+01 1.818425000000000182e+03
6.700000000000000400e-02 7.795319999999998917e-01 2.590950000000000131e+01 1.004938999999999965e+02 1.819125000000000000e+03
6.800000000000000488e-02 7.800880000000000036e-01 2.634684999999999988e+01 1.030341999999999985e+02 1.819789999999999964e+03
6.900000000000000577e-02 7.806024999999999769e-01 2.669785000000000252e+01 1.054029999999999916e+02 1.820424999999999955e+03
7.000000000000000666e-02 7.810639999999999805e-01 2.694469999999999743e+01 1.075449999999999875e+02 1.821005000000000109e+03
7.100000000000000755e-02 7.814645000000000064e-01 2.707350000000000279e+01 1.094180000000000064e+02 1.821519999999999982e+03
7.200000000000000844e-02 7.817985000000000628e-01 2.707499999999999929e+01 1.109890000000000043e+02 1.821974999999999909e+03
7.300000000000000933e-02 7.820639999999999814e-01 2.694539999999999935e+01 1.122419999999999902e+02 1.822340000000000146e+03
7.399999999999999634e-02 7.822599999999999554e-01 2.668634999999999735e+01 1.131730000000000018e+02 1.822634999999999991e+03
7.499999999999999722e-02 7.823915000000000175e-01 2.630464999999999876e+01 1.137944999999999993e+02 1.822849999999999909e+03
7.599999999999999811e-02 7.824640000000000484e-01 2.581174999999999997e+01 1.141280000000000001e+02 1.822990000000000009e+03
7.699999999999999900e-02 7.824839999999999574e-01 2.522339999999999804e+01 1.142085000000000008e+02 1.823055000000000064e+03
7.799999999999999989e-02 7.824625000000000608e-01 2.455839999999999890e+01 1.140759999999999934e+02 1.823074999999999818e+03
7.900000000000000078e-02 7.824090000000000211e-01 2.383789999999999765e+01 1.137794999999999987e+02 1.823039999999999964e+03
8.000000000000000167e-02 7.823335000000000150e-01 2.308389999999999986e+01 1.133665000000000020e+02 1.822965000000000146e+03
8.100000000000000255e-02 7.822469999999999146e-01 2.231844999999999857e+01 1.128870000000000005e+02 1.822875000000000000e+03
8.200000000000000344e-02 7.821590000000000487e-01 2.156214999999999904e+01 1.123875000000000028e+02 1.822764999999999873e+03
8.300000000000000433e-02 7.820770000000000222e-01 2.083334999999999937e+01 1.119095000000000084e+02 1.822660000000000082e+03
8.400000000000000522e-02 7.820080000000000364e-01 2.014685000000000059e+01 1.114860000000000042e+02 1.822555000000000064e+03
8.500000000000000611e-02 7.819564999999999433e-01 1.951360000000000028e+01 1.111424999999999983e+02 1.822470000000000027e+03
8.600000000000000699e-02 7.819245000000000223e-01 1.893994999999999962e+01 1.108934999999999889e+02 1.822404999999999973e+03
8.700000000000000788e-02 7.819119999999999404e-01 1.842780000000000129e+01 1.107435000000000116e+02 1.822355000000000018e+03
8.800000000000000877e-02 7.819180000000000019e-01 1.797449999999999903e+01 1.106889999999999930e+02 1.822324999999999818e+03
8.899999999999999578e-02 7.819384999999999808e-01 1.757339999999999947e+01 1.107145000000000010e+02 1.822320000000000164e+03
8.999999999999999667e-02 7.819679999999999964e-01 1.721454999999999913e+01 1.108000000000000114e+02 1.822329999999999927e+03
9.099999999999999756e-02 7.820009999999999462e-01 1.688550000000000040e+01 1.109189999999999969e+02 1.822345000000000027e+03
9.199999999999999845e-02 7.820305000000000728e-01 1.657179999999999964e+01 1.110399999999999920e+02 1.822365000000000009e+03
9.299999999999999933e-02 7.820499999999999119e-01 1.625864999999999938e+01 1.111315000000000026e+02 1.822385000000000218e+03
9.400000000000000022e-02 7.820519999999999694e-01 1.593135000000000012e+01 1.111615000000000038e+02 1.822389999999999873e+03
9.500000000000000111e-02 7.820325000000000193e-01 1.557635000000000147e+01 1.111030000000000086e+02 1.822375000000000000e+03
9.600000000000000200e-02 7.819860000000000699e-01 1.518249999999999922e+01 1.109314999999999998e+02 1.822340000000000146e+03
9.700000000000000289e-02 7.819095000000000351e-01 1.474129999999999896e+01 1.106295000000000073e+02 1.822269999999999982e+03
9.800000000000000377e-02 7.818019999999999969e-01 1.424804999999999922e+01 1.101864999999999952e+02 1.822170000000000073e+03
9.900000000000000466e-02 7.816635000000000666e-01 1.370170000000000066e+01 1.096029999999999944e+02 1.822034999999999854e+03
1.000000000000000056e-01 7.814974999999999561e-01 1.310531999999999897e+01 1.088849999999999909e+02 1.821869999999999891e+03
1.010000000000000064e-01 7.813075000000000436e-01 1.246587500000000048e+01 1.080480000000000018e+02 1.821670000000000073e+03
1.020000000000000073e-01 7.810984999999999179e-01 1.179372000000000043e+01 1.071165000000000020e+02 1.821444999999999936e+03
1.030000000000000082e-01 7.808789999999999898e-01 1.110200500000000012e+01 1.061200000000000045e+02 1.821210000000000036e+03
1.040000000000000091e-01 7.806554999999999467e-01 1.040612000000000137e+01 1.050913500000000056e+02 1.820950000000000045e+03
1.050000000000000100e-01 7.804364999999999775e-01 9.722319999999999851e+00 1.040677000000000021e+02 1.820700000000000045e+03
1.059999999999999970e-01 7.802299999999999791e-01 9.067209999999999326e+00 1.030855500000000120e+02 1.820450000000000045e+03
1.069999999999999979e-01 7.800419999999999021e-01 8.456374999999999531e+00 1.021796500000000094e+02 1.820210000000000036e+03
1.079999999999999988e-01 7.798795000000000588e-01 7.903660000000000352e+00 1.013804999999999978e+02 1.820000000000000000e+03
1.089999999999999997e-01 7.797479999999999967e-01 7.420390000000000263e+00 1.007129500000000064e+02 1.819815000000000055e+03
1.100000000000000006e-01 7.796494999999999953e-01 7.014734999999999943e+00 1.001949999999999932e+02 1.819670000000000073e+03
1.110000000000000014e-01 7.795855000000000423e-01 6.691444999999999865e+00 9.983689999999999998e+01 1.819554999999999836e+03
1.120000000000000023e-01 7.795564999999999856e-01 6.451645000000000074e+00 9.964085000000000036e+01 1.819485000000000127e+03
1.130000000000000032e-01 7.795594999999999608e-01 6.293000000000000149e+00 9.960155000000000314e+01 1.819444999999999936e+03
1.140000000000000041e-01 7.795920000000000627e-01 6.210045000000000037e+00 9.970609999999999218e+01 1.819444999999999936e+03
1.150000000000000050e-01 7.796494999999999953e-01 6.194679999999999964e+00 9.993630000000000280e+01 1.819485000000000127e+03
1.160000000000000059e-01 7.797270000000000589e-01 6.236755000000000493e+00 1.002700000000000102e+02 1.819539999999999964e+03
1.170000000000000068e-01 7.798184999999999700e-01 6.324709999999999610e+00 1.006814999999999998e+02 1.819630000000000109e+03
1.180000000000000077e-01 7.799190000000000289e-01 6.446295000000000108e+00 1.011447500000000019e+02 1.819724999999999909e+03
1.190000000000000085e-01 7.800225000000000630e-01 6.589129999999999932e+00 1.016338999999999970e+02 1.819840000000000146e+03
1.200000000000000094e-01 7.801244999999999985e-01 6.741329999999999600e+00 1.021235000000000070e+02 1.819954999999999927e+03
1.209999999999999964e-01 7.802200000000000246e-01 6.891954999999999387e+00 1.025935000000000059e+02 1.820065000000000055e+03
1.219999999999999973e-01 7.803059999999999441e-01 7.031425000000000480e+00 1.030240000000000009e+02 1.820174999999999955e+03
1.229999999999999982e-01 7.803805000000000325e-01 7.151804999999999524e+00 1.034020000000000010e+02 1.820264999999999873e+03
1.239999999999999991e-01 7.804400000000000226e-01 7.246995000000000076e+00 1.037169999999999987e+02 1.820355000000000018e+03
1.250000000000000000e-01 7.804849999999999843e-01 7.312834999999999752e+00 1.039635000000000105e+02 1.820420000000000073e+03
1.260000000000000009e-01 7.805159999999999876e-01 7.347110000000000696e+00 1.041405000000000030e+02 1.820469999999999800e+03
1.270000000000000018e-01 7.805330000000000323e-01 7.349489999999999412e+00 1.042504999999999882e+02 1.820509999999999991e+03
1.280000000000000027e-01 7.805379999999999541e-01 7.321369999999999933e+00 1.042990000000000066e+02 1.820529999999999973e+03
1.290000000000000036e-01 7.805324999999999624e-01 7.265670000000000073e+00 1.042944999999999993e+02 1.820539999999999964e+03
1.300000000000000044e-01 7.805189999999999628e-01 7.186550000000000438e+00 1.042485000000000070e+02 1.820534999999999854e+03
1.310000000000000053e-01 7.805010000000000003e-01 7.089114999999999611e+00 1.041719999999999970e+02 1.820529999999999973e+03
1.320000000000000062e-01 7.804804999999999104e-01 6.979034999999999656e+00 1.040784999999999911e+02 1.820509999999999991e+03
1.330000000000000071e-01 7.804605000000000015e-01 6.862200000000000522e+00 1.039799999999999898e+02 1.820490000000000009e+03
1.340000000000000080e-01 7.804424999999999280e-01 6.744339999999999336e+00 1.038889999999999958e+02 1.820470000000000027e+03
1.350000000000000089e-01 7.804299999999999571e-01 6.630684999999999718e+00 1.038149999999999977e+02 1.820454999999999927e+03
1.360000000000000098e-01 7.804240000000000066e-01 6.525685000000000180e+00 1.037665000000000077e+02 1.820445000000000164e+03
1.370000000000000107e-01 7.804249999999999243e-01 6.432760000000000034e+00 1.037485000000000070e+02 1.820445000000000164e+03
1.380000000000000115e-01 7.804329999999999323e-01 6.354190000000000005e+00 1.037650000000000006e+02 1.820440000000000055e+03
1.390000000000000124e-01 7.804489999999999483e-01 6.291045000000000442e+00 1.038149999999999977e+02 1.820454999999999927e+03
1.400000000000000133e-01 7.804714999999999847e-01 6.243230000000000501e+00 1.038965000000000032e+02 1.820474999999999909e+03
1.410000000000000142e-01 7.804990000000000538e-01 6.209609999999999630e+00 1.040049999999999955e+02 1.820500000000000000e+03
1.420000000000000151e-01 7.805305000000000160e-01 6.188174999999999315e+00 1.041340000000000003e+02 1.820525000000000091e+03
1.430000000000000160e-01 7.805634999999999657e-01 6.176330000000000098e+00 1.042760000000000105e+02 1.820565000000000055e+03
1.440000000000000169e-01 7.805975000000000552e-01 6.171070000000000277e+00 1.044234999999999900e+02 1.820594999999999800e+03
1.450000000000000178e-01 7.806290000000000173e-01 6.169310000000000294e+00 1.045670000000000073e+02 1.820630000000000109e+03
1.459999999999999909e-01 7.806584999999999219e-01 6.168065000000000353e+00 1.046995000000000005e+02 1.820664999999999964e+03
1.469999999999999918e-01 7.806830000000000158e-01 6.164680000000000604e+00 1.048155000000000001e+02 1.820695000000000164e+03
1.479999999999999927e-01 7.807024999999999659e-01 6.156969999999999388e+00 1.049095000000000084e+02 1.820715000000000146e+03
1.489999999999999936e-01 7.807165000000000354e-01 6.143335000000000434e+00 1.049789999999999992e+02 1.820740000000000009e+03
1.499999999999999944e-01 7.807245000000000434e-01 6.122830000000000439e+00 1.050215000000000032e+02 1.820750000000000000e+03
1.509999999999999953e-01 7.807265000000001010e-01 6.095169999999999533e+00 1.050379999999999967e+02 1.820759999999999991e+03
1.519999999999999962e-01 7.807239999999999736e-01 6.060769999999999769e+00 1.050310000000000059e+02 1.820759999999999991e+03
1.529999999999999971e-01 7.807174999999999532e-01 6.020630000000000592e+00 1.050040000000000049e+02 1.820755000000000109e+03
1.539999999999999980e-01 7.807079999999999576e-01 5.976359999999999673e+00 1.049625000000000057e+02 1.820744999999999891e+03
1.549999999999999989e-01 7.806964999999999044e-01 5.930039999999999978e+00 1.049115000000000038e+02 1.820735000000000127e+03
1.559999999999999998e-01 7.806855000000000322e-01 5.884130000000000749e+00 1.048584999999999923e+02 1.820724999999999909e+03
1.570000000000000007e-01 7.806759999999999255e-01 5.841380000000000017e+00 1.048114999999999952e+02 1.820710000000000036e+03
1.580000000000000016e-01 7.806694999999999052e-01 5.804655000000000342e+00 1.047770000000000010e+02 1.820704999999999927e+03
1.590000000000000024e-01 7.806680000000000286e-01 5.776810000000000223e+00 1.047624999999999886e+02 1.820699999999999818e+03
