# t [s], A [cm^2], U [cm/s], P [cPa], c [cm/s]
1.000000000000000021e-03 6.003884999999999916e-01 5.119950000000005053e-03 1.079014999999999986e+02 1.569329999999999927e+03
2.000000000000000042e-03 6.003789999999999960e-01 4.849350000000001402e-04 1.078755000000000024e+02 1.569319999999999936e+03
3.000000000000000062e-03 6.004389999999999450e-01 1.078208499999999959e-01 1.079869999999999948e+02 1.569349999999999909e+03
4.000000000000000083e-03 6.004840000000000177e-01 2.008091499999999918e-01 1.080995000000000061e+02 1.569380000000000109e+03
5.000000000000000104e-03 6.004504999999999981e-01 1.601833000000000007e-01 1.080174999999999983e+02 1.569364999999999782e+03
6.000000000000000125e-03 6.003794999999999549e-01 4.776799999999997715e-02 1.077674999999999983e+02 1.569309999999999945e+03
7.000000000000000146e-03 6.003129999999999855e-01 -6.624350000000006622e-02 1.074420000000000073e+02 1.569235000000000127e+03
8.000000000000000167e-03 6.002039999999999598e-01 -2.698850000000000415e-01 1.069509999999999934e+02 1.569125000000000000e+03
9.000000000000001055e-03 6.000274999999999359e-01 -6.121550000000000047e-01 1.062030000000000030e+02 1.568949999999999818e+03
1.000000000000000194e-02 5.997840000000000948e-01 -1.084319999999999951e+00 1.051634999999999991e+02 1.568710000000000036e+03
1.099999999999999936e-02 5.994550000000000711e-01 -1.702774999999999928e+00 1.037708999999999975e+02 1.568380000000000109e+03
1.200000000000000025e-02 5.990265000000000173e-01 -2.470674999999999955e+00 1.019719499999999925e+02 1.567944999999999936e+03
1.300000000000000114e-02 5.985305000000000764e-01 -3.303255000000000496e+00 9.982659999999999911e+01 1.567409999999999854e+03
1.400000000000000203e-02 5.980360000000000120e-01 -4.034019999999999939e+00 9.752965000000000373e+01 1.566820000000000164e+03
1.499999999999999944e-02 5.976135000000000197e-01 -4.495234500000000466e+00 9.532970000000000255e+01 1.566235000000000127e+03
1.600000000000000033e-02 5.972969999999999668e-01 -4.593361999999999945e+00 9.341634999999999422e+01 1.565690000000000055e+03
1.700000000000000122e-02 5.970735000000000348e-01 -4.333894500000000427e+00 9.185575000000000045e+01 1.565215000000000146e+03
1.800000000000000211e-02 5.968999999999999861e-01 -3.801503999999999550e+00 9.058899999999999864e+01 1.564795000000000073e+03
1.900000000000000300e-02 5.967219999999999747e-01 -3.118107000000000184e+00 8.947259999999999991e+01 1.564410000000000082e+03
2.000000000000000042e-02 5.964955000000000673e-01 -2.397274499999999975e+00 8.834035000000000082e+01 1.564025000000000091e+03
2.100000000000000130e-02 5.961980000000000057e-01 -1.708860000000000268e+00 8.706414999999999793e+01 1.563615000000000009e+03
2.200000000000000219e-02 5.958354999999999624e-01 -1.065260000000000096e+00 8.559264999999999191e+01 1.563159999999999854e+03
2.299999999999999961e-02 5.954340000000000188e-01 -4.333599999999999675e-01 8.395409999999999684e+01 1.562664999999999964e+03
2.400000000000000050e-02 5.950249999999999151e-01 2.356600000000002026e-01 8.222630000000000905e+01 1.562150000000000091e+03
2.500000000000000139e-02 5.946290000000000742e-01 9.742850000000000676e-01 8.049190000000000111e+01 1.561630000000000109e+03
2.600000000000000228e-02 5.942520000000000024e-01 1.777380000000000182e+00 7.879840000000000089e+01 1.561110000000000127e+03
2.700000000000000316e-02 5.938795000000000046e-01 2.596899999999999764e+00 7.713685000000000969e+01 1.560595000000000027e+03
2.800000000000000058e-02 5.934829999999999828e-01 3.350805000000000256e+00 7.544030000000000769e+01 1.560075000000000045e+03
2.900000000000000147e-02 5.930294999999999872e-01 3.941614999999999647e+00 7.360110000000000241e+01 1.559525000000000091e+03
3.000000000000000236e-02 5.924880000000000146e-01 4.279505000000000337e+00 7.149985000000000923e+01 1.558914999999999964e+03
3.099999999999999978e-02 5.918415000000000203e-01 4.303890000000000882e+00 6.904035000000000366e+01 1.558230000000000018e+03
3.200000000000000067e-02 5.910904999999999632e-01 3.999160000000000270e+00 6.617920000000000869e+01 1.557449999999999818e+03
3.300000000000000155e-02 5.902560000000000029e-01 3.398994999999999767e+00 6.294425000000000381e+01 1.556579999999999927e+03
3.400000000000000244e-02 5.893739999999999535e-01 2.578864999999999519e+00 5.943455000000000155e+01 1.555634999999999991e+03
3.500000000000000333e-02 5.884899999999999576e-01 1.639944999999999986e+00 5.580504999999999427e+01 1.554655000000000200e+03
3.600000000000000422e-02 5.876510000000000344e-01 6.902500000000006963e-01 5.224014999999999986e+01 1.553679999999999836e+03
3.700000000000000511e-02 5.868984999999999896e-01 -1.720750000000004221e-01 4.892640000000000100e+01 1.552755000000000109e+03
3.799999999999999906e-02 5.862629999999999786e-01 -8.695900000000000851e-01 4.602854999999999563e+01 1.551914999999999964e+03
3.899999999999999994e-02 5.857654999999999390e-01 -1.350149999999999739e+00 4.367349999999999710e+01 1.551204999999999927e+03
4.000000000000000083e-02 5.854145000000000598e-01 -1.586005000000000109e+00 4.194310000000000116e+01 1.550650000000000091e+03
4.100000000000000172e-02 5.852125000000000243e-01 -1.569080000000000030e+00 4.087515000000000498e+01 1.550255000000000109e+03
4.200000000000000261e-02 5.851524999999999643e-01 -1.304322500000000051e+00 4.046989999999999554e+01 1.550039999999999964e+03
4.300000000000000350e-02 5.852269999999999417e-01 -8.031383500000000009e-01 4.070045000000000357e+01 1.550000000000000000e+03
4.400000000000000439e-02 5.854254999999999320e-01 -7.831999999999994522e-02 4.152380000000000138e+01 1.550119999999999891e+03
4.499999999999999833e-02 5.857384999999999398e-01 8.585399999999998588e-01 4.288980000000000103e+01 1.550400000000000091e+03
4.599999999999999922e-02 5.861564999999999692e-01 1.996980000000000199e+00 4.474654999999999916e+01 1.550825000000000045e+03
4.700000000000000011e-02 5.866700000000000248e-01 3.325655000000000250e+00 4.704229999999999734e+01 1.551375000000000000e+03
4.800000000000000100e-02 5.872684999999999711e-01 4.829430000000000334e+00 4.972419999999999618e+01 1.552039999999999964e+03
4.900000000000000189e-02 5.879389999999999894e-01 6.486939999999999706e+00 5.273624999999999829e+01 1.552809999999999945e+03
5.000000000000000278e-02 5.886675000000000102e-01 8.269469000000000847e+00 5.601675000000000182e+01 1.553660000000000082e+03
5.100000000000000366e-02 5.894380000000000175e-01 1.014118000000000031e+01 5.949819999999999709e+01 1.554579999999999927e+03
5.200000000000000455e-02 5.902325000000000488e-01 1.206120000000000125e+01 6.310810000000000031e+01 1.555545000000000073e+03
5.300000000000000544e-02 5.910330000000000306e-01 1.398666499999999857e+01 6.677235000000000298e+01 1.556539999999999964e+03
5.399999999999999939e-02 5.918250000000000455e-01 1.587579500000000010e+01 7.041899999999999693e+01 1.557550000000000182e+03
5.500000000000000028e-02 5.925929999999999254e-01 1.769109999999999872e+01 7.398290000000000077e+01 1.558549999999999955e+03
5.600000000000000117e-02 5.933275000000000077e-01 1.940194999999999936e+01 7.740995000000000914e+01 1.559525000000000091e+03
5.700000000000000205e-02 5.940199999999999925e-01 2.098595000000000255e+01 8.065994999999999493e+01 1.560465000000000146e+03
5.800000000000000294e-02 5.946685000000000443e-01 2.242934999999999945e+01 8.370815000000000339e+01 1.561365000000000009e+03
5.900000000000000383e-02 5.952724999999999822e-01 2.372690000000000055e+01 8.654534999999999911e+01 1.562210000000000036e+03
6.000000000000000472e-02 5.958354999999999624e-01 2.488044999999999973e+01 8.917674999999999841e+01 1.563005000000000109e+03
6.099999999999999867e-02 5.963620000000000587e-01 2.589799999999999969e+01 9.161969999999999459e+01 1.563750000000000000e+03
6.199999999999999956e-02 5.968590000000000284e-01 2.679200000000000159e+01 9.390080000000000382e+01 1.564450000000000045e+03
6.300000000000000044e-02 5.973334999999999617e-01 2.757799999999999940e+01 9.605404999999998950e+01 1.565119999999999891e+03
6.400000000000000133e-02 5.977939999999999365e-01 2.827360000000000184e+01 9.811525000000000318e+01 1.565759999999999991e+03
6.500000000000000222e-02 5.982494999999999896e-01 2.889734999999999943e+01 1.001234000000000037e+02 1.566380000000000109e+03
6.600000000000000311e-02 5.987059999999999604e-01 2.946764999999999901e+01 1.021148499999999899e+02 1.566994999999999891e+03
6.700000000000000400e-02 5.991710000000000091e-01 3.000169999999999959e+01 1.041225000000000023e+02 1.567605000000000018e+03
6.800000000000000488e-02 5.996500000000000163e-01 3.051480000000000103e+01 1.061744999999999948e+02 1.568220000000000027e+03
6.900000000000000577e-02 6.001454999999999984e-01 3.101899999999999835e+01 1.082899999999999920e+02 1.568855000000000018e+03
7.000000000000000666e-02 6.006595000000000129e-01 3.152255000000000251e+01 1.104805000000000064e+02 1.569500000000000000e+03
7.100000000000000755e-02 6.011919999999999487e-01 3.202904999999999802e+01 1.127480000000000047e+02 1.570174999999999955e+03
7.200000000000000844e-02 6.017384999999999540e-01 3.253750000000000142e+01 1.150840000000000032e+02 1.570855000000000018e+03
7.300000000000000933e-02 6.022944999999999549e-01 3.304214999999999947e+01 1.174685000000000059e+02 1.571549999999999955e+03
7.399999999999999634e-02 6.028540000000000010e-01 3.353329999999999700e+01 1.198764999999999930e+02 1.572259999999999991e+03
7.499999999999999722e-02 6.034074999999999855e-01 3.399800000000000466e+01 1.222734999999999985e+02 1.572965000000000146e+03
7.599999999999999811e-02 6.039464999999999417e-01 3.442125000000000057e+01 1.246204999999999927e+02 1.573659999999999854e+03
7.699999999999999900e-02 6.044620000000000548e-01 3.478735000000000355e+01 1.268785000000000025e+02 1.574329999999999927e+03
7.799999999999999989e-02 6.049454999999999139e-01 3.508059999999999690e+01 1.290070000000000050e+02 1.574970000000000027e+03
7.900000000000000078e-02 6.053895000000000248e-01 3.528679999999999950e+01 1.309705000000000155e+02 1.575569999999999936e+03
8.000000000000000167e-02 6.057859999999999356e-01 3.539414999999999623e+01 1.327355000000000018e+02 1.576119999999999891e+03
8.100000000000000255e-02 6.061324999999999630e-01 3.539359999999999928e+01 1.342785000000000082e+02 1.576610000000000127e+03
8.200000000000000344e-02 6.064240000000000741e-01 3.527944999999999709e+01 1.355805000000000007e+02 1.577034999999999854e+03
8.300000000000000433e-02 6.066599999999999770e-01 3.504979999999999762e+01 1.366334999999999980e+02 1.577389999999999873e+03
8.400000000000000522e-02 6.068409999999999638e-01 3.470615000000000094e+01 1.374365000000000236e+02 1.577674999999999955e+03
8.500000000000000611e-02 6.069685000000000219e-01 3.425354999999999706e+01 1.379959999999999809e+02 1.577900000000000091e+03
8.600000000000000699e-02 6.070465000000000444e-01 3.370035000000000025e+01 1.383265000000000100e+02 1.578050000000000182e+03
8.700000000000000788e-02 6.070800000000000640e-01 3.305769999999999698e+01 1.384490000000000123e+02 1.578139999999999873e+03
8.800000000000000877e-02 6.070750000000000313e-01 3.233885000000000076e+01 1.383874999999999886e+02 1.578174999999999955e+03
8.899999999999999578e-02 6.070374999999998966e-01 3.155904999999999916e+01 1.381734999999999900e+02 1.578164999999999964e+03
8.999999999999999667e-02 6.069755000000000011e-01 3.073445000000000249e+01 1.378380000000000223e+02 1.578110000000000127e+03
9.099999999999999756e-02 6.068955000000000322e-01 2.988179999999999836e+01 1.374134999999999991e+02 1.578025000000000091e+03
9.199999999999999845e-02 6.068044999999999689e-01 2.901735000000000042e+01 1.369325000000000045e+02 1.577920000000000073e+03
9.299999999999999933e-02 6.067089999999999428e-01 2.815684999999999860e+01 1.364245000000000232e+02 1.577795000000000073e+03
9.400000000000000022e-02 6.066145000000000564e-01 2.731419999999999959e+01 1.359184999999999945e+02 1.577670000000000073e+03
9.500000000000000111e-02 6.065255000000000507e-01 2.650135000000000218e+01 1.354375000000000000e+02 1.577539999999999964e+03
9.600000000000000200e-02 6.064469999999999583e-01 2.572785000000000011e+01 1.349989999999999952e+02 1.577420000000000073e+03
9.700000000000000289e-02 6.063804999999999890e-01 2.500045000000000073e+01 1.346179999999999950e+02 1.577309999999999945e+03
9.800000000000000377e-02 6.063275000000000192e-01 2.432300000000000040e+01 1.343014999999999759e+02 1.577210000000000036e+03
9.900000000000000466e-02 6.062874999999999792e-01 2.369624999999999915e+01 1.340514999999999759e+02 1.577130000000000109e+03
1.000000000000000056e-01 6.062600000000000211e-01 2.311829999999999785e+01 1.338640000000000043e+02 1.577069999999999936e+03
1.010000000000000064e-01 6.062419999999999476e-01 2.258474999999999966e+01 1.337325000000000159e+02 1.577019999999999982e+03
1.020000000000000073e-01 6.062309999999999643e-01 2.208885000000000076e+01 1.336435000000000173e+02 1.576980000000000018e+03
1.030000000000000082e-01 6.062235000000000262e-01 2.162225000000000108e+01 1.335815000000000055e+02 1.576949999999999818e+03
1.040000000000000091e-01 6.062155000000000182e-01 2.117544999999999789e+01 1.335285000000000082e+02 1.576920000000000073e+03
1.050000000000000100e-01 6.062030000000000474e-01 2.073819999999999908e+01 1.334660000000000082e+02 1.576894999999999982e+03
1.059999999999999970e-01 6.061814999999999287e-01 2.030010000000000048e+01 1.333745000000000118e+02 1.576865000000000009e+03
1.069999999999999979e-01 6.061469999999999914e-01 1.985125000000000028e+01 1.332359999999999900e+02 1.576819999999999936e+03
1.079999999999999988e-01 6.060965000000000380e-01 1.938260000000000005e+01 1.330335000000000036e+02 1.576764999999999873e+03
1.089999999999999997e-01 6.060270000000000934e-01 1.888640000000000185e+01 1.327535000000000025e+02 1.576690000000000055e+03
1.100000000000000006e-01 6.059369999999999479e-01 1.835689999999999955e+01 1.323854999999999791e+02 1.576590000000000146e+03
1.110000000000000014e-01 6.058254999999999058e-01 1.779010000000000247e+01 1.319239999999999782e+02 1.576465000000000146e+03
1.120000000000000023e-01 6.056919999999998971e-01 1.718445000000000178e+01 1.313654999999999973e+02 1.576320000000000164e+03
1.130000000000000032e-01 6.055375000000000618e-01 1.654074999999999918e+01 1.307125000000000057e+02 1.576144999999999982e+03
1.140000000000000041e-01 6.053645000000000831e-01 1.586219999999999963e+01 1.299724999999999966e+02 1.575945000000000164e+03
1.150000000000000050e-01 6.051754999999999773e-01 1.515420000000000122e+01 1.291560000000000059e+02 1.575724999999999909e+03
1.160000000000000059e-01 6.049744999999999706e-01 1.442415499999999895e+01 1.282785000000000082e+02 1.575485000000000127e+03
1.170000000000000068e-01 6.047649999999999970e-01 1.368135000000000012e+01 1.273560000000000088e+02 1.575230000000000018e+03
1.180000000000000077e-01 6.045525000000000482e-01 1.293615499999999940e+01 1.264110000000000014e+02 1.574965000000000146e+03
1.190000000000000085e-01 6.043414999999999759e-01 1.219995499999999922e+01 1.254635000000000105e+02 1.574700000000000045e+03
1.200000000000000094e-01 6.041369999999999241e-01 1.148447999999999958e+01 1.245370000000000061e+02 1.574434999999999945e+03
1.209999999999999964e-01 6.039434999999999665e-01 1.080127500000000040e+01 1.236525000000000034e+02 1.574180000000000064e+03
1.219999999999999973e-01 6.037664999999999837e-01 1.016126000000000040e+01 1.228315000000000055e+02 1.573940000000000055e+03
1.229999999999999982e-01 6.036084999999999923e-01 9.574149999999999494e+00 1.220914999999999964e+02 1.573720000000000027e+03
1.239999999999999991e-01 6.034734999999999960e-01 9.048185000000000144e+00 1.214484999999999957e+02 1.573519999999999982e+03
1.250000000000000000e-01 6.033634999999999415e-01 8.589700000000000557e+00 1.209134999999999991e+02 1.573349999999999909e+03
1.260000000000000009e-01 6.032794999999999686e-01 8.202894999999999825e+00 1.204954999999999927e+02 1.573210000000000036e+03
1.270000000000000018e-01 6.032220000000000359e-01 7.889815000000000467e+00 1.201959999999999980e+02 1.573099999999999909e+03
1.280000000000000027e-01 6.031910000000000327e-01 7.650199999999999889e+00 1.200155000000000030e+02 1.573025000000000091e+03
1.290000000000000036e-01 6.031845000000000123e-01 7.481695000000000206e+00 1.199495000000000005e+02 1.572980000000000018e+03
1.300000000000000044e-01 6.031994999999999996e-01 7.379995000000000083e+00 1.199885000000000019e+02 1.572960000000000036e+03
1.310000000000000053e-01 6.032345000000000068e-01 7.339104999999999990e+00 1.201210000000000093e+02 1.572974999999999909e+03
1.320000000000000062e-01 6.032859999999999889e-01 7.351694999999999425e+00 1.203340000000000032e+02 1.573009999999999991e+03
1.330000000000000071e-01 6.033500000000000529e-01 7.409449999999999648e+00 1.206115000000000066e+02 1.573065000000000055e+03
1.340000000000000080e-01 6.034235000000000015e-01 7.503425000000000011e+00 1.209370000000000118e+02 1.573139999999999873e+03
1.350000000000000089e-01 6.035019999999999829e-01 7.624455000000000204e+00 1.212944999999999993e+02 1.573220000000000027e+03
1.360000000000000098e-01 6.035824999999999108e-01 7.763469999999999871e+00 1.216670000000000016e+02 1.573315000000000055e+03
1.370000000000000107e-01 6.036619999999999209e-01 7.911825000000000330e+00 1.220405000000000086e+02 1.573409999999999854e+03
1.380000000000000115e-01 6.037375000000000380e-01 8.061569999999999681e+00 1.224009999999999962e+02 1.573505000000000109e+03
1.390000000000000124e-01 6.038075000000000525e-01 8.205639999999998935e+00 1.227379999999999995e+02 1.573599999999999909e+03
1.400000000000000133e-01 6.038695000000000590e-01 8.338049999999999073e+00 1.230414999999999992e+02 1.573684999999999945e+03
1.410000000000000142e-01 6.039220000000000699e-01 8.453990000000001004e+00 1.233054999999999950e+02 1.573759999999999991e+03
1.420000000000000151e-01 6.039650000000000851e-01 8.549860000000000682e+00 1.235259999999999962e+02 1.573824999999999818e+03
1.430000000000000160e-01 6.039980000000000349e-01 8.623324999999999463e+00 1.237005000000000052e+02 1.573880000000000109e+03
1.440000000000000169e-01 6.040214999999999890e-01 8.673230000000000217e+00 1.238294999999999959e+02 1.573924999999999955e+03
1.450000000000000178e-01 6.040354999999999475e-01 8.699545000000000528e+00 1.239155000000000086e+02 1.573954999999999927e+03
1.459999999999999909e-01 6.040419999999999678e-01 8.703265000000000029e+00 1.239619999999999891e+02 1.573974999999999909e+03
1.469999999999999918e-01 6.040415000000000090e-01 8.686230000000000118e+00 1.239745000000000061e+02 1.573989999999999782e+03
1.479999999999999927e-01 6.040354999999999475e-01 8.651104999999999379e+00 1.239585000000000008e+02 1.573994999999999891e+03
1.489999999999999936e-01 6.040259999999999518e-01 8.601005000000000678e+00 1.239215000000000089e+02 1.573990000000000009e+03
1.499999999999999944e-01 6.040144999999998987e-01 8.539500000000000313e+00 1.238704999999999927e+02 1.573985000000000127e+03
1.509999999999999953e-01 6.040019999999999278e-01 8.470275000000000887e+00 1.238119999999999976e+02 1.573970000000000027e+03
1.519999999999999962e-01 6.039900000000000269e-01 8.397090000000000387e+00 1.237535000000000025e+02 1.573960000000000036e+03
1.529999999999999971e-01 6.039799999999999613e-01 8.323565000000000325e+00 1.237005000000000052e+02 1.573950000000000045e+03
1.539999999999999980e-01 6.039734999999999410e-01 8.252959999999999852e+00 1.236585000000000036e+02 1.573940000000000055e+03
1.549999999999999989e-01 6.039699999999998958e-01 8.188119999999999621e+00 1.236315000000000026e+02 1.573929999999999836e+03
1.559999999999999998e-01 6.039715000000001055e-01 8.131334999999999980e+00 1.236225000000000023e+02 1.573930000000000064e+03
1.570000000000000007e-01 6.039780000000000149e-01 8.084285000000001276e+00 1.236334999999999980e+02 1.573934999999999945e+03
1.580000000000000016e-01 6.039885000000000392e-01 8.048004999999999853e+00 1.236640000000000015e+02 1.573945000000000164e+03
1.590000000000000024e-01 6.040029999999999566e-01 8.022859999999999658e+00 1.237145000000000010e+02 1.573954999999999927e+03
