# t [s], A [cm^2], U [cm/s], P [cPa], c [cm/s]
1.000000000000000021e-03 6.503600000000000492e-01 8.168500000000002148e-03 1.031245000000000118e+02 1.807539999999999964e+03
2.000000000000000042e-03 6.503475000000000783e-01 -3.769160000000000132e-03 1.030840000000000032e+02 1.807529999999999973e+03
3.000000000000000062e-03 6.504075000000000273e-01 1.140829999999999900e-01 1.032274999999999920e+02 1.807559999999999945e+03
4.000000000000000083e-03 6.504480000000000262e-01 2.145645500000000205e-01 1.033555000000000064e+02 1.807585000000000036e+03
5.000000000000000104e-03 6.503944999999999865e-01 1.481850000000000112e-01 1.032009999999999934e+02 1.807559999999999945e+03
6.000000000000000125e-03 6.503214999999999968e-01 3.586450000000002136e-02 1.028834999999999980e+02 1.807494999999999891e+03
7.000000000000000146e-03 6.502590000000000314e-01 -6.917250000000002563e-02 1.025139999999999958e+02 1.807420000000000073e+03
8.000000000000000167e-03 6.501384999999999525e-01 -3.049950000000000161e-01 1.019159999999999968e+02 1.807299999999999955e+03
9.000000000000001055e-03 6.499530000000000030e-01 -6.925049999999999262e-01 1.010160999999999945e+02 1.807119999999999891e+03
1.000000000000000194e-02 6.496939999999999937e-01 -1.241664999999999797e+00 9.975190000000000623e+01 1.806869999999999891e+03
1.099999999999999936e-02 6.493309999999999915e-01 -1.992229999999999945e+00 9.801024999999999920e+01 1.806519999999999982e+03
1.200000000000000025e-02 6.488875000000000615e-01 -2.878719999999999946e+00 9.581475000000000364e+01 1.806069999999999936e+03
1.300000000000000114e-02 6.484464999999999257e-01 -3.698648999999999631e+00 9.342029999999999745e+01 1.805559999999999945e+03
1.400000000000000203e-02 6.480934999999999890e-01 -4.236949999999999328e+00 9.116904999999999859e+01 1.805059999999999945e+03
1.499999999999999944e-02 6.478569999999999052e-01 -4.389341500000000451e+00 8.928794999999999504e+01 1.804614999999999782e+03
1.600000000000000033e-02 6.477070000000000327e-01 -4.189829999999999721e+00 8.779955000000001064e+01 1.804224999999999909e+03
1.700000000000000122e-02 6.475770000000000692e-01 -3.762890000000000068e+00 8.655490000000000350e+01 1.803889999999999873e+03
1.800000000000000211e-02 6.474064999999999959e-01 -3.250624999999999876e+00 8.533275000000000432e+01 1.803559999999999945e+03
1.900000000000000300e-02 6.471605000000000274e-01 -2.750774999999999970e+00 8.394729999999999848e+01 1.803195000000000164e+03
2.000000000000000042e-02 6.468420000000000281e-01 -2.285930000000000017e+00 8.232195000000000107e+01 1.802789999999999964e+03
2.100000000000000130e-02 6.464845000000000175e-01 -1.811719999999999997e+00 8.050419999999999732e+01 1.802349999999999909e+03
2.200000000000000219e-02 6.461299999999999821e-01 -1.255975000000000064e+00 7.862154999999999916e+01 1.801884999999999991e+03
2.299999999999999961e-02 6.458079999999999377e-01 -5.667949999999999378e-01 7.680654999999998722e+01 1.801430000000000064e+03
2.400000000000000050e-02 6.455239999999999867e-01 2.534499999999999531e-01 7.512874999999999659e+01 1.801000000000000000e+03
2.500000000000000139e-02 6.452554999999999819e-01 1.138839999999999852e+00 7.355949999999999989e+01 1.800585000000000036e+03
2.600000000000000228e-02 6.449614999999999654e-01 1.974005000000000010e+00 7.197469999999999857e+01 1.800174999999999955e+03
2.700000000000000316e-02 6.445950000000000291e-01 2.624385000000000190e+00 7.019069999999999254e+01 1.799735000000000127e+03
2.800000000000000058e-02 6.441189999999999971e-01 2.974050000000000082e+00 6.802259999999999707e+01 1.799220000000000027e+03
2.900000000000000147e-02 6.435195000000000221e-01 2.960224999999999884e+00 6.534735000000000582e+01 1.798615000000000009e+03
3.000000000000000236e-02 6.428125000000000089e-01 2.592544999999999433e+00 6.215080000000000382e+01 1.797904999999999973e+03
3.099999999999999978e-02 6.420394999999999852e-01 1.948414999999999786e+00 5.854005000000000081e+01 1.797105000000000018e+03
3.200000000000000067e-02 6.412560000000000482e-01 1.147960000000000313e+00 5.471750000000000114e+01 1.796255000000000109e+03
3.300000000000000155e-02 6.405170000000000030e-01 3.205000000000000071e-01 5.093094999999999573e+01 1.795400000000000091e+03
3.400000000000000244e-02 6.398665000000000047e-01 -4.234899999999992559e-01 4.742154999999999632e+01 1.794589999999999918e+03
3.500000000000000333e-02 6.393314999999999415e-01 -1.008014999999999439e+00 4.438474999999999682e+01 1.793864999999999782e+03
3.600000000000000422e-02 6.389240000000000475e-01 -1.394375000000000142e+00 4.194979999999999620e+01 1.793259999999999991e+03
3.700000000000000511e-02 6.386434999999999196e-01 -1.574515000000000109e+00 4.017825000000000557e+01 1.792795000000000073e+03
3.799999999999999906e-02 6.384805000000000064e-01 -1.559169999999999945e+00 3.907554999999999978e+01 1.792469999999999800e+03
3.899999999999999994e-02 6.384250000000000203e-01 -1.364932500000000104e+00 3.861104999999999876e+01 1.792295000000000073e+03
4.000000000000000083e-02 6.384684999999999944e-01 -1.003636999999999890e+00 3.873949999999999960e+01 1.792259999999999991e+03
4.100000000000000172e-02 6.386054999999999371e-01 -4.767400000000000526e-01 3.941844999999999999e+01 1.792355000000000018e+03
4.200000000000000261e-02 6.388355000000000006e-01 2.242199999999998639e-01 4.061674999999999613e+01 1.792565000000000055e+03
4.300000000000000350e-02 6.391579999999998929e-01 1.112249999999999739e+00 4.231425000000000125e+01 1.792900000000000091e+03
4.400000000000000439e-02 6.395720000000000294e-01 2.197095000000000020e+00 4.449360000000000070e+01 1.793349999999999909e+03
4.499999999999999833e-02 6.400740000000000318e-01 3.478170000000000428e+00 4.713030000000000541e+01 1.793904999999999973e+03
4.599999999999999922e-02 6.406530000000000280e-01 4.940385000000000026e+00 5.018420000000000414e+01 1.794559999999999945e+03
4.700000000000000011e-02 6.412955000000000183e-01 6.553849999999999731e+00 5.359515000000000384e+01 1.795305000000000064e+03
4.800000000000000100e-02 6.419825000000000115e-01 8.276553499999998564e+00 5.728430000000000177e+01 1.796115000000000009e+03
4.900000000000000189e-02 6.426950000000000163e-01 1.005975499999999911e+01 6.115984999999999872e+01 1.796985000000000127e+03
5.000000000000000278e-02 6.434139999999999304e-01 1.185352000000000139e+01 6.512534999999999741e+01 1.797880000000000109e+03
5.100000000000000366e-02 6.441235000000000710e-01 1.361243499999999962e+01 6.908939999999999770e+01 1.798799999999999955e+03
5.200000000000000455e-02 6.448104999999999531e-01 1.529934000000000083e+01 7.297339999999999804e+01 1.799704999999999927e+03
5.300000000000000544e-02 6.454659999999999842e-01 1.688735000000000142e+01 7.671760000000000446e+01 1.800590000000000146e+03
5.399999999999999939e-02 6.460879999999999956e-01 1.836035000000000039e+01 8.028370000000001028e+01 1.801440000000000055e+03
5.500000000000000028e-02 6.466749999999999998e-01 1.971164999999999878e+01 8.365430000000000632e+01 1.802260000000000218e+03
5.600000000000000117e-02 6.472299999999999720e-01 2.094219999999999970e+01 8.683070000000000732e+01 1.803034999999999854e+03
5.700000000000000205e-02 6.477580000000000560e-01 2.205835000000000079e+01 8.982859999999999445e+01 1.803769999999999982e+03
5.800000000000000294e-02 6.482634999999999925e-01 2.307029999999999959e+01 9.267439999999999145e+01 1.804480000000000018e+03
5.900000000000000383e-02 6.487545000000000117e-01 2.399005000000000010e+01 9.540029999999998722e+01 1.805154999999999973e+03
6.000000000000000472e-02 6.492344999999999366e-01 2.483019999999999783e+01 9.803989999999998872e+01 1.805804999999999836e+03
6.099999999999999867e-02 6.497109999999999275e-01 2.560255000000000081e+01 1.006253999999999991e+02 1.806449999999999818e+03
6.199999999999999956e-02 6.501865000000000006e-01 2.631690000000000040e+01 1.031829999999999927e+02 1.807079999999999927e+03
6.300000000000000044e-02 6.506635000000000613e-01 2.698004999999999853e+01 1.057309999999999945e+02 1.807704999999999927e+03
6.400000000000000133e-02 6.511415000000000397e-01 2.759515000000000029e+01 1.082775000000000034e+02 1.808329999999999927e+03
6.500000000000000222e-02 6.516189999999999483e-01 2.816125000000000256e+01 1.108179999999999978e+02 1.808950000000000045e+03
6.600000000000000311e-02 6.520920000000000050e-01 2.867409999999999926e+01 1.133389999999999986e+02 1.809570000000000164e+03
6.700000000000000400e-02 6.525555000000000661e-01 2.912635000000000218e+01 1.158165000000000049e+02 1.810180000000000064e+03
6.800000000000000488e-02 6.530030000000000001e-01 2.950900000000000034e+01 1.182210000000000036e+02 1.810769999999999982e+03
6.900000000000000577e-02 6.534275000000000500e-01 2.981279999999999930e+01 1.205199999999999960e+02 1.811335000000000036e+03
7.000000000000000666e-02 6.538249999999999895e-01 3.002895000000000181e+01 1.226800000000000068e+02 1.811880000000000109e+03
7.100000000000000755e-02 6.541889999999999095e-01 3.015034999999999954e+01 1.246700000000000017e+02 1.812380000000000109e+03
7.200000000000000844e-02 6.545155000000000278e-01 3.017164999999999964e+01 1.264645000000000010e+02 1.812840000000000146e+03
7.300000000000000933e-02 6.548019999999999952e-01 3.008999999999999986e+01 1.280424999999999898e+02 1.813250000000000000e+03
7.399999999999999634e-02 6.550454999999999472e-01 2.990460000000000207e+01 1.293910000000000196e+02 1.813605000000000018e+03
7.499999999999999722e-02 6.552465000000000650e-01 2.961690000000000111e+01 1.305010000000000048e+02 1.813910000000000082e+03
7.599999999999999811e-02 6.554039999999999866e-01 2.923055000000000092e+01 1.313735000000000070e+02 1.814155000000000200e+03
7.699999999999999900e-02 6.555199999999999916e-01 2.875104999999999933e+01 1.320124999999999886e+02 1.814344999999999800e+03
7.799999999999999989e-02 6.555965000000000265e-01 2.818630000000000280e+01 1.324290000000000020e+02 1.814485000000000127e+03
7.900000000000000078e-02 6.556370000000000253e-01 2.754579999999999984e+01 1.326390000000000100e+02 1.814570000000000164e+03
8.000000000000000167e-02 6.556454999999999922e-01 2.684134999999999849e+01 1.326639999999999873e+02 1.814609999999999900e+03
8.100000000000000255e-02 6.556260000000000421e-01 2.608610000000000184e+01 1.325275000000000034e+02 1.814605000000000018e+03
8.200000000000000344e-02 6.555845000000000145e-01 2.529444999999999766e+01 1.322579999999999814e+02 1.814574999999999818e+03
8.300000000000000433e-02 6.555260000000000531e-01 2.448150000000000048e+01 1.318859999999999957e+02 1.814505000000000109e+03
8.400000000000000522e-02 6.554560000000000386e-01 2.366210000000000235e+01 1.314410000000000025e+02 1.814420000000000073e+03
8.500000000000000611e-02 6.553805000000000325e-01 2.285040000000000049e+01 1.309515000000000100e+02 1.814319999999999936e+03
8.600000000000000699e-02 6.553029999999999688e-01 2.205874999999999986e+01 1.304459999999999980e+02 1.814215000000000146e+03
8.700000000000000788e-02 6.552274999999999627e-01 2.129715000000000202e+01 1.299459999999999980e+02 1.814099999999999909e+03
8.800000000000000877e-02 6.551560000000000716e-01 2.057290000000000063e+01 1.294689999999999941e+02 1.813985000000000127e+03
8.899999999999999578e-02 6.550914999999999377e-01 1.989020000000000010e+01 1.290269999999999868e+02 1.813880000000000109e+03
8.999999999999999667e-02 6.550325000000000175e-01 1.925009999999999977e+01 1.286245000000000118e+02 1.813779999999999973e+03
9.099999999999999756e-02 6.549795000000000478e-01 1.865074999999999861e+01 1.282624999999999886e+02 1.813690000000000055e+03
9.199999999999999845e-02 6.549304999999999710e-01 1.808784999999999954e+01 1.279335000000000093e+02 1.813605000000000018e+03
9.299999999999999933e-02 6.548825000000000340e-01 1.755489999999999995e+01 1.276280000000000001e+02 1.813525000000000091e+03
9.400000000000000022e-02 6.548344999999999860e-01 1.704400000000000048e+01 1.273319999999999936e+02 1.813444999999999936e+03
9.500000000000000111e-02 6.547819999999999752e-01 1.654625000000000057e+01 1.270295000000000130e+02 1.813369999999999891e+03
9.600000000000000200e-02 6.547220000000000262e-01 1.605235000000000056e+01 1.267030000000000030e+02 1.813289999999999964e+03
9.700000000000000289e-02 6.546520000000000117e-01 1.555315000000000047e+01 1.263359999999999985e+02 1.813200000000000045e+03
9.800000000000000377e-02 6.545700000000000962e-01 1.504035000000000011e+01 1.259124999999999943e+02 1.813095000000000027e+03
9.900000000000000466e-02 6.544729999999999714e-01 1.450685000000000002e+01 1.254205000000000041e+02 1.812980000000000018e+03
1.000000000000000056e-01 6.543600000000000527e-01 1.394720000000000049e+01 1.248499999999999943e+02 1.812849999999999909e+03
1.010000000000000064e-01 6.542310000000000070e-01 1.335818499999999887e+01 1.241959999999999980e+02 1.812700000000000045e+03
1.020000000000000073e-01 6.540865000000000151e-01 1.273911499999999997e+01 1.234575000000000102e+02 1.812534999999999854e+03
1.030000000000000082e-01 6.539274999999999949e-01 1.209156499999999923e+01 1.226405000000000030e+02 1.812345000000000027e+03
1.040000000000000091e-01 6.537569999999999215e-01 1.141990000000000016e+01 1.217549999999999955e+02 1.812139999999999873e+03
1.050000000000000100e-01 6.535779999999999923e-01 1.073064500000000088e+01 1.208149999999999977e+02 1.811930000000000064e+03
1.059999999999999970e-01 6.533940000000000303e-01 1.003237000000000023e+01 1.198400000000000034e+02 1.811704999999999927e+03
1.069999999999999979e-01 6.532100000000000684e-01 9.335195000000000576e+00 1.188509999999999991e+02 1.811474999999999909e+03
1.079999999999999988e-01 6.530299999999999994e-01 8.650064999999999671e+00 1.178735000000000070e+02 1.811240000000000009e+03
1.089999999999999997e-01 6.528594999999999260e-01 7.988389999999999880e+00 1.169310000000000116e+02 1.811014999999999873e+03
1.100000000000000006e-01 6.527015000000000455e-01 7.361110000000000042e+00 1.160474999999999994e+02 1.810804999999999836e+03
1.110000000000000014e-01 6.525609999999999467e-01 6.778450000000000308e+00 1.152450000000000045e+02 1.810610000000000127e+03
1.120000000000000023e-01 6.524399999999999089e-01 6.249035000000000117e+00 1.145420000000000016e+02 1.810430000000000064e+03
1.130000000000000032e-01 6.523415000000000186e-01 5.779720000000000191e+00 1.139530000000000030e+02 1.810280000000000200e+03
1.140000000000000041e-01 6.522665000000000823e-01 5.375135000000000218e+00 1.134879999999999995e+02 1.810155000000000200e+03
1.150000000000000050e-01 6.522155000000000591e-01 5.037549999999999528e+00 1.131514999999999986e+02 1.810059999999999945e+03
1.160000000000000059e-01 6.521875000000000311e-01 4.766840000000000188e+00 1.129420000000000073e+02 1.809994999999999891e+03
1.170000000000000068e-01 6.521810000000000107e-01 4.560610000000000497e+00 1.128549999999999898e+02 1.809950000000000045e+03
1.180000000000000077e-01 6.521934999999999816e-01 4.414445000000000618e+00 1.128799999999999955e+02 1.809940000000000055e+03
1.190000000000000085e-01 6.522229999999999972e-01 4.322255000000000180e+00 1.130024999999999977e+02 1.809950000000000045e+03
1.200000000000000094e-01 6.522654999999999426e-01 4.276704999999999757e+00 1.132069999999999936e+02 1.809984999999999900e+03
1.209999999999999964e-01 6.523179999999999534e-01 4.269690000000000651e+00 1.134749999999999943e+02 1.810034999999999854e+03
1.219999999999999973e-01 6.523769999999999847e-01 4.292759999999999465e+00 1.137880000000000109e+02 1.810095000000000027e+03
1.229999999999999982e-01 6.524395000000000611e-01 4.337530000000000108e+00 1.141280000000000001e+02 1.810164999999999964e+03
1.239999999999999991e-01 6.525020000000000264e-01 4.396020000000000039e+00 1.144789999999999992e+02 1.810239999999999782e+03
1.250000000000000000e-01 6.525624999999999343e-01 4.460950000000000415e+00 1.148255000000000052e+02 1.810309999999999945e+03
1.260000000000000009e-01 6.526195000000000190e-01 4.525900000000000034e+00 1.151550000000000011e+02 1.810389999999999873e+03
1.270000000000000018e-01 6.526710000000000012e-01 4.585465000000000124e+00 1.154579999999999984e+02 1.810454999999999927e+03
1.280000000000000027e-01 6.527149999999999341e-01 4.635305000000000675e+00 1.157265000000000015e+02 1.810519999999999982e+03
1.290000000000000036e-01 6.527525000000000688e-01 4.672180000000000000e+00 1.159569999999999936e+02 1.810579999999999927e+03
1.300000000000000044e-01 6.527830000000000021e-01 4.693934999999999746e+00 1.161460000000000008e+02 1.810625000000000000e+03
1.310000000000000053e-01 6.528059999999999974e-01 4.699450000000000571e+00 1.162944999999999993e+02 1.810664999999999964e+03
1.320000000000000062e-01 6.528220000000000134e-01 4.688579999999999970e+00 1.164039999999999964e+02 1.810694999999999936e+03
1.330000000000000071e-01 6.528325000000000378e-01 4.662040000000000184e+00 1.164774999999999920e+02 1.810715000000000146e+03
1.340000000000000080e-01 6.528380000000000294e-01 4.621305000000000440e+00 1.165199999999999960e+02 1.810735000000000127e+03
1.350000000000000089e-01 6.528395000000000170e-01 4.568430000000000213e+00 1.165374999999999943e+02 1.810740000000000009e+03
1.360000000000000098e-01 6.528384999999999883e-01 4.505894999999999762e+00 1.165354999999999990e+02 1.810744999999999891e+03
1.370000000000000107e-01 6.528355000000000130e-01 4.436384999999999579e+00 1.165204999999999984e+02 1.810744999999999891e+03
1.380000000000000115e-01 6.528320000000000789e-01 4.362610000000000099e+00 1.164985000000000070e+02 1.810744999999999891e+03
1.390000000000000124e-01 6.528289999999999926e-01 4.287129999999999441e+00 1.164745000000000061e+02 1.810740000000000009e+03
1.400000000000000133e-01 6.528270000000000461e-01 4.212144999999999584e+00 1.164519999999999982e+02 1.810740000000000009e+03
1.410000000000000142e-01 6.528260000000000174e-01 4.139384999999999870e+00 1.164350000000000023e+02 1.810735000000000127e+03
1.420000000000000151e-01 6.528264999999999763e-01 4.070034999999999847e+00 1.164244999999999948e+02 1.810735000000000127e+03
1.430000000000000160e-01 6.528285000000000338e-01 4.004694999999999894e+00 1.164209999999999923e+02 1.810735000000000127e+03
1.440000000000000169e-01 6.528315000000000090e-01 3.943385000000000140e+00 1.164219999999999970e+02 1.810735000000000127e+03
1.450000000000000178e-01 6.528339999999999144e-01 3.885689999999999866e+00 1.164265000000000043e+02 1.810740000000000009e+03
1.459999999999999909e-01 6.528370000000000006e-01 3.830775000000000041e+00 1.164314999999999998e+02 1.810740000000000009e+03
1.469999999999999918e-01 6.528380000000000294e-01 3.777614999999999945e+00 1.164314999999999998e+02 1.810740000000000009e+03
1.479999999999999927e-01 6.528380000000000294e-01 3.725114999999999732e+00 1.164240000000000066e+02 1.810735000000000127e+03
1.489999999999999936e-01 6.528355000000000130e-01 3.672239999999999949e+00 1.164055000000000035e+02 1.810735000000000127e+03
1.499999999999999944e-01 6.528294999999999515e-01 3.618170000000000108e+00 1.163719999999999999e+02 1.810724999999999909e+03
1.509999999999999953e-01 6.528205000000000258e-01 3.562375000000000291e+00 1.163215000000000003e+02 1.810715000000000146e+03
1.519999999999999962e-01 6.528080000000000549e-01 3.504685000000000272e+00 1.162535000000000025e+02 1.810700000000000045e+03
1.529999999999999971e-01 6.527920000000000389e-01 3.445289999999999964e+00 1.161670000000000016e+02 1.810684999999999945e+03
1.539999999999999980e-01 6.527730000000000476e-01 3.384744999999999671e+00 1.160635000000000048e+02 1.810660000000000082e+03
1.549999999999999989e-01 6.527515000000000400e-01 3.323920000000000208e+00 1.159455000000000098e+02 1.810634999999999991e+03
1.559999999999999998e-01 6.527275000000000160e-01 3.263935000000000031e+00 1.158145000000000095e+02 1.810605000000000018e+03
1.570000000000000007e-01 6.527024999999999633e-01 3.206094999999999917e+00 1.156754999999999995e+02 1.810569999999999936e+03
1.580000000000000016e-01 6.526769999999999516e-01 3.151839999999999975e+00 1.155310000000000059e+02 1.810534999999999854e+03
1.590000000000000024e-01 6.526514999999999400e-01 3.102660000000000196e+00 1.153870000000000005e+02 1.810500000000000000e+03
