# t [s], A [cm^2], U [cm/s], P [cPa], c [cm/s]
1.000000000000000021e-03 1.727424999999999933e-01 2.317895000000000094e-01 9.919185000000000230e+01 2.275510000000000218e+03
2.000000000000000042e-03 1.726945000000000008e-01 1.670299000000000200e+00 9.582175000000000864e+01 2.275054999999999836e+03
3.000000000000000062e-03 1.725720000000000032e-01 3.513429999999999609e+00 9.092005000000000337e+01 2.273940000000000055e+03
4.000000000000000083e-03 1.724089999999999789e-01 5.627281499999999603e+00 8.549834999999998786e+01 2.272465000000000146e+03
5.000000000000000104e-03 1.722380000000000022e-01 7.922539999999999694e+00 8.062479999999999336e+01 2.270940000000000055e+03
6.000000000000000125e-03 1.720760000000000067e-01 1.017706000000000088e+01 7.663120000000000687e+01 2.269519999999999982e+03
7.000000000000000146e-03 1.719269999999999965e-01 1.212830999999999904e+01 7.317349999999999000e+01 2.268234999999999673e+03
8.000000000000000167e-03 1.717920000000000003e-01 1.371363999999999983e+01 7.005729999999999791e+01 2.267099999999999909e+03
9.000000000000001055e-03 1.716769999999999963e-01 1.499224999999999852e+01 6.742714999999999748e+01 2.266149999999999636e+03
1.000000000000000194e-02 1.715839999999999865e-01 1.599964999999999904e+01 6.535544999999999050e+01 2.265390000000000327e+03
1.099999999999999936e-02 1.715114999999999834e-01 1.676280000000000214e+01 6.380719999999999459e+01 2.264800000000000182e+03
1.200000000000000025e-02 1.714574999999999849e-01 1.729885000000000161e+01 6.269325000000000614e+01 2.264369999999999891e+03
1.300000000000000114e-02 1.714154999999999984e-01 1.760219999999999985e+01 6.182874999999999943e+01 2.264050000000000182e+03
1.400000000000000203e-02 1.713820000000000066e-01 1.770819999999999794e+01 6.107625000000000171e+01 2.263800000000000182e+03
1.499999999999999944e-02 1.713589999999999836e-01 1.775925000000000153e+01 6.060384999999999422e+01 2.263625000000000000e+03
1.600000000000000033e-02 1.713560000000000083e-01 1.796470000000000056e+01 6.089139999999999731e+01 2.263614999999999782e+03
1.700000000000000122e-02 1.713854999999999962e-01 1.847574999999999790e+01 6.240234999999999843e+01 2.263855000000000018e+03
1.800000000000000211e-02 1.714490000000000181e-01 1.928379999999999939e+01 6.519960000000000377e+01 2.264380000000000109e+03
1.900000000000000300e-02 1.715389999999999970e-01 2.021645000000000181e+01 6.880584999999999241e+01 2.265125000000000000e+03
2.000000000000000042e-02 1.716369999999999840e-01 2.102165000000000106e+01 7.238054999999999950e+01 2.265954999999999927e+03
2.100000000000000130e-02 1.717225000000000001e-01 2.148174999999999812e+01 7.507880000000000109e+01 2.266694999999999709e+03
2.200000000000000219e-02 1.717799999999999883e-01 2.149905000000000044e+01 7.638630000000000564e+01 2.267210000000000036e+03
2.299999999999999961e-02 1.718029999999999835e-01 2.111840000000000117e+01 7.628094999999999004e+01 2.267434999999999945e+03
2.400000000000000050e-02 1.717970000000000053e-01 2.048785000000000167e+01 7.517179999999999040e+01 2.267409999999999854e+03
2.500000000000000139e-02 1.717734999999999956e-01 1.978255000000000052e+01 7.367195000000000960e+01 2.267230000000000018e+03
2.600000000000000228e-02 1.717454999999999954e-01 1.913084999999999880e+01 7.232489999999999952e+01 2.266994999999999891e+03
2.700000000000000316e-02 1.717214999999999991e-01 1.857189999999999941e+01 7.140500000000000114e+01 2.266789999999999964e+03
2.800000000000000058e-02 1.717035000000000089e-01 1.805685000000000073e+01 7.085864999999999725e+01 2.266635000000000218e+03
2.900000000000000147e-02 1.716880000000000073e-01 1.748505000000000109e+01 7.038560000000001082e+01 2.266500000000000000e+03
3.000000000000000236e-02 1.716664999999999996e-01 1.675820000000000221e+01 6.960894999999999300e+01 2.266324999999999818e+03
3.099999999999999978e-02 1.716320000000000068e-01 1.583089999999999975e+01 6.826364999999999839e+01 2.266050000000000182e+03
3.200000000000000067e-02 1.715829999999999855e-01 1.474064999999999870e+01 6.633454999999999302e+01 2.265649999999999636e+03
3.300000000000000155e-02 1.715240000000000098e-01 1.360589999999999833e+01 6.409380000000000166e+01 2.265164999999999964e+03
3.400000000000000244e-02 1.714644999999999919e-01 1.259210000000000029e+01 6.202455000000000496e+01 2.264664999999999964e+03
3.500000000000000333e-02 1.714175000000000004e-01 1.185984999999999978e+01 6.066084999999999638e+01 2.264255000000000109e+03
3.600000000000000422e-02 1.713950000000000196e-01 1.151490000000000080e+01 6.040940000000000509e+01 2.264045000000000073e+03
3.700000000000000511e-02 1.714034999999999864e-01 1.157760000000000034e+01 6.141799999999999926e+01 2.264090000000000146e+03
3.799999999999999906e-02 1.714424999999999977e-01 1.198000000000000043e+01 6.353239999999999554e+01 2.264390000000000327e+03
3.899999999999999994e-02 1.715059999999999918e-01 1.258680000000000021e+01 6.634405000000000996e+01 2.264904999999999745e+03
4.000000000000000083e-02 1.715809999999999835e-01 1.323029999999999973e+01 6.930070000000000618e+01 2.265519999999999982e+03
4.100000000000000172e-02 1.716540000000000010e-01 1.374759999999999849e+01 7.183910000000000196e+01 2.266135000000000218e+03
4.200000000000000261e-02 1.717115000000000169e-01 1.401065000000000005e+01 7.350175000000000125e+01 2.266630000000000109e+03
4.300000000000000350e-02 1.717440000000000078e-01 1.394299999999999962e+01 7.401184999999999548e+01 2.266914999999999964e+03
4.400000000000000439e-02 1.717449999999999810e-01 1.352270000000000039e+01 7.329525000000001000e+01 2.266949999999999818e+03
4.499999999999999833e-02 1.717155000000000209e-01 1.277319999999999922e+01 7.145484999999999332e+01 2.266720000000000255e+03
4.599999999999999922e-02 1.716570000000000040e-01 1.174746999999999986e+01 6.871235000000000070e+01 2.266244999999999891e+03
4.700000000000000011e-02 1.715765000000000207e-01 1.051068000000000069e+01 6.533959999999999013e+01 2.265579999999999927e+03
4.800000000000000100e-02 1.714795000000000069e-01 9.126799999999999358e+00 6.159829999999999472e+01 2.264769999999999982e+03
4.900000000000000189e-02 1.713724999999999832e-01 7.651155000000000150e+00 5.770309999999999917e+01 2.263875000000000000e+03
5.000000000000000278e-02 1.712599999999999956e-01 6.129125000000000156e+00 5.380955000000000155e+01 2.262935000000000400e+03
5.100000000000000366e-02 1.711465000000000070e-01 4.599660000000000082e+00 5.002405000000000257e+01 2.261980000000000018e+03
5.200000000000000455e-02 1.710349999999999926e-01 3.100468000000000224e+00 4.642535000000000167e+01 2.261039999999999964e+03
5.300000000000000544e-02 1.709289999999999976e-01 1.672855000000000203e+00 4.308825000000000216e+01 2.260139999999999873e+03
5.399999999999999939e-02 1.708304999999999962e-01 3.642849999999999699e-01 4.010155000000000314e+01 2.259305000000000291e+03
5.500000000000000028e-02 1.707429999999999781e-01 -7.720649999999998903e-01 3.757495000000000118e+01 2.258559999999999945e+03
5.600000000000000117e-02 1.706699999999999884e-01 -1.680517000000000039e+00 3.563439999999999941e+01 2.257934999999999945e+03
5.700000000000000205e-02 1.706159999999999899e-01 -2.308085000000000164e+00 3.440935000000000343e+01 2.257465000000000146e+03
5.800000000000000294e-02 1.705845000000000000e-01 -2.610170000000000101e+00 3.401460000000000150e+01 2.257175000000000182e+03
5.900000000000000383e-02 1.705770000000000064e-01 -2.555625000000000036e+00 3.453324999999999534e+01 2.257090000000000146e+03
6.000000000000000472e-02 1.705975000000000130e-01 -2.130180000000000184e+00 3.600339999999999918e+01 2.257230000000000018e+03
6.099999999999999867e-02 1.706444999999999768e-01 -1.337806500000000121e+00 3.841225000000000023e+01 2.257605000000000018e+03
6.199999999999999956e-02 1.707195000000000240e-01 -2.001100000000000101e-01 4.169644999999999868e+01 2.258210000000000036e+03
6.300000000000000044e-02 1.708189999999999986e-01 1.245849999999999902e+00 4.574864999999999782e+01 2.259019999999999982e+03
6.400000000000000133e-02 1.709404999999999952e-01 2.950788999999999884e+00 5.042795000000000272e+01 2.260019999999999982e+03
6.500000000000000222e-02 1.710790000000000088e-01 4.856936499999999768e+00 5.557214999999999350e+01 2.261175000000000182e+03
6.600000000000000311e-02 1.712310000000000221e-01 6.902084999999999582e+00 6.101094999999999402e+01 2.262440000000000055e+03
6.700000000000000400e-02 1.713915000000000022e-01 9.023634999999998740e+00 6.657774999999999466e+01 2.263789999999999964e+03
6.800000000000000488e-02 1.715554999999999997e-01 1.116249000000000002e+01 7.212149999999999750e+01 2.265170000000000073e+03
6.900000000000000577e-02 1.717190000000000105e-01 1.326644500000000093e+01 7.751614999999999611e+01 2.266559999999999945e+03
7.000000000000000666e-02 1.718795000000000184e-01 1.529319999999999879e+01 8.266779999999999973e+01 2.267920000000000073e+03
7.100000000000000755e-02 1.720335000000000059e-01 1.721199999999999974e+01 8.751930000000000121e+01 2.269235000000000127e+03
7.200000000000000844e-02 1.721799999999999997e-01 1.900464999999999804e+01 9.205070000000000618e+01 2.270489999999999782e+03
7.300000000000000933e-02 1.723179999999999990e-01 2.066440000000000055e+01 9.627504999999999313e+01 2.271675000000000182e+03
7.399999999999999634e-02 1.724485000000000046e-01 2.219460000000000122e+01 1.002324999999999875e+02 2.272800000000000182e+03
7.499999999999999722e-02 1.725725000000000176e-01 2.360585000000000022e+01 1.039812000000000012e+02 2.273869999999999891e+03
7.599999999999999811e-02 1.726914999999999978e-01 2.491325000000000145e+01 1.075854999999999961e+02 2.274894999999999982e+03
7.699999999999999900e-02 1.728065000000000018e-01 2.613335000000000008e+01 1.111065000000000111e+02 2.275894999999999982e+03
7.799999999999999989e-02 1.729199999999999904e-01 2.728184999999999860e+01 1.145974999999999966e+02 2.276864999999999782e+03
7.900000000000000078e-02 1.730319999999999914e-01 2.837140000000000128e+01 1.180919999999999987e+02 2.277835000000000036e+03
8.000000000000000167e-02 1.731445000000000067e-01 2.941100000000000136e+01 1.216099999999999994e+02 2.278805000000000291e+03
8.100000000000000255e-02 1.732560000000000211e-01 3.040504999999999924e+01 1.251499999999999915e+02 2.279775000000000091e+03
8.200000000000000344e-02 1.733689999999999953e-01 3.135379999999999967e+01 1.286965000000000146e+02 2.280744999999999891e+03
8.300000000000000433e-02 1.734809999999999963e-01 3.225354999999999706e+01 1.322205000000000155e+02 2.281715000000000146e+03
8.400000000000000522e-02 1.735919999999999963e-01 3.309730000000000416e+01 1.356850000000000023e+02 2.282670000000000073e+03
8.500000000000000611e-02 1.737000000000000210e-01 3.387545000000000073e+01 1.390464999999999804e+02 2.283609999999999673e+03
8.600000000000000699e-02 1.738045000000000007e-01 3.457649999999999579e+01 1.422564999999999884e+02 2.284515000000000327e+03
8.700000000000000788e-02 1.739044999999999896e-01 3.518784999999999741e+01 1.452699999999999818e+02 2.285380000000000109e+03
8.800000000000000877e-02 1.739979999999999860e-01 3.569630000000000081e+01 1.480405000000000086e+02 2.286190000000000055e+03
8.899999999999999578e-02 1.740835000000000021e-01 3.608915000000000362e+01 1.505260000000000105e+02 2.286940000000000055e+03
8.999999999999999667e-02 1.741604999999999959e-01 3.635474999999999568e+01 1.526895000000000095e+02 2.287610000000000127e+03
9.099999999999999756e-02 1.742270000000000207e-01 3.648349999999999937e+01 1.545015000000000214e+02 2.288199999999999818e+03
9.199999999999999845e-02 1.742839999999999945e-01 3.646864999999999668e+01 1.559404999999999859e+02 2.288694999999999709e+03
9.299999999999999933e-02 1.743290000000000117e-01 3.630700000000000216e+01 1.569964999999999975e+02 2.289095000000000255e+03
9.400000000000000022e-02 1.743624999999999758e-01 3.599954999999999927e+01 1.576709999999999923e+02 2.289394999999999982e+03
9.500000000000000111e-02 1.743844999999999978e-01 3.555160000000000053e+01 1.579769999999999754e+02 2.289599999999999909e+03
9.600000000000000200e-02 1.743959999999999955e-01 3.497284999999999400e+01 1.579404999999999859e+02 2.289710000000000036e+03
9.700000000000000289e-02 1.743969999999999965e-01 3.427705000000000268e+01 1.575969999999999800e+02 2.289735000000000127e+03
9.800000000000000377e-02 1.743895000000000028e-01 3.348105000000000331e+01 1.569904999999999973e+02 2.289675000000000182e+03
9.900000000000000466e-02 1.743735000000000146e-01 3.260425000000000040e+01 1.561725000000000136e+02 2.289550000000000182e+03
1.000000000000000056e-01 1.743520000000000070e-01 3.166740000000000066e+01 1.551949999999999932e+02 2.289369999999999891e+03
1.010000000000000064e-01 1.743255000000000221e-01 3.069174999999999898e+01 1.541115000000000066e+02 2.289150000000000091e+03
1.020000000000000073e-01 1.742954999999999921e-01 2.969800000000000040e+01 1.529720000000000084e+02 2.288894999999999982e+03
1.030000000000000082e-01 1.742635000000000156e-01 2.870534999999999926e+01 1.518230000000000075e+02 2.288619999999999891e+03
1.040000000000000091e-01 1.742315000000000114e-01 2.773094999999999999e+01 1.507024999999999864e+02 2.288345000000000255e+03
1.050000000000000100e-01 1.741995000000000071e-01 2.678914999999999935e+01 1.496419999999999959e+02 2.288074999999999818e+03
1.059999999999999970e-01 1.741695000000000049e-01 2.589085000000000036e+01 1.486634999999999991e+02 2.287809999999999945e+03
1.069999999999999979e-01 1.741409999999999902e-01 2.504339999999999833e+01 1.477800000000000011e+02 2.287565000000000055e+03
1.079999999999999988e-01 1.741155000000000064e-01 2.425029999999999930e+01 1.469929999999999950e+02 2.287335000000000036e+03
1.089999999999999997e-01 1.740919999999999968e-01 2.351109999999999900e+01 1.462969999999999970e+02 2.287130000000000109e+03
1.100000000000000006e-01 1.740705000000000169e-01 2.282180000000000319e+01 1.456750000000000114e+02 2.286940000000000055e+03
1.110000000000000014e-01 1.740510000000000113e-01 2.217494999999999905e+01 1.451039999999999850e+02 2.286769999999999982e+03
1.120000000000000023e-01 1.740325000000000066e-01 2.156064999999999898e+01 1.445539999999999736e+02 2.286604999999999563e+03
1.130000000000000032e-01 1.740140000000000020e-01 2.096690000000000254e+01 1.439920000000000186e+02 2.286444999999999709e+03
1.140000000000000041e-01 1.739950000000000108e-01 2.038080000000000069e+01 1.433829999999999814e+02 2.286274999999999636e+03
1.150000000000000050e-01 1.739745000000000041e-01 1.978920000000000101e+01 1.426924999999999955e+02 2.286100000000000364e+03
1.160000000000000059e-01 1.739510000000000223e-01 1.917989999999999995e+01 1.418894999999999982e+02 2.285894999999999982e+03
1.170000000000000068e-01 1.739245000000000096e-01 1.854244999999999877e+01 1.409490000000000123e+02 2.285664999999999964e+03
1.180000000000000077e-01 1.738935000000000064e-01 1.786850000000000094e+01 1.398540000000000134e+02 2.285399999999999636e+03
1.190000000000000085e-01 1.738580000000000125e-01 1.715305000000000035e+01 1.385954999999999870e+02 2.285100000000000364e+03
1.200000000000000094e-01 1.738180000000000003e-01 1.639454999999999885e+01 1.371740000000000066e+02 2.284750000000000000e+03
1.209999999999999964e-01 1.737734999999999974e-01 1.559485000000000099e+01 1.356005000000000109e+02 2.284369999999999891e+03
1.219999999999999973e-01 1.737245000000000039e-01 1.475959999999999894e+01 1.338960000000000150e+02 2.283954999999999927e+03
1.229999999999999982e-01 1.736719999999999930e-01 1.389775000000000027e+01 1.320889999999999986e+02 2.283505000000000109e+03
1.239999999999999991e-01 1.736165000000000069e-01 1.302100000000000080e+01 1.302164999999999964e+02 2.283029999999999745e+03
1.250000000000000000e-01 1.735595000000000054e-01 1.214320999999999984e+01 1.283185000000000002e+02 2.282545000000000073e+03
1.260000000000000009e-01 1.735019999999999896e-01 1.127943499999999943e+01 1.264385000000000048e+02 2.282050000000000182e+03
1.270000000000000018e-01 1.734455000000000024e-01 1.044519000000000020e+01 1.246204999999999927e+02 2.281565000000000055e+03
1.280000000000000027e-01 1.733905000000000030e-01 9.655485000000000539e+00 1.229039999999999964e+02 2.281090000000000146e+03
1.290000000000000036e-01 1.733390000000000208e-01 8.923914999999999154e+00 1.213245000000000005e+02 2.280650000000000091e+03
1.300000000000000044e-01 1.732914999999999872e-01 8.261955000000000382e+00 1.199115000000000038e+02 2.280235000000000127e+03
1.310000000000000053e-01 1.732489999999999863e-01 7.678549999999999542e+00 1.186864999999999952e+02 2.279864999999999782e+03
1.320000000000000062e-01 1.732120000000000049e-01 7.179685000000000095e+00 1.176615000000000038e+02 2.279539999999999964e+03
1.330000000000000071e-01 1.731805000000000150e-01 6.768254999999999910e+00 1.168410000000000082e+02 2.279265000000000327e+03
1.340000000000000080e-01 1.731550000000000034e-01 6.444164999999999921e+00 1.162210000000000036e+02 2.279039999999999964e+03
1.350000000000000089e-01 1.731354999999999977e-01 6.204509999999999970e+00 1.157899999999999920e+02 2.278864999999999782e+03
1.360000000000000098e-01 1.731214999999999837e-01 6.043960000000000221e+00 1.155330000000000013e+02 2.278735000000000127e+03
1.370000000000000107e-01 1.731119999999999881e-01 5.955160000000000231e+00 1.154269999999999925e+02 2.278650000000000091e+03
1.380000000000000115e-01 1.731074999999999975e-01 5.929209999999999425e+00 1.154495000000000005e+02 2.278605000000000018e+03
1.390000000000000124e-01 1.731070000000000109e-01 5.956109999999999793e+00 1.155739999999999981e+02 2.278590000000000146e+03
1.400000000000000133e-01 1.731090000000000129e-01 6.025285000000000224e+00 1.157750000000000057e+02 2.278599999999999909e+03
1.410000000000000142e-01 1.731130000000000169e-01 6.125965000000000771e+00 1.160264999999999986e+02 2.278635000000000218e+03
1.420000000000000151e-01 1.731189999999999951e-01 6.247614999999999696e+00 1.163050000000000068e+02 2.278680000000000291e+03
1.430000000000000160e-01 1.731260000000000021e-01 6.380304999999999893e+00 1.165885000000000105e+02 2.278734999999999673e+03
1.440000000000000169e-01 1.731325000000000225e-01 6.515015000000000001e+00 1.168580000000000041e+02 2.278789999999999964e+03
1.450000000000000178e-01 1.731395000000000017e-01 6.643914999999999793e+00 1.170979999999999990e+02 2.278849999999999909e+03
1.459999999999999909e-01 1.731455000000000077e-01 6.760584999999999845e+00 1.172959999999999923e+02 2.278904999999999745e+03
1.469999999999999918e-01 1.731509999999999994e-01 6.860149999999999970e+00 1.174454999999999956e+02 2.278944999999999709e+03
1.479999999999999927e-01 1.731540000000000024e-01 6.939375000000000071e+00 1.175409999999999968e+02 2.278980000000000018e+03
1.489999999999999936e-01 1.731564999999999910e-01 6.996645000000000003e+00 1.175819999999999936e+02 2.279000000000000000e+03
1.499999999999999944e-01 1.731570000000000054e-01 7.031895000000000451e+00 1.175730000000000075e+02 2.279005000000000109e+03
1.509999999999999953e-01 1.731570000000000054e-01 7.046420000000000350e+00 1.175194999999999936e+02 2.279005000000000109e+03
1.519999999999999962e-01 1.731555000000000177e-01 7.042650000000000077e+00 1.174300000000000068e+02 2.278989999999999782e+03
1.529999999999999971e-01 1.731530000000000014e-01 7.023830000000000240e+00 1.173160000000000025e+02 2.278970000000000255e+03
1.539999999999999980e-01 1.731495000000000117e-01 6.993684999999999263e+00 1.171860000000000070e+02 2.278949999999999818e+03
1.549999999999999989e-01 1.731460000000000221e-01 6.956089999999999662e+00 1.170519999999999925e+02 2.278914999999999964e+03
1.559999999999999998e-01 1.731420000000000181e-01 6.914714999999999279e+00 1.169224999999999994e+02 2.278885000000000218e+03
1.570000000000000007e-01 1.731389999999999874e-01 6.872759999999999536e+00 1.168045000000000044e+02 2.278859999999999673e+03
1.580000000000000016e-01 1.731360000000000121e-01 6.832745000000000068e+00 1.167034999999999911e+02 2.278829999999999927e+03
1.590000000000000024e-01 1.731329999999999814e-01 6.796359999999999957e+00 1.166209999999999951e+02 2.278809999999999945e+03
