# t [s], A [cm^2], U [cm/s], P [cPa], c [cm/s]
1.000000000000000021e-03 1.791284999999999961e-01 4.101600000000000246e-01 9.505615000000000236e+01 2.074824999999999818e+03
2.000000000000000042e-03 1.790690000000000059e-01 2.074927000000000188e+00 9.138094999999999857e+01 2.074284999999999854e+03
3.000000000000000062e-03 1.789204999999999823e-01 4.091190500000000618e+00 8.637715000000000032e+01 2.072984999999999673e+03
4.000000000000000083e-03 1.787259999999999960e-01 6.350118000000000151e+00 8.120779999999999177e+01 2.071315000000000055e+03
5.000000000000000104e-03 1.785255000000000036e-01 8.748454999999999870e+00 7.685335000000000605e+01 2.069605000000000018e+03
6.000000000000000125e-03 1.783379999999999965e-01 1.103530499999999925e+01 7.341575000000000273e+01 2.068025000000000091e+03
7.000000000000000146e-03 1.781650000000000178e-01 1.297617999999999938e+01 7.045275000000000887e+01 2.066600000000000364e+03
8.000000000000000167e-03 1.780100000000000016e-01 1.455185999999999957e+01 6.780334999999999468e+01 2.065350000000000364e+03
9.000000000000001055e-03 1.778784999999999950e-01 1.583239999999999981e+01 6.561114999999999498e+01 2.064305000000000291e+03
1.000000000000000194e-02 1.777714999999999990e-01 1.684709999999999752e+01 6.390720000000000312e+01 2.063454999999999927e+03
1.099999999999999936e-02 1.776874999999999982e-01 1.761945000000000050e+01 6.263045000000000329e+01 2.062804999999999836e+03
1.200000000000000025e-02 1.776240000000000041e-01 1.817269999999999897e+01 6.171054999999999779e+01 2.062320000000000164e+03
1.300000000000000114e-02 1.775749999999999829e-01 1.850990000000000180e+01 6.101214999999999833e+01 2.061954999999999927e+03
1.400000000000000203e-02 1.775364999999999860e-01 1.866385000000000005e+01 6.042470000000000141e+01 2.061680000000000291e+03
1.499999999999999944e-02 1.775094999999999867e-01 1.876360000000000028e+01 6.009015000000000128e+01 2.061494999999999891e+03
1.600000000000000033e-02 1.775045000000000095e-01 1.900874999999999915e+01 6.044160000000000110e+01 2.061470000000000255e+03
1.700000000000000122e-02 1.775335000000000107e-01 1.955489999999999995e+01 6.192759999999999820e+01 2.061710000000000036e+03
1.800000000000000211e-02 1.776030000000000109e-01 2.040684999999999860e+01 6.464655000000000484e+01 2.062265000000000327e+03
1.900000000000000300e-02 1.777064999999999895e-01 2.139909999999999712e+01 6.817759999999999820e+01 2.063085000000000036e+03
2.000000000000000042e-02 1.778244999999999965e-01 2.226664999999999850e+01 7.170815000000000339e+01 2.064029999999999745e+03
2.100000000000000130e-02 1.779310000000000058e-01 2.275750000000000028e+01 7.435945000000000960e+01 2.064900000000000091e+03
2.200000000000000219e-02 1.780034999999999812e-01 2.273069999999999879e+01 7.553034999999999854e+01 2.065519999999999982e+03
2.299999999999999961e-02 1.780319999999999958e-01 2.219964999999999833e+01 7.510474999999999568e+01 2.065784999999999854e+03
2.400000000000000050e-02 1.780169999999999808e-01 2.131000000000000227e+01 7.344899999999999807e+01 2.065704999999999927e+03
2.500000000000000139e-02 1.779720000000000191e-01 2.026865000000000094e+01 7.121984999999999388e+01 2.065369999999999891e+03
2.600000000000000228e-02 1.779155000000000042e-01 1.926089999999999947e+01 6.908770000000001232e+01 2.064920000000000073e+03
2.700000000000000316e-02 1.778625000000000067e-01 1.839065000000000083e+01 6.749864999999999782e+01 2.064494999999999891e+03
2.800000000000000058e-02 1.778214999999999935e-01 1.766284999999999883e+01 6.656374999999999886e+01 2.064159999999999854e+03
2.900000000000000147e-02 1.777940000000000076e-01 1.700609999999999999e+01 6.609145000000000891e+01 2.063925000000000182e+03
3.000000000000000236e-02 1.777725000000000000e-01 1.631844999999999857e+01 6.572384999999999877e+01 2.063750000000000000e+03
3.099999999999999978e-02 1.777489999999999903e-01 1.551879999999999882e+01 6.511064999999999259e+01 2.063564999999999600e+03
3.200000000000000067e-02 1.777159999999999851e-01 1.458450000000000024e+01 6.405870000000000175e+01 2.063305000000000291e+03
3.300000000000000155e-02 1.776705000000000090e-01 1.356690000000000040e+01 6.261299999999999955e+01 2.062949999999999818e+03
3.400000000000000244e-02 1.776189999999999991e-01 1.257939999999999969e+01 6.104765000000000441e+01 2.062534999999999854e+03
3.500000000000000333e-02 1.775700000000000056e-01 1.176340000000000074e+01 5.977479999999999905e+01 2.062139999999999873e+03
3.600000000000000422e-02 1.775359999999999994e-01 1.124460000000000015e+01 5.920609999999999928e+01 2.061855000000000018e+03
3.700000000000000511e-02 1.775280000000000191e-01 1.109365000000000023e+01 5.961580000000000013e+01 2.061774999999999636e+03
3.799999999999999906e-02 1.775514999999999732e-01 1.130509999999999948e+01 6.105064999999999742e+01 2.061940000000000055e+03
3.899999999999999994e-02 1.776050000000000129e-01 1.179670000000000130e+01 6.330949999999999989e+01 2.062350000000000364e+03
4.000000000000000083e-02 1.776810000000000056e-01 1.242895000000000039e+01 6.599125000000000796e+01 2.062940000000000055e+03
4.100000000000000172e-02 1.777654999999999930e-01 1.303470000000000084e+01 6.858814999999999884e+01 2.063610000000000127e+03
4.200000000000000261e-02 1.778430000000000011e-01 1.345170000000000066e+01 7.059440000000000737e+01 2.064230000000000018e+03
4.300000000000000350e-02 1.778994999999999882e-01 1.354905000000000115e+01 7.160089999999999577e+01 2.064690000000000055e+03
4.400000000000000439e-02 1.779219999999999968e-01 1.324380000000000024e+01 7.135775000000001000e+01 2.064885000000000218e+03
4.499999999999999833e-02 1.779040000000000066e-01 1.250655000000000072e+01 6.979570000000001073e+01 2.064764999999999873e+03
4.599999999999999922e-02 1.778440000000000021e-01 1.135615499999999933e+01 6.701024999999999920e+01 2.064300000000000182e+03
4.700000000000000011e-02 1.777440000000000131e-01 9.848455000000001291e+00 6.321864999999999668e+01 2.063515000000000327e+03
4.800000000000000100e-02 1.776115000000000055e-01 8.062149999999999039e+00 5.870570000000000022e+01 2.062465000000000146e+03
4.900000000000000189e-02 1.774545000000000150e-01 6.085720000000000240e+00 5.377250000000000085e+01 2.061215000000000146e+03
5.000000000000000278e-02 1.772819999999999951e-01 4.007977000000000345e+00 4.869899999999999807e+01 2.059835000000000036e+03
5.100000000000000366e-02 1.771030000000000104e-01 1.912939999999999863e+00 4.372390000000000043e+01 2.058399999999999636e+03
5.200000000000000455e-02 1.769255000000000133e-01 -1.217000000000001414e-01 3.904149999999999920e+01 2.056980000000000018e+03
5.300000000000000544e-02 1.767559999999999965e-01 -2.023830000000000240e+00 3.480920000000000414e+01 2.055615000000000236e+03
5.399999999999999939e-02 1.766015000000000224e-01 -3.725596499999999978e+00 3.115925000000000011e+01 2.054365000000000236e+03
5.500000000000000028e-02 1.764664999999999984e-01 -5.162770000000000081e+00 2.820915000000000106e+01 2.053269999999999982e+03
5.600000000000000117e-02 1.763560000000000128e-01 -6.275684999999999292e+00 2.606660000000000110e+01 2.052369999999999891e+03
5.700000000000000205e-02 1.762750000000000150e-01 -7.011710000000000775e+00 2.482815000000000083e+01 2.051699999999999818e+03
5.800000000000000294e-02 1.762259999999999938e-01 -7.328920000000000101e+00 2.457160000000000011e+01 2.051279999999999745e+03
5.900000000000000383e-02 1.762130000000000085e-01 -7.200060000000000571e+00 2.534580000000000055e+01 2.051144999999999982e+03
6.000000000000000472e-02 1.762370000000000048e-01 -6.615814999999999557e+00 2.716069999999999851e+01 2.051309999999999945e+03
6.099999999999999867e-02 1.762980000000000103e-01 -5.586669999999999803e+00 2.998049999999999926e+01 2.051769999999999982e+03
6.199999999999999956e-02 1.763959999999999972e-01 -4.142769999999999619e+00 3.372225000000000250e+01 2.052519999999999982e+03
6.300000000000000044e-02 1.765269999999999895e-01 -2.331894999999999829e+00 3.826044999999999874e+01 2.053539999999999964e+03
6.400000000000000133e-02 1.766870000000000107e-01 -2.158600000000001629e-01 4.343630000000000280e+01 2.054795000000000073e+03
6.500000000000000222e-02 1.768699999999999994e-01 2.133939999999999948e+00 4.907085000000000008e+01 2.056250000000000000e+03
6.600000000000000311e-02 1.770710000000000062e-01 4.641248500000000554e+00 5.497804999999999609e+01 2.057845000000000255e+03
6.700000000000000400e-02 1.772829999999999961e-01 7.229305000000000092e+00 6.097729999999999961e+01 2.059545000000000073e+03
6.800000000000000488e-02 1.774995000000000045e-01 9.824559999999999960e+00 6.690319999999999823e+01 2.061284999999999854e+03
6.900000000000000577e-02 1.777159999999999851e-01 1.235974000000000039e+01 7.261320000000000618e+01 2.063029999999999745e+03
7.000000000000000666e-02 1.779255000000000142e-01 1.477645000000000053e+01 7.799209999999999354e+01 2.064735000000000127e+03
7.100000000000000755e-02 1.781260000000000066e-01 1.702704999999999913e+01 8.295534999999999570e+01 2.066364999999999782e+03
7.200000000000000844e-02 1.783124999999999849e-01 1.907614999999999839e+01 8.745069999999999766e+01 2.067890000000000327e+03
7.300000000000000933e-02 1.784840000000000038e-01 2.090214999999999890e+01 9.145904999999999063e+01 2.069304999999999836e+03
7.399999999999999634e-02 1.786399999999999932e-01 2.249694999999999823e+01 9.499344999999999573e+01 2.070585000000000036e+03
7.499999999999999722e-02 1.787794999999999801e-01 2.386615000000000109e+01 9.809704999999999586e+01 2.071750000000000000e+03
7.599999999999999811e-02 1.789054999999999951e-01 2.502754999999999797e+01 1.008382000000000005e+02 2.072789999999999964e+03
7.699999999999999900e-02 1.790180000000000105e-01 2.600905000000000200e+01 1.033059499999999957e+02 2.073739999999999782e+03
7.799999999999999989e-02 1.791225000000000178e-01 2.684570000000000078e+01 1.055995000000000061e+02 2.074610000000000127e+03
7.900000000000000078e-02 1.792205000000000048e-01 2.757649999999999935e+01 1.078215000000000003e+02 2.075425000000000182e+03
8.000000000000000167e-02 1.793160000000000032e-01 2.824105000000000132e+01 1.100695000000000050e+02 2.076220000000000255e+03
8.100000000000000255e-02 1.794120000000000159e-01 2.887569999999999837e+01 1.124274999999999949e+02 2.077019999999999982e+03
8.200000000000000344e-02 1.795110000000000039e-01 2.951149999999999807e+01 1.149569999999999936e+02 2.077849999999999909e+03
8.300000000000000433e-02 1.796159999999999979e-01 3.017125000000000057e+01 1.176965000000000003e+02 2.078710000000000036e+03
8.400000000000000522e-02 1.797269999999999979e-01 3.086824999999999619e+01 1.206569999999999965e+02 2.079630000000000109e+03
8.500000000000000611e-02 1.798449999999999771e-01 3.160614999999999952e+01 1.238215000000000003e+02 2.080604999999999563e+03
8.600000000000000699e-02 1.799689999999999901e-01 3.237875000000000369e+01 1.271490000000000009e+02 2.081625000000000000e+03
8.700000000000000788e-02 1.800984999999999947e-01 3.317130000000000223e+01 1.305790000000000077e+02 2.082690000000000055e+03
8.800000000000000877e-02 1.802305000000000157e-01 3.396179999999999666e+01 1.340345000000000084e+02 2.083779999999999745e+03
8.899999999999999578e-02 1.803624999999999812e-01 3.472339999999999804e+01 1.374289999999999736e+02 2.084869999999999891e+03
8.999999999999999667e-02 1.804919999999999858e-01 3.542619999999999436e+01 1.406750000000000114e+02 2.085940000000000055e+03
9.099999999999999756e-02 1.806154999999999844e-01 3.603945000000000221e+01 1.436875000000000000e+02 2.086965000000000146e+03
9.199999999999999845e-02 1.807305000000000161e-01 3.653385000000000105e+01 1.463870000000000005e+02 2.087920000000000073e+03
9.299999999999999933e-02 1.808345000000000091e-01 3.688330000000000553e+01 1.487094999999999914e+02 2.088789999999999964e+03
9.400000000000000022e-02 1.809244999999999881e-01 3.706619999999999493e+01 1.506039999999999850e+02 2.089550000000000182e+03
9.500000000000000111e-02 1.809990000000000210e-01 3.706705000000000183e+01 1.520389999999999873e+02 2.090175000000000182e+03
9.600000000000000200e-02 1.810574999999999823e-01 3.687685000000000457e+01 1.529979999999999905e+02 2.090670000000000073e+03
9.700000000000000289e-02 1.810990000000000100e-01 3.649380000000000024e+01 1.534850000000000136e+02 2.091030000000000200e+03
9.800000000000000377e-02 1.811234999999999928e-01 3.592295000000000016e+01 1.535205000000000268e+02 2.091250000000000000e+03
9.900000000000000466e-02 1.811309999999999865e-01 3.517614999999999981e+01 1.531399999999999864e+02 2.091324999999999818e+03
1.000000000000000056e-01 1.811234999999999928e-01 3.427114999999999867e+01 1.523905000000000030e+02 2.091279999999999745e+03
1.010000000000000064e-01 1.811030000000000140e-01 3.323045000000000471e+01 1.513310000000000173e+02 2.091119999999999891e+03
1.020000000000000073e-01 1.810704999999999953e-01 3.208039999999999736e+01 1.500255000000000223e+02 2.090864999999999782e+03
1.030000000000000082e-01 1.810285000000000089e-01 3.084980000000000189e+01 1.485414999999999850e+02 2.090529999999999745e+03
1.040000000000000091e-01 1.809790000000000010e-01 2.956840000000000046e+01 1.469479999999999791e+02 2.090130000000000109e+03
1.050000000000000100e-01 1.809255000000000169e-01 2.826595000000000013e+01 1.453089999999999975e+02 2.089694999999999709e+03
1.059999999999999970e-01 1.808695000000000164e-01 2.697054999999999936e+01 1.436854999999999905e+02 2.089235000000000127e+03
1.069999999999999979e-01 1.808130000000000015e-01 2.570799999999999841e+01 1.421299999999999955e+02 2.088765000000000327e+03
1.079999999999999988e-01 1.807579999999999742e-01 2.450055000000000049e+01 1.406859999999999786e+02 2.088314999999999600e+03
1.089999999999999997e-01 1.807064999999999921e-01 2.336615000000000109e+01 1.393865000000000123e+02 2.087885000000000218e+03
1.100000000000000006e-01 1.806595000000000006e-01 2.231810000000000116e+01 1.382539999999999907e+02 2.087489999999999782e+03
1.110000000000000014e-01 1.806174999999999864e-01 2.136444999999999794e+01 1.372969999999999970e+02 2.087140000000000327e+03
1.120000000000000023e-01 1.805815000000000059e-01 2.050809999999999889e+01 1.365155000000000030e+02 2.086829999999999927e+03
1.130000000000000032e-01 1.805510000000000170e-01 1.974680000000000035e+01 1.358954999999999984e+02 2.086574999999999818e+03
1.140000000000000041e-01 1.805255000000000054e-01 1.907355000000000089e+01 1.354149999999999920e+02 2.086359999999999673e+03
1.150000000000000050e-01 1.805049999999999988e-01 1.847710000000000008e+01 1.350414999999999850e+02 2.086175000000000182e+03
1.160000000000000059e-01 1.804874999999999952e-01 1.794290000000000163e+01 1.347375000000000114e+02 2.086029999999999745e+03
1.170000000000000068e-01 1.804729999999999945e-01 1.745374999999999943e+01 1.344599999999999795e+02 2.085900000000000091e+03
1.180000000000000077e-01 1.804590000000000083e-01 1.699115000000000109e+01 1.341649999999999920e+02 2.085779999999999745e+03
1.190000000000000085e-01 1.804445000000000077e-01 1.653590000000000160e+01 1.338079999999999927e+02 2.085650000000000091e+03
1.200000000000000094e-01 1.804274999999999907e-01 1.606985000000000241e+01 1.333494999999999777e+02 2.085505000000000109e+03
1.209999999999999964e-01 1.804069999999999840e-01 1.557629999999999981e+01 1.327535000000000025e+02 2.085340000000000146e+03
1.219999999999999973e-01 1.803815000000000002e-01 1.504129999999999967e+01 1.319920000000000186e+02 2.085130000000000109e+03
1.229999999999999982e-01 1.803509999999999835e-01 1.445434999999999981e+01 1.310480000000000018e+02 2.084869999999999891e+03
1.239999999999999991e-01 1.803135000000000154e-01 1.380900000000000105e+01 1.299120000000000061e+02 2.084569999999999709e+03
1.250000000000000000e-01 1.802694999999999992e-01 1.310320000000000107e+01 1.285880000000000223e+02 2.084204999999999927e+03
1.260000000000000009e-01 1.802195000000000047e-01 1.233950000000000102e+01 1.270895000000000010e+02 2.083795000000000073e+03
1.270000000000000018e-01 1.801625000000000032e-01 1.152465000000000117e+01 1.254399999999999977e+02 2.083335000000000036e+03
1.280000000000000027e-01 1.801010000000000111e-01 1.066954499999999939e+01 1.236730000000000018e+02 2.082829999999999927e+03
1.290000000000000036e-01 1.800350000000000006e-01 9.788154999999999717e+00 1.218280000000000030e+02 2.082289999999999964e+03
1.300000000000000044e-01 1.799665000000000015e-01 8.897124999999999062e+00 1.199489999999999981e+02 2.081724999999999909e+03
1.310000000000000053e-01 1.798965000000000147e-01 8.014610000000001122e+00 1.180835000000000008e+02 2.081150000000000091e+03
1.320000000000000062e-01 1.798275000000000012e-01 7.159354999999999691e+00 1.162770000000000010e+02 2.080579999999999927e+03
1.330000000000000071e-01 1.797594999999999887e-01 6.349584999999999368e+00 1.145740000000000123e+02 2.080024999999999636e+03
1.340000000000000080e-01 1.796955000000000080e-01 5.602254999999999541e+00 1.130134999999999934e+02 2.079494999999999891e+03
1.350000000000000089e-01 1.796365000000000045e-01 4.932125000000000092e+00 1.116285000000000025e+02 2.079010000000000218e+03
1.360000000000000098e-01 1.795840000000000214e-01 4.351124999999999687e+00 1.104435000000000002e+02 2.078565000000000055e+03
1.370000000000000107e-01 1.795380000000000031e-01 3.867865000000000109e+00 1.094759999999999991e+02 2.078184999999999945e+03
1.380000000000000115e-01 1.794994999999999785e-01 3.487359999999999793e+00 1.087314999999999969e+02 2.077864999999999782e+03
1.390000000000000124e-01 1.794695000000000040e-01 3.210919999999999774e+00 1.082100000000000080e+02 2.077605000000000018e+03
1.400000000000000133e-01 1.794469999999999954e-01 3.036259999999999959e+00 1.079009999999999962e+02 2.077414999999999964e+03
1.410000000000000142e-01 1.794324999999999948e-01 2.957755000000000134e+00 1.077874999999999943e+02 2.077284999999999854e+03
1.420000000000000151e-01 1.794240000000000002e-01 2.966840000000000366e+00 1.078470000000000084e+02 2.077210000000000036e+03
1.430000000000000160e-01 1.794229999999999992e-01 3.052509999999999835e+00 1.080500000000000114e+02 2.077195000000000164e+03
1.440000000000000169e-01 1.794270000000000032e-01 3.201905000000000001e+00 1.083670000000000044e+02 2.077220000000000255e+03
1.450000000000000178e-01 1.794350000000000112e-01 3.400910000000000100e+00 1.087644999999999982e+02 2.077274999999999636e+03
1.459999999999999909e-01 1.794465000000000088e-01 3.634794999999999998e+00 1.092095000000000056e+02 2.077364999999999782e+03
1.469999999999999918e-01 1.794600000000000084e-01 3.888779999999999681e+00 1.096705000000000041e+02 2.077469999999999800e+03
1.479999999999999927e-01 1.794739999999999946e-01 4.148609999999999687e+00 1.101165000000000020e+02 2.077585000000000036e+03
1.489999999999999936e-01 1.794884999999999953e-01 4.401054999999999495e+00 1.105224999999999937e+02 2.077694999999999709e+03
1.499999999999999944e-01 1.795014999999999805e-01 4.634309999999999263e+00 1.108640000000000043e+02 2.077805000000000291e+03
1.509999999999999953e-01 1.795125000000000193e-01 4.838350000000000151e+00 1.111250000000000000e+02 2.077894999999999982e+03
1.519999999999999962e-01 1.795209999999999861e-01 5.005205000000000126e+00 1.112909999999999968e+02 2.077965000000000146e+03
1.529999999999999971e-01 1.795264999999999778e-01 5.129105000000000025e+00 1.113534999999999968e+02 2.078010000000000218e+03
1.539999999999999980e-01 1.795284999999999798e-01 5.206585000000000463e+00 1.113100000000000023e+02 2.078029999999999745e+03
1.549999999999999989e-01 1.795269999999999921e-01 5.236419999999999852e+00 1.111620000000000061e+02 2.078019999999999982e+03
1.559999999999999998e-01 1.795215000000000005e-01 5.219570000000000043e+00 1.109159999999999968e+02 2.077980000000000018e+03
1.570000000000000007e-01 1.795129999999999781e-01 5.158934999999999604e+00 1.105810000000000031e+02 2.077909999999999854e+03
1.580000000000000016e-01 1.795014999999999805e-01 5.059090000000000309e+00 1.101715000000000089e+02 2.077815000000000055e+03
1.590000000000000024e-01 1.794870000000000076e-01 4.925969999999999516e+00 1.097015000000000100e+02 2.077699999999999818e+03
