# t [s], A [cm^2], U [cm/s], P [cPa], c [cm/s]
1.000000000000000021e-03 1.440839999999999899e-01 3.032424999999999704e-01 9.298439999999999372e+01 1.876534999999999854e+03
2.000000000000000042e-03 1.440585000000000060e-01 1.747119000000000089e+00 9.009135000000000559e+01 1.876244999999999891e+03
3.000000000000000062e-03 1.439684999999999993e-01 3.506006999999999874e+00 8.629749999999999943e+01 1.875295000000000073e+03
4.000000000000000083e-03 1.438360000000000194e-01 5.454171500000000172e+00 8.211730000000000018e+01 1.873909999999999854e+03
5.000000000000000104e-03 1.436839999999999784e-01 7.541370000000000573e+00 7.824184999999999945e+01 1.872335000000000036e+03
6.000000000000000125e-03 1.435305000000000053e-01 9.658360000000000056e+00 7.499684999999999491e+01 1.870764999999999873e+03
7.000000000000000146e-03 1.433834999999999971e-01 1.164706499999999956e+01 7.230070000000000618e+01 1.869269999999999982e+03
8.000000000000000167e-03 1.432444999999999968e-01 1.339813499999999991e+01 6.993139999999999645e+01 1.867889999999999873e+03
9.000000000000001055e-03 1.431169999999999942e-01 1.490183000000000035e+01 6.781344999999998890e+01 1.866630000000000109e+03
1.000000000000000194e-02 1.430040000000000200e-01 1.618925000000000125e+01 6.599590000000000600e+01 1.865535000000000082e+03
1.099999999999999936e-02 1.429060000000000052e-01 1.727830000000000155e+01 6.449915000000000020e+01 1.864590000000000146e+03
1.200000000000000025e-02 1.428234999999999921e-01 1.817699999999999960e+01 6.328919999999999391e+01 1.863809999999999945e+03
1.300000000000000114e-02 1.427549999999999930e-01 1.889249999999999829e+01 6.231315000000000026e+01 1.863164999999999964e+03
1.400000000000000203e-02 1.426979999999999915e-01 1.942895000000000039e+01 6.150450000000000728e+01 1.862634999999999991e+03
1.499999999999999944e-02 1.426505000000000134e-01 1.979694999999999894e+01 6.079675000000000296e+01 1.862199999999999818e+03
1.600000000000000033e-02 1.426100000000000145e-01 2.003600000000000136e+01 6.018254999999999910e+01 1.861845000000000027e+03
1.700000000000000122e-02 1.425784999999999969e-01 2.022449999999999903e+01 5.976555000000000462e+01 1.861565000000000055e+03
1.800000000000000211e-02 1.425599999999999923e-01 2.046049999999999969e+01 5.974065000000000225e+01 1.861410000000000082e+03
1.900000000000000300e-02 1.425589999999999913e-01 2.082265000000000299e+01 6.030084999999999695e+01 1.861409999999999854e+03
2.000000000000000042e-02 1.425790000000000113e-01 2.133624999999999972e+01 6.152750000000000341e+01 1.861615000000000009e+03
2.100000000000000130e-02 1.426195000000000102e-01 2.196215000000000117e+01 6.332849999999999824e+01 1.862014999999999873e+03
2.200000000000000219e-02 1.426769999999999983e-01 2.261135000000000161e+01 6.545114999999999839e+01 1.862565000000000055e+03
2.299999999999999961e-02 1.427424999999999944e-01 2.317575000000000074e+01 6.755670000000000641e+01 1.863204999999999927e+03
2.400000000000000050e-02 1.428065000000000029e-01 2.356190000000000140e+01 6.931895000000000095e+01 1.863835000000000036e+03
2.500000000000000139e-02 1.428610000000000158e-01 2.371484999999999843e+01 7.051089999999999236e+01 1.864384999999999991e+03
2.600000000000000228e-02 1.429020000000000012e-01 2.362839999999999918e+01 7.105205000000000837e+01 1.864799999999999955e+03
2.700000000000000316e-02 1.429254999999999831e-01 2.333859999999999957e+01 7.100740000000000407e+01 1.865054999999999836e+03
2.800000000000000058e-02 1.429340000000000055e-01 2.290700000000000003e+01 7.054574999999999818e+01 1.865159999999999854e+03
2.900000000000000147e-02 1.429320000000000035e-01 2.239920000000000044e+01 6.987520000000000664e+01 1.865150000000000091e+03
3.000000000000000236e-02 1.429225000000000079e-01 2.186650000000000205e+01 6.917934999999999945e+01 1.865070000000000164e+03
3.099999999999999978e-02 1.429104999999999959e-01 2.133574999999999733e+01 6.857255000000000678e+01 1.864965000000000146e+03
3.200000000000000067e-02 1.428984999999999839e-01 2.080819999999999936e+01 6.808484999999998877e+01 1.864849999999999909e+03
3.300000000000000155e-02 1.428860000000000130e-01 2.026679999999999993e+01 6.767404999999999404e+01 1.864735000000000127e+03
3.400000000000000244e-02 1.428740000000000010e-01 1.968775000000000119e+01 6.725784999999999059e+01 1.864615000000000009e+03
3.500000000000000333e-02 1.428595000000000004e-01 1.905284999999999940e+01 6.675294999999999845e+01 1.864480000000000018e+03
3.600000000000000422e-02 1.428409999999999958e-01 1.835934999999999917e+01 6.611015000000000441e+01 1.864309999999999945e+03
3.700000000000000511e-02 1.428185000000000149e-01 1.762464999999999904e+01 6.533664999999999168e+01 1.864095000000000027e+03
3.799999999999999906e-02 1.427924999999999889e-01 1.688519999999999754e+01 6.450055000000000405e+01 1.863849999999999909e+03
3.899999999999999994e-02 1.427660000000000040e-01 1.619040000000000035e+01 6.371784999999999854e+01 1.863599999999999909e+03
4.000000000000000083e-02 1.427420000000000078e-01 1.559179999999999922e+01 6.312519999999999953e+01 1.863365000000000009e+03
4.100000000000000172e-02 1.427244999999999764e-01 1.513285000000000124e+01 6.284789999999999566e+01 1.863195000000000164e+03
4.200000000000000261e-02 1.427169999999999828e-01 1.483919999999999995e+01 6.296954999999999814e+01 1.863115000000000009e+03
4.300000000000000350e-02 1.427209999999999868e-01 1.471379999999999910e+01 6.351169999999999760e+01 1.863139999999999873e+03
4.400000000000000439e-02 1.427374999999999894e-01 1.473559999999999981e+01 6.442749999999999488e+01 1.863295000000000073e+03
4.499999999999999833e-02 1.427650000000000030e-01 1.486359999999999992e+01 6.560909999999999798e+01 1.863549999999999955e+03
4.599999999999999922e-02 1.428000000000000103e-01 1.504349999999999987e+01 6.690614999999999668e+01 1.863880000000000109e+03
4.700000000000000011e-02 1.428389999999999938e-01 1.521584999999999965e+01 6.814985000000000070e+01 1.864244999999999891e+03
4.800000000000000100e-02 1.428770000000000040e-01 1.532394999999999996e+01 6.917830000000000723e+01 1.864605000000000018e+03
4.900000000000000189e-02 1.429080000000000072e-01 1.532010000000000005e+01 6.985724999999999341e+01 1.864909999999999854e+03
5.000000000000000278e-02 1.429294999999999871e-01 1.516995000000000005e+01 7.009380000000000166e+01 1.865119999999999891e+03
5.100000000000000366e-02 1.429385000000000239e-01 1.485405000000000086e+01 6.984239999999999782e+01 1.865210000000000036e+03
5.200000000000000455e-02 1.429320000000000035e-01 1.436720000000000041e+01 6.910304999999999609e+01 1.865160000000000082e+03
5.300000000000000544e-02 1.429110000000000102e-01 1.371644999999999825e+01 6.791339999999999577e+01 1.864960000000000036e+03
5.399999999999999939e-02 1.428754999999999886e-01 1.291784999999999961e+01 6.633809999999999718e+01 1.864625000000000000e+03
5.500000000000000028e-02 1.428264999999999951e-01 1.199377000000000137e+01 6.445689999999999031e+01 1.864159999999999854e+03
5.600000000000000117e-02 1.427665000000000184e-01 1.096992499999999993e+01 6.235495000000000232e+01 1.863585000000000036e+03
5.700000000000000205e-02 1.426979999999999915e-01 9.873689999999999856e+00 6.011540000000000106e+01 1.862930000000000064e+03
5.800000000000000294e-02 1.426235000000000142e-01 8.733069999999999666e+00 5.781535000000000224e+01 1.862210000000000036e+03
5.900000000000000383e-02 1.425450000000000050e-01 7.576119999999999521e+00 5.552469999999999573e+01 1.861460000000000036e+03
6.000000000000000472e-02 1.424654999999999949e-01 6.431244999999999656e+00 5.330715000000000003e+01 1.860690000000000055e+03
6.099999999999999867e-02 1.423864999999999992e-01 5.327090000000000103e+00 5.122194999999999965e+01 1.859924999999999955e+03
6.199999999999999956e-02 1.423115000000000074e-01 4.292799999999999727e+00 4.932635000000000502e+01 1.859194999999999936e+03
6.300000000000000044e-02 1.422414999999999929e-01 3.357709500000000347e+00 4.767605000000000359e+01 1.858519999999999982e+03
6.400000000000000133e-02 1.421789999999999998e-01 2.550752999999999826e+00 4.632595000000000596e+01 1.857909999999999854e+03
6.500000000000000222e-02 1.421264999999999890e-01 1.899548000000000014e+00 4.532854999999999990e+01 1.857394999999999982e+03
6.600000000000000311e-02 1.420855000000000035e-01 1.429217499999999808e+00 4.473194999999999766e+01 1.856990000000000009e+03
6.700000000000000400e-02 1.420580000000000176e-01 1.161074500000000009e+00 4.457675000000000409e+01 1.856710000000000036e+03
6.800000000000000488e-02 1.420450000000000046e-01 1.111453500000000094e+00 4.489324999999999477e+01 1.856570000000000164e+03
6.900000000000000577e-02 1.420480000000000076e-01 1.290659000000000001e+00 4.569894999999999641e+01 1.856585000000000036e+03
7.000000000000000666e-02 1.420684999999999865e-01 1.702331000000000039e+00 4.699649999999999750e+01 1.856764999999999873e+03
7.100000000000000755e-02 1.421054999999999957e-01 2.343173000000000172e+00 4.877299999999999613e+01 1.857110000000000127e+03
7.200000000000000844e-02 1.421600000000000086e-01 3.203110000000000124e+00 5.100054999999999694e+01 1.857619999999999891e+03
7.300000000000000933e-02 1.422304999999999819e-01 4.265884999999999927e+00 5.363764999999999361e+01 1.858280000000000200e+03
7.399999999999999634e-02 1.423165000000000124e-01 5.509930000000000661e+00 5.663150000000000261e+01 1.859090000000000146e+03
7.499999999999999722e-02 1.424150000000000138e-01 6.909504999999999342e+00 5.992109999999999559e+01 1.860035000000000082e+03
7.599999999999999811e-02 1.425259999999999860e-01 8.436035000000000394e+00 6.344069999999999254e+01 1.861090000000000146e+03
7.699999999999999900e-02 1.426459999999999950e-01 1.005939000000000050e+01 6.712319999999999709e+01 1.862240000000000009e+03
7.799999999999999989e-02 1.427729999999999833e-01 1.174929999999999986e+01 7.090350000000000819e+01 1.863465000000000146e+03
7.900000000000000078e-02 1.429059999999999775e-01 1.347656000000000098e+01 7.472159999999999513e+01 1.864750000000000000e+03
8.000000000000000167e-02 1.430409999999999737e-01 1.521420000000000172e+01 7.852479999999999905e+01 1.866065000000000055e+03
8.100000000000000255e-02 1.431775000000000131e-01 1.693840000000000146e+01 8.226990000000000691e+01 1.867394999999999982e+03
8.200000000000000344e-02 1.433139999999999969e-01 1.862894999999999968e+01 8.592429999999998813e+01 1.868720000000000027e+03
8.300000000000000433e-02 1.434484999999999788e-01 2.026999999999999957e+01 8.946620000000000061e+01 1.870045000000000073e+03
8.400000000000000522e-02 1.435810000000000142e-01 2.185000000000000142e+01 9.288474999999999682e+01 1.871340000000000146e+03
8.500000000000000611e-02 1.437100000000000044e-01 2.336164999999999736e+01 9.617855000000000132e+01 1.872610000000000127e+03
8.600000000000000699e-02 1.438359999999999916e-01 2.480134999999999934e+01 9.935550000000000637e+01 1.873849999999999909e+03
8.700000000000000788e-02 1.439584999999999892e-01 2.616894999999999882e+01 1.024277000000000015e+02 1.875065000000000055e+03
8.800000000000000877e-02 1.440770000000000106e-01 2.746679999999999922e+01 1.054142500000000098e+02 1.876240000000000009e+03
8.899999999999999578e-02 1.441939999999999888e-01 2.869904999999999973e+01 1.083344999999999914e+02 1.877400000000000091e+03
8.999999999999999667e-02 1.443079999999999918e-01 2.987105000000000032e+01 1.112069999999999936e+02 1.878534999999999854e+03
9.099999999999999756e-02 1.444205000000000072e-01 3.098805000000000121e+01 1.140504999999999995e+02 1.879659999999999854e+03
9.199999999999999845e-02 1.445319999999999938e-01 3.205525000000000091e+01 1.168780000000000001e+02 1.880769999999999982e+03
9.299999999999999933e-02 1.446425000000000072e-01 3.307679999999999865e+01 1.196980000000000075e+02 1.881869999999999891e+03
9.400000000000000022e-02 1.447529999999999928e-01 3.405530000000000257e+01 1.225155000000000030e+02 1.882974999999999909e+03
9.500000000000000111e-02 1.448629999999999918e-01 3.499200000000000443e+01 1.253269999999999982e+02 1.884069999999999936e+03
9.600000000000000200e-02 1.449719999999999898e-01 3.588629999999999853e+01 1.281264999999999930e+02 1.885164999999999964e+03
9.700000000000000289e-02 1.450810000000000155e-01 3.673590000000000089e+01 1.309010000000000105e+02 1.886255000000000109e+03
9.800000000000000377e-02 1.451884999999999981e-01 3.753685000000000116e+01 1.336340000000000146e+02 1.887335000000000036e+03
9.900000000000000466e-02 1.452944999999999931e-01 3.828400000000000603e+01 1.363064999999999998e+02 1.888400000000000091e+03
1.000000000000000056e-01 1.453984999999999861e-01 3.897109999999999985e+01 1.388950000000000102e+02 1.889444999999999936e+03
1.010000000000000064e-01 1.454995000000000038e-01 3.959105000000000274e+01 1.413790000000000191e+02 1.890460000000000036e+03
1.020000000000000073e-01 1.455964999999999898e-01 4.013665000000000305e+01 1.437344999999999970e+02 1.891444999999999936e+03
1.030000000000000082e-01 1.456894999999999996e-01 4.060049999999999670e+01 1.459390000000000214e+02 1.892380000000000109e+03
1.040000000000000091e-01 1.457775000000000043e-01 4.097565000000000168e+01 1.479724999999999966e+02 1.893264999999999873e+03
1.050000000000000100e-01 1.458595000000000030e-01 4.125584999999999525e+01 1.498174999999999955e+02 1.894090000000000146e+03
1.059999999999999970e-01 1.459345000000000225e-01 4.143585000000000207e+01 1.514585000000000150e+02 1.894860000000000127e+03
1.069999999999999979e-01 1.460025000000000073e-01 4.151165000000000305e+01 1.528845000000000027e+02 1.895549999999999955e+03
1.079999999999999988e-01 1.460635000000000128e-01 4.148080000000000211e+01 1.540880000000000223e+02 1.896170000000000073e+03
1.089999999999999997e-01 1.461159999999999959e-01 4.134250000000000114e+01 1.550654999999999859e+02 1.896710000000000036e+03
1.100000000000000006e-01 1.461600000000000121e-01 4.109780000000000655e+01 1.558195000000000050e+02 1.897170000000000073e+03
1.110000000000000014e-01 1.461970000000000214e-01 4.074960000000000093e+01 1.563530000000000086e+02 1.897539999999999964e+03
1.120000000000000023e-01 1.462249999999999939e-01 4.030264999999999986e+01 1.566775000000000091e+02 1.897840000000000146e+03
1.130000000000000032e-01 1.462459999999999871e-01 3.976355000000000217e+01 1.568064999999999998e+02 1.898054999999999836e+03
1.140000000000000041e-01 1.462590000000000001e-01 3.914029999999999632e+01 1.567554999999999836e+02 1.898204999999999927e+03
1.150000000000000050e-01 1.462660000000000071e-01 3.844245000000000090e+01 1.565455000000000041e+02 1.898279999999999973e+03
1.160000000000000059e-01 1.462660000000000071e-01 3.768059999999999832e+01 1.561980000000000075e+02 1.898289999999999964e+03
1.170000000000000068e-01 1.462605000000000155e-01 3.686599999999999966e+01 1.557350000000000136e+02 1.898250000000000000e+03
1.180000000000000077e-01 1.462510000000000199e-01 3.601030000000000086e+01 1.551814999999999998e+02 1.898159999999999854e+03
1.190000000000000085e-01 1.462370000000000059e-01 3.512519999999999953e+01 1.545595000000000141e+02 1.898025000000000091e+03
1.200000000000000094e-01 1.462200000000000166e-01 3.422194999999999965e+01 1.538905000000000030e+02 1.897860000000000127e+03
1.209999999999999964e-01 1.462005000000000110e-01 3.331109999999999616e+01 1.531954999999999814e+02 1.897664999999999964e+03
1.219999999999999973e-01 1.461795000000000178e-01 3.240234999999999843e+01 1.524909999999999854e+02 1.897454999999999927e+03
1.229999999999999982e-01 1.461569999999999814e-01 3.150390000000000157e+01 1.517919999999999732e+02 1.897235000000000127e+03
1.239999999999999991e-01 1.461345000000000005e-01 3.062274999999999636e+01 1.511089999999999804e+02 1.897005000000000109e+03
1.250000000000000000e-01 1.461115000000000053e-01 2.976420000000000243e+01 1.504495000000000005e+02 1.896775000000000091e+03
1.260000000000000009e-01 1.460889999999999966e-01 2.893200000000000216e+01 1.498179999999999836e+02 1.896550000000000182e+03
1.270000000000000018e-01 1.460664999999999880e-01 2.812819999999999965e+01 1.492144999999999868e+02 1.896320000000000164e+03
1.280000000000000027e-01 1.460445000000000215e-01 2.735334999999999894e+01 1.486374999999999886e+02 1.896099999999999909e+03
1.290000000000000036e-01 1.460235000000000005e-01 2.660650000000000048e+01 1.480815000000000055e+02 1.895885000000000218e+03
1.300000000000000044e-01 1.460024999999999795e-01 2.588544999999999874e+01 1.475384999999999991e+02 1.895675000000000182e+03
1.310000000000000053e-01 1.459820000000000007e-01 2.518690000000000140e+01 1.469995000000000118e+02 1.895465000000000146e+03
1.320000000000000062e-01 1.459614999999999940e-01 2.450679999999999836e+01 1.464540000000000077e+02 1.895255000000000109e+03
1.330000000000000071e-01 1.459405000000000008e-01 2.384035000000000082e+01 1.458905000000000030e+02 1.895039999999999964e+03
1.340000000000000080e-01 1.459185000000000065e-01 2.318260000000000076e+01 1.452975000000000136e+02 1.894825000000000045e+03
1.350000000000000089e-01 1.458959999999999979e-01 2.252824999999999989e+01 1.446644999999999754e+02 1.894589999999999918e+03
1.360000000000000098e-01 1.458720000000000017e-01 2.187259999999999849e+01 1.439809999999999945e+02 1.894349999999999909e+03
1.370000000000000107e-01 1.458464999999999900e-01 2.121105000000000018e+01 1.432390000000000043e+02 1.894085000000000036e+03
1.380000000000000115e-01 1.458189999999999764e-01 2.053974999999999795e+01 1.424309999999999832e+02 1.893809999999999945e+03
1.390000000000000124e-01 1.457890000000000019e-01 1.985575000000000045e+01 1.415534999999999854e+02 1.893509999999999991e+03
1.400000000000000133e-01 1.457565000000000111e-01 1.915704999999999814e+01 1.406045000000000016e+02 1.893184999999999945e+03
1.410000000000000142e-01 1.457220000000000182e-01 1.844274999999999665e+01 1.395844999999999914e+02 1.892835000000000036e+03
1.420000000000000151e-01 1.456839999999999802e-01 1.771320000000000050e+01 1.384964999999999975e+02 1.892460000000000036e+03
1.430000000000000160e-01 1.456445000000000101e-01 1.696989999999999910e+01 1.373469999999999800e+02 1.892065000000000055e+03
1.440000000000000169e-01 1.456030000000000102e-01 1.621545000000000059e+01 1.361449999999999818e+02 1.891644999999999982e+03
1.450000000000000178e-01 1.455589999999999939e-01 1.545354999999999990e+01 1.349005000000000223e+02 1.891204999999999927e+03
1.459999999999999909e-01 1.455135000000000178e-01 1.468900000000000006e+01 1.336260000000000048e+02 1.890755000000000109e+03
1.469999999999999918e-01 1.454670000000000130e-01 1.392729999999999890e+01 1.323354999999999961e+02 1.890284999999999854e+03
1.479999999999999927e-01 1.454195000000000071e-01 1.317440000000000033e+01 1.310450000000000159e+02 1.889809999999999945e+03
1.489999999999999936e-01 1.453714999999999868e-01 1.243669999999999831e+01 1.297700000000000102e+02 1.889335000000000036e+03
1.499999999999999944e-01 1.453240000000000087e-01 1.172081499999999998e+01 1.285250000000000057e+02 1.888860000000000127e+03
1.509999999999999953e-01 1.452775000000000039e-01 1.103306500000000057e+01 1.273245000000000005e+02 1.888394999999999982e+03
1.519999999999999962e-01 1.452324999999999866e-01 1.037950000000000017e+01 1.261825000000000045e+02 1.887940000000000055e+03
1.529999999999999971e-01 1.451884999999999981e-01 9.765555000000000874e+00 1.251105000000000018e+02 1.887500000000000000e+03
1.539999999999999980e-01 1.451474999999999849e-01 9.195954999999999657e+00 1.241189999999999998e+02 1.887089999999999918e+03
1.549999999999999989e-01 1.451085000000000014e-01 8.674509999999999721e+00 1.232145000000000010e+02 1.886700000000000045e+03
1.559999999999999998e-01 1.450730000000000075e-01 8.203905000000000669e+00 1.224025000000000034e+02 1.886335000000000036e+03
1.570000000000000007e-01 1.450394999999999879e-01 7.785914999999999253e+00 1.216854999999999905e+02 1.886005000000000109e+03
1.580000000000000016e-01 1.450104999999999866e-01 7.421154999999999724e+00 1.210639999999999930e+02 1.885704999999999927e+03
1.590000000000000024e-01 1.449840000000000018e-01 7.109194999999999709e+00 1.205360000000000014e+02 1.885440000000000055e+03
