# t [s], A [cm^2], U [cm/s], P [cPa], c [cm/s]
1.000000000000000021e-03 2.102310000000000012e-01 2.997244499999999756e-01 8.805065000000000452e+01 2.231409999999999854e+03
2.000000000000000042e-03 2.101644999999999763e-01 1.733862500000000084e+00 8.463179999999999836e+01 2.230880000000000109e+03
3.000000000000000062e-03 2.100084999999999869e-01 3.528270499999999643e+00 7.976904999999999291e+01 2.229659999999999854e+03
4.000000000000000083e-03 2.098079999999999945e-01 5.583083499999999866e+00 7.465274999999999750e+01 2.228114999999999782e+03
5.000000000000000104e-03 2.096069999999999878e-01 7.797369999999999912e+00 7.031719999999999970e+01 2.226574999999999818e+03
6.000000000000000125e-03 2.094209999999999960e-01 9.900009999999999977e+00 6.685790000000000077e+01 2.225179999999999836e+03
7.000000000000000146e-03 2.092490000000000183e-01 1.164485000000000170e+01 6.379119999999999635e+01 2.223920000000000073e+03
8.000000000000000167e-03 2.090974999999999917e-01 1.303775500000000065e+01 6.103520000000000323e+01 2.222829999999999927e+03
9.000000000000001055e-03 2.089710000000000178e-01 1.415050000000000097e+01 5.877644999999999698e+01 2.221930000000000291e+03
1.000000000000000194e-02 2.088694999999999857e-01 1.500929999999999964e+01 5.702915000000000134e+01 2.221220000000000255e+03
1.099999999999999936e-02 2.087924999999999920e-01 1.564515000000000100e+01 5.574089999999999634e+01 2.220684999999999945e+03
1.200000000000000025e-02 2.087350000000000039e-01 1.607025000000000148e+01 5.480745000000000289e+01 2.220295000000000073e+03
1.300000000000000114e-02 2.086890000000000134e-01 1.627714999999999890e+01 5.402264999999999873e+01 2.219994999999999891e+03
1.400000000000000203e-02 2.086514999999999898e-01 1.633899999999999864e+01 5.333275000000000432e+01 2.219750000000000000e+03
1.499999999999999944e-02 2.086310000000000109e-01 1.646294999999999931e+01 5.311195000000000022e+01 2.219619999999999891e+03
1.600000000000000033e-02 2.086454999999999838e-01 1.688765000000000072e+01 5.400325000000000131e+01 2.219729999999999563e+03
1.700000000000000122e-02 2.087090000000000056e-01 1.771410000000000196e+01 5.640765000000000384e+01 2.220175000000000182e+03
1.800000000000000211e-02 2.088185000000000180e-01 1.881725000000000136e+01 6.007739999999999725e+01 2.220949999999999818e+03
1.900000000000000300e-02 2.089524999999999855e-01 1.989789999999999992e+01 6.412274999999999636e+01 2.221904999999999745e+03
2.000000000000000042e-02 2.090770000000000128e-01 2.062484999999999857e+01 6.739545000000001096e+01 2.222824999999999818e+03
2.100000000000000130e-02 2.091625000000000012e-01 2.078289999999999793e+01 6.899530000000000030e+01 2.223470000000000255e+03
2.200000000000000219e-02 2.091899999999999871e-01 2.035369999999999990e+01 6.863534999999998831e+01 2.223715000000000146e+03
2.299999999999999961e-02 2.091629999999999878e-01 1.950184999999999746e+01 6.670474999999999000e+01 2.223559999999999945e+03
2.400000000000000050e-02 2.091004999999999947e-01 1.848344999999999771e+01 6.403239999999999554e+01 2.223125000000000000e+03
2.500000000000000139e-02 2.090255000000000030e-01 1.752969999999999828e+01 6.149454999999999671e+01 2.222595000000000255e+03
2.600000000000000228e-02 2.089595000000000202e-01 1.676130000000000209e+01 5.966365000000000407e+01 2.222114999999999782e+03
2.700000000000000316e-02 2.089125000000000010e-01 1.616375000000000028e+01 5.864244999999999663e+01 2.221760000000000218e+03
2.800000000000000058e-02 2.088804999999999967e-01 1.562214999999999954e+01 5.811509999999999820e+01 2.221515000000000327e+03
2.900000000000000147e-02 2.088524999999999965e-01 1.499019999999999975e+01 5.755624999999999858e+01 2.221315000000000055e+03
3.000000000000000236e-02 2.088139999999999996e-01 1.416435000000000066e+01 5.649499999999999744e+01 2.221045000000000073e+03
3.099999999999999978e-02 2.087569999999999981e-01 1.313705000000000034e+01 5.473560000000000514e+01 2.220644999999999982e+03
3.200000000000000067e-02 2.086814999999999920e-01 1.201084499999999977e+01 5.245810000000000173e+01 2.220110000000000127e+03
3.300000000000000155e-02 2.086010000000000086e-01 1.096856499999999990e+01 5.016729999999999734e+01 2.219525000000000091e+03
3.400000000000000244e-02 2.085314999999999808e-01 1.021142500000000020e+01 4.851120000000000232e+01 2.219019999999999982e+03
3.500000000000000333e-02 2.084934999999999983e-01 9.890435000000000088e+00 4.804619999999999891e+01 2.218719999999999800e+03
3.600000000000000422e-02 2.084995000000000043e-01 1.005672999999999995e+01 4.903999999999999915e+01 2.218734999999999673e+03
3.700000000000000511e-02 2.085515000000000008e-01 1.064598999999999940e+01 5.138045000000000329e+01 2.219079999999999927e+03
3.799999999999999906e-02 2.086415000000000075e-01 1.149779999999999980e+01 5.460734999999999673e+01 2.219699999999999818e+03
3.899999999999999994e-02 2.087510000000000199e-01 1.239734999999999943e+01 5.804039999999999822e+01 2.220474999999999909e+03
4.000000000000000083e-02 2.088570000000000149e-01 1.312535000000000096e+01 6.095024999999999693e+01 2.221239999999999782e+03
4.100000000000000172e-02 2.089384999999999992e-01 1.350099999999999945e+01 6.271970000000000312e+01 2.221845000000000255e+03
4.200000000000000261e-02 2.089769999999999961e-01 1.340985000000000049e+01 6.295595000000000141e+01 2.222139999999999873e+03
4.300000000000000350e-02 2.089635000000000242e-01 1.281255000000000166e+01 6.153529999999999944e+01 2.222069999999999709e+03
4.400000000000000439e-02 2.088959999999999984e-01 1.173749499999999912e+01 5.858190000000000452e+01 2.221609999999999673e+03
4.499999999999999833e-02 2.087795000000000067e-01 1.026113499999999945e+01 5.439820000000000277e+01 2.220795000000000073e+03
4.599999999999999922e-02 2.086230000000000029e-01 8.485414999999999708e+00 4.937449999999999761e+01 2.219680000000000291e+03
4.700000000000000011e-02 2.084400000000000142e-01 6.517395000000000493e+00 4.390590000000000259e+01 2.218375000000000000e+03
4.800000000000000100e-02 2.082419999999999827e-01 4.456239499999999687e+00 3.833485000000000298e+01 2.216949999999999818e+03
4.900000000000000189e-02 2.080400000000000027e-01 2.388085000000000235e+00 3.292694999999999794e+01 2.215494999999999891e+03
5.000000000000000278e-02 2.078430000000000000e-01 3.872999999999997556e-01 2.787579999999999814e+01 2.214069999999999709e+03
5.100000000000000366e-02 2.076569999999999805e-01 -1.479200000000000070e+00 2.332424999999999926e+01 2.212720000000000255e+03
5.200000000000000455e-02 2.074889999999999790e-01 -3.147436499999999970e+00 1.939079999999999870e+01 2.211500000000000000e+03
5.300000000000000544e-02 2.073435000000000139e-01 -4.554100000000000037e+00 1.618955499999999859e+01 2.210440000000000055e+03
5.399999999999999939e-02 2.072260000000000213e-01 -5.637464999999999726e+00 1.383770499999999970e+01 2.209574999999999818e+03
5.500000000000000028e-02 2.071410000000000196e-01 -6.341334999999999944e+00 1.245050499999999971e+01 2.208935000000000400e+03
5.600000000000000117e-02 2.070929999999999993e-01 -6.620784999999999698e+00 1.212664000000000009e+01 2.208560000000000400e+03
5.700000000000000205e-02 2.070849999999999913e-01 -6.448010000000000019e+00 1.292964999999999876e+01 2.208474999999999909e+03
5.800000000000000294e-02 2.071195000000000119e-01 -5.816700000000000870e+00 1.487180000000000035e+01 2.208690000000000055e+03
5.900000000000000383e-02 2.071955000000000047e-01 -4.743805000000000049e+00 1.790489999999999782e+01 2.209199999999999818e+03
6.000000000000000472e-02 2.073114999999999819e-01 -3.268476500000000229e+00 2.192105000000000103e+01 2.210005000000000109e+03
6.099999999999999867e-02 2.074630000000000085e-01 -1.448530000000000095e+00 2.676140000000000185e+01 2.211069999999999709e+03
6.199999999999999956e-02 2.076429999999999942e-01 6.445650000000000546e-01 3.223114999999999952e+01 2.212345000000000255e+03
6.300000000000000044e-02 2.078464999999999896e-01 2.931185000000000151e+00 3.811650000000000205e+01 2.213795000000000073e+03
6.400000000000000133e-02 2.080649999999999999e-01 5.328821999999999726e+00 4.420134999999999792e+01 2.215359999999999673e+03
6.500000000000000222e-02 2.082900000000000029e-01 7.756639999999999979e+00 5.028099999999999881e+01 2.216984999999999673e+03
6.600000000000000311e-02 2.085155000000000203e-01 1.013959000000000010e+01 5.617309999999999803e+01 2.218619999999999891e+03
6.700000000000000400e-02 2.087354999999999905e-01 1.241203000000000145e+01 6.172630000000000194e+01 2.220215000000000146e+03
6.800000000000000488e-02 2.089429999999999898e-01 1.452064999999999984e+01 6.682670000000000243e+01 2.221734999999999673e+03
6.900000000000000577e-02 2.091350000000000153e-01 1.642729999999999890e+01 7.140330000000000155e+01 2.223149999999999636e+03
7.000000000000000666e-02 2.093094999999999817e-01 1.811074999999999946e+01 7.543104999999999905e+01 2.224440000000000055e+03
7.100000000000000755e-02 2.094644999999999979e-01 1.956719999999999970e+01 7.893049999999999500e+01 2.225590000000000146e+03
7.200000000000000844e-02 2.096024999999999971e-01 2.080935000000000201e+01 8.196450000000000102e+01 2.226614999999999782e+03
7.300000000000000933e-02 2.097255000000000091e-01 2.186424999999999841e+01 8.463025000000000375e+01 2.227534999999999854e+03
7.399999999999999634e-02 2.098360000000000225e-01 2.276970000000000027e+01 8.704820000000000846e+01 2.228359999999999673e+03
7.499999999999999722e-02 2.099389999999999867e-01 2.356960000000000122e+01 8.934895000000000209e+01 2.229130000000000109e+03
7.599999999999999811e-02 2.100380000000000025e-01 2.430935000000000201e+01 9.165970000000000084e+01 2.229869999999999891e+03
7.699999999999999900e-02 2.101385000000000058e-01 2.503119999999999834e+01 9.409135000000000559e+01 2.230619999999999891e+03
7.799999999999999989e-02 2.102430000000000132e-01 2.577080000000000126e+01 9.672870000000000346e+01 2.231394999999999982e+03
7.900000000000000078e-02 2.103555000000000008e-01 2.655395000000000039e+01 9.962420000000000186e+01 2.232225000000000364e+03
8.000000000000000167e-02 2.104759999999999964e-01 2.739515000000000100e+01 1.027936499999999995e+02 2.233109999999999673e+03
8.100000000000000255e-02 2.106055000000000010e-01 2.829715000000000202e+01 1.062194999999999965e+02 2.234059999999999945e+03
8.200000000000000344e-02 2.107430000000000136e-01 2.925134999999999863e+01 1.098520000000000039e+02 2.235074999999999818e+03
8.300000000000000433e-02 2.108869999999999911e-01 3.023955000000000126e+01 1.136175000000000068e+02 2.236130000000000109e+03
8.400000000000000522e-02 2.110339999999999994e-01 3.123564999999999969e+01 1.174224999999999994e+02 2.237220000000000255e+03
8.500000000000000611e-02 2.111814999999999942e-01 3.220844999999999914e+01 1.211664999999999992e+02 2.238305000000000291e+03
8.600000000000000699e-02 2.113254999999999995e-01 3.312409999999999854e+01 1.247455000000000069e+02 2.239369999999999891e+03
8.700000000000000788e-02 2.114624999999999977e-01 3.394870000000000232e+01 1.280625000000000000e+02 2.240385000000000218e+03
8.800000000000000877e-02 2.115894999999999859e-01 3.465054999999999552e+01 1.310305000000000177e+02 2.241329999999999927e+03
8.899999999999999578e-02 2.117025000000000157e-01 3.520255000000000223e+01 1.335790000000000077e+02 2.242175000000000182e+03
8.999999999999999667e-02 2.117995000000000017e-01 3.558344999999999914e+01 1.356574999999999989e+02 2.242904999999999745e+03
9.099999999999999756e-02 2.118794999999999984e-01 3.577935000000000088e+01 1.372365000000000066e+02 2.243510000000000218e+03
9.199999999999999845e-02 2.119405000000000039e-01 3.578425000000000011e+01 1.383104999999999905e+02 2.243974999999999909e+03
9.299999999999999933e-02 2.119834999999999914e-01 3.560030000000000427e+01 1.388944999999999936e+02 2.244309999999999945e+03
9.400000000000000022e-02 2.120079999999999742e-01 3.523729999999999762e+01 1.390219999999999914e+02 2.244510000000000218e+03
9.500000000000000111e-02 2.120164999999999966e-01 3.471200000000000330e+01 1.387450000000000045e+02 2.244579999999999927e+03
9.600000000000000200e-02 2.120100000000000040e-01 3.404704999999999870e+01 1.381265000000000214e+02 2.244550000000000182e+03
9.700000000000000289e-02 2.119904999999999984e-01 3.326910000000000167e+01 1.372400000000000091e+02 2.244420000000000073e+03
9.800000000000000377e-02 2.119614999999999971e-01 3.240775000000000006e+01 1.361620000000000061e+02 2.244215000000000146e+03
9.900000000000000466e-02 2.119254999999999889e-01 3.149350000000000094e+01 1.349685000000000059e+02 2.243954999999999927e+03
1.000000000000000056e-01 2.118844999999999756e-01 3.055664999999999765e+01 1.337334999999999923e+02 2.243659999999999854e+03
1.010000000000000064e-01 2.118420000000000025e-01 2.962565000000000026e+01 1.325240000000000009e+02 2.243350000000000364e+03
1.020000000000000073e-01 2.117999999999999883e-01 2.872599999999999909e+01 1.313965000000000032e+02 2.243039999999999964e+03
1.030000000000000082e-01 2.117614999999999914e-01 2.787915000000000276e+01 1.303979999999999961e+02 2.242750000000000000e+03
1.040000000000000091e-01 2.117265000000000119e-01 2.710175000000000267e+01 1.295620000000000118e+02 2.242484999999999673e+03
1.050000000000000100e-01 2.116969999999999963e-01 2.640484999999999971e+01 1.289085000000000036e+02 2.242269999999999982e+03
1.059999999999999970e-01 2.116735000000000144e-01 2.579364999999999952e+01 1.284414999999999907e+02 2.242085000000000036e+03
1.069999999999999979e-01 2.116564999999999974e-01 2.526729999999999876e+01 1.281525000000000034e+02 2.241954999999999927e+03
1.079999999999999988e-01 2.116454999999999864e-01 2.481915000000000049e+01 1.280174999999999841e+02 2.241864999999999782e+03
1.089999999999999997e-01 2.116394999999999804e-01 2.443740000000000023e+01 1.280004999999999882e+02 2.241815000000000055e+03
1.100000000000000006e-01 2.116370000000000196e-01 2.410555000000000092e+01 1.280554999999999950e+02 2.241789999999999964e+03
1.110000000000000014e-01 2.116369999999999918e-01 2.380414999999999992e+01 1.281295000000000073e+02 2.241784999999999854e+03
1.120000000000000023e-01 2.116365000000000052e-01 2.351164999999999949e+01 1.281659999999999968e+02 2.241779999999999745e+03
1.130000000000000032e-01 2.116345000000000032e-01 2.320609999999999928e+01 1.281080000000000041e+02 2.241760000000000218e+03
1.140000000000000041e-01 2.116284999999999972e-01 2.286645000000000039e+01 1.279034999999999940e+02 2.241715000000000146e+03
1.150000000000000050e-01 2.116169999999999995e-01 2.247429999999999950e+01 1.275095000000000027e+02 2.241630000000000109e+03
1.160000000000000059e-01 2.115980000000000083e-01 2.201505000000000223e+01 1.268905000000000030e+02 2.241494999999999891e+03
1.170000000000000068e-01 2.115714999999999957e-01 2.147854999999999848e+01 1.260289999999999964e+02 2.241300000000000182e+03
1.180000000000000077e-01 2.115360000000000018e-01 2.086054999999999993e+01 1.249194999999999993e+02 2.241039999999999964e+03
1.190000000000000085e-01 2.114909999999999846e-01 2.016225000000000023e+01 1.235720000000000027e+02 2.240715000000000146e+03
1.200000000000000094e-01 2.114380000000000148e-01 1.939059999999999917e+01 1.220130000000000052e+02 2.240329999999999927e+03
1.209999999999999964e-01 2.113780000000000103e-01 1.855789999999999651e+01 1.202814999999999941e+02 2.239890000000000327e+03
1.219999999999999973e-01 2.113114999999999855e-01 1.768074999999999974e+01 1.184265000000000043e+02 2.239400000000000091e+03
1.229999999999999982e-01 2.112410000000000121e-01 1.677904999999999802e+01 1.165039999999999907e+02 2.238890000000000327e+03
1.239999999999999991e-01 2.111680000000000224e-01 1.587480000000000047e+01 1.145755000000000052e+02 2.238355000000000018e+03
1.250000000000000000e-01 2.110960000000000059e-01 1.499065000000000047e+01 1.127000000000000028e+02 2.237819999999999709e+03
1.260000000000000009e-01 2.110254999999999770e-01 1.414860000000000007e+01 1.109360000000000070e+02 2.237305000000000291e+03
1.270000000000000018e-01 2.109595000000000220e-01 1.336865000000000059e+01 1.093324999999999960e+02 2.236815000000000055e+03
1.280000000000000027e-01 2.108995000000000175e-01 1.266809999999999903e+01 1.079314999999999998e+02 2.236364999999999782e+03
1.290000000000000036e-01 2.108470000000000066e-01 1.206029999999999980e+01 1.067625000000000028e+02 2.235970000000000255e+03
1.300000000000000044e-01 2.108025000000000038e-01 1.155452000000000012e+01 1.058444999999999965e+02 2.235635000000000218e+03
1.310000000000000053e-01 2.107680000000000109e-01 1.115545999999999971e+01 1.051839999999999975e+02 2.235375000000000000e+03
1.320000000000000062e-01 2.107419999999999849e-01 1.086346499999999970e+01 1.047770000000000010e+02 2.235175000000000182e+03
1.330000000000000071e-01 2.107255000000000100e-01 1.067459500000000006e+01 1.046080000000000041e+02 2.235045000000000073e+03
1.340000000000000080e-01 2.107175000000000020e-01 1.058132499999999965e+01 1.046544999999999987e+02 2.234980000000000018e+03
1.350000000000000089e-01 2.107179999999999886e-01 1.057284999999999897e+01 1.048845000000000027e+02 2.234969999999999800e+03
1.360000000000000098e-01 2.107245000000000090e-01 1.063620000000000054e+01 1.052659999999999911e+02 2.235010000000000218e+03
1.370000000000000107e-01 2.107364999999999933e-01 1.075655000000000072e+01 1.057584999999999980e+02 2.235095000000000255e+03
1.380000000000000115e-01 2.107529999999999959e-01 1.091835000000000022e+01 1.063250000000000028e+02 2.235210000000000036e+03
1.390000000000000124e-01 2.107720000000000149e-01 1.110579999999999856e+01 1.069275000000000091e+02 2.235345000000000255e+03
1.400000000000000133e-01 2.107930000000000081e-01 1.130349999999999966e+01 1.075300000000000011e+02 2.235494999999999891e+03
1.410000000000000142e-01 2.108134999999999870e-01 1.149729999999999919e+01 1.081004999999999967e+02 2.235645000000000437e+03
1.420000000000000151e-01 2.108329999999999926e-01 1.167459999999999987e+01 1.086119999999999948e+02 2.235784999999999854e+03
1.430000000000000160e-01 2.108510000000000106e-01 1.182469999999999999e+01 1.090434999999999945e+02 2.235920000000000073e+03
1.440000000000000169e-01 2.108659999999999979e-01 1.193935000000000102e+01 1.093774999999999977e+02 2.236034999999999854e+03
1.450000000000000178e-01 2.108770000000000089e-01 1.201299999999999990e+01 1.096059999999999945e+02 2.236119999999999891e+03
1.459999999999999909e-01 2.108849999999999891e-01 1.204244999999999877e+01 1.097245000000000061e+02 2.236179999999999836e+03
1.469999999999999918e-01 2.108895000000000075e-01 1.202744999999999997e+01 1.097365000000000066e+02 2.236210000000000036e+03
1.479999999999999927e-01 2.108895000000000075e-01 1.197015000000000029e+01 1.096504999999999939e+02 2.236215000000000146e+03
1.489999999999999936e-01 2.108865000000000045e-01 1.187490000000000023e+01 1.094815000000000111e+02 2.236199999999999818e+03
1.499999999999999944e-01 2.108805000000000263e-01 1.174804999999999922e+01 1.092460000000000093e+02 2.236159999999999854e+03
1.509999999999999953e-01 2.108725000000000183e-01 1.159704999999999941e+01 1.089654999999999916e+02 2.236099999999999909e+03
1.519999999999999962e-01 2.108625000000000083e-01 1.143039999999999878e+01 1.086614999999999895e+02 2.236029999999999745e+03
1.529999999999999971e-01 2.108524999999999983e-01 1.125659999999999883e+01 1.083549999999999898e+02 2.235954999999999927e+03
1.539999999999999980e-01 2.108415000000000150e-01 1.108409999999999940e+01 1.080660000000000025e+02 2.235880000000000109e+03
1.549999999999999989e-01 2.108320000000000194e-01 1.092024999999999935e+01 1.078119999999999976e+02 2.235805000000000291e+03
1.559999999999999998e-01 2.108229999999999826e-01 1.077124500000000040e+01 1.076055000000000064e+02 2.235744999999999891e+03
1.570000000000000007e-01 2.108160000000000034e-01 1.064173500000000061e+01 1.074555000000000007e+02 2.235694999999999709e+03
1.580000000000000016e-01 2.108109999999999984e-01 1.053456500000000062e+01 1.073659999999999997e+02 2.235649999999999636e+03
1.590000000000000024e-01 2.108079999999999954e-01 1.045110000000000028e+01 1.073370000000000033e+02 2.235630000000000109e+03
