# t [s], A [cm^2], U [cm/s], P [cPa], c [cm/s]
1.000000000000000021e-03 5.245950000000000335e-01 3.690999999999999837e-03 9.172560000000000002e+01 1.595735000000000127e+03
2.000000000000000042e-03 5.245880000000000543e-01 -6.931999999999999360e-04 9.170310000000000628e+01 1.595724999999999909e+03
3.000000000000000062e-03 5.246279999999999832e-01 8.434654999999999236e-02 9.179075000000000273e+01 1.595744999999999891e+03
4.000000000000000083e-03 5.246679999999999122e-01 1.753374500000000058e-01 9.190520000000000778e+01 1.595775000000000091e+03
5.000000000000000104e-03 5.246554999999999414e-01 1.634244499999999989e-01 9.187815000000000509e+01 1.595775000000000091e+03
6.000000000000000125e-03 5.246105000000000906e-01 7.961250000000000271e-02 9.170510000000000161e+01 1.595735000000000127e+03
7.000000000000000146e-03 5.245684999999999931e-01 -3.967500000000012683e-03 9.146989999999999554e+01 1.595684999999999945e+03
8.000000000000000167e-03 5.245094999999999619e-01 -1.328779999999999961e-01 9.113349999999999795e+01 1.595610000000000127e+03
9.000000000000001055e-03 5.244070000000000675e-01 -3.652649999999999508e-01 9.061140000000000327e+01 1.595494999999999891e+03
1.000000000000000194e-02 5.242550000000000265e-01 -7.127499999999999947e-01 8.985640000000000782e+01 1.595325000000000045e+03
1.099999999999999936e-02 5.240430000000000366e-01 -1.190474999999999950e+00 8.881610000000000582e+01 1.595090000000000146e+03
1.200000000000000025e-02 5.237614999999999910e-01 -1.806300000000000239e+00 8.744274999999998954e+01 1.594769999999999982e+03
1.300000000000000114e-02 5.234250000000000291e-01 -2.511020000000000252e+00 8.576099999999999568e+01 1.594375000000000000e+03
1.400000000000000203e-02 5.230730000000000102e-01 -3.193389999999999951e+00 8.389424999999999955e+01 1.593920000000000073e+03
1.499999999999999944e-02 5.227515000000000356e-01 -3.728218500000000546e+00 8.201830000000001064e+01 1.593444999999999936e+03
1.600000000000000033e-02 5.224869999999999237e-01 -4.029796499999999781e+00 8.028729999999998768e+01 1.592985000000000127e+03
1.700000000000000122e-02 5.222830000000000528e-01 -4.076081000000000287e+00 7.878280000000000882e+01 1.592559999999999945e+03
1.800000000000000211e-02 5.221194999999999586e-01 -3.901730999999999838e+00 7.750274999999999181e+01 1.592179999999999836e+03
1.900000000000000300e-02 5.219700000000000450e-01 -3.573784999999999989e+00 7.638105000000000189e+01 1.591825000000000045e+03
2.000000000000000042e-02 5.218085000000000084e-01 -3.163665500000000019e+00 7.532300000000000750e+01 1.591480000000000018e+03
2.100000000000000130e-02 5.216180000000000261e-01 -2.724280550000000023e+00 7.424135000000001128e+01 1.591139999999999873e+03
2.200000000000000219e-02 5.213965000000000405e-01 -2.278097000000000261e+00 7.308369999999999322e+01 1.590779999999999973e+03
2.299999999999999961e-02 5.211514999999999898e-01 -1.818584999999999896e+00 7.184205000000000041e+01 1.590409999999999854e+03
2.400000000000000050e-02 5.208960000000000257e-01 -1.323174999999999990e+00 7.054359999999999786e+01 1.590019999999999982e+03
2.500000000000000139e-02 5.206444999999999546e-01 -7.710950000000000859e-01 6.922910000000000252e+01 1.589630000000000109e+03
2.600000000000000228e-02 5.203999999999999737e-01 -1.586150000000001725e-01 6.792924999999999613e+01 1.589235000000000127e+03
2.700000000000000316e-02 5.201594999999999969e-01 4.933350000000000790e-01 6.664685000000000059e+01 1.588845000000000027e+03
2.800000000000000058e-02 5.199095000000000244e-01 1.140424999999999800e+00 6.535099999999999909e+01 1.588450000000000045e+03
2.900000000000000147e-02 5.196334999999999704e-01 1.723430000000000017e+00 6.398179999999999268e+01 1.588034999999999854e+03
3.000000000000000236e-02 5.193125000000000657e-01 2.180905000000000094e+00 6.246544999999999703e+01 1.587595000000000027e+03
3.099999999999999978e-02 5.189344999999999652e-01 2.462934999999999874e+00 6.073274999999999579e+01 1.587105000000000018e+03
3.200000000000000067e-02 5.184945000000000803e-01 2.542409999999999837e+00 5.873940000000000339e+01 1.586559999999999945e+03
3.300000000000000155e-02 5.179989999999999872e-01 2.421155000000000168e+00 5.647979999999999734e+01 1.585950000000000045e+03
3.400000000000000244e-02 5.174615000000000187e-01 2.129325000000000134e+00 5.399330000000000496e+01 1.585289999999999964e+03
3.500000000000000333e-02 5.169070000000000054e-01 1.718860000000000277e+00 5.135960000000000036e+01 1.584590000000000146e+03
3.600000000000000422e-02 5.163594999999999713e-01 1.252959999999999852e+00 4.868710000000000093e+01 1.583880000000000109e+03
3.700000000000000511e-02 5.158445000000000391e-01 7.955250000000000377e-01 4.609655000000000058e+01 1.583175000000000182e+03
3.799999999999999906e-02 5.153824999999999656e-01 4.023550000000000182e-01 4.370494999999999663e+01 1.582509999999999991e+03
3.899999999999999994e-02 5.149894999999999889e-01 1.163300000000000445e-01 4.161364999999999981e+01 1.581909999999999854e+03
4.000000000000000083e-02 5.146760000000000224e-01 -3.403000000000000469e-02 3.990040000000000475e+01 1.581400000000000091e+03
4.100000000000000172e-02 5.144474999999999465e-01 -3.290499999999996206e-02 3.861724999999999852e+01 1.580994999999999891e+03
4.200000000000000261e-02 5.143050000000000122e-01 1.261949999999998351e-01 3.779200000000000159e+01 1.580700000000000045e+03
4.300000000000000350e-02 5.142484999999999973e-01 4.444370000000000265e-01 3.743345000000000056e+01 1.580529999999999973e+03
4.400000000000000439e-02 5.142754999999999965e-01 9.211289999999999756e-01 3.753674999999999784e+01 1.580480000000000018e+03
4.499999999999999833e-02 5.143839999999999524e-01 1.555943999999999994e+00 3.808924999999999983e+01 1.580545000000000073e+03
4.599999999999999922e-02 5.145720000000000294e-01 2.349546000000000134e+00 3.907450000000000045e+01 1.580735000000000127e+03
4.700000000000000011e-02 5.148369999999999891e-01 3.302820000000000089e+00 4.047379999999999711e+01 1.581034999999999854e+03
4.800000000000000100e-02 5.151755000000000084e-01 4.415085999999999622e+00 4.226664999999999850e+01 1.581454999999999927e+03
4.900000000000000189e-02 5.155845000000000011e-01 5.682187000000000765e+00 4.442900000000000205e+01 1.581970000000000027e+03
5.000000000000000278e-02 5.160580000000000167e-01 7.094777500000000181e+00 4.693180000000000263e+01 1.582579999999999927e+03
5.100000000000000366e-02 5.165874999999999773e-01 8.637755000000000294e+00 4.973949999999999960e+01 1.583284999999999854e+03
5.200000000000000455e-02 5.171660000000000146e-01 1.029029500000000041e+01 5.281004999999999683e+01 1.584065000000000055e+03
5.300000000000000544e-02 5.177819999999999645e-01 1.202707499999999996e+01 5.609519999999999840e+01 1.584914999999999964e+03
5.399999999999999939e-02 5.184254999999999836e-01 1.381987999999999950e+01 5.954300000000000637e+01 1.585815000000000055e+03
5.500000000000000028e-02 5.190859999999999363e-01 1.563998000000000133e+01 6.310035000000000593e+01 1.586755000000000109e+03
5.600000000000000117e-02 5.197539999999999383e-01 1.745974999999999966e+01 6.671569999999999823e+01 1.587724999999999909e+03
5.700000000000000205e-02 5.204214999999999813e-01 1.925450000000000017e+01 7.034255000000000280e+01 1.588710000000000036e+03
5.800000000000000294e-02 5.210814999999999753e-01 2.100384999999999991e+01 7.394140000000000157e+01 1.589700000000000045e+03
5.900000000000000383e-02 5.217300000000000271e-01 2.269209999999999994e+01 7.748165000000000191e+01 1.590679999999999836e+03
6.000000000000000472e-02 5.223640000000000505e-01 2.430850000000000222e+01 8.094235000000000468e+01 1.591650000000000091e+03
6.099999999999999867e-02 5.229829999999999757e-01 2.584675000000000011e+01 8.431190000000000850e+01 1.592605000000000018e+03
6.199999999999999956e-02 5.235864999999999547e-01 2.730474999999999852e+01 8.758759999999999479e+01 1.593545000000000073e+03
6.300000000000000044e-02 5.241765000000000452e-01 2.868345000000000056e+01 9.077349999999999852e+01 1.594460000000000036e+03
6.400000000000000133e-02 5.247554999999999303e-01 2.998610000000000042e+01 9.387994999999999379e+01 1.595359999999999900e+03
6.500000000000000222e-02 5.253259999999999597e-01 3.121744999999999948e+01 9.692005000000000337e+01 1.596244999999999891e+03
6.600000000000000311e-02 5.258899999999999686e-01 3.238284999999999769e+01 9.990940000000000509e+01 1.597115000000000009e+03
6.700000000000000400e-02 5.264515000000000722e-01 3.348765000000000214e+01 1.028624999999999972e+02 1.597970000000000027e+03
6.800000000000000488e-02 5.270120000000000360e-01 3.453650000000000375e+01 1.057930000000000064e+02 1.598825000000000045e+03
6.900000000000000577e-02 5.275714999999999710e-01 3.553284999999999627e+01 1.087099999999999937e+02 1.599675000000000182e+03
7.000000000000000666e-02 5.281314999999999760e-01 3.647849999999999682e+01 1.116195000000000022e+02 1.600525000000000091e+03
7.100000000000000755e-02 5.286914999999999809e-01 3.737335000000000207e+01 1.145210000000000008e+02 1.601369999999999891e+03
7.200000000000000844e-02 5.292495000000000394e-01 3.821574999999999989e+01 1.174110000000000014e+02 1.602210000000000036e+03
7.300000000000000933e-02 5.298034999999999828e-01 3.900215000000000032e+01 1.202785000000000082e+02 1.603049999999999955e+03
7.399999999999999634e-02 5.303495000000000292e-01 3.972755000000000081e+01 1.231084999999999923e+02 1.603875000000000000e+03
7.499999999999999722e-02 5.308850000000000513e-01 4.038615000000000066e+01 1.258849999999999909e+02 1.604694999999999936e+03
7.599999999999999811e-02 5.314054999999999751e-01 4.097164999999999679e+01 1.285865000000000009e+02 1.605490000000000009e+03
7.699999999999999900e-02 5.319064999999999488e-01 4.147764999999999702e+01 1.311924999999999955e+02 1.606264999999999873e+03
7.799999999999999989e-02 5.323849999999999971e-01 4.189820000000000277e+01 1.336814999999999998e+02 1.607005000000000109e+03
7.900000000000000078e-02 5.328370000000000051e-01 4.222825000000000273e+01 1.360355000000000132e+02 1.607714999999999918e+03
8.000000000000000167e-02 5.332594999999999974e-01 4.246380000000000621e+01 1.382350000000000136e+02 1.608384999999999991e+03
8.100000000000000255e-02 5.336505000000000276e-01 4.260215000000000174e+01 1.402674999999999841e+02 1.609009999999999991e+03
8.200000000000000344e-02 5.340074999999999683e-01 4.264215000000000089e+01 1.421214999999999975e+02 1.609585000000000036e+03
8.300000000000000433e-02 5.343305000000000415e-01 4.258400000000000318e+01 1.437889999999999873e+02 1.610110000000000127e+03
8.400000000000000522e-02 5.346180000000000376e-01 4.242964999999999520e+01 1.452684999999999889e+02 1.610590000000000146e+03
8.500000000000000611e-02 5.348709999999999853e-01 4.218245000000000289e+01 1.465589999999999975e+02 1.611009999999999991e+03
8.600000000000000699e-02 5.350899999999999546e-01 4.184714999999999918e+01 1.476655000000000086e+02 1.611380000000000109e+03
8.700000000000000788e-02 5.352759999999999740e-01 4.143005000000000138e+01 1.485950000000000273e+02 1.611699999999999818e+03
8.800000000000000877e-02 5.354320000000000190e-01 4.093864999999999554e+01 1.493584999999999923e+02 1.611970000000000027e+03
8.899999999999999578e-02 5.355594999999999661e-01 4.038155000000000427e+01 1.499685000000000059e+02 1.612195000000000164e+03
8.999999999999999667e-02 5.356630000000000003e-01 3.976830000000000354e+01 1.504404999999999859e+02 1.612384999999999991e+03
9.099999999999999756e-02 5.357439999999999980e-01 3.910904999999999632e+01 1.507920000000000016e+02 1.612529999999999973e+03
9.199999999999999845e-02 5.358065000000000744e-01 3.841429999999999723e+01 1.510405000000000086e+02 1.612639999999999873e+03
9.299999999999999933e-02 5.358534999999999826e-01 3.769464999999999577e+01 1.512044999999999959e+02 1.612724999999999909e+03
9.400000000000000022e-02 5.358884999999999899e-01 3.696020000000000039e+01 1.513015000000000043e+02 1.612784999999999854e+03
9.500000000000000111e-02 5.359149999999999192e-01 3.622035000000000338e+01 1.513489999999999895e+02 1.612824999999999818e+03
9.600000000000000200e-02 5.359350000000000502e-01 3.548364999999999725e+01 1.513625000000000114e+02 1.612860000000000127e+03
9.700000000000000289e-02 5.359515000000000251e-01 3.475714999999999577e+01 1.513550000000000182e+02 1.612875000000000000e+03
9.800000000000000377e-02 5.359650000000000247e-01 3.404634999999999678e+01 1.513365000000000009e+02 1.612880000000000109e+03
9.900000000000000466e-02 5.359774999999999956e-01 3.335510000000000019e+01 1.513160000000000025e+02 1.612889999999999873e+03
1.000000000000000056e-01 5.359890000000000487e-01 3.268564999999999543e+01 1.512969999999999970e+02 1.612894999999999982e+03
1.010000000000000064e-01 5.360000000000000320e-01 3.203840000000000288e+01 1.512814999999999941e+02 1.612894999999999982e+03
1.020000000000000073e-01 5.360099999999999865e-01 3.141230000000000189e+01 1.512674999999999841e+02 1.612894999999999982e+03
1.030000000000000082e-01 5.360179999999999945e-01 3.080495000000000161e+01 1.512514999999999930e+02 1.612889999999999873e+03
1.040000000000000091e-01 5.360234999999999861e-01 3.021289999999999765e+01 1.512280000000000086e+02 1.612880000000000109e+03
1.050000000000000100e-01 5.360234999999999861e-01 2.963200000000000145e+01 1.511889999999999930e+02 1.612875000000000000e+03
1.059999999999999970e-01 5.360169999999999657e-01 2.905750000000000099e+01 1.511265000000000214e+02 1.612855000000000018e+03
1.069999999999999979e-01 5.360035000000000771e-01 2.848445000000000249e+01 1.510310000000000059e+02 1.612829999999999927e+03
1.079999999999999988e-01 5.359804999999999708e-01 2.790809999999999746e+01 1.508949999999999818e+02 1.612795000000000073e+03
1.089999999999999997e-01 5.359469999999999512e-01 2.732404999999999973e+01 1.507105000000000246e+02 1.612750000000000000e+03
1.100000000000000006e-01 5.359019999999999895e-01 2.672840000000000060e+01 1.504705000000000155e+02 1.612684999999999945e+03
1.110000000000000014e-01 5.358445000000000569e-01 2.611814999999999998e+01 1.501709999999999923e+02 1.612610000000000127e+03
1.120000000000000023e-01 5.357750000000000012e-01 2.549105000000000132e+01 1.498084999999999809e+02 1.612509999999999991e+03
1.130000000000000032e-01 5.356925000000000159e-01 2.484615000000000151e+01 1.493820000000000050e+02 1.612400000000000091e+03
1.140000000000000041e-01 5.355980000000000185e-01 2.418354999999999677e+01 1.488934999999999889e+02 1.612269999999999982e+03
1.150000000000000050e-01 5.354929999999999968e-01 2.350440000000000040e+01 1.483460000000000036e+02 1.612125000000000000e+03
1.160000000000000059e-01 5.353775000000000617e-01 2.281115000000000137e+01 1.477454999999999927e+02 1.611965000000000146e+03
1.170000000000000068e-01 5.352540000000000076e-01 2.210725000000000051e+01 1.470999999999999943e+02 1.611795000000000073e+03
1.180000000000000077e-01 5.351249999999999618e-01 2.139695000000000036e+01 1.464180000000000064e+02 1.611610000000000127e+03
1.190000000000000085e-01 5.349909999999999943e-01 2.068549999999999756e+01 1.457105000000000246e+02 1.611420000000000073e+03
1.200000000000000094e-01 5.348555000000000392e-01 1.997854999999999848e+01 1.449900000000000091e+02 1.611220000000000027e+03
1.209999999999999964e-01 5.347204999999999320e-01 1.928235000000000099e+01 1.442685000000000173e+02 1.611019999999999982e+03
1.219999999999999973e-01 5.345889999999999809e-01 1.860309999999999775e+01 1.435589999999999975e+02 1.610819999999999936e+03
1.229999999999999982e-01 5.344625000000000625e-01 1.794689999999999941e+01 1.428725000000000023e+02 1.610625000000000000e+03
1.239999999999999991e-01 5.343430000000000124e-01 1.731964999999999932e+01 1.422214999999999918e+02 1.610434999999999945e+03
1.250000000000000000e-01 5.342329999999999579e-01 1.672654999999999959e+01 1.416154999999999973e+02 1.610259999999999991e+03
1.260000000000000009e-01 5.341339999999999977e-01 1.617214999999999847e+01 1.410645000000000095e+02 1.610094999999999800e+03
1.270000000000000018e-01 5.340465000000000906e-01 1.566000000000000014e+01 1.405735000000000241e+02 1.609944999999999936e+03
1.280000000000000027e-01 5.339709999999999734e-01 1.519265000000000043e+01 1.401480000000000246e+02 1.609809999999999945e+03
1.290000000000000036e-01 5.339095000000000368e-01 1.477149999999999963e+01 1.397915000000000134e+02 1.609699999999999818e+03
1.300000000000000044e-01 5.338600000000000012e-01 1.439689999999999870e+01 1.395029999999999859e+02 1.609599999999999909e+03
1.310000000000000053e-01 5.338224999999999776e-01 1.406800000000000139e+01 1.392814999999999941e+02 1.609519999999999982e+03
1.320000000000000062e-01 5.337965000000000071e-01 1.378304999999999936e+01 1.391229999999999905e+02 1.609460000000000036e+03
1.330000000000000071e-01 5.337810000000000610e-01 1.353924999999999912e+01 1.390215000000000032e+02 1.609409999999999854e+03
1.340000000000000080e-01 5.337739999999999707e-01 1.333330000000000126e+01 1.389710000000000036e+02 1.609380000000000109e+03
1.350000000000000089e-01 5.337745000000000406e-01 1.316104999999999947e+01 1.389629999999999939e+02 1.609365000000000009e+03
1.360000000000000098e-01 5.337804999999999911e-01 1.301829999999999998e+01 1.389895000000000209e+02 1.609355000000000018e+03
1.370000000000000107e-01 5.337905000000000566e-01 1.290044999999999931e+01 1.390414999999999850e+02 1.609355000000000018e+03
1.380000000000000115e-01 5.338034999999999863e-01 1.280290000000000106e+01 1.391114999999999782e+02 1.609365000000000009e+03
1.390000000000000124e-01 5.338169999999999860e-01 1.272129999999999939e+01 1.391904999999999859e+02 1.609375000000000000e+03
1.400000000000000133e-01 5.338309999999999444e-01 1.265160000000000018e+01 1.392715000000000032e+02 1.609389999999999873e+03
1.410000000000000142e-01 5.338435000000000263e-01 1.258999999999999986e+01 1.393485000000000014e+02 1.609404999999999973e+03
1.420000000000000151e-01 5.338539999999999397e-01 1.253324999999999889e+01 1.394164999999999850e+02 1.609414999999999964e+03
1.430000000000000160e-01 5.338625000000000176e-01 1.247860000000000014e+01 1.394714999999999918e+02 1.609424999999999955e+03
1.440000000000000169e-01 5.338674999999999393e-01 1.242379999999999995e+01 1.395105000000000075e+02 1.609440000000000055e+03
1.450000000000000178e-01 5.338690000000000380e-01 1.236725000000000030e+01 1.395330000000000155e+02 1.609440000000000055e+03
1.459999999999999909e-01 5.338674999999999393e-01 1.230770000000000053e+01 1.395370000000000061e+02 1.609445000000000164e+03
1.469999999999999918e-01 5.338629999999999765e-01 1.224455000000000027e+01 1.395229999999999961e+02 1.609440000000000055e+03
1.479999999999999927e-01 5.338555000000000383e-01 1.217755000000000010e+01 1.394939999999999998e+02 1.609430000000000064e+03
1.489999999999999936e-01 5.338460000000000427e-01 1.210679999999999978e+01 1.394510000000000218e+02 1.609420000000000073e+03
1.499999999999999944e-01 5.338344999999999896e-01 1.203285999999999945e+01 1.393960000000000150e+02 1.609410000000000082e+03
1.509999999999999953e-01 5.338214999999999488e-01 1.195650499999999994e+01 1.393319999999999936e+02 1.609394999999999982e+03
1.519999999999999962e-01 5.338080000000000602e-01 1.187870000000000026e+01 1.392624999999999886e+02 1.609375000000000000e+03
1.529999999999999971e-01 5.337939999999999907e-01 1.180039999999999978e+01 1.391899999999999977e+02 1.609355000000000018e+03
1.539999999999999980e-01 5.337810000000000610e-01 1.172281500000000065e+01 1.391169999999999902e+02 1.609335000000000036e+03
1.549999999999999989e-01 5.337680000000000202e-01 1.164694000000000074e+01 1.390464999999999804e+02 1.609315000000000055e+03
1.559999999999999998e-01 5.337560000000000082e-01 1.157385500000000000e+01 1.389809999999999945e+02 1.609299999999999955e+03
1.570000000000000007e-01 5.337454999999999838e-01 1.150439499999999882e+01 1.389215000000000089e+02 1.609279999999999973e+03
1.580000000000000016e-01 5.337370000000000170e-01 1.143911500000000103e+01 1.388700000000000045e+02 1.609264999999999873e+03
1.590000000000000024e-01 5.337300000000000377e-01 1.137852000000000174e+01 1.388265000000000100e+02 1.609250000000000000e+03
