# t [s], A [cm^2], U [cm/s], P [cPa], c [cm/s]
1.000000000000000021e-03 4.759255000000000013e-01 2.528249999999995778e-03 1.048815000000000026e+02 1.478929999999999836e+03
2.000000000000000042e-03 4.759204999999999686e-01 3.944139999999999625e-03 1.048650000000000091e+02 1.478924999999999955e+03
3.000000000000000062e-03 4.759649999999999714e-01 9.764580000000000481e-02 1.049550000000000125e+02 1.478954999999999927e+03
4.000000000000000083e-03 4.760024999999999951e-01 1.799132499999999968e-01 1.050559999999999974e+02 1.478985000000000127e+03
5.000000000000000104e-03 4.759884999999999811e-01 1.549162500000000053e-01 1.050175000000000125e+02 1.478980000000000018e+03
6.000000000000000125e-03 4.759464999999999946e-01 6.538299999999996892e-02 1.048414999999999964e+02 1.478945000000000164e+03
7.000000000000000146e-03 4.759025000000000061e-01 -3.385500000000002396e-02 1.045865000000000009e+02 1.478884999999999991e+03
8.000000000000000167e-03 4.758350000000000080e-01 -1.914824999999999999e-01 1.042049999999999983e+02 1.478795000000000073e+03
9.000000000000001055e-03 4.757194999999999618e-01 -4.596499999999998920e-01 1.036179999999999950e+02 1.478650000000000091e+03
1.000000000000000194e-02 4.755519999999999747e-01 -8.424650000000000194e-01 1.027830000000000013e+02 1.478444999999999936e+03
1.099999999999999936e-02 4.753249999999999975e-01 -1.344869999999999788e+00 1.016581500000000062e+02 1.478155000000000200e+03
1.200000000000000025e-02 4.750269999999999770e-01 -1.971979999999999844e+00 1.002034000000000020e+02 1.477769999999999982e+03
1.300000000000000114e-02 4.746674999999999645e-01 -2.684539999999999704e+00 9.842900000000000205e+01 1.477295000000000073e+03
1.400000000000000203e-02 4.742790000000000061e-01 -3.382500000000000284e+00 9.643359999999999843e+01 1.476744999999999891e+03
1.499999999999999944e-02 4.739059999999999939e-01 -3.938644999999999730e+00 9.438169999999999504e+01 1.476154999999999973e+03
1.600000000000000033e-02 4.735840000000000050e-01 -4.250109000000000137e+00 9.244174999999999898e+01 1.475575000000000045e+03
1.700000000000000122e-02 4.733255000000000101e-01 -4.271899499999999961e+00 9.072854999999999848e+01 1.475025000000000091e+03
1.800000000000000211e-02 4.731214999999999726e-01 -4.021632000000000318e+00 8.927779999999999916e+01 1.474530000000000200e+03
1.900000000000000300e-02 4.729479999999999795e-01 -3.562853000000000048e+00 8.804980000000000473e+01 1.474074999999999818e+03
2.000000000000000042e-02 4.727759999999999740e-01 -2.978614499999999943e+00 8.695470000000000255e+01 1.473655000000000200e+03
2.100000000000000130e-02 4.725829999999999753e-01 -2.344908499999999840e+00 8.588810000000000855e+01 1.473250000000000000e+03
2.200000000000000219e-02 4.723549999999999693e-01 -1.711405000000000065e+00 8.476390000000000668e+01 1.472835000000000036e+03
2.299999999999999961e-02 4.720929999999999849e-01 -1.094610000000000083e+00 8.353630000000001132e+01 1.472394999999999982e+03
2.400000000000000050e-02 4.718054999999999888e-01 -4.843800000000000328e-01 8.220234999999999559e+01 1.471929999999999836e+03
2.500000000000000139e-02 4.715055000000000218e-01 1.404900000000002258e-01 8.078995000000000459e+01 1.471445000000000164e+03
2.600000000000000228e-02 4.712024999999999686e-01 7.949850000000000527e-01 7.933545000000000869e+01 1.470945000000000164e+03
2.700000000000000316e-02 4.708999999999999853e-01 1.475324999999999775e+00 7.786320000000000618e+01 1.470444999999999936e+03
2.800000000000000058e-02 4.705925000000000247e-01 2.154375000000000373e+00 7.637180000000000746e+01 1.469929999999999836e+03
2.900000000000000147e-02 4.702684999999999782e-01 2.784845000000000237e+00 7.483034999999999570e+01 1.469400000000000091e+03
3.000000000000000236e-02 4.699109999999999676e-01 3.308339999999999836e+00 7.318434999999999491e+01 1.468845000000000027e+03
3.099999999999999978e-02 4.695064999999999933e-01 3.667435000000000223e+00 7.136905000000000143e+01 1.468240000000000009e+03
3.200000000000000067e-02 4.690429999999999877e-01 3.817720000000000447e+00 6.932595000000000596e+01 1.467590000000000146e+03
3.300000000000000155e-02 4.685170000000000168e-01 3.737584999999999713e+00 6.701924999999999955e+01 1.466865000000000009e+03
3.400000000000000244e-02 4.679349999999999898e-01 3.433089999999999975e+00 6.444845000000000823e+01 1.466079999999999927e+03
3.500000000000000333e-02 4.673104999999999620e-01 2.937449999999999672e+00 6.165309999999999491e+01 1.465224999999999909e+03
3.600000000000000422e-02 4.666664999999999841e-01 2.305494999999999628e+00 5.871094999999999686e+01 1.464335000000000036e+03
3.700000000000000511e-02 4.660279999999999978e-01 1.604835000000000456e+00 5.572769999999999868e+01 1.463420000000000073e+03
3.799999999999999906e-02 4.654205000000000148e-01 9.060950000000005389e-01 5.282475000000000165e+01 1.462519999999999982e+03
3.899999999999999994e-02 4.648669999999999747e-01 2.744599999999994822e-01 5.012425000000000352e+01 1.461664999999999964e+03
4.000000000000000083e-02 4.643880000000000230e-01 -2.360599999999997145e-01 4.773704999999999643e+01 1.460884999999999991e+03
4.100000000000000172e-02 4.639975000000000627e-01 -5.855999999999998984e-01 4.575374999999999659e+01 1.460210000000000036e+03
4.200000000000000261e-02 4.637040000000000051e-01 -7.485499999999998266e-01 4.423954999999999416e+01 1.459659999999999854e+03
4.300000000000000350e-02 4.635114999999999652e-01 -7.117099999999998428e-01 4.323345000000000482e+01 1.459250000000000000e+03
4.400000000000000439e-02 4.634220000000000006e-01 -4.713199999999999612e-01 4.275029999999999575e+01 1.458990000000000009e+03
4.499999999999999833e-02 4.634309999999999818e-01 -2.985594999999999222e-02 4.278535000000000110e+01 1.458884999999999991e+03
4.599999999999999922e-02 4.635345000000000160e-01 6.065834999999999422e-01 4.331900000000000261e+01 1.458934999999999945e+03
4.700000000000000011e-02 4.637284999999999879e-01 1.429939999999999767e+00 4.432184999999999775e+01 1.459130000000000109e+03
4.800000000000000100e-02 4.640050000000000008e-01 2.430724999999999802e+00 4.575825000000000387e+01 1.459465000000000146e+03
4.900000000000000189e-02 4.643585000000000074e-01 3.597624999999999851e+00 4.758834999999999837e+01 1.459924999999999955e+03
5.000000000000000278e-02 4.647799999999999709e-01 4.916615000000000180e+00 4.976919999999999789e+01 1.460505000000000109e+03
5.100000000000000366e-02 4.652610000000000356e-01 6.370105000000000572e+00 5.225475000000000136e+01 1.461190000000000055e+03
5.200000000000000455e-02 4.657919999999999838e-01 7.936299975000000728e+00 5.499575000000000102e+01 1.461960000000000036e+03
5.300000000000000544e-02 4.663625000000000131e-01 9.589394999999999669e+00 5.793965000000000032e+01 1.462809999999999945e+03
5.399999999999999939e-02 4.669605000000000006e-01 1.130036999999999914e+01 6.103170000000000073e+01 1.463715000000000146e+03
5.500000000000000028e-02 4.675749999999999629e-01 1.303831500000000077e+01 6.421590000000000487e+01 1.464664999999999964e+03
5.600000000000000117e-02 4.681954999999999867e-01 1.477205999999999975e+01 6.743735000000000923e+01 1.465639999999999873e+03
5.700000000000000205e-02 4.688115000000000476e-01 1.647195500000000123e+01 7.064424999999999955e+01 1.466625000000000000e+03
5.800000000000000294e-02 4.694144999999999568e-01 1.811144999999999783e+01 7.379044999999999277e+01 1.467615000000000009e+03
5.900000000000000383e-02 4.699975000000000125e-01 1.966854999999999976e+01 7.683735000000000070e+01 1.468579999999999927e+03
6.000000000000000472e-02 4.705555000000000154e-01 2.112634999999999863e+01 7.975544999999999618e+01 1.469525000000000091e+03
6.099999999999999867e-02 4.710854999999999904e-01 2.247350000000000136e+01 8.252524999999999977e+01 1.470434999999999945e+03
6.199999999999999956e-02 4.715869999999999784e-01 2.370420000000000016e+01 8.513734999999999786e+01 1.471300000000000182e+03
6.300000000000000044e-02 4.720604999999999940e-01 2.481770000000000209e+01 8.759189999999999543e+01 1.472125000000000000e+03
6.400000000000000133e-02 4.725084999999999980e-01 2.581759999999999877e+01 8.989750000000000796e+01 1.472914999999999964e+03
6.500000000000000222e-02 4.729340000000000210e-01 2.671090000000000231e+01 9.206960000000000832e+01 1.473664999999999964e+03
6.600000000000000311e-02 4.733419999999999850e-01 2.750750000000000028e+01 9.412879999999999825e+01 1.474384999999999991e+03
6.700000000000000400e-02 4.737359999999999904e-01 2.821875000000000000e+01 9.609865000000000634e+01 1.475070000000000164e+03
6.800000000000000488e-02 4.741219999999999879e-01 2.885725000000000051e+01 9.800495000000000800e+01 1.475735000000000127e+03
6.900000000000000577e-02 4.745030000000000081e-01 2.943540000000000134e+01 9.987229999999999563e+01 1.476389999999999873e+03
7.000000000000000666e-02 4.748839999999999728e-01 2.996529999999999916e+01 1.017236000000000047e+02 1.477029999999999973e+03
7.100000000000000755e-02 4.752680000000000238e-01 3.045770000000000266e+01 1.035780000000000030e+02 1.477664999999999964e+03
7.200000000000000844e-02 4.756580000000000252e-01 3.092159999999999798e+01 1.054509999999999934e+02 1.478304999999999836e+03
7.300000000000000933e-02 4.760545000000000471e-01 3.136364999999999981e+01 1.073520000000000039e+02 1.478954999999999927e+03
7.399999999999999634e-02 4.764585000000000070e-01 3.178795000000000215e+01 1.092844999999999942e+02 1.479610000000000127e+03
7.499999999999999722e-02 4.768674999999999997e-01 3.219585000000000008e+01 1.112464999999999975e+02 1.480269999999999982e+03
7.599999999999999811e-02 4.772810000000000108e-01 3.258579999999999899e+01 1.132284999999999968e+02 1.480934999999999945e+03
7.699999999999999900e-02 4.776945000000000219e-01 3.295364999999999611e+01 1.152160000000000082e+02 1.481605000000000018e+03
7.799999999999999989e-02 4.781044999999999878e-01 3.329305000000000092e+01 1.171905000000000001e+02 1.482269999999999982e+03
7.900000000000000078e-02 4.785059999999999869e-01 3.359579999999999700e+01 1.191285000000000025e+02 1.482920000000000073e+03
8.000000000000000167e-02 4.788940000000000419e-01 3.385260000000000247e+01 1.210045000000000073e+02 1.483559999999999945e+03
8.100000000000000255e-02 4.792625000000000357e-01 3.405355000000000132e+01 1.227920000000000016e+02 1.484170000000000073e+03
8.200000000000000344e-02 4.796070000000000055e-01 3.418890000000000384e+01 1.244645000000000010e+02 1.484755000000000109e+03
8.300000000000000433e-02 4.799229999999999885e-01 3.424960000000000093e+01 1.259979999999999905e+02 1.485289999999999964e+03
8.400000000000000522e-02 4.802059999999999662e-01 3.422800000000000153e+01 1.273704999999999927e+02 1.485789999999999964e+03
8.500000000000000611e-02 4.804530000000000189e-01 3.411795000000000044e+01 1.285645000000000095e+02 1.486224999999999909e+03
8.600000000000000699e-02 4.806614999999999638e-01 3.391549999999999443e+01 1.295660000000000025e+02 1.486610000000000127e+03
8.700000000000000788e-02 4.808304999999999940e-01 3.361885000000000190e+01 1.303684999999999832e+02 1.486929999999999836e+03
8.800000000000000877e-02 4.809594999999999843e-01 3.322874999999999801e+01 1.309679999999999893e+02 1.487184999999999945e+03
8.899999999999999578e-02 4.810495000000000188e-01 3.274795000000000300e+01 1.313670000000000186e+02 1.487380000000000109e+03
8.999999999999999667e-02 4.811010000000000009e-01 3.218169999999999931e+01 1.315734999999999957e+02 1.487514999999999873e+03
9.099999999999999756e-02 4.811185000000000045e-01 3.153729999999999833e+01 1.315995000000000061e+02 1.487590000000000146e+03
9.199999999999999845e-02 4.811035000000000172e-01 3.082365000000000066e+01 1.314604999999999961e+02 1.487605000000000018e+03
9.299999999999999933e-02 4.810605000000000020e-01 3.005125000000000313e+01 1.311759999999999877e+02 1.487575000000000045e+03
9.400000000000000022e-02 4.809940000000000326e-01 2.923170000000000002e+01 1.307680000000000007e+02 1.487500000000000000e+03
9.500000000000000111e-02 4.809074999999999878e-01 2.837709999999999866e+01 1.302589999999999861e+02 1.487380000000000109e+03
9.600000000000000200e-02 4.808060000000000112e-01 2.750005000000000166e+01 1.296730000000000018e+02 1.487240000000000009e+03
9.700000000000000289e-02 4.806945000000000245e-01 2.661289999999999978e+01 1.290335000000000036e+02 1.487065000000000055e+03
9.800000000000000377e-02 4.805770000000000319e-01 2.572739999999999938e+01 1.283629999999999995e+02 1.486880000000000109e+03
9.900000000000000466e-02 4.804565000000000641e-01 2.485454999999999970e+01 1.276825000000000045e+02 1.486684999999999945e+03
1.000000000000000056e-01 4.803380000000000427e-01 2.400379999999999825e+01 1.270105000000000075e+02 1.486485000000000127e+03
1.010000000000000064e-01 4.802239999999999842e-01 2.318314999999999770e+01 1.263620000000000090e+02 1.486279999999999973e+03
1.020000000000000073e-01 4.801155000000000284e-01 2.239874999999999972e+01 1.257500000000000000e+02 1.486090000000000146e+03
1.030000000000000082e-01 4.800149999999999695e-01 2.165474999999999994e+01 1.251825000000000045e+02 1.485905000000000200e+03
1.040000000000000091e-01 4.799229999999999885e-01 2.095320000000000249e+01 1.246639999999999873e+02 1.485724999999999909e+03
1.050000000000000100e-01 4.798394999999999744e-01 2.029420000000000002e+01 1.241949999999999932e+02 1.485565000000000055e+03
1.059999999999999970e-01 4.797640000000000238e-01 1.967595000000000027e+01 1.237744999999999891e+02 1.485420000000000073e+03
1.069999999999999979e-01 4.796945000000000237e-01 1.909479999999999933e+01 1.233960000000000008e+02 1.485279999999999973e+03
1.079999999999999988e-01 4.796305000000000152e-01 1.854585000000000150e+01 1.230499999999999972e+02 1.485154999999999973e+03
1.089999999999999997e-01 4.795690000000000230e-01 1.802284999999999826e+01 1.227280000000000086e+02 1.485034999999999854e+03
1.100000000000000006e-01 4.795080000000000453e-01 1.751895000000000024e+01 1.224159999999999968e+02 1.484920000000000073e+03
1.110000000000000014e-01 4.794450000000000101e-01 1.702674999999999983e+01 1.221030000000000086e+02 1.484804999999999836e+03
1.120000000000000023e-01 4.793780000000000263e-01 1.653889999999999816e+01 1.217750000000000057e+02 1.484690000000000055e+03
1.130000000000000032e-01 4.793040000000000078e-01 1.604820000000000135e+01 1.214200000000000017e+02 1.484569999999999936e+03
1.140000000000000041e-01 4.792210000000000081e-01 1.554824999999999946e+01 1.210279999999999916e+02 1.484434999999999945e+03
1.150000000000000050e-01 4.791290000000000271e-01 1.503350000000000009e+01 1.205889999999999986e+02 1.484289999999999964e+03
1.160000000000000059e-01 4.790250000000000341e-01 1.449944999999999951e+01 1.200949999999999989e+02 1.484134999999999991e+03
1.170000000000000068e-01 4.789085000000000147e-01 1.394302499999999867e+01 1.195425000000000040e+02 1.483960000000000036e+03
1.180000000000000077e-01 4.787804999999999978e-01 1.336265999999999998e+01 1.189294999999999902e+02 1.483764999999999873e+03
1.190000000000000085e-01 4.786405000000000243e-01 1.275821499999999986e+01 1.182560000000000002e+02 1.483554999999999836e+03
1.200000000000000094e-01 4.784895000000000120e-01 1.213110999999999962e+01 1.175264999999999986e+02 1.483329999999999927e+03
1.209999999999999964e-01 4.783295000000000186e-01 1.148428000000000004e+01 1.167464999999999975e+02 1.483090000000000146e+03
1.219999999999999973e-01 4.781614999999999616e-01 1.082192500000000024e+01 1.159249999999999972e+02 1.482835000000000036e+03
1.229999999999999982e-01 4.779879999999999685e-01 1.014952000000000076e+01 1.150720000000000027e+02 1.482565000000000055e+03
1.239999999999999991e-01 4.778124999999999734e-01 9.473499999999999588e+00 1.142000000000000028e+02 1.482289999999999964e+03
1.250000000000000000e-01 4.776360000000000605e-01 8.800945000000000462e+00 1.133234999999999957e+02 1.482009999999999991e+03
1.260000000000000009e-01 4.774625000000000119e-01 8.139625000000000554e+00 1.124555000000000007e+02 1.481735000000000127e+03
1.270000000000000018e-01 4.772945000000000104e-01 7.497214999999999741e+00 1.116099999999999994e+02 1.481465000000000146e+03
1.280000000000000027e-01 4.771345000000000169e-01 6.881490000000000329e+00 1.108015000000000043e+02 1.481195000000000164e+03
1.290000000000000036e-01 4.769855000000000067e-01 6.299665000000000070e+00 1.100434999999999945e+02 1.480945000000000164e+03
1.300000000000000044e-01 4.768489999999999673e-01 5.758329999999999949e+00 1.093464999999999918e+02 1.480710000000000036e+03
1.310000000000000053e-01 4.767270000000000119e-01 5.263144999999999740e+00 1.087205000000000013e+02 1.480494999999999891e+03
1.320000000000000062e-01 4.766215000000000312e-01 4.818614999999999426e+00 1.081740000000000066e+02 1.480300000000000182e+03
1.330000000000000071e-01 4.765325000000000255e-01 4.427989999999999426e+00 1.077115000000000009e+02 1.480130000000000109e+03
1.340000000000000080e-01 4.764605000000000090e-01 4.093144999999999811e+00 1.073365000000000009e+02 1.479980000000000018e+03
1.350000000000000089e-01 4.764059999999999961e-01 3.814575000000000049e+00 1.070490000000000066e+02 1.479865000000000009e+03
1.360000000000000098e-01 4.763680000000000136e-01 3.591374999999999762e+00 1.068460000000000036e+02 1.479769999999999982e+03
1.370000000000000107e-01 4.763450000000000184e-01 3.421389999999999709e+00 1.067235000000000014e+02 1.479704999999999927e+03
1.380000000000000115e-01 4.763364999999999960e-01 3.301289999999999836e+00 1.066750000000000114e+02 1.479664999999999964e+03
1.390000000000000124e-01 4.763399999999999856e-01 3.226760000000000073e+00 1.066920000000000073e+02 1.479639999999999873e+03
1.400000000000000133e-01 4.763539999999999441e-01 3.192700000000000315e+00 1.067655000000000030e+02 1.479639999999999873e+03
1.410000000000000142e-01 4.763764999999999805e-01 3.193439999999999834e+00 1.068840000000000003e+02 1.479654999999999973e+03
1.420000000000000151e-01 4.764049999999999674e-01 3.222935000000000105e+00 1.070384999999999991e+02 1.479684999999999945e+03
1.430000000000000160e-01 4.764375000000000138e-01 3.275009999999999977e+00 1.072154999999999916e+02 1.479720000000000027e+03
1.440000000000000169e-01 4.764724999999999655e-01 3.343555000000000277e+00 1.074064999999999941e+02 1.479765000000000100e+03
1.450000000000000178e-01 4.765079999999999871e-01 3.422680000000000167e+00 1.076009999999999991e+02 1.479815000000000055e+03
1.459999999999999909e-01 4.765409999999999924e-01 3.506920000000000037e+00 1.077895000000000039e+02 1.479865000000000009e+03
1.469999999999999918e-01 4.765719999999999956e-01 3.591320000000000068e+00 1.079654999999999916e+02 1.479909999999999854e+03
1.479999999999999927e-01 4.765989999999999949e-01 3.671570000000000000e+00 1.081214999999999975e+02 1.479954999999999927e+03
1.489999999999999936e-01 4.766205000000000025e-01 3.744054999999999911e+00 1.082530000000000001e+02 1.479994999999999891e+03
1.499999999999999944e-01 4.766374999999999917e-01 3.805899999999999839e+00 1.083559999999999945e+02 1.480030000000000200e+03
1.509999999999999953e-01 4.766484999999999750e-01 3.854979999999999851e+00 1.084284999999999997e+02 1.480050000000000182e+03
1.519999999999999962e-01 4.766535000000000077e-01 3.889934999999999921e+00 1.084710000000000036e+02 1.480070000000000164e+03
1.529999999999999971e-01 4.766525000000000345e-01 3.910095000000000098e+00 1.084824999999999875e+02 1.480079999999999927e+03
1.539999999999999980e-01 4.766464999999999730e-01 3.915455000000000130e+00 1.084650000000000034e+02 1.480074999999999818e+03
1.549999999999999989e-01 4.766354999999999897e-01 3.906604999999999883e+00 1.084205000000000041e+02 1.480070000000000164e+03
1.559999999999999998e-01 4.766210000000000169e-01 3.884655000000000413e+00 1.083530000000000086e+02 1.480055000000000064e+03
1.570000000000000007e-01 4.766019999999999701e-01 3.851119999999999877e+00 1.082650000000000006e+02 1.480029999999999973e+03
1.580000000000000016e-01 4.765810000000000324e-01 3.807850000000000179e+00 1.081620000000000061e+02 1.480005000000000109e+03
1.590000000000000024e-01 4.765584999999999960e-01 3.756920000000000037e+00 1.080469999999999970e+02 1.479974999999999909e+03
