# t [s], A [cm^2], U [cm/s], P [cPa], c [cm/s]
1.000000000000000021e-03 1.907944999999999780e-01 4.514450999999999881e-01 9.282604999999999507e+01 2.242324999999999818e+03
2.000000000000000042e-03 1.907270000000000076e-01 2.085402000000000200e+00 8.878694999999999027e+01 2.241784999999999854e+03
3.000000000000000062e-03 1.905745000000000078e-01 4.058357500000000506e+00 8.338419999999999277e+01 2.240590000000000146e+03
4.000000000000000083e-03 1.903849999999999987e-01 6.284245000000000303e+00 7.808549999999999613e+01 2.239125000000000000e+03
5.000000000000000104e-03 1.901970000000000049e-01 8.615529999999999688e+00 7.385739999999999839e+01 2.237684999999999945e+03
6.000000000000000125e-03 1.900235000000000118e-01 1.073582999999999998e+01 7.050069999999999482e+01 2.236380000000000109e+03
7.000000000000000146e-03 1.898644999999999916e-01 1.246033500000000060e+01 6.749065000000000225e+01 2.235210000000000036e+03
8.000000000000000167e-03 1.897260000000000058e-01 1.384654000000000096e+01 6.487489999999999668e+01 2.234210000000000036e+03
9.000000000000001055e-03 1.896125000000000171e-01 1.495260000000000034e+01 6.280604999999999905e+01 2.233389999999999873e+03
1.000000000000000194e-02 1.895219999999999960e-01 1.579554999999999865e+01 6.122979999999999734e+01 2.232755000000000109e+03
1.099999999999999936e-02 1.894525000000000237e-01 1.639624999999999844e+01 6.004970000000000141e+01 2.232275000000000091e+03
1.200000000000000025e-02 1.893980000000000108e-01 1.675825000000000031e+01 5.910864999999999725e+01 2.231904999999999745e+03
1.300000000000000114e-02 1.893529999999999935e-01 1.691390000000000171e+01 5.826595000000000368e+01 2.231609999999999673e+03
1.400000000000000203e-02 1.893205000000000027e-01 1.701480000000000103e+01 5.770945000000000391e+01 2.231394999999999982e+03
1.499999999999999944e-02 1.893114999999999937e-01 1.730349999999999966e+01 5.802705000000000268e+01 2.231349999999999909e+03
1.600000000000000033e-02 1.893424999999999969e-01 1.795830000000000126e+01 5.979919999999999902e+01 2.231569999999999709e+03
1.700000000000000122e-02 1.894190000000000040e-01 1.895504999999999995e+01 6.307240000000000180e+01 2.232119999999999891e+03
1.800000000000000211e-02 1.895300000000000040e-01 2.005930000000000035e+01 6.717109999999999559e+01 2.232914999999999964e+03
1.900000000000000300e-02 1.896494999999999986e-01 2.094030000000000058e+01 7.096344999999999459e+01 2.233789999999999964e+03
2.000000000000000042e-02 1.897475000000000134e-01 2.132589999999999719e+01 7.337420000000000186e+01 2.234514999999999873e+03
2.100000000000000130e-02 1.898019999999999985e-01 2.111415000000000219e+01 7.384250000000000114e+01 2.234939999999999600e+03
2.200000000000000219e-02 1.898050000000000015e-01 2.039555000000000007e+01 7.250665000000000759e+01 2.235000000000000000e+03
2.299999999999999961e-02 1.897675000000000056e-01 1.938735000000000142e+01 7.005819999999999936e+01 2.234755000000000109e+03
2.400000000000000050e-02 1.897070000000000145e-01 1.832339999999999947e+01 6.737395000000000778e+01 2.234329999999999927e+03
2.500000000000000139e-02 1.896434999999999926e-01 1.735800000000000054e+01 6.513120000000000687e+01 2.233869999999999891e+03
2.600000000000000228e-02 1.895890000000000075e-01 1.652455000000000140e+01 6.358225000000000193e+01 2.233474999999999909e+03
2.700000000000000316e-02 1.895465000000000066e-01 1.575459999999999994e+01 6.255454999999999899e+01 2.233154999999999745e+03
2.800000000000000058e-02 1.895094999999999974e-01 1.493740000000000023e+01 6.163025000000000375e+01 2.232885000000000218e+03
2.900000000000000147e-02 1.894679999999999975e-01 1.398864999999999981e+01 6.039834999999999354e+01 2.232590000000000146e+03
3.000000000000000236e-02 1.894155000000000144e-01 1.290169999999999995e+01 5.867260000000000275e+01 2.232215000000000146e+03
3.099999999999999978e-02 1.893529999999999935e-01 1.176320499999999925e+01 5.659615000000000151e+01 2.231769999999999982e+03
3.200000000000000067e-02 1.892869999999999830e-01 1.072948500000000038e+01 5.460269999999999868e+01 2.231289999999999964e+03
3.300000000000000155e-02 1.892320000000000113e-01 9.973679999999999879e+00 5.325504999999999711e+01 2.230885000000000218e+03
3.400000000000000244e-02 1.892030000000000101e-01 9.624530000000000030e+00 5.303095000000000425e+01 2.230659999999999854e+03
3.500000000000000333e-02 1.892085000000000017e-01 9.721315000000000595e+00 5.414110000000000156e+01 2.230680000000000291e+03
3.600000000000000422e-02 1.892520000000000036e-01 1.019859500000000097e+01 5.644449999999999790e+01 2.230965000000000146e+03
3.700000000000000511e-02 1.893245000000000067e-01 1.090305000000000035e+01 5.947974999999999568e+01 2.231480000000000018e+03
3.799999999999999906e-02 1.894124999999999837e-01 1.163180000000000014e+01 6.258789999999999765e+01 2.232099999999999909e+03
3.899999999999999994e-02 1.894965000000000122e-01 1.217825000000000024e+01 6.507564999999999600e+01 2.232710000000000036e+03
4.000000000000000083e-02 1.895584999999999909e-01 1.237199999999999989e+01 6.636724999999999852e+01 2.233164999999999964e+03
4.100000000000000172e-02 1.895824999999999871e-01 1.210415000000000063e+01 6.610644999999999527e+01 2.233350000000000364e+03
4.200000000000000261e-02 1.895604999999999929e-01 1.133550499999999950e+01 6.419265000000000043e+01 2.233210000000000036e+03
4.300000000000000350e-02 1.894905000000000062e-01 1.008953499999999970e+01 6.075659999999999883e+01 2.232719999999999800e+03
4.400000000000000439e-02 1.893759999999999888e-01 8.435814999999999841e+00 5.609279999999999688e+01 2.231909999999999854e+03
4.499999999999999833e-02 1.892254999999999909e-01 6.470289999999999431e+00 5.057805000000000462e+01 2.230835000000000036e+03
4.599999999999999922e-02 1.890489999999999948e-01 4.298548499999999883e+00 4.459810000000000230e+01 2.229565000000000055e+03
4.700000000000000011e-02 1.888565000000000105e-01 2.024140000000000050e+00 3.849889999999999901e+01 2.228175000000000182e+03
4.800000000000000100e-02 1.886589999999999934e-01 -2.561700000000000088e-01 3.256665000000000276e+01 2.226750000000000000e+03
4.900000000000000189e-02 1.884655000000000080e-01 -2.452890000000000015e+00 2.703045000000000186e+01 2.225340000000000146e+03
5.000000000000000278e-02 1.882824999999999915e-01 -4.482076499999999797e+00 2.207829999999999870e+01 2.224015000000000327e+03
5.100000000000000366e-02 1.881174999999999931e-01 -6.263795000000000002e+00 1.787375000000000114e+01 2.222809999999999945e+03
5.200000000000000455e-02 1.879764999999999908e-01 -7.722515000000000462e+00 1.456713500000000039e+01 2.221775000000000091e+03
5.300000000000000544e-02 1.878650000000000042e-01 -8.789905000000000967e+00 1.229615000000000080e+01 2.220944999999999709e+03
5.399999999999999939e-02 1.877869999999999817e-01 -9.409264999999999546e+00 1.117694000000000010e+01 2.220369999999999891e+03
5.500000000000000028e-02 1.877479999999999982e-01 -9.541169999999999263e+00 1.128961500000000129e+01 2.220055000000000291e+03
5.600000000000000117e-02 1.877485000000000126e-01 -9.167944999999999567e+00 1.266325000000000145e+01 2.220034999999999854e+03
5.700000000000000205e-02 1.877915000000000001e-01 -8.296499999999999986e+00 1.526529999999999987e+01 2.220315000000000055e+03
5.800000000000000294e-02 1.878739999999999855e-01 -6.958450000000000912e+00 1.899869999999999948e+01 2.220880000000000109e+03
5.900000000000000383e-02 1.879925000000000068e-01 -5.207745000000000068e+00 2.370790000000000219e+01 2.221710000000000036e+03
6.000000000000000472e-02 1.881439999999999779e-01 -3.116189999999999571e+00 2.919174999999999898e+01 2.222780000000000200e+03
6.099999999999999867e-02 1.883210000000000162e-01 -7.677999999999998160e-01 3.522084999999999866e+01 2.224039999999999964e+03
6.199999999999999956e-02 1.885160000000000169e-01 1.747074999999999934e+00 4.155570000000000164e+01 2.225445000000000164e+03
6.300000000000000044e-02 1.887230000000000019e-01 4.337453499999999629e+00 4.796370000000000289e+01 2.226930000000000291e+03
6.400000000000000133e-02 1.889330000000000176e-01 6.916680000000000383e+00 5.423324999999999818e+01 2.228454999999999927e+03
6.500000000000000222e-02 1.891399999999999748e-01 9.406919999999999504e+00 6.018464999999999776e+01 2.229960000000000036e+03
6.600000000000000311e-02 1.893385000000000207e-01 1.174276000000000053e+01 6.567839999999999634e+01 2.231414999999999964e+03
6.700000000000000400e-02 1.895239999999999980e-01 1.387430000000000163e+01 7.062099999999999511e+01 2.232775000000000091e+03
6.800000000000000488e-02 1.896935000000000149e-01 1.576929999999999943e+01 7.496795000000000186e+01 2.234025000000000091e+03
6.900000000000000577e-02 1.898449999999999860e-01 1.741385000000000005e+01 7.872424999999999784e+01 2.235144999999999982e+03
7.000000000000000666e-02 1.899784999999999946e-01 1.881255000000000166e+01 8.194044999999999845e+01 2.236139999999999873e+03
7.100000000000000755e-02 1.900970000000000160e-01 1.998584999999999923e+01 8.470595000000000141e+01 2.237019999999999982e+03
7.200000000000000844e-02 1.902010000000000089e-01 2.096730000000000160e+01 8.713835000000000264e+01 2.237805000000000291e+03
7.300000000000000933e-02 1.902949999999999919e-01 2.179950000000000188e+01 8.937080000000000268e+01 2.238514999999999873e+03
7.399999999999999634e-02 1.903830000000000244e-01 2.252904999999999802e+01 9.153825000000000500e+01 2.239175000000000182e+03
7.499999999999999722e-02 1.904695000000000138e-01 2.320235000000000269e+01 9.376464999999998895e+01 2.239819999999999709e+03
7.599999999999999811e-02 1.905570000000000042e-01 2.386075000000000301e+01 9.615174999999999272e+01 2.240474999999999909e+03
7.699999999999999900e-02 1.906490000000000129e-01 2.453779999999999717e+01 9.877080000000000837e+01 2.241159999999999854e+03
7.799999999999999989e-02 1.907480000000000009e-01 2.525629999999999953e+01 1.016586499999999944e+02 2.241890000000000327e+03
7.900000000000000078e-02 1.908549999999999969e-01 2.602729999999999677e+01 1.048155000000000001e+02 2.242684999999999945e+03
8.000000000000000167e-02 1.909695000000000142e-01 2.685000000000000142e+01 1.082079999999999984e+02 2.243524999999999636e+03
8.100000000000000255e-02 1.910904999999999965e-01 2.771235000000000070e+01 1.117729999999999961e+02 2.244414999999999964e+03
8.200000000000000344e-02 1.912165000000000115e-01 2.859295000000000186e+01 1.154244999999999948e+02 2.245345000000000255e+03
8.300000000000000433e-02 1.913440000000000141e-01 2.946314999999999884e+01 1.190635000000000048e+02 2.246284999999999854e+03
8.400000000000000522e-02 1.914704999999999879e-01 3.028954999999999842e+01 1.225810000000000031e+02 2.247215000000000146e+03
8.500000000000000611e-02 1.915919999999999845e-01 3.103705000000000069e+01 1.258714999999999975e+02 2.248119999999999891e+03
8.600000000000000699e-02 1.917059999999999875e-01 3.167109999999999914e+01 1.288354999999999961e+02 2.248965000000000146e+03
8.700000000000000788e-02 1.918084999999999929e-01 3.216039999999999566e+01 1.313899999999999864e+02 2.249730000000000018e+03
8.800000000000000877e-02 1.918980000000000130e-01 3.247890000000000299e+01 1.334679999999999893e+02 2.250400000000000091e+03
8.899999999999999578e-02 1.919720000000000037e-01 3.260745000000000005e+01 1.350269999999999868e+02 2.250954999999999927e+03
8.999999999999999667e-02 1.920284999999999909e-01 3.253484999999999872e+01 1.360459999999999923e+02 2.251389999999999873e+03
9.099999999999999756e-02 1.920675000000000021e-01 3.225840000000000174e+01 1.365274999999999750e+02 2.251685000000000400e+03
9.199999999999999845e-02 1.920890000000000097e-01 3.178405000000000058e+01 1.364985000000000070e+02 2.251859999999999673e+03
9.299999999999999933e-02 1.920930000000000137e-01 3.112579999999999814e+01 1.360040000000000191e+02 2.251904999999999745e+03
9.400000000000000022e-02 1.920819999999999750e-01 3.030450000000000088e+01 1.351059999999999945e+02 2.251835000000000036e+03
9.500000000000000111e-02 1.920574999999999921e-01 2.934700000000000131e+01 1.338785000000000025e+02 2.251670000000000073e+03
9.600000000000000200e-02 1.920219999999999982e-01 2.828405000000000058e+01 1.324025000000000034e+02 2.251414999999999964e+03
9.700000000000000289e-02 1.919774999999999954e-01 2.714880000000000138e+01 1.307644999999999982e+02 2.251095000000000255e+03
9.800000000000000377e-02 1.919275000000000009e-01 2.597534999999999883e+01 1.290464999999999804e+02 2.250730000000000018e+03
9.900000000000000466e-02 1.918735000000000024e-01 2.479659999999999798e+01 1.273280000000000030e+02 2.250340000000000146e+03
1.000000000000000056e-01 1.918194999999999761e-01 2.364300000000000068e+01 1.256779999999999973e+02 2.249940000000000055e+03
1.010000000000000064e-01 1.917670000000000208e-01 2.254104999999999848e+01 1.241554999999999893e+02 2.249550000000000182e+03
1.020000000000000073e-01 1.917179999999999995e-01 2.151235000000000142e+01 1.228040000000000020e+02 2.249184999999999945e+03
1.030000000000000082e-01 1.916734999999999967e-01 2.057244999999999990e+01 1.216525000000000034e+02 2.248855000000000018e+03
1.040000000000000091e-01 1.916349999999999998e-01 1.973049999999999926e+01 1.207125000000000057e+02 2.248565000000000055e+03
1.050000000000000100e-01 1.916029999999999955e-01 1.898894999999999911e+01 1.199809999999999945e+02 2.248319999999999709e+03
1.059999999999999970e-01 1.915765000000000107e-01 1.834384999999999977e+01 1.194375000000000000e+02 2.248125000000000000e+03
1.069999999999999979e-01 1.915560000000000040e-01 1.778529999999999944e+01 1.190480000000000018e+02 2.247960000000000036e+03
1.079999999999999988e-01 1.915405000000000024e-01 1.729820000000000135e+01 1.187680000000000007e+02 2.247840000000000146e+03
1.089999999999999997e-01 1.915270000000000028e-01 1.686364999999999981e+01 1.185439999999999969e+02 2.247739999999999782e+03
1.100000000000000006e-01 1.915159999999999918e-01 1.646020000000000039e+01 1.183185000000000002e+02 2.247650000000000091e+03
1.110000000000000014e-01 1.915045000000000219e-01 1.606535000000000224e+01 1.180324999999999989e+02 2.247564999999999600e+03
1.120000000000000023e-01 1.914909999999999946e-01 1.565685000000000038e+01 1.176314999999999884e+02 2.247460000000000036e+03
1.130000000000000032e-01 1.914740000000000053e-01 1.521475000000000044e+01 1.170685000000000002e+02 2.247329999999999927e+03
1.140000000000000041e-01 1.914514999999999967e-01 1.472224999999999895e+01 1.163054999999999950e+02 2.247164999999999964e+03
1.150000000000000050e-01 1.914224999999999954e-01 1.416710000000000136e+01 1.153185000000000002e+02 2.246949999999999818e+03
1.160000000000000059e-01 1.913865000000000149e-01 1.354214999999999947e+01 1.140985000000000014e+02 2.246690000000000055e+03
1.170000000000000068e-01 1.913429999999999853e-01 1.284609999999999985e+01 1.126520000000000010e+02 2.246369999999999891e+03
1.180000000000000077e-01 1.912929999999999908e-01 1.208350000000000080e+01 1.109995000000000118e+02 2.246005000000000109e+03
1.190000000000000085e-01 1.912360000000000171e-01 1.126427499999999959e+01 1.091769999999999925e+02 2.245590000000000146e+03
1.200000000000000094e-01 1.911734999999999962e-01 1.040308500000000080e+01 1.072305000000000064e+02 2.245130000000000109e+03
1.209999999999999964e-01 1.911069999999999991e-01 9.518519999999998760e+00 1.052150000000000034e+02 2.244644999999999982e+03
1.219999999999999973e-01 1.910390000000000144e-01 8.631660000000000110e+00 1.031910500000000042e+02 2.244140000000000327e+03
1.229999999999999982e-01 1.909704999999999875e-01 7.764819999999999389e+00 1.012187500000000000e+02 2.243639999999999873e+03
1.239999999999999991e-01 1.909035000000000037e-01 6.940310000000000201e+00 9.935679999999999268e+01 2.243144999999999982e+03
1.250000000000000000e-01 1.908404999999999963e-01 6.178955000000000197e+00 9.765850000000000364e+01 2.242675000000000182e+03
1.260000000000000009e-01 1.907820000000000071e-01 5.499050000000000438e+00 9.616830000000000211e+01 2.242244999999999891e+03
1.270000000000000018e-01 1.907309999999999839e-01 4.915420000000000122e+00 9.491970000000000596e+01 2.241864999999999782e+03
1.280000000000000027e-01 1.906875000000000098e-01 4.438724999999999810e+00 9.393479999999999563e+01 2.241539999999999964e+03
1.290000000000000036e-01 1.906519999999999881e-01 4.075084999999999624e+00 9.322339999999999804e+01 2.241274999999999636e+03
1.300000000000000044e-01 1.906260000000000177e-01 3.825919999999999987e+00 9.278315000000000623e+01 2.241074999999999818e+03
1.310000000000000053e-01 1.906085000000000140e-01 3.688134999999999941e+00 9.260020000000000095e+01 2.240940000000000055e+03
1.320000000000000062e-01 1.905994999999999773e-01 3.654465000000000074e+00 9.265115000000000123e+01 2.240860000000000127e+03
1.330000000000000071e-01 1.905979999999999897e-01 3.714024999999999910e+00 9.290434999999999377e+01 2.240845000000000255e+03
1.340000000000000080e-01 1.906034999999999813e-01 3.853050000000000086e+00 9.332220000000000937e+01 2.240875000000000000e+03
1.350000000000000089e-01 1.906144999999999923e-01 4.055625000000000036e+00 9.386334999999999695e+01 2.240949999999999818e+03
1.360000000000000098e-01 1.906295000000000073e-01 4.304549999999999876e+00 9.448460000000000036e+01 2.241055000000000291e+03
1.370000000000000107e-01 1.906474999999999975e-01 4.582180000000000142e+00 9.514330000000001064e+01 2.241185000000000400e+03
1.380000000000000115e-01 1.906674999999999898e-01 4.871190000000000353e+00 9.579890000000000327e+01 2.241324999999999818e+03
1.390000000000000124e-01 1.906869999999999954e-01 5.155314999999999870e+00 9.641499999999999204e+01 2.241470000000000255e+03
1.400000000000000133e-01 1.907055000000000000e-01 5.420035000000000380e+00 9.696014999999999873e+01 2.241605000000000018e+03
1.410000000000000142e-01 1.907230000000000036e-01 5.653035000000000032e+00 9.740935000000000343e+01 2.241724999999999909e+03
1.420000000000000151e-01 1.907365000000000033e-01 5.844685000000000130e+00 9.774459999999999127e+01 2.241835000000000036e+03
1.430000000000000160e-01 1.907475000000000143e-01 5.988255000000000550e+00 9.795519999999999072e+01 2.241909999999999854e+03
1.440000000000000169e-01 1.907539999999999791e-01 6.080064999999999387e+00 9.803810000000000002e+01 2.241970000000000255e+03
1.450000000000000178e-01 1.907570000000000099e-01 6.119419999999999860e+00 9.799699999999999989e+01 2.241989999999999782e+03
1.459999999999999909e-01 1.907559999999999811e-01 6.108435000000000059e+00 9.784225000000000705e+01 2.241985000000000127e+03
1.469999999999999918e-01 1.907510000000000039e-01 6.051684999999999981e+00 9.758934999999999604e+01 2.241954999999999927e+03
1.479999999999999927e-01 1.907435000000000103e-01 5.955759999999999721e+00 9.725800000000000978e+01 2.241904999999999745e+03
1.489999999999999936e-01 1.907335000000000003e-01 5.828699999999999548e+00 9.687039999999998940e+01 2.241829999999999927e+03
1.499999999999999944e-01 1.907210000000000016e-01 5.679434999999999789e+00 9.644974999999999454e+01 2.241744999999999891e+03
1.509999999999999953e-01 1.907085000000000030e-01 5.517134999999999678e+00 9.601879999999999882e+01 2.241650000000000091e+03
1.519999999999999962e-01 1.906944999999999890e-01 5.350674999999999848e+00 9.559829999999999472e+01 2.241554999999999836e+03
1.529999999999999971e-01 1.906815000000000038e-01 5.188094999999999679e+00 9.520600000000000307e+01 2.241454999999999927e+03
1.539999999999999980e-01 1.906685000000000185e-01 5.036215000000000330e+00 9.485569999999999879e+01 2.241364999999999782e+03
1.549999999999999989e-01 1.906574999999999798e-01 4.900325000000000486e+00 9.455680000000000973e+01 2.241279999999999745e+03
1.559999999999999998e-01 1.906474999999999975e-01 4.784019999999999939e+00 9.431399999999999295e+01 2.241210000000000036e+03
1.570000000000000007e-01 1.906395000000000173e-01 4.689175000000000537e+00 9.412764999999998849e+01 2.241144999999999982e+03
1.580000000000000016e-01 1.906329999999999969e-01 4.615980000000000416e+00 9.399394999999999811e+01 2.241095000000000255e+03
1.590000000000000024e-01 1.906279999999999919e-01 4.563105000000000189e+00 9.390569999999999595e+01 2.241059999999999945e+03
