# t [s], A [cm^2], U [cm/s], P [cPa], c [cm/s]
1.000000000000000021e-03 7.341699999999999893e-01 5.581599999999999062e-03 1.023094999999999999e+02 1.658730000000000018e+03
2.000000000000000042e-03 7.341584999999999361e-01 -2.583994999999999955e-03 1.022819999999999965e+02 1.658719999999999800e+03
3.000000000000000062e-03 7.342139999999999223e-01 8.290130000000001109e-02 1.023780000000000001e+02 1.658740000000000009e+03
4.000000000000000083e-03 7.342705000000000481e-01 1.783121500000000026e-01 1.025020000000000095e+02 1.658764999999999873e+03
5.000000000000000104e-03 7.342485000000000817e-01 1.640050000000000119e-01 1.024639999999999986e+02 1.658764999999999873e+03
6.000000000000000125e-03 7.341794999999999849e-01 7.499599999999997935e-02 1.022650000000000006e+02 1.658724999999999909e+03
7.000000000000000146e-03 7.341210000000000235e-01 -4.535000000000011244e-03 1.020134999999999934e+02 1.658674999999999955e+03
8.000000000000000167e-03 7.340370000000000505e-01 -1.351490000000000191e-01 1.016564999999999941e+02 1.658605000000000018e+03
9.000000000000001055e-03 7.338905000000000012e-01 -3.789599999999999635e-01 1.010975499999999982e+02 1.658494999999999891e+03
1.000000000000000194e-02 7.336745000000000072e-01 -7.462150000000000727e-01 1.002894500000000022e+02 1.658335000000000036e+03
1.099999999999999936e-02 7.333709999999999951e-01 -1.257079999999999753e+00 9.916644999999999754e+01 1.658110000000000127e+03
1.200000000000000025e-02 7.329680000000000639e-01 -1.915564999999999962e+00 9.767820000000000391e+01 1.657809999999999945e+03
1.300000000000000114e-02 7.324964999999999948e-01 -2.651459999999999706e+00 9.587254999999998972e+01 1.657440000000000055e+03
1.400000000000000203e-02 7.320225000000000204e-01 -3.329779999999999962e+00 9.391030000000000655e+01 1.657014999999999873e+03
1.499999999999999944e-02 7.316089999999999538e-01 -3.817044999999999799e+00 9.198904999999999177e+01 1.656590000000000146e+03
1.600000000000000033e-02 7.312834999999999752e-01 -4.038777849999999781e+00 9.025530000000000541e+01 1.656184999999999945e+03
1.700000000000000122e-02 7.310339999999999616e-01 -3.994975499999999791e+00 8.875925000000000864e+01 1.655815000000000055e+03
1.800000000000000211e-02 7.308230000000000004e-01 -3.741411000000000264e+00 8.745990000000000464e+01 1.655474999999999909e+03
1.900000000000000300e-02 7.306075000000000763e-01 -3.356876499999999819e+00 8.626120000000000232e+01 1.655150000000000091e+03
2.000000000000000042e-02 7.303534999999999888e-01 -2.911746000000000389e+00 8.505750000000000455e+01 1.654825000000000045e+03
2.100000000000000130e-02 7.300485000000001001e-01 -2.446661999999999892e+00 8.377340000000000941e+01 1.654480000000000018e+03
2.200000000000000219e-02 7.297000000000000153e-01 -1.966320000000000068e+00 8.238534999999998831e+01 1.654125000000000000e+03
2.299999999999999961e-02 7.293290000000000051e-01 -1.448910000000000142e+00 8.091970000000000596e+01 1.653744999999999891e+03
2.400000000000000050e-02 7.289594999999999825e-01 -8.659550000000000303e-01 7.943029999999998836e+01 1.653365000000000009e+03
2.500000000000000139e-02 7.286059999999999759e-01 -2.030799999999999272e-01 7.796799999999998931e+01 1.652985000000000127e+03
2.600000000000000228e-02 7.282675000000000676e-01 5.264500000000000846e-01 7.655395000000000039e+01 1.652610000000000127e+03
2.700000000000000316e-02 7.279295000000000071e-01 1.279110000000000191e+00 7.516670000000000584e+01 1.652244999999999891e+03
2.800000000000000058e-02 7.275644999999999474e-01 1.988630000000000120e+00 7.374434999999999718e+01 1.651865000000000009e+03
2.900000000000000147e-02 7.271444999999999714e-01 2.580365000000000020e+00 7.219964999999999122e+01 1.651469999999999800e+03
3.000000000000000236e-02 7.266440000000000676e-01 2.988495000000000346e+00 7.044384999999999764e+01 1.651039999999999964e+03
3.099999999999999978e-02 7.260530000000000594e-01 3.171600000000000641e+00 6.841259999999999764e+01 1.650555000000000064e+03
3.200000000000000067e-02 7.253764999999999796e-01 3.122389999999999777e+00 6.608650000000000091e+01 1.650009999999999991e+03
3.300000000000000155e-02 7.246369999999999756e-01 2.869055000000000355e+00 6.350149999999999295e+01 1.649414999999999964e+03
3.400000000000000244e-02 7.238700000000000134e-01 2.467715000000000103e+00 6.074455000000000382e+01 1.648779999999999973e+03
3.500000000000000333e-02 7.231134999999999646e-01 1.989524999999999544e+00 5.793894999999999840e+01 1.648134999999999991e+03
3.600000000000000422e-02 7.224064999999999515e-01 1.506869999999999710e+00 5.522305000000000064e+01 1.647494999999999891e+03
3.700000000000000511e-02 7.217799999999999772e-01 1.082224999999999770e+00 5.273000000000000398e+01 1.646900000000000091e+03
3.799999999999999906e-02 7.212564999999999671e-01 7.620949999999999669e-01 5.057224999999999682e+01 1.646369999999999891e+03
3.899999999999999994e-02 7.208485000000000031e-01 5.757649999999996382e-01 4.883294999999999675e+01 1.645924999999999955e+03
4.000000000000000083e-02 7.205619999999999248e-01 5.378799999999999137e-01 4.756400000000000006e+01 1.645574999999999818e+03
4.100000000000000172e-02 7.203964999999999952e-01 6.531650000000001066e-01 4.678990000000000293e+01 1.645340000000000146e+03
4.200000000000000261e-02 7.203494999999999759e-01 9.217220000000000413e-01 4.651480000000000103e+01 1.645215000000000146e+03
4.300000000000000350e-02 7.204180000000000028e-01 1.343337500000000073e+00 4.673029999999999973e+01 1.645200000000000045e+03
4.400000000000000439e-02 7.205984999999999197e-01 1.919982349999999949e+00 4.742210000000000036e+01 1.645299999999999955e+03
4.499999999999999833e-02 7.208894999999999609e-01 2.656064999999999898e+00 4.857464999999999833e+01 1.645509999999999991e+03
4.599999999999999922e-02 7.212895000000000278e-01 3.556708500000000051e+00 5.017204999999999870e+01 1.645829999999999927e+03
4.700000000000000011e-02 7.217955000000000343e-01 4.624979500000000243e+00 5.219655000000000200e+01 1.646244999999999891e+03
4.800000000000000100e-02 7.224019999999999886e-01 5.859029999999999738e+00 5.462574999999999648e+01 1.646764999999999873e+03
4.900000000000000189e-02 7.231004999999999239e-01 7.249764500000000389e+00 5.742969999999999686e+01 1.647369999999999891e+03
5.000000000000000278e-02 7.238804999999999268e-01 8.780213999999999075e+00 6.056844999999999857e+01 1.648059999999999945e+03
5.100000000000000366e-02 7.247274999999999689e-01 1.042586499999999994e+01 6.399244999999999806e+01 1.648824999999999818e+03
5.200000000000000455e-02 7.256245000000000056e-01 1.215651000000000082e+01 6.764339999999999975e+01 1.649650000000000091e+03
5.300000000000000544e-02 7.265550000000000619e-01 1.393861499999999864e+01 7.145730000000000359e+01 1.650519999999999982e+03
5.399999999999999939e-02 7.275019999999999820e-01 1.573789000000000016e+01 7.536865000000000236e+01 1.651424999999999955e+03
5.500000000000000028e-02 7.284509999999999597e-01 1.752204499999999854e+01 7.931414999999999793e+01 1.652349999999999909e+03
5.600000000000000117e-02 7.293879999999999253e-01 1.926275000000000048e+01 8.323679999999998813e+01 1.653279999999999973e+03
5.700000000000000205e-02 7.303044999999999121e-01 2.093670000000000186e+01 8.708879999999999200e+01 1.654204999999999927e+03
5.800000000000000294e-02 7.311920000000000641e-01 2.252645000000000053e+01 9.083330000000000837e+01 1.655110000000000127e+03
5.900000000000000383e-02 7.320480000000000320e-01 2.402024999999999721e+01 9.444499999999999318e+01 1.656000000000000000e+03
6.000000000000000472e-02 7.328700000000000214e-01 2.541150000000000020e+01 9.791025000000000489e+01 1.656855000000000018e+03
6.099999999999999867e-02 7.336595000000000200e-01 2.669784999999999897e+01 1.012245499999999936e+02 1.657680000000000064e+03
6.199999999999999956e-02 7.344174999999999454e-01 2.788040000000000163e+01 1.043926500000000033e+02 1.658474999999999909e+03
6.300000000000000044e-02 7.351475000000000648e-01 2.896280000000000143e+01 1.074243500000000040e+02 1.659240000000000009e+03
6.400000000000000133e-02 7.358534999999999382e-01 2.994999999999999929e+01 1.103345000000000056e+02 1.659984999999999900e+03
6.500000000000000222e-02 7.365390000000000548e-01 3.084785000000000110e+01 1.131384999999999934e+02 1.660699999999999818e+03
6.600000000000000311e-02 7.372069999999999457e-01 3.166205000000000069e+01 1.158520000000000039e+02 1.661389999999999873e+03
6.700000000000000400e-02 7.378599999999999604e-01 3.239775000000000205e+01 1.184879999999999995e+02 1.662059999999999945e+03
6.800000000000000488e-02 7.384999999999999343e-01 3.305870000000000175e+01 1.210564999999999998e+02 1.662720000000000027e+03
6.900000000000000577e-02 7.391269999999999785e-01 3.364750000000000085e+01 1.235629999999999882e+02 1.663360000000000127e+03
7.000000000000000666e-02 7.397394999999999943e-01 3.416495000000000459e+01 1.260070000000000050e+02 1.663985000000000127e+03
7.100000000000000755e-02 7.403364999999999529e-01 3.461024999999999352e+01 1.283839999999999861e+02 1.664595000000000027e+03
7.200000000000000844e-02 7.409135000000000026e-01 3.498154999999999859e+01 1.306845000000000141e+02 1.665190000000000055e+03
7.300000000000000933e-02 7.414684999999999748e-01 3.527604999999999791e+01 1.328954999999999984e+02 1.665755000000000109e+03
7.399999999999999634e-02 7.419964999999999478e-01 3.549049999999999727e+01 1.350020000000000095e+02 1.666305000000000064e+03
7.499999999999999722e-02 7.424939999999999873e-01 3.562199999999999989e+01 1.369879999999999995e+02 1.666820000000000164e+03
7.599999999999999811e-02 7.429559999999999498e-01 3.566790000000000305e+01 1.388365000000000009e+02 1.667304999999999836e+03
7.699999999999999900e-02 7.433810000000000695e-01 3.562640000000000384e+01 1.405335000000000036e+02 1.667755000000000109e+03
7.799999999999999989e-02 7.437644999999999396e-01 3.549680000000000035e+01 1.420660000000000025e+02 1.668170000000000073e+03
7.900000000000000078e-02 7.441054999999999753e-01 3.527944999999999709e+01 1.434244999999999948e+02 1.668539999999999964e+03
8.000000000000000167e-02 7.444015000000000493e-01 3.497579999999999956e+01 1.446020000000000039e+02 1.668869999999999891e+03
8.100000000000000255e-02 7.446530000000000094e-01 3.458845000000000169e+01 1.455944999999999823e+02 1.669150000000000091e+03
8.200000000000000344e-02 7.448599999999999666e-01 3.412109999999999843e+01 1.464019999999999868e+02 1.669389999999999873e+03
8.300000000000000433e-02 7.450229999999999908e-01 3.357869999999999777e+01 1.470275000000000034e+02 1.669585000000000036e+03
8.400000000000000522e-02 7.451434999999999587e-01 3.296715000000000373e+01 1.474775000000000205e+02 1.669730000000000018e+03
8.500000000000000611e-02 7.452239999999999975e-01 3.229350000000000165e+01 1.477609999999999957e+02 1.669840000000000146e+03
8.600000000000000699e-02 7.452680000000000415e-01 3.156600000000000250e+01 1.478899999999999864e+02 1.669910000000000082e+03
8.700000000000000788e-02 7.452784999999999549e-01 3.079355000000000331e+01 1.478790000000000191e+02 1.669940000000000055e+03
8.800000000000000877e-02 7.452600000000000335e-01 2.998615000000000208e+01 1.477445000000000164e+02 1.669940000000000055e+03
8.899999999999999578e-02 7.452164999999999484e-01 2.915399999999999636e+01 1.475049999999999955e+02 1.669909999999999854e+03
8.999999999999999667e-02 7.451540000000000941e-01 2.830780000000000030e+01 1.471804999999999950e+02 1.669855000000000018e+03
9.099999999999999756e-02 7.450759999999999605e-01 2.745795000000000030e+01 1.467899999999999920e+02 1.669779999999999973e+03
9.199999999999999845e-02 7.449874999999999137e-01 2.661415000000000219e+01 1.463539999999999850e+02 1.669694999999999936e+03
9.299999999999999933e-02 7.448930000000000273e-01 2.578519999999999968e+01 1.458899999999999864e+02 1.669595000000000027e+03
9.400000000000000022e-02 7.447960000000000136e-01 2.497845000000000226e+01 1.454150000000000205e+02 1.669490000000000009e+03
9.500000000000000111e-02 7.446989999999999998e-01 2.419969999999999999e+01 1.449424999999999955e+02 1.669380000000000109e+03
9.600000000000000200e-02 7.446049999999999613e-01 2.345260000000000034e+01 1.444824999999999875e+02 1.669264999999999873e+03
9.700000000000000289e-02 7.445140000000000091e-01 2.273895000000000266e+01 1.440414999999999850e+02 1.669160000000000082e+03
9.800000000000000377e-02 7.444264999999999910e-01 2.205850000000000222e+01 1.436239999999999952e+02 1.669055000000000064e+03
9.900000000000000466e-02 7.443429999999999769e-01 2.140925000000000011e+01 1.432289999999999850e+02 1.668954999999999927e+03
1.000000000000000056e-01 7.442614999999999092e-01 2.078740000000000165e+01 1.428530000000000086e+02 1.668855000000000018e+03
1.010000000000000064e-01 7.441805000000000225e-01 2.018809999999999860e+01 1.424900000000000091e+02 1.668764999999999873e+03
1.020000000000000073e-01 7.440974999999999673e-01 1.960539999999999949e+01 1.421320000000000050e+02 1.668670000000000073e+03
1.030000000000000082e-01 7.440109999999999779e-01 1.903280000000000172e+01 1.417685000000000173e+02 1.668574999999999818e+03
1.040000000000000091e-01 7.439175000000000093e-01 1.846365000000000123e+01 1.413899999999999864e+02 1.668474999999999909e+03
1.050000000000000100e-01 7.438150000000000039e-01 1.789134999999999920e+01 1.409859999999999900e+02 1.668375000000000000e+03
1.059999999999999970e-01 7.437025000000000441e-01 1.730999999999999872e+01 1.405475000000000136e+02 1.668269999999999982e+03
1.069999999999999979e-01 7.435769999999999325e-01 1.671415000000000006e+01 1.400649999999999977e+02 1.668150000000000091e+03
1.079999999999999988e-01 7.434374999999999734e-01 1.609980000000000189e+01 1.395335000000000036e+02 1.668019999999999982e+03
1.089999999999999997e-01 7.432840000000000558e-01 1.546390000000000065e+01 1.389495000000000005e+02 1.667880000000000109e+03
1.100000000000000006e-01 7.431174999999999864e-01 1.480480000000000018e+01 1.383100000000000023e+02 1.667730000000000018e+03
1.110000000000000014e-01 7.429369999999999585e-01 1.412256000000000000e+01 1.376165000000000020e+02 1.667565000000000055e+03
1.120000000000000023e-01 7.427444999999999187e-01 1.341845999999999961e+01 1.368734999999999786e+02 1.667390000000000100e+03
1.130000000000000032e-01 7.425424999999999942e-01 1.269547500000000184e+01 1.360875000000000057e+02 1.667204999999999927e+03
1.140000000000000041e-01 7.423325000000000617e-01 1.195780000000000065e+01 1.352680000000000007e+02 1.667014999999999873e+03
1.150000000000000050e-01 7.421189999999999731e-01 1.121087499999999970e+01 1.344244999999999948e+02 1.666815000000000055e+03
1.160000000000000059e-01 7.419050000000000367e-01 1.046101999999999954e+01 1.335709999999999980e+02 1.666610000000000127e+03
1.170000000000000068e-01 7.416929999999999357e-01 9.715260000000000673e+00 1.327205000000000155e+02 1.666404999999999973e+03
1.180000000000000077e-01 7.414879999999999249e-01 8.981009999999999494e+00 1.318880000000000052e+02 1.666204999999999927e+03
1.190000000000000085e-01 7.412925000000000209e-01 8.265670000000000073e+00 1.310875000000000057e+02 1.666005000000000109e+03
1.200000000000000094e-01 7.411095000000000876e-01 7.576489999999999725e+00 1.303319999999999936e+02 1.665820000000000164e+03
1.209999999999999964e-01 7.409425000000000594e-01 6.919980000000000686e+00 1.296334999999999980e+02 1.665639999999999873e+03
1.219999999999999973e-01 7.407939999999999525e-01 6.301915000000000155e+00 1.290029999999999859e+02 1.665480000000000018e+03
1.229999999999999982e-01 7.406639999999999890e-01 5.726994999999999614e+00 1.284474999999999909e+02 1.665335000000000036e+03
1.239999999999999991e-01 7.405555000000000332e-01 5.198629999999999640e+00 1.279735000000000014e+02 1.665210000000000036e+03
1.250000000000000000e-01 7.404680000000000151e-01 4.718910000000000160e+00 1.275825000000000102e+02 1.665105000000000018e+03
1.260000000000000009e-01 7.404005000000000170e-01 4.288545000000000051e+00 1.272750000000000057e+02 1.665019999999999982e+03
1.270000000000000018e-01 7.403524999999999689e-01 3.906884999999999941e+00 1.270480000000000018e+02 1.664949999999999818e+03
1.280000000000000027e-01 7.403224999999999945e-01 3.572049999999999947e+00 1.268960000000000008e+02 1.664894999999999982e+03
1.290000000000000036e-01 7.403085000000000360e-01 3.281080000000000219e+00 1.268114999999999952e+02 1.664860000000000127e+03
1.300000000000000044e-01 7.403070000000000483e-01 3.030104999999999826e+00 1.267849999999999966e+02 1.664840000000000146e+03
1.310000000000000053e-01 7.403165000000000440e-01 2.814610000000000056e+00 1.268064999999999998e+02 1.664829999999999927e+03
1.320000000000000062e-01 7.403334999999999777e-01 2.629649999999999821e+00 1.268640000000000043e+02 1.664829999999999927e+03
1.330000000000000071e-01 7.403560000000000141e-01 2.470055000000000334e+00 1.269475000000000051e+02 1.664840000000000146e+03
1.340000000000000080e-01 7.403804999999999970e-01 2.330680000000000085e+00 1.270455000000000041e+02 1.664860000000000127e+03
1.350000000000000089e-01 7.404049999999999798e-01 2.206554999999999822e+00 1.271465000000000032e+02 1.664875000000000000e+03
1.360000000000000098e-01 7.404269999999999463e-01 2.093049999999999855e+00 1.272425000000000068e+02 1.664890000000000100e+03
1.370000000000000107e-01 7.404450000000000198e-01 1.985959999999999948e+00 1.273245000000000005e+02 1.664905000000000200e+03
1.380000000000000115e-01 7.404580000000000606e-01 1.881620000000000070e+00 1.273865000000000123e+02 1.664914999999999964e+03
1.390000000000000124e-01 7.404644999999999699e-01 1.776939999999999964e+00 1.274224999999999994e+02 1.664925000000000182e+03
1.400000000000000133e-01 7.404634999999999412e-01 1.669405000000000028e+00 1.274290000000000020e+02 1.664925000000000182e+03
1.410000000000000142e-01 7.404539999999999456e-01 1.557125000000000092e+00 1.274035000000000082e+02 1.664925000000000182e+03
1.420000000000000151e-01 7.404370000000000118e-01 1.438755000000000006e+00 1.273449999999999989e+02 1.664909999999999854e+03
1.430000000000000160e-01 7.404124999999999179e-01 1.313558999999999921e+00 1.272535000000000025e+02 1.664889999999999873e+03
1.440000000000000169e-01 7.403800000000000381e-01 1.181281999999999943e+00 1.271300000000000097e+02 1.664865000000000009e+03
1.450000000000000178e-01 7.403410000000000268e-01 1.042168999999999901e+00 1.269755000000000109e+02 1.664825000000000045e+03
1.459999999999999909e-01 7.402954999999999952e-01 8.968825000000000269e-01 1.267939999999999969e+02 1.664785000000000082e+03
1.469999999999999918e-01 7.402444999999999720e-01 7.464570499999999553e-01 1.265875000000000057e+02 1.664744999999999891e+03
1.479999999999999927e-01 7.401889999999999858e-01 5.922104999999999730e-01 1.263600000000000136e+02 1.664690000000000055e+03
1.489999999999999936e-01 7.401294999999999957e-01 4.356734999999999358e-01 1.261154999999999973e+02 1.664634999999999991e+03
1.499999999999999944e-01 7.400670000000000304e-01 2.785075000000000744e-01 1.258569999999999993e+02 1.664575000000000045e+03
1.509999999999999953e-01 7.400025000000000075e-01 1.224179999999999713e-01 1.255884999999999962e+02 1.664509999999999991e+03
1.519999999999999962e-01 7.399370000000000669e-01 -3.093900000000004979e-02 1.253129999999999882e+02 1.664444999999999936e+03
1.529999999999999971e-01 7.398709999999999454e-01 -1.800390000000000046e-01 1.250339999999999918e+02 1.664384999999999991e+03
1.539999999999999980e-01 7.398050000000000459e-01 -3.235635000000000039e-01 1.247530000000000001e+02 1.664315000000000055e+03
1.549999999999999989e-01 7.397384999999999655e-01 -4.604710000000000747e-01 1.244730000000000132e+02 1.664244999999999891e+03
1.559999999999999998e-01 7.396730000000000249e-01 -5.900164999999999438e-01 1.241939999999999884e+02 1.664174999999999955e+03
1.570000000000000007e-01 7.396080000000000432e-01 -7.118141999999999525e-01 1.239170000000000016e+02 1.664110000000000127e+03
1.580000000000000016e-01 7.395435000000000203e-01 -8.258235000000000436e-01 1.236405000000000030e+02 1.664039999999999964e+03
1.590000000000000024e-01 7.394780000000000797e-01 -9.323194999999999677e-01 1.233654999999999973e+02 1.663974999999999909e+03
