# t [s], A [cm^2], U [cm/s], P [cPa], c [cm/s]
1.000000000000000021e-03 1.293880000000000030e-01 3.337820000000000231e-01 1.037340000000000089e+02 2.009059999999999945e+03
2.000000000000000042e-03 1.293610000000000038e-01 1.901014999999999899e+00 1.003957499999999925e+02 2.008750000000000000e+03
3.000000000000000062e-03 1.292754999999999876e-01 3.819886500000000407e+00 9.596625000000000227e+01 2.007784999999999854e+03
4.000000000000000083e-03 1.291515000000000024e-01 5.957194499999999948e+00 9.111904999999998722e+01 2.006414999999999964e+03
5.000000000000000104e-03 1.290119999999999878e-01 8.248004999999999143e+00 8.666384999999999650e+01 2.004884999999999991e+03
6.000000000000000125e-03 1.288719999999999866e-01 1.055320999999999998e+01 8.293280000000000030e+01 2.003365000000000009e+03
7.000000000000000146e-03 1.287379999999999913e-01 1.269068500000000022e+01 7.977969999999999118e+01 2.001930000000000064e+03
8.000000000000000167e-03 1.286120000000000041e-01 1.455803500000000028e+01 7.696514999999999418e+01 2.000605000000000018e+03
9.000000000000001055e-03 1.284970000000000001e-01 1.616310000000000002e+01 7.445929999999999893e+01 1.999414999999999964e+03
1.000000000000000194e-02 1.283960000000000101e-01 1.753855000000000075e+01 7.232884999999998854e+01 1.998380000000000109e+03
1.099999999999999936e-02 1.283095000000000208e-01 1.869875000000000043e+01 7.057634999999999081e+01 1.997500000000000000e+03
1.200000000000000025e-02 1.282369999999999899e-01 1.965064999999999884e+01 6.914860000000000184e+01 1.996764999999999873e+03
1.300000000000000114e-02 1.281769999999999854e-01 2.039815000000000111e+01 6.796719999999999118e+01 1.996164999999999964e+03
1.400000000000000203e-02 1.281259999999999899e-01 2.094590000000000174e+01 6.693880000000000052e+01 1.995670000000000073e+03
1.499999999999999944e-02 1.280824999999999880e-01 2.132390000000000185e+01 6.601415000000000077e+01 1.995250000000000000e+03
1.600000000000000033e-02 1.280465000000000075e-01 2.160844999999999771e+01 6.527060000000000173e+01 1.994904999999999973e+03
1.700000000000000122e-02 1.280209999999999959e-01 2.190964999999999918e+01 6.492085000000000150e+01 1.994670000000000073e+03
1.800000000000000211e-02 1.280115000000000003e-01 2.232760000000000034e+01 6.521229999999999905e+01 1.994585000000000036e+03
1.900000000000000300e-02 1.280209999999999959e-01 2.290704999999999814e+01 6.628194999999999482e+01 1.994690000000000055e+03
2.000000000000000042e-02 1.280495000000000105e-01 2.361785000000000068e+01 6.805995000000000061e+01 1.994990000000000009e+03
2.100000000000000130e-02 1.280939999999999857e-01 2.436869999999999692e+01 7.027150000000000318e+01 1.995450000000000045e+03
2.200000000000000219e-02 1.281470000000000109e-01 2.504270000000000351e+01 7.252455000000000496e+01 1.995994999999999891e+03
2.299999999999999961e-02 1.282004999999999950e-01 2.553719999999999857e+01 7.443439999999999657e+01 1.996554999999999836e+03
2.400000000000000050e-02 1.282459999999999989e-01 2.579314999999999714e+01 7.573369999999999891e+01 1.997039999999999964e+03
2.500000000000000139e-02 1.282784999999999898e-01 2.580539999999999878e+01 7.633044999999999902e+01 1.997400000000000091e+03
2.600000000000000228e-02 1.282979999999999954e-01 2.561465000000000103e+01 7.630330000000000723e+01 1.997619999999999891e+03
2.700000000000000316e-02 1.283050000000000024e-01 2.528590000000000160e+01 7.584489999999999554e+01 1.997710000000000036e+03
2.800000000000000058e-02 1.283030000000000004e-01 2.488370000000000104e+01 7.517990000000000350e+01 1.997694999999999936e+03
2.900000000000000147e-02 1.282955000000000068e-01 2.445244999999999891e+01 7.448900000000000432e+01 1.997634999999999991e+03
3.000000000000000236e-02 1.282860000000000111e-01 2.400769999999999982e+01 7.386305000000000121e+01 1.997539999999999964e+03
3.099999999999999978e-02 1.282750000000000001e-01 2.353960000000000008e+01 7.329704999999999870e+01 1.997429999999999836e+03
3.200000000000000067e-02 1.282625000000000015e-01 2.302425000000000210e+01 7.271784999999999854e+01 1.997305000000000064e+03
3.300000000000000155e-02 1.282475000000000143e-01 2.243934999999999746e+01 7.203135000000000332e+01 1.997154999999999973e+03
3.400000000000000244e-02 1.282280000000000086e-01 2.177774999999999750e+01 7.117225000000000534e+01 1.996960000000000036e+03
3.500000000000000333e-02 1.282044999999999990e-01 2.105604999999999905e+01 7.013980000000000814e+01 1.996724999999999909e+03
3.600000000000000422e-02 1.281769999999999854e-01 2.031465000000000032e+01 6.901095000000000823e+01 1.996454999999999927e+03
3.700000000000000511e-02 1.281484999999999985e-01 1.961124999999999829e+01 6.792770000000000152e+01 1.996159999999999854e+03
3.799999999999999906e-02 1.281219999999999859e-01 1.900805000000000078e+01 6.706350000000000477e+01 1.995889999999999873e+03
3.899999999999999994e-02 1.281015000000000070e-01 1.855769999999999698e+01 6.657935000000000514e+01 1.995674999999999955e+03
4.000000000000000083e-02 1.280910000000000104e-01 1.829144999999999754e+01 6.658265000000000100e+01 1.995559999999999945e+03
4.100000000000000172e-02 1.280910000000000104e-01 1.821215000000000117e+01 6.709950000000000614e+01 1.995555000000000064e+03
4.200000000000000261e-02 1.281035000000000090e-01 1.829410000000000025e+01 6.806694999999999141e+01 1.995670000000000073e+03
4.300000000000000350e-02 1.281259999999999899e-01 1.848805000000000121e+01 6.934534999999999627e+01 1.995889999999999873e+03
4.400000000000000439e-02 1.281559999999999921e-01 1.873085000000000022e+01 7.074524999999999864e+01 1.996184999999999945e+03
4.499999999999999833e-02 1.281879999999999964e-01 1.895550000000000068e+01 7.206119999999999948e+01 1.996505000000000109e+03
4.599999999999999922e-02 1.282185000000000130e-01 1.910114999999999696e+01 7.310495000000000232e+01 1.996815000000000055e+03
4.700000000000000011e-02 1.282429999999999959e-01 1.911990000000000123e+01 7.373014999999999475e+01 1.997065000000000055e+03
4.800000000000000100e-02 1.282574999999999965e-01 1.898029999999999973e+01 7.384690000000000509e+01 1.997220000000000027e+03
4.900000000000000189e-02 1.282604999999999995e-01 1.866819999999999879e+01 7.342430000000000234e+01 1.997259999999999991e+03
5.000000000000000278e-02 1.282504999999999895e-01 1.818440000000000012e+01 7.248300000000000409e+01 1.997164999999999964e+03
5.100000000000000366e-02 1.282280000000000086e-01 1.754115000000000180e+01 7.108225000000000193e+01 1.996940000000000055e+03
5.200000000000000455e-02 1.281934999999999880e-01 1.675829999999999842e+01 6.930389999999999873e+01 1.996595000000000027e+03
5.300000000000000544e-02 1.281489999999999851e-01 1.585960000000000036e+01 6.723859999999999104e+01 1.996144999999999982e+03
5.399999999999999939e-02 1.280959999999999877e-01 1.487085000000000079e+01 6.497579999999999245e+01 1.995610000000000127e+03
5.500000000000000028e-02 1.280370000000000119e-01 1.381824999999999903e+01 6.259775000000000489e+01 1.995005000000000109e+03
5.600000000000000117e-02 1.279740000000000044e-01 1.272855500000000006e+01 6.017849999999999966e+01 1.994360000000000127e+03
5.700000000000000205e-02 1.279079999999999939e-01 1.162915500000000080e+01 5.778629999999999711e+01 1.993684999999999945e+03
5.800000000000000294e-02 1.278420000000000112e-01 1.054905000000000115e+01 5.548640000000000327e+01 1.993014999999999873e+03
5.900000000000000383e-02 1.277774999999999883e-01 9.518854999999998512e+00 5.334490000000000265e+01 1.992345000000000027e+03
6.000000000000000472e-02 1.277165000000000106e-01 8.570980000000000487e+00 5.143005000000000138e+01 1.991719999999999800e+03
6.099999999999999867e-02 1.276609999999999967e-01 7.738704999999999501e+00 4.981280000000000285e+01 1.991150000000000091e+03
6.199999999999999956e-02 1.276130000000000042e-01 7.054869999999999308e+00 4.856449999999999534e+01 1.990654999999999973e+03
6.300000000000000044e-02 1.275749999999999940e-01 6.550489999999999924e+00 4.775300000000000011e+01 1.990250000000000000e+03
6.400000000000000133e-02 1.275479999999999947e-01 6.252644999999999342e+00 4.743819999999999482e+01 1.989965000000000146e+03
6.500000000000000222e-02 1.275344999999999951e-01 6.182904999999999873e+00 4.766745000000000232e+01 1.989815000000000055e+03
6.600000000000000311e-02 1.275354999999999961e-01 6.355869999999999465e+00 4.847109999999999985e+01 1.989809999999999945e+03
6.700000000000000400e-02 1.275519999999999987e-01 6.778235000000000454e+00 4.986010000000000275e+01 1.989965000000000146e+03
6.800000000000000488e-02 1.275844999999999896e-01 7.448450000000000237e+00 5.182465000000000543e+01 1.990284999999999854e+03
6.900000000000000577e-02 1.276329999999999965e-01 8.356915000000000759e+00 5.433504999999999541e+01 1.990764999999999873e+03
7.000000000000000666e-02 1.276964999999999906e-01 9.486800000000000566e+00 5.734360000000000213e+01 1.991400000000000091e+03
7.100000000000000755e-02 1.277745000000000131e-01 1.081497999999999848e+01 6.078815000000000168e+01 1.992179999999999836e+03
7.200000000000000844e-02 1.278650000000000064e-01 1.231371000000000038e+01 6.459635000000000105e+01 1.993099999999999909e+03
7.300000000000000933e-02 1.279665000000000108e-01 1.395230000000000103e+01 6.869030000000000769e+01 1.994125000000000000e+03
7.399999999999999634e-02 1.280769999999999964e-01 1.569859999999999900e+01 7.299119999999999209e+01 1.995250000000000000e+03
7.499999999999999722e-02 1.281940000000000024e-01 1.752064999999999984e+01 7.742385000000000161e+01 1.996450000000000045e+03
7.599999999999999811e-02 1.283170000000000144e-01 1.938844999999999885e+01 8.192040000000000077e+01 1.997710000000000036e+03
7.699999999999999900e-02 1.284430000000000016e-01 2.127489999999999881e+01 8.642334999999999923e+01 1.999005000000000109e+03
7.799999999999999989e-02 1.285700000000000176e-01 2.315675000000000239e+01 9.088755000000000450e+01 2.000325000000000045e+03
7.900000000000000078e-02 1.286980000000000068e-01 2.501530000000000342e+01 9.528119999999999834e+01 2.001650000000000091e+03
8.000000000000000167e-02 1.288255000000000094e-01 2.683654999999999902e+01 9.958500000000000796e+01 2.002969999999999800e+03
8.100000000000000255e-02 1.289510000000000101e-01 2.861074999999999946e+01 1.037922000000000082e+02 2.004280000000000200e+03
8.200000000000000344e-02 1.290755000000000097e-01 3.033245000000000147e+01 1.079054999999999893e+02 2.005579999999999927e+03
8.300000000000000433e-02 1.291979999999999795e-01 3.199920000000000186e+01 1.119339999999999975e+02 2.006860000000000127e+03
8.400000000000000522e-02 1.293195000000000039e-01 3.361110000000000042e+01 1.158930000000000007e+02 2.008125000000000000e+03
8.500000000000000611e-02 1.294384999999999841e-01 3.516980000000000217e+01 1.197960000000000065e+02 2.009375000000000000e+03
8.600000000000000699e-02 1.295570000000000055e-01 3.667754999999999654e+01 1.236574999999999989e+02 2.010619999999999891e+03
8.700000000000000788e-02 1.296740000000000115e-01 3.813649999999999807e+01 1.274894999999999925e+02 2.011849999999999909e+03
8.800000000000000877e-02 1.297905000000000031e-01 3.954825000000000301e+01 1.312969999999999970e+02 2.013074999999999818e+03
8.899999999999999578e-02 1.299059999999999937e-01 4.091315000000000168e+01 1.350809999999999889e+02 2.014295000000000073e+03
8.999999999999999667e-02 1.300209999999999977e-01 4.223029999999999973e+01 1.388365000000000009e+02 2.015505000000000109e+03
9.099999999999999756e-02 1.301350000000000007e-01 4.349755000000000393e+01 1.425529999999999973e+02 2.016710000000000036e+03
9.199999999999999845e-02 1.302480000000000027e-01 4.471110000000000184e+01 1.462164999999999964e+02 2.017904999999999973e+03
9.299999999999999933e-02 1.303595000000000170e-01 4.586610000000000298e+01 1.498070000000000164e+02 2.019079999999999927e+03
9.400000000000000022e-02 1.304690000000000016e-01 4.695655000000000001e+01 1.533034999999999854e+02 2.020240000000000009e+03
9.500000000000000111e-02 1.305749999999999966e-01 4.797579999999999956e+01 1.566829999999999927e+02 2.021375000000000000e+03
9.600000000000000200e-02 1.306785000000000030e-01 4.891665000000000418e+01 1.599205000000000041e+02 2.022470000000000027e+03
9.700000000000000289e-02 1.307780000000000054e-01 4.977164999999999395e+01 1.629925000000000068e+02 2.023525000000000091e+03
9.800000000000000377e-02 1.308729999999999893e-01 5.053340000000000032e+01 1.658760000000000048e+02 2.024535000000000082e+03
9.900000000000000466e-02 1.309629999999999961e-01 5.119494999999999862e+01 1.685490000000000066e+02 2.025494999999999891e+03
1.000000000000000056e-01 1.310469999999999968e-01 5.175005000000000166e+01 1.709929999999999950e+02 2.026389999999999873e+03
1.010000000000000064e-01 1.311240000000000183e-01 5.219330000000000069e+01 1.731904999999999859e+02 2.027220000000000027e+03
1.020000000000000073e-01 1.311944999999999917e-01 5.252074999999999960e+01 1.751304999999999836e+02 2.027980000000000018e+03
1.030000000000000082e-01 1.312579999999999858e-01 5.272990000000000066e+01 1.768034999999999854e+02 2.028660000000000082e+03
1.040000000000000091e-01 1.313140000000000140e-01 5.282004999999999484e+01 1.782055000000000007e+02 2.029260000000000218e+03
1.050000000000000100e-01 1.313620000000000065e-01 5.279255000000000564e+01 1.793385000000000105e+02 2.029784999999999854e+03
1.059999999999999970e-01 1.314025000000000054e-01 5.265075000000000216e+01 1.802085000000000150e+02 2.030219999999999800e+03
1.069999999999999979e-01 1.314349999999999963e-01 5.240005000000000024e+01 1.808259999999999934e+02 2.030579999999999927e+03
1.079999999999999988e-01 1.314605000000000079e-01 5.204784999999999684e+01 1.812090000000000032e+02 2.030865000000000009e+03
1.089999999999999997e-01 1.314789999999999848e-01 5.160309999999999775e+01 1.813760000000000048e+02 2.031069999999999936e+03
1.100000000000000006e-01 1.314914999999999834e-01 5.107650000000000290e+01 1.813514999999999873e+02 2.031210000000000036e+03
1.110000000000000014e-01 1.314974999999999894e-01 5.047944999999999993e+01 1.811614999999999895e+02 2.031284999999999854e+03
1.120000000000000023e-01 1.314985000000000182e-01 4.982434999999999548e+01 1.808329999999999984e+02 2.031305000000000064e+03
1.130000000000000032e-01 1.314954999999999874e-01 4.912349999999999994e+01 1.803930000000000007e+02 2.031275000000000091e+03
1.140000000000000041e-01 1.314885000000000081e-01 4.838909999999999911e+01 1.798679999999999950e+02 2.031210000000000036e+03
1.150000000000000050e-01 1.314784999999999981e-01 4.763259999999999650e+01 1.792830000000000155e+02 2.031105000000000018e+03
1.160000000000000059e-01 1.314659999999999995e-01 4.686444999999999794e+01 1.786580000000000155e+02 2.030980000000000018e+03
1.170000000000000068e-01 1.314514999999999989e-01 4.609385000000000332e+01 1.780120000000000005e+02 2.030825000000000045e+03
1.180000000000000077e-01 1.314359999999999973e-01 4.532824999999999704e+01 1.773584999999999923e+02 2.030659999999999854e+03
1.190000000000000085e-01 1.314194999999999947e-01 4.457359999999999900e+01 1.767079999999999984e+02 2.030490000000000009e+03
1.200000000000000094e-01 1.314025000000000054e-01 4.383389999999999986e+01 1.760654999999999859e+02 2.030315000000000055e+03
1.209999999999999964e-01 1.313854999999999884e-01 4.311155000000000115e+01 1.754334999999999809e+02 2.030130000000000109e+03
1.219999999999999973e-01 1.313679999999999848e-01 4.240690000000000026e+01 1.748085000000000093e+02 2.029945000000000164e+03
1.229999999999999982e-01 1.313505000000000089e-01 4.171914999999999907e+01 1.741870000000000118e+02 2.029755000000000109e+03
1.239999999999999991e-01 1.313330000000000053e-01 4.104585000000000150e+01 1.735590000000000259e+02 2.029565000000000055e+03
1.250000000000000000e-01 1.313145000000000007e-01 4.038344999999999629e+01 1.729149999999999920e+02 2.029369999999999891e+03
1.260000000000000009e-01 1.312955000000000094e-01 3.972764999999999702e+01 1.722439999999999998e+02 2.029170000000000073e+03
1.270000000000000018e-01 1.312760000000000038e-01 3.907344999999999402e+01 1.715320000000000107e+02 2.028960000000000036e+03
1.280000000000000027e-01 1.312550000000000106e-01 3.841570000000000107e+01 1.707685000000000173e+02 2.028735000000000127e+03
1.290000000000000036e-01 1.312325000000000019e-01 3.774930000000000518e+01 1.699410000000000025e+02 2.028494999999999891e+03
1.300000000000000044e-01 1.312085000000000057e-01 3.706950000000000500e+01 1.690389999999999873e+02 2.028235000000000127e+03
1.310000000000000053e-01 1.311820000000000208e-01 3.637224999999999397e+01 1.680550000000000068e+02 2.027954999999999927e+03
1.320000000000000062e-01 1.311535000000000062e-01 3.565429999999999922e+01 1.669830000000000041e+02 2.027655000000000200e+03
1.330000000000000071e-01 1.311220000000000163e-01 3.491360000000000241e+01 1.658209999999999980e+02 2.027324999999999818e+03
1.340000000000000080e-01 1.310884999999999967e-01 3.414934999999999832e+01 1.645689999999999884e+02 2.026970000000000027e+03
1.350000000000000089e-01 1.310530000000000028e-01 3.336200000000000188e+01 1.632315000000000111e+02 2.026590000000000146e+03
1.360000000000000098e-01 1.310145000000000060e-01 3.255364999999999753e+01 1.618160000000000025e+02 2.026184999999999945e+03
1.370000000000000107e-01 1.309740000000000071e-01 3.172755000000000081e+01 1.603329999999999984e+02 2.025755000000000109e+03
1.380000000000000115e-01 1.309315000000000062e-01 3.088834999999999908e+01 1.587950000000000159e+02 2.025305000000000064e+03
1.390000000000000124e-01 1.308870000000000033e-01 3.004175000000000040e+01 1.572205000000000155e+02 2.024840000000000146e+03
1.400000000000000133e-01 1.308420000000000138e-01 2.919445000000000334e+01 1.556250000000000000e+02 2.024360000000000127e+03
1.410000000000000142e-01 1.307955000000000090e-01 2.835385000000000133e+01 1.540289999999999964e+02 2.023875000000000000e+03
1.420000000000000151e-01 1.307490000000000041e-01 2.752749999999999986e+01 1.524524999999999864e+02 2.023384999999999991e+03
1.430000000000000160e-01 1.307030000000000136e-01 2.672334999999999994e+01 1.509139999999999873e+02 2.022894999999999982e+03
1.440000000000000169e-01 1.306579999999999964e-01 2.594875000000000043e+01 1.494329999999999927e+02 2.022414999999999964e+03
1.450000000000000178e-01 1.306140000000000079e-01 2.521079999999999899e+01 1.480244999999999891e+02 2.021950000000000045e+03
1.459999999999999909e-01 1.305719999999999936e-01 2.451569999999999894e+01 1.467049999999999841e+02 2.021509999999999991e+03
1.469999999999999918e-01 1.305320000000000091e-01 2.386860000000000070e+01 1.454839999999999804e+02 2.021079999999999927e+03
1.479999999999999927e-01 1.304949999999999999e-01 2.327345000000000041e+01 1.443720000000000141e+02 2.020684999999999945e+03
1.489999999999999936e-01 1.304599999999999926e-01 2.273310000000000031e+01 1.433729999999999905e+02 2.020320000000000164e+03
1.499999999999999944e-01 1.304289999999999894e-01 2.224889999999999901e+01 1.424890000000000043e+02 2.019985000000000127e+03
1.509999999999999953e-01 1.304005000000000025e-01 2.182104999999999961e+01 1.417194999999999823e+02 2.019680000000000064e+03
1.519999999999999962e-01 1.303749999999999909e-01 2.144855000000000089e+01 1.410609999999999786e+02 2.019404999999999973e+03
1.529999999999999971e-01 1.303529999999999966e-01 2.112915000000000276e+01 1.405070000000000050e+02 2.019170000000000073e+03
1.539999999999999980e-01 1.303334999999999910e-01 2.086005000000000109e+01 1.400500000000000114e+02 2.018965000000000146e+03
1.549999999999999989e-01 1.303170000000000162e-01 2.063725000000000165e+01 1.396804999999999950e+02 2.018784999999999854e+03
1.559999999999999998e-01 1.303035000000000165e-01 2.045665000000000333e+01 1.393885000000000218e+02 2.018630000000000109e+03
1.570000000000000007e-01 1.302919999999999912e-01 2.031349999999999767e+01 1.391634999999999991e+02 2.018505000000000109e+03
1.580000000000000016e-01 1.302824999999999955e-01 2.020295000000000130e+01 1.389950000000000045e+02 2.018400000000000091e+03
1.590000000000000024e-01 1.302744999999999875e-01 2.012024999999999864e+01 1.388725000000000023e+02 2.018319999999999936e+03
