# t [s], A [cm^2], U [cm/s], P [cPa], c [cm/s]
1.000000000000000021e-03 7.321020000000000305e-01 7.708700000000005825e-03 1.022959999999999923e+02 1.790735000000000127e+03
2.000000000000000042e-03 7.320875000000000021e-01 -4.878880000000000369e-03 1.022580000000000098e+02 1.790724999999999909e+03
3.000000000000000062e-03 7.321480000000000210e-01 9.817339999999999400e-02 1.023829999999999956e+02 1.790750000000000000e+03
4.000000000000000083e-03 7.321984999999999744e-01 2.002748400000000095e-01 1.025180000000000007e+02 1.790775000000000091e+03
5.000000000000000104e-03 7.321539999999999715e-01 1.573029000000000233e-01 1.024130000000000109e+02 1.790755000000000109e+03
6.000000000000000125e-03 7.320765000000000189e-01 5.276999999999998359e-02 1.021375000000000028e+02 1.790704999999999927e+03
7.000000000000000146e-03 7.320160000000000000e-01 -3.210100000000004616e-02 1.018249999999999886e+02 1.790650000000000091e+03
8.000000000000000167e-03 7.319085000000000729e-01 -2.134449999999999958e-01 1.013419999999999987e+02 1.790559999999999945e+03
9.000000000000001055e-03 7.317325000000000079e-01 -5.348599999999998911e-01 1.005957999999999970e+02 1.790424999999999955e+03
1.000000000000000194e-02 7.314810000000000478e-01 -1.004099999999999993e+00 9.953229999999999222e+01 1.790224999999999909e+03
1.099999999999999936e-02 7.311255000000000948e-01 -1.656874999999999876e+00 9.805095000000000027e+01 1.789950000000000045e+03
1.200000000000000025e-02 7.306755000000000333e-01 -2.459515000000000118e+00 9.613804999999999268e+01 1.789595000000000027e+03
1.300000000000000114e-02 7.302029999999999355e-01 -3.258029999999999760e+00 9.396920000000000073e+01 1.789175000000000182e+03
1.400000000000000203e-02 7.297945000000000126e-01 -3.860796000000000117e+00 9.182669999999998822e+01 1.788744999999999891e+03
1.499999999999999944e-02 7.294950000000000045e-01 -4.148151000000000366e+00 8.993619999999999948e+01 1.788335000000000036e+03
1.600000000000000033e-02 7.292894999999999239e-01 -4.113839999999999719e+00 8.836920000000000641e+01 1.787980000000000018e+03
1.700000000000000122e-02 7.291244999999999532e-01 -3.838585000000000136e+00 8.704749999999999943e+01 1.787659999999999854e+03
1.800000000000000211e-02 7.289410000000000611e-01 -3.434874999999999901e+00 8.581114999999999782e+01 1.787355000000000018e+03
1.900000000000000300e-02 7.286979999999999569e-01 -2.994994999999999852e+00 8.450114999999999554e+01 1.787034999999999854e+03
2.000000000000000042e-02 7.283855000000000190e-01 -2.559509500000000326e+00 8.302530000000000143e+01 1.786690000000000055e+03
2.100000000000000130e-02 7.280244999999999633e-01 -2.113369999999999749e+00 8.138469999999999516e+01 1.786315000000000055e+03
2.200000000000000219e-02 7.276510000000000478e-01 -1.607705000000000162e+00 7.965654999999999575e+01 1.785920000000000073e+03
2.299999999999999961e-02 7.272974999999999302e-01 -9.951299999999998480e-01 7.794495000000000573e+01 1.785519999999999982e+03
2.400000000000000050e-02 7.269769999999999843e-01 -2.613300000000000622e-01 7.632564999999999600e+01 1.785139999999999873e+03
2.500000000000000139e-02 7.266799999999999926e-01 5.592900000000002869e-01 7.480750000000000455e+01 1.784769999999999982e+03
2.600000000000000228e-02 7.263739999999999641e-01 1.386989999999999945e+00 7.332205000000000439e+01 1.784409999999999854e+03
2.700000000000000316e-02 7.260189999999999699e-01 2.115369999999999973e+00 7.174075000000000557e+01 1.784039999999999964e+03
2.800000000000000058e-02 7.255745000000000111e-01 2.638869999999999827e+00 6.991280000000000427e+01 1.783630000000000109e+03
2.900000000000000147e-02 7.250170000000000226e-01 2.881629999999999470e+00 6.771289999999999054e+01 1.783154999999999973e+03
3.000000000000000236e-02 7.243479999999999919e-01 2.818864999999999732e+00 6.508455000000000723e+01 1.782599999999999909e+03
3.099999999999999978e-02 7.235930000000000417e-01 2.482930000000000081e+00 6.206329999999999814e+01 1.781974999999999909e+03
3.200000000000000067e-02 7.227989999999999693e-01 1.952065000000000161e+00 5.877235000000000298e+01 1.781295000000000073e+03
3.300000000000000155e-02 7.220170000000000199e-01 1.327284999999999826e+00 5.539359999999999928e+01 1.780590000000000146e+03
3.400000000000000244e-02 7.212950000000000195e-01 7.077200000000001268e-01 5.212775000000000603e+01 1.779900000000000091e+03
3.500000000000000333e-02 7.206679999999999753e-01 1.723049999999997084e-01 4.915744999999999720e+01 1.779255000000000109e+03
3.600000000000000422e-02 7.201569999999999361e-01 -2.281699999999999839e-01 4.662310000000000088e+01 1.778690000000000055e+03
3.700000000000000511e-02 7.197685000000000333e-01 -4.702249999999996710e-01 4.461299999999999955e+01 1.778220000000000027e+03
3.799999999999999906e-02 7.195009999999999462e-01 -5.505999999999999783e-01 4.316615000000000180e+01 1.777864999999999782e+03
3.899999999999999994e-02 7.193469999999999587e-01 -4.764200000000000657e-01 4.228435000000000343e+01 1.777625000000000000e+03
4.000000000000000083e-02 7.193000000000000504e-01 -2.556154999999999955e-01 4.194814999999999827e+01 1.777494999999999891e+03
4.100000000000000172e-02 7.193549999999999667e-01 1.098255000000000203e-01 4.213179999999999836e+01 1.777480000000000018e+03
4.200000000000000261e-02 7.195099999999999829e-01 6.263750000000000151e-01 4.281395000000000550e+01 1.777574999999999818e+03
4.300000000000000350e-02 7.197670000000000456e-01 1.307010000000000005e+00 4.398135000000000616e+01 1.777769999999999982e+03
4.400000000000000439e-02 7.201269999999999616e-01 2.166030000000000122e+00 4.562604999999999933e+01 1.778075000000000045e+03
4.499999999999999833e-02 7.205894999999999939e-01 3.212894999999999612e+00 4.773829999999999529e+01 1.778480000000000018e+03
4.599999999999999922e-02 7.211499999999999577e-01 4.447004999999999875e+00 5.029885000000000161e+01 1.778980000000000018e+03
4.700000000000000011e-02 7.217985000000000095e-01 5.855010000000000048e+00 5.327264999999999873e+01 1.779574999999999818e+03
4.800000000000000100e-02 7.225200000000000511e-01 7.410909499999999817e+00 5.660674999999999812e+01 1.780244999999999891e+03
4.900000000000000189e-02 7.232959999999999390e-01 9.078728499999998647e+00 6.023174999999999812e+01 1.780985000000000127e+03
5.000000000000000278e-02 7.241070000000000562e-01 1.081645500000000126e+01 6.406680000000000064e+01 1.781779999999999973e+03
5.100000000000000366e-02 7.249345000000000372e-01 1.258090999999999937e+01 6.802655000000000030e+01 1.782610000000000127e+03
5.200000000000000455e-02 7.257605000000000306e-01 1.433187999999999995e+01 7.202870000000000061e+01 1.783460000000000036e+03
5.300000000000000544e-02 7.265719999999999956e-01 1.603546499999999853e+01 7.600055000000000405e+01 1.784315000000000055e+03
5.399999999999999939e-02 7.273594999999999366e-01 1.766570000000000107e+01 7.988410000000000366e+01 1.785159999999999854e+03
5.500000000000000028e-02 7.281165000000000553e-01 1.920514999999999972e+01 8.363824999999999932e+01 1.785985000000000127e+03
5.600000000000000117e-02 7.288425000000000598e-01 2.064405000000000001e+01 8.723904999999999177e+01 1.786784999999999854e+03
5.700000000000000205e-02 7.295365000000000322e-01 2.197905000000000086e+01 9.067830000000000723e+01 1.787559999999999945e+03
5.800000000000000294e-02 7.302025000000000876e-01 2.321189999999999998e+01 9.396059999999999945e+01 1.788299999999999955e+03
5.900000000000000383e-02 7.308440000000000492e-01 2.434734999999999872e+01 9.709989999999999100e+01 1.789009999999999991e+03
6.000000000000000472e-02 7.314654999999999907e-01 2.539215000000000089e+01 1.001167499999999961e+02 1.789699999999999818e+03
6.099999999999999867e-02 7.320725000000000149e-01 2.635379999999999967e+01 1.030331000000000046e+02 1.790369999999999891e+03
6.199999999999999956e-02 7.326675000000000271e-01 2.723924999999999841e+01 1.058703999999999894e+02 1.791019999999999982e+03
6.300000000000000044e-02 7.332549999999999901e-01 2.805424999999999969e+01 1.086469999999999914e+02 1.791654999999999973e+03
6.400000000000000133e-02 7.338350000000000151e-01 2.880250000000000199e+01 1.113755000000000024e+02 1.792275000000000091e+03
6.500000000000000222e-02 7.344079999999999497e-01 2.948525000000000063e+01 1.140610000000000070e+02 1.792889999999999873e+03
6.600000000000000311e-02 7.349714999999999998e-01 3.010110000000000241e+01 1.166990000000000123e+02 1.793490000000000009e+03
6.700000000000000400e-02 7.355230000000000379e-01 3.064645000000000152e+01 1.192804999999999893e+02 1.794085000000000036e+03
6.800000000000000488e-02 7.360569999999999613e-01 3.111625000000000085e+01 1.217879999999999967e+02 1.794659999999999854e+03
6.900000000000000577e-02 7.365699999999999470e-01 3.150455000000000183e+01 1.242005000000000052e+02 1.795215000000000146e+03
7.000000000000000666e-02 7.370555000000000856e-01 3.180550000000000210e+01 1.264939999999999998e+02 1.795740000000000009e+03
7.100000000000000755e-02 7.375095000000000400e-01 3.201420000000000243e+01 1.286460000000000150e+02 1.796244999999999891e+03
7.200000000000000844e-02 7.379280000000000284e-01 3.212695000000000078e+01 1.306355000000000075e+02 1.796715000000000146e+03
7.300000000000000933e-02 7.383070000000000466e-01 3.214175000000000182e+01 1.324435000000000002e+02 1.797144999999999982e+03
7.399999999999999634e-02 7.386449999999999960e-01 3.205819999999999936e+01 1.340564999999999998e+02 1.797534999999999854e+03
7.499999999999999722e-02 7.389405000000000001e-01 3.187729999999999819e+01 1.354655000000000200e+02 1.797875000000000000e+03
7.599999999999999811e-02 7.391925000000000301e-01 3.160150000000000148e+01 1.366645000000000039e+02 1.798179999999999836e+03
7.699999999999999900e-02 7.394009999999999749e-01 3.123454999999999870e+01 1.376530000000000200e+02 1.798430000000000064e+03
7.799999999999999989e-02 7.395665000000000155e-01 3.078140000000000143e+01 1.384329999999999927e+02 1.798634999999999991e+03
7.900000000000000078e-02 7.396909999999999874e-01 3.024845000000000184e+01 1.390124999999999886e+02 1.798800000000000182e+03
8.000000000000000167e-02 7.397765000000000590e-01 2.964339999999999975e+01 1.394010000000000105e+02 1.798914999999999964e+03
8.100000000000000255e-02 7.398264999999999425e-01 2.897540000000000049e+01 1.396125000000000114e+02 1.798994999999999891e+03
8.200000000000000344e-02 7.398449999999999749e-01 2.825529999999999831e+01 1.396655000000000086e+02 1.799039999999999964e+03
8.300000000000000433e-02 7.398354999999999793e-01 2.749484999999999957e+01 1.395810000000000173e+02 1.799045000000000073e+03
8.400000000000000522e-02 7.398044999999999760e-01 2.670690000000000097e+01 1.393815000000000168e+02 1.799025000000000091e+03
8.500000000000000611e-02 7.397555000000000103e-01 2.590444999999999709e+01 1.390914999999999964e+02 1.798980000000000018e+03
8.600000000000000699e-02 7.396955000000000613e-01 2.510014999999999930e+01 1.387364999999999782e+02 1.798920000000000073e+03
8.700000000000000788e-02 7.396285000000000220e-01 2.430564999999999998e+01 1.383400000000000034e+02 1.798844999999999800e+03
8.800000000000000877e-02 7.395585000000000075e-01 2.353099999999999881e+01 1.379230000000000018e+02 1.798764999999999873e+03
8.899999999999999578e-02 7.394880000000000342e-01 2.278395000000000081e+01 1.375045000000000073e+02 1.798679999999999836e+03
8.999999999999999667e-02 7.394205000000000361e-01 2.206990000000000052e+01 1.370974999999999966e+02 1.798589999999999918e+03
9.099999999999999756e-02 7.393564999999999721e-01 2.139154999999999873e+01 1.367110000000000127e+02 1.798505000000000109e+03
9.199999999999999845e-02 7.392959999999999532e-01 2.074895000000000067e+01 1.363480000000000132e+02 1.798420000000000073e+03
9.299999999999999933e-02 7.392385000000000206e-01 2.014000000000000057e+01 1.360084999999999980e+02 1.798344999999999800e+03
9.400000000000000022e-02 7.391824999999999646e-01 1.956054999999999922e+01 1.356865000000000236e+02 1.798269999999999982e+03
9.500000000000000111e-02 7.391254999999999908e-01 1.900489999999999924e+01 1.353750000000000000e+02 1.798195000000000164e+03
9.600000000000000200e-02 7.390660000000000007e-01 1.846644999999999825e+01 1.350620000000000118e+02 1.798119999999999891e+03
9.700000000000000289e-02 7.389995000000000314e-01 1.793779999999999930e+01 1.347355000000000018e+02 1.798045000000000073e+03
9.800000000000000377e-02 7.389259999999999717e-01 1.741165000000000163e+01 1.343840000000000146e+02 1.797965000000000146e+03
9.900000000000000466e-02 7.388414999999999289e-01 1.688095000000000212e+01 1.339945000000000164e+02 1.797875000000000000e+03
1.000000000000000056e-01 7.387449999999999850e-01 1.633924999999999983e+01 1.335575000000000045e+02 1.797779999999999973e+03
1.010000000000000064e-01 7.386344999999999716e-01 1.578134999999999977e+01 1.330635000000000048e+02 1.797670000000000073e+03
1.020000000000000073e-01 7.385090000000000821e-01 1.520320000000000071e+01 1.325070000000000050e+02 1.797554999999999836e+03
1.030000000000000082e-01 7.383695000000000119e-01 1.460260000000000069e+01 1.318849999999999909e+02 1.797420000000000073e+03
1.040000000000000091e-01 7.382159999999999833e-01 1.397907999999999973e+01 1.311995000000000005e+02 1.797275000000000091e+03
1.050000000000000100e-01 7.380504999999999427e-01 1.333400999999999925e+01 1.304549999999999841e+02 1.797115000000000009e+03
1.059999999999999970e-01 7.378750000000000586e-01 1.267078500000000041e+01 1.296599999999999966e+02 1.796940000000000055e+03
1.069999999999999979e-01 7.376924999999999732e-01 1.199441999999999986e+01 1.288265000000000100e+02 1.796764999999999873e+03
1.079999999999999988e-01 7.375064999999999538e-01 1.131142000000000003e+01 1.279689999999999941e+02 1.796579999999999927e+03
1.089999999999999997e-01 7.373214999999999630e-01 1.062946999999999953e+01 1.271034999999999968e+02 1.796394999999999982e+03
1.100000000000000006e-01 7.371404999999999763e-01 9.956965000000000288e+00 1.262500000000000000e+02 1.796204999999999927e+03
1.110000000000000014e-01 7.369680000000000675e-01 9.302765000000000839e+00 1.254254999999999995e+02 1.796029999999999973e+03
1.120000000000000023e-01 7.368084999999999773e-01 8.675419999999999021e+00 1.246500000000000057e+02 1.795855000000000018e+03
1.130000000000000032e-01 7.366635000000000266e-01 8.082979999999999166e+00 1.239390000000000072e+02 1.795690000000000055e+03
1.140000000000000041e-01 7.365380000000000260e-01 7.532625000000000348e+00 1.233079999999999927e+02 1.795545000000000073e+03
1.150000000000000050e-01 7.364325000000000454e-01 7.030154999999999710e+00 1.227680000000000007e+02 1.795420000000000073e+03
1.160000000000000059e-01 7.363494999999999902e-01 6.579814999999999969e+00 1.223280000000000030e+02 1.795309999999999945e+03
1.170000000000000068e-01 7.362885000000000124e-01 6.184140000000000192e+00 1.219925000000000068e+02 1.795224999999999909e+03
1.180000000000000077e-01 7.362495000000000012e-01 5.843899999999999650e+00 1.217614999999999981e+02 1.795159999999999854e+03
1.190000000000000085e-01 7.362314999999999277e-01 5.558125000000000426e+00 1.216324999999999932e+02 1.795119999999999891e+03
1.200000000000000094e-01 7.362329999999999153e-01 5.324244999999999450e+00 1.215985000000000014e+02 1.795095000000000027e+03
1.209999999999999964e-01 7.362515000000000587e-01 5.138334999999999653e+00 1.216504999999999939e+02 1.795095000000000027e+03
1.219999999999999973e-01 7.362834999999999797e-01 4.995404999999999873e+00 1.217754999999999939e+02 1.795105000000000018e+03
1.229999999999999982e-01 7.363275000000000237e-01 4.889720000000000510e+00 1.219609999999999985e+02 1.795139999999999873e+03
1.239999999999999991e-01 7.363794999999999646e-01 4.815125000000000099e+00 1.221924999999999955e+02 1.795179999999999836e+03
1.250000000000000000e-01 7.364365000000000494e-01 4.765349999999999753e+00 1.224565000000000055e+02 1.795224999999999909e+03
1.260000000000000009e-01 7.364964999999999984e-01 4.734289999999999665e+00 1.227394999999999925e+02 1.795279999999999973e+03
1.270000000000000018e-01 7.365559999999999885e-01 4.716179999999999595e+00 1.230285000000000082e+02 1.795335000000000036e+03
1.280000000000000027e-01 7.366144999999999499e-01 4.705795000000000172e+00 1.233139999999999930e+02 1.795394999999999982e+03
1.290000000000000036e-01 7.366690000000000182e-01 4.698529999999999873e+00 1.235850000000000080e+02 1.795450000000000045e+03
1.300000000000000044e-01 7.367190000000000127e-01 4.690440000000000609e+00 1.238354999999999961e+02 1.795500000000000000e+03
1.310000000000000053e-01 7.367630000000000567e-01 4.678309999999999746e+00 1.240605000000000047e+02 1.795549999999999955e+03
1.320000000000000062e-01 7.368010000000000392e-01 4.659634999999999749e+00 1.242554999999999978e+02 1.795594999999999800e+03
1.330000000000000071e-01 7.368319999999999315e-01 4.632634999999999614e+00 1.244190000000000111e+02 1.795634999999999991e+03
1.340000000000000080e-01 7.368574999999999431e-01 4.596189999999999998e+00 1.245504999999999995e+02 1.795664999999999964e+03
1.350000000000000089e-01 7.368755000000000166e-01 4.549839999999999662e+00 1.246500000000000057e+02 1.795690000000000055e+03
1.360000000000000098e-01 7.368879999999999875e-01 4.493710000000000093e+00 1.247199999999999989e+02 1.795710000000000036e+03
1.370000000000000107e-01 7.368959999999999955e-01 4.428465000000000096e+00 1.247630000000000052e+02 1.795719999999999800e+03
1.380000000000000115e-01 7.368989999999999707e-01 4.355170000000000208e+00 1.247824999999999989e+02 1.795730000000000018e+03
1.390000000000000124e-01 7.368989999999999707e-01 4.275215000000000209e+00 1.247819999999999965e+02 1.795735000000000127e+03
1.400000000000000133e-01 7.368954999999999256e-01 4.190170000000000172e+00 1.247655000000000030e+02 1.795735000000000127e+03
1.410000000000000142e-01 7.368900000000000450e-01 4.101664999999999672e+00 1.247365000000000066e+02 1.795730000000000018e+03
1.420000000000000151e-01 7.368835000000000246e-01 4.011235000000000106e+00 1.246974999999999909e+02 1.795724999999999909e+03
1.430000000000000160e-01 7.368755000000000166e-01 3.920230000000000103e+00 1.246529999999999916e+02 1.795715000000000146e+03
1.440000000000000169e-01 7.368675000000000086e-01 3.829705000000000137e+00 1.246034999999999968e+02 1.795710000000000036e+03
1.450000000000000178e-01 7.368589999999999307e-01 3.740359999999999907e+00 1.245510000000000019e+02 1.795695000000000164e+03
1.459999999999999909e-01 7.368489999999999762e-01 3.652519999999999989e+00 1.244939999999999998e+02 1.795690000000000055e+03
1.469999999999999918e-01 7.368384999999999518e-01 3.566159999999999997e+00 1.244335000000000093e+02 1.795674999999999955e+03
1.479999999999999927e-01 7.368265000000000509e-01 3.480954999999999799e+00 1.243665000000000020e+02 1.795659999999999854e+03
1.489999999999999936e-01 7.368120000000000225e-01 3.396374999999999922e+00 1.242904999999999944e+02 1.795644999999999982e+03
1.499999999999999944e-01 7.367954999999999366e-01 3.311764999999999848e+00 1.242049999999999983e+02 1.795630000000000109e+03
1.509999999999999953e-01 7.367760000000000975e-01 3.226499999999999702e+00 1.241049999999999898e+02 1.795605000000000018e+03
1.519999999999999962e-01 7.367520000000000735e-01 3.140070000000000139e+00 1.239900000000000091e+02 1.795585000000000036e+03
1.529999999999999971e-01 7.367245000000000044e-01 3.052195000000000213e+00 1.238584999999999923e+02 1.795559999999999945e+03
1.539999999999999980e-01 7.366930000000000422e-01 2.962925000000000253e+00 1.237085000000000008e+02 1.795525000000000091e+03
1.549999999999999989e-01 7.366584999999999939e-01 2.872630000000000017e+00 1.235399999999999920e+02 1.795490000000000009e+03
1.559999999999999998e-01 7.366194999999999826e-01 2.782084999999999919e+00 1.233549999999999898e+02 1.795450000000000045e+03
1.570000000000000007e-01 7.365774999999999961e-01 2.692400000000000126e+00 1.231544999999999987e+02 1.795404999999999973e+03
1.580000000000000016e-01 7.365334999999999521e-01 2.604999999999999982e+00 1.229424999999999955e+02 1.795360000000000127e+03
1.590000000000000024e-01 7.364880000000000315e-01 2.521574999999999900e+00 1.227224999999999966e+02 1.795315000000000055e+03
