# t [s], A [cm^2], U [cm/s], P [cPa], c [cm/s]
1.000000000000000021e-03 1.944549999999999890e-01 1.958940000000000126e-01 9.848734999999999218e+01 2.254329999999999927e+03
2.000000000000000042e-03 1.944075000000000109e-01 1.559440500000000007e+00 9.534835000000001060e+01 2.253965000000000146e+03
3.000000000000000062e-03 1.942794999999999939e-01 3.317803500000000128e+00 9.077379999999999427e+01 2.253024999999999636e+03
4.000000000000000083e-03 1.941039999999999988e-01 5.334564850000000469e+00 8.561305000000000121e+01 2.251760000000000218e+03
5.000000000000000104e-03 1.939164999999999917e-01 7.533525000000000027e+00 8.086055000000000348e+01 2.250420000000000073e+03
6.000000000000000125e-03 1.937375000000000069e-01 9.729474999999998985e+00 7.691364999999998986e+01 2.249154999999999745e+03
7.000000000000000146e-03 1.935704999999999787e-01 1.167660000000000053e+01 7.352814999999999657e+01 2.248005000000000109e+03
8.000000000000000167e-03 1.934184999999999932e-01 1.328184500000000057e+01 7.047405000000000541e+01 2.246980000000000018e+03
9.000000000000001055e-03 1.932869999999999866e-01 1.458779999999999966e+01 6.784530000000000882e+01 2.246099999999999909e+03
1.000000000000000194e-02 1.931785000000000030e-01 1.563264999999999816e+01 6.573699999999999477e+01 2.245385000000000218e+03
1.099999999999999936e-02 1.930925000000000002e-01 1.643874999999999886e+01 6.413264999999999816e+01 2.244824999999999818e+03
1.200000000000000025e-02 1.930270000000000041e-01 1.702149999999999963e+01 6.295669999999999789e+01 2.244404999999999745e+03
1.300000000000000114e-02 1.929764999999999953e-01 1.737809999999999988e+01 6.205545000000000044e+01 2.244090000000000146e+03
1.400000000000000203e-02 1.929365000000000108e-01 1.752645000000000053e+01 6.127844999999999942e+01 2.243845000000000255e+03
1.499999999999999944e-02 1.929049999999999931e-01 1.756690000000000040e+01 6.068630000000000280e+01 2.243659999999999854e+03
1.600000000000000033e-02 1.928924999999999945e-01 1.767399999999999949e+01 6.062654999999999461e+01 2.243585000000000036e+03
1.700000000000000122e-02 1.929080000000000239e-01 1.800820000000000221e+01 6.153394999999999726e+01 2.243699999999999818e+03
1.800000000000000211e-02 1.929589999999999916e-01 1.861939999999999884e+01 6.361124999999999829e+01 2.244034999999999854e+03
1.900000000000000300e-02 1.930419999999999914e-01 1.941610000000000014e+01 6.663615000000000066e+01 2.244590000000000146e+03
2.000000000000000042e-02 1.931430000000000091e-01 2.020924999999999727e+01 7.001400000000001000e+01 2.245264999999999873e+03
2.100000000000000130e-02 1.932429999999999981e-01 2.079849999999999710e+01 7.301715000000000089e+01 2.245944999999999709e+03
2.200000000000000219e-02 1.933235000000000092e-01 2.105129999999999768e+01 7.506655000000000655e+01 2.246515000000000327e+03
2.299999999999999961e-02 1.933745000000000047e-01 2.094324999999999903e+01 7.592394999999999072e+01 2.246880000000000109e+03
2.400000000000000050e-02 1.933949999999999836e-01 2.054954999999999998e+01 7.572634999999999650e+01 2.247045000000000073e+03
2.500000000000000139e-02 1.933914999999999940e-01 1.999855000000000160e+01 7.487115000000000009e+01 2.247034999999999854e+03
2.600000000000000228e-02 1.933745000000000047e-01 1.941264999999999930e+01 7.382040000000000646e+01 2.246934999999999945e+03
2.700000000000000316e-02 1.933544999999999847e-01 1.886140000000000327e+01 7.291349999999999909e+01 2.246805000000000291e+03
2.800000000000000058e-02 1.933364999999999945e-01 1.834485000000000099e+01 7.226054999999999495e+01 2.246680000000000291e+03
2.900000000000000147e-02 1.933199999999999918e-01 1.780630000000000024e+01 7.174370000000000402e+01 2.246565000000000055e+03
3.000000000000000236e-02 1.932999999999999996e-01 1.716740000000000066e+01 7.110869999999999891e+01 2.246430000000000291e+03
3.099999999999999978e-02 1.932709999999999984e-01 1.636939999999999884e+01 7.010254999999999370e+01 2.246244999999999891e+03
3.200000000000000067e-02 1.932269999999999821e-01 1.540644999999999953e+01 6.860399999999999920e+01 2.245960000000000036e+03
3.300000000000000155e-02 1.931714999999999960e-01 1.433895000000000053e+01 6.670089999999999009e+01 2.245595000000000255e+03
3.400000000000000244e-02 1.931080000000000019e-01 1.328239999999999910e+01 6.468614999999999782e+01 2.245170000000000073e+03
3.500000000000000333e-02 1.930494999999999850e-01 1.237519999999999953e+01 6.297509999999999764e+01 2.244775000000000091e+03
3.600000000000000422e-02 1.930069999999999841e-01 1.173819999999999908e+01 6.197639999999999816e+01 2.244480000000000018e+03
3.700000000000000511e-02 1.929894999999999805e-01 1.144035000000000046e+01 6.196415000000000362e+01 2.244340000000000146e+03
3.799999999999999906e-02 1.930024999999999935e-01 1.148075000000000045e+01 6.299625000000000341e+01 2.244404999999999745e+03
3.899999999999999994e-02 1.930439999999999934e-01 1.179194999999999993e+01 6.489985000000000070e+01 2.244670000000000073e+03
4.000000000000000083e-02 1.931070000000000009e-01 1.225884999999999891e+01 6.732005000000000905e+01 2.245074999999999818e+03
4.100000000000000172e-02 1.931800000000000184e-01 1.274675000000000047e+01 6.981005000000000393e+01 2.245559999999999945e+03
4.200000000000000261e-02 1.932504999999999917e-01 1.312889999999999979e+01 7.193035000000000423e+01 2.246029999999999745e+03
4.300000000000000350e-02 1.933060000000000056e-01 1.330794999999999995e+01 7.333334999999999582e+01 2.246414999999999964e+03
4.400000000000000439e-02 1.933384999999999965e-01 1.322664999999999935e+01 7.381299999999998818e+01 2.246644999999999982e+03
4.499999999999999833e-02 1.933429999999999871e-01 1.286829999999999963e+01 7.331665000000000987e+01 2.246690000000000055e+03
4.599999999999999922e-02 1.933190000000000186e-01 1.224970000000000070e+01 7.192185000000000628e+01 2.246545000000000073e+03
4.700000000000000011e-02 1.932685000000000097e-01 1.140805500000000094e+01 6.979175000000000750e+01 2.246215000000000146e+03
4.800000000000000100e-02 1.931970000000000076e-01 1.038913999999999938e+01 6.712489999999999668e+01 2.245744999999999891e+03
4.900000000000000189e-02 1.931090000000000029e-01 9.237709999999999866e+00 6.411214999999999975e+01 2.245159999999999854e+03
5.000000000000000278e-02 1.930100000000000149e-01 7.992759999999999643e+00 6.091120000000000090e+01 2.244494999999999891e+03
5.100000000000000366e-02 1.929035000000000055e-01 6.686974999999999447e+00 5.763875000000000171e+01 2.243779999999999745e+03
5.200000000000000455e-02 1.927935000000000065e-01 5.350004999999999455e+00 5.437904999999999944e+01 2.243045000000000073e+03
5.300000000000000544e-02 1.926835000000000075e-01 4.012412499999999937e+00 5.119960000000000377e+01 2.242300000000000182e+03
5.399999999999999939e-02 1.925759999999999972e-01 2.709479500000000041e+00 4.816935000000000144e+01 2.241565000000000055e+03
5.500000000000000028e-02 1.924735000000000196e-01 1.483139999999999903e+00 4.537189999999999657e+01 2.240869999999999891e+03
5.600000000000000117e-02 1.923789999999999945e-01 3.815900000000000958e-01 4.291049999999999898e+01 2.240230000000000018e+03
5.700000000000000205e-02 1.922975000000000101e-01 -5.433150000000001034e-01 4.090500000000000114e+01 2.239670000000000073e+03
5.800000000000000294e-02 1.922325000000000006e-01 -1.240256999999999943e+00 3.948130000000000450e+01 2.239224999999999909e+03
5.900000000000000383e-02 1.921884999999999843e-01 -1.663293499999999980e+00 3.875710000000000122e+01 2.238909999999999854e+03
6.000000000000000472e-02 1.921684999999999921e-01 -1.776380000000000070e+00 3.882699999999999818e+01 2.238755000000000109e+03
6.099999999999999867e-02 1.921760000000000135e-01 -1.556806499999999982e+00 3.975074999999999648e+01 2.238779999999999745e+03
6.199999999999999956e-02 1.922115000000000073e-01 -9.971025000000000027e-01 4.154579999999999984e+01 2.239000000000000000e+03
6.300000000000000044e-02 1.922760000000000025e-01 -1.054050000000000820e-01 4.418519999999999470e+01 2.239409999999999854e+03
6.400000000000000133e-02 1.923679999999999835e-01 1.095604999999999940e+00 4.760089999999999577e+01 2.240010000000000218e+03
6.500000000000000222e-02 1.924855000000000038e-01 2.570849499999999566e+00 5.169030000000000058e+01 2.240784999999999854e+03
6.600000000000000311e-02 1.926249999999999907e-01 4.275682500000000275e+00 5.632580000000000098e+01 2.241710000000000036e+03
6.700000000000000400e-02 1.927825000000000233e-01 6.159175000000000288e+00 6.136540000000000106e+01 2.242760000000000218e+03
6.800000000000000488e-02 1.929529999999999856e-01 8.167605000000000004e+00 6.666329999999999245e+01 2.243900000000000091e+03
6.900000000000000577e-02 1.931324999999999847e-01 1.024796500000000066e+01 7.208064999999999145e+01 2.245104999999999563e+03
7.000000000000000666e-02 1.933159999999999878e-01 1.235093499999999977e+01 7.749484999999999957e+01 2.246350000000000364e+03
7.100000000000000755e-02 1.935000000000000053e-01 1.443394999999999939e+01 8.280644999999999811e+01 2.247600000000000364e+03
7.200000000000000844e-02 1.936820000000000208e-01 1.646260000000000190e+01 8.794424999999999670e+01 2.248835000000000036e+03
7.300000000000000933e-02 1.938590000000000035e-01 1.841215000000000046e+01 9.286709999999999354e+01 2.250050000000000182e+03
7.399999999999999634e-02 1.940300000000000080e-01 2.026699999999999946e+01 9.756139999999999191e+01 2.251225000000000364e+03
7.499999999999999722e-02 1.941950000000000065e-01 2.201989999999999981e+01 1.020388000000000090e+02 2.252354999999999563e+03
7.599999999999999811e-02 1.943539999999999990e-01 2.367040000000000077e+01 1.063262000000000000e+02 2.253449999999999818e+03
7.699999999999999900e-02 1.945069999999999855e-01 2.522225000000000250e+01 1.104609999999999985e+02 2.254505000000000109e+03
7.799999999999999989e-02 1.946565000000000101e-01 2.668195000000000050e+01 1.144819999999999993e+02 2.255534999999999854e+03
7.900000000000000078e-02 1.948024999999999896e-01 2.805640000000000001e+01 1.184215000000000089e+02 2.256539999999999964e+03
8.000000000000000167e-02 1.949454999999999938e-01 2.935150000000000148e+01 1.223059999999999974e+02 2.257529999999999745e+03
8.100000000000000255e-02 1.950864999999999960e-01 3.057175000000000153e+01 1.261475000000000080e+02 2.258505000000000109e+03
8.200000000000000344e-02 1.952265000000000250e-01 3.171930000000000049e+01 1.299464999999999861e+02 2.259470000000000255e+03
8.300000000000000433e-02 1.953640000000000099e-01 3.279420000000000357e+01 1.336949999999999932e+02 2.260425000000000182e+03
8.400000000000000522e-02 1.955000000000000071e-01 3.379455000000000098e+01 1.373750000000000000e+02 2.261364999999999782e+03
8.500000000000000611e-02 1.956324999999999870e-01 3.471694999999999709e+01 1.409624999999999773e+02 2.262284999999999854e+03
8.600000000000000699e-02 1.957619999999999916e-01 3.555639999999999645e+01 1.444294999999999902e+02 2.263184999999999945e+03
8.700000000000000788e-02 1.958869999999999778e-01 3.630695000000000050e+01 1.477470000000000141e+02 2.264045000000000073e+03
8.800000000000000877e-02 1.960065000000000002e-01 3.696170000000000044e+01 1.508834999999999980e+02 2.264880000000000109e+03
8.899999999999999578e-02 1.961189999999999878e-01 3.751314999999999600e+01 1.538079999999999927e+02 2.265659999999999854e+03
8.999999999999999667e-02 1.962234999999999951e-01 3.795340000000000202e+01 1.564900000000000091e+02 2.266394999999999982e+03
9.099999999999999756e-02 1.963199999999999945e-01 3.827464999999999407e+01 1.589004999999999939e+02 2.267070000000000164e+03
9.199999999999999845e-02 1.964069999999999983e-01 3.846994999999999720e+01 1.610135000000000218e+02 2.267675000000000182e+03
9.299999999999999933e-02 1.964830000000000187e-01 3.853350000000000364e+01 1.628064999999999998e+02 2.268210000000000036e+03
9.400000000000000022e-02 1.965485000000000149e-01 3.846150000000000091e+01 1.642649999999999864e+02 2.268670000000000073e+03
9.500000000000000111e-02 1.966014999999999846e-01 3.825289999999999679e+01 1.653799999999999955e+02 2.269050000000000182e+03
9.600000000000000200e-02 1.966430000000000122e-01 3.790990000000000038e+01 1.661525000000000034e+02 2.269345000000000255e+03
9.700000000000000289e-02 1.966729999999999867e-01 3.743805000000000405e+01 1.665944999999999823e+02 2.269559999999999945e+03
9.800000000000000377e-02 1.966910000000000047e-01 3.684644999999999726e+01 1.667259999999999991e+02 2.269699999999999818e+03
9.900000000000000466e-02 1.966990000000000127e-01 3.614735000000000298e+01 1.665765000000000100e+02 2.269760000000000218e+03
1.000000000000000056e-01 1.966974999999999973e-01 3.535559999999999548e+01 1.661845000000000141e+02 2.269760000000000218e+03
1.010000000000000064e-01 1.966870000000000007e-01 3.448814999999999742e+01 1.655900000000000034e+02 2.269699999999999818e+03
1.020000000000000073e-01 1.966700000000000115e-01 3.356305000000000405e+01 1.648389999999999986e+02 2.269585000000000036e+03
1.030000000000000082e-01 1.966479999999999895e-01 3.259870000000000090e+01 1.639764999999999873e+02 2.269439999999999600e+03
1.040000000000000091e-01 1.966215000000000046e-01 3.161289999999999978e+01 1.630450000000000159e+02 2.269260000000000218e+03
1.050000000000000100e-01 1.965919999999999890e-01 3.062239999999999895e+01 1.620829999999999984e+02 2.269064999999999600e+03
1.059999999999999970e-01 1.965620000000000145e-01 2.964205000000000112e+01 1.611234999999999786e+02 2.268855000000000018e+03
1.069999999999999979e-01 1.965310000000000112e-01 2.868435000000000201e+01 1.601939999999999884e+02 2.268644999999999982e+03
1.079999999999999988e-01 1.965009999999999812e-01 2.775905000000000200e+01 1.593125000000000000e+02 2.268434999999999945e+03
1.089999999999999997e-01 1.964720000000000077e-01 2.687320000000000064e+01 1.584909999999999854e+02 2.268230000000000018e+03
1.100000000000000006e-01 1.964445000000000219e-01 2.603040000000000020e+01 1.577334999999999923e+02 2.268039999999999964e+03
1.110000000000000014e-01 1.964190000000000103e-01 2.523144999999999882e+01 1.570360000000000014e+02 2.267860000000000127e+03
1.120000000000000023e-01 1.963944999999999996e-01 2.447415000000000163e+01 1.563880000000000052e+02 2.267690000000000055e+03
1.130000000000000032e-01 1.963715000000000044e-01 2.375390000000000157e+01 1.557724999999999795e+02 2.267529999999999745e+03
1.140000000000000041e-01 1.963489999999999958e-01 2.306374999999999886e+01 1.551684999999999945e+02 2.267369999999999891e+03
1.150000000000000050e-01 1.963270000000000015e-01 2.239520000000000266e+01 1.545529999999999973e+02 2.267210000000000036e+03
1.160000000000000059e-01 1.963040000000000063e-01 2.173880000000000123e+01 1.538985000000000127e+02 2.267050000000000182e+03
1.170000000000000068e-01 1.962790000000000090e-01 2.108484999999999943e+01 1.531809999999999832e+02 2.266875000000000000e+03
1.180000000000000077e-01 1.962520000000000098e-01 2.042379999999999995e+01 1.523770000000000095e+02 2.266690000000000055e+03
1.190000000000000085e-01 1.962220000000000075e-01 1.974725000000000108e+01 1.514654999999999916e+02 2.266480000000000018e+03
1.200000000000000094e-01 1.961880000000000013e-01 1.904840000000000089e+01 1.504325000000000045e+02 2.266250000000000000e+03
1.209999999999999964e-01 1.961499999999999910e-01 1.832229999999999848e+01 1.492690000000000055e+02 2.265985000000000127e+03
1.219999999999999973e-01 1.961069999999999758e-01 1.756664999999999921e+01 1.479730000000000132e+02 2.265694999999999709e+03
1.229999999999999982e-01 1.960604999999999987e-01 1.678160000000000096e+01 1.465494999999999948e+02 2.265375000000000000e+03
1.239999999999999991e-01 1.960099999999999898e-01 1.597005000000000052e+01 1.450115000000000123e+02 2.265025000000000091e+03
1.250000000000000000e-01 1.959549999999999903e-01 1.513750000000000107e+01 1.433779999999999859e+02 2.264654999999999745e+03
1.260000000000000009e-01 1.958975000000000022e-01 1.429170000000000051e+01 1.416740000000000066e+02 2.264260000000000218e+03
1.270000000000000018e-01 1.958380000000000121e-01 1.344245000000000090e+01 1.399284999999999854e+02 2.263850000000000364e+03
1.280000000000000027e-01 1.957770000000000066e-01 1.260089999999999932e+01 1.381750000000000114e+02 2.263430000000000291e+03
1.290000000000000036e-01 1.957160000000000011e-01 1.177874500000000069e+01 1.364465000000000146e+02 2.263005000000000109e+03
1.300000000000000044e-01 1.956559999999999966e-01 1.098798999999999992e+01 1.347764999999999986e+02 2.262595000000000255e+03
1.310000000000000053e-01 1.955985000000000085e-01 1.023993499999999912e+01 1.331940000000000168e+02 2.262190000000000055e+03
1.320000000000000062e-01 1.955429999999999946e-01 9.544710000000000250e+00 1.317275000000000205e+02 2.261809999999999945e+03
1.330000000000000071e-01 1.954919999999999991e-01 8.910845000000000127e+00 1.303969999999999914e+02 2.261460000000000036e+03
1.340000000000000080e-01 1.954454999999999942e-01 8.344815000000000538e+00 1.292179999999999893e+02 2.261135000000000218e+03
1.350000000000000089e-01 1.954040000000000221e-01 7.850799999999999557e+00 1.281990000000000123e+02 2.260845000000000255e+03
1.360000000000000098e-01 1.953685000000000005e-01 7.430830000000000268e+00 1.273429999999999893e+02 2.260595000000000255e+03
1.370000000000000107e-01 1.953374999999999972e-01 7.084655000000000591e+00 1.266469999999999914e+02 2.260375000000000000e+03
1.380000000000000115e-01 1.953119999999999856e-01 6.810039999999999871e+00 1.261024999999999920e+02 2.260195000000000164e+03
1.390000000000000124e-01 1.952915000000000068e-01 6.602970000000000006e+00 1.256980000000000075e+02 2.260050000000000182e+03
1.400000000000000133e-01 1.952760000000000051e-01 6.457980000000000054e+00 1.254180000000000064e+02 2.259934999999999945e+03
1.410000000000000142e-01 1.952649999999999941e-01 6.368475000000000108e+00 1.252450000000000045e+02 2.259854999999999563e+03
1.420000000000000151e-01 1.952564999999999995e-01 6.327045000000000030e+00 1.251604999999999990e+02 2.259795000000000073e+03
1.430000000000000160e-01 1.952515000000000223e-01 6.325789999999999580e+00 1.251469999999999914e+02 2.259755000000000109e+03
1.440000000000000169e-01 1.952495000000000203e-01 6.356595000000000439e+00 1.251839999999999975e+02 2.259734999999999673e+03
1.450000000000000178e-01 1.952490000000000059e-01 6.411414999999999864e+00 1.252554999999999978e+02 2.259730000000000018e+03
1.459999999999999909e-01 1.952494999999999925e-01 6.482514999999999361e+00 1.253439999999999941e+02 2.259730000000000018e+03
1.469999999999999918e-01 1.952510000000000079e-01 6.562685000000000102e+00 1.254360000000000070e+02 2.259739999999999782e+03
1.479999999999999927e-01 1.952524999999999955e-01 6.645455000000000112e+00 1.255175000000000125e+02 2.259750000000000000e+03
1.489999999999999936e-01 1.952539999999999831e-01 6.725260000000000460e+00 1.255794999999999959e+02 2.259760000000000218e+03
1.499999999999999944e-01 1.952550000000000119e-01 6.797544999999999504e+00 1.256134999999999877e+02 2.259765000000000327e+03
1.509999999999999953e-01 1.952550000000000119e-01 6.858895000000000408e+00 1.256150000000000091e+02 2.259765000000000327e+03
1.519999999999999962e-01 1.952539999999999831e-01 6.907040000000000290e+00 1.255810000000000031e+02 2.259760000000000218e+03
1.529999999999999971e-01 1.952524999999999955e-01 6.940839999999999677e+00 1.255124999999999886e+02 2.259750000000000000e+03
1.539999999999999980e-01 1.952494999999999925e-01 6.960219999999999629e+00 1.254110000000000014e+02 2.259730000000000018e+03
1.549999999999999989e-01 1.952455000000000163e-01 6.966015000000000512e+00 1.252820000000000107e+02 2.259704999999999927e+03
1.559999999999999998e-01 1.952415000000000123e-01 6.959799999999999542e+00 1.251305000000000121e+02 2.259670000000000073e+03
1.570000000000000007e-01 1.952360000000000206e-01 6.943665000000000198e+00 1.249639999999999986e+02 2.259640000000000327e+03
1.580000000000000016e-01 1.952300000000000146e-01 6.919940000000000424e+00 1.247884999999999991e+02 2.259599999999999909e+03
1.590000000000000024e-01 1.952244999999999953e-01 6.891024999999999956e+00 1.246115000000000066e+02 2.259559999999999945e+03
