# t [s], A [cm^2], U [cm/s], P [cPa], c [cm/s]
1.000000000000000021e-03 8.100289999999999990e-01 3.114249999999998963e-03 9.471260000000000900e+01 1.555630000000000109e+03
2.000000000000000042e-03 8.100190000000000445e-01 1.923094999999999666e-03 9.469114999999999327e+01 1.555625000000000000e+03
3.000000000000000062e-03 8.100954999999999684e-01 1.053139500000000173e-01 9.479574999999999818e+01 1.555644999999999982e+03
4.000000000000000083e-03 8.101549999999999585e-01 1.932216500000000226e-01 9.490254999999999086e+01 1.555675000000000182e+03
5.000000000000000104e-03 8.101180000000000048e-01 1.606809999999999905e-01 9.483960000000000434e+01 1.555664999999999964e+03
6.000000000000000125e-03 8.100365000000000482e-01 6.349899999999997213e-02 9.462880000000001246e+01 1.555625000000000000e+03
7.000000000000000146e-03 8.099574999999999969e-01 -3.961999999999998856e-02 9.434335000000000093e+01 1.555565000000000055e+03
8.000000000000000167e-03 8.098289999999999100e-01 -2.193499999999999339e-01 9.391225000000000023e+01 1.555474999999999909e+03
9.000000000000001055e-03 8.096149999999999736e-01 -5.280549999999999411e-01 9.324774999999999636e+01 1.555340000000000146e+03
1.000000000000000194e-02 8.093099999999999739e-01 -9.684099999999999930e-01 9.230644999999999811e+01 1.555144999999999982e+03
1.099999999999999936e-02 8.088949999999999196e-01 -1.553309999999999746e+00 9.103520000000000323e+01 1.554875000000000000e+03
1.200000000000000025e-02 8.083575000000000621e-01 -2.281195000000000306e+00 8.939490000000000691e+01 1.554525000000000091e+03
1.300000000000000114e-02 8.077334999999999932e-01 -3.081654999999999589e+00 8.743545000000000300e+01 1.554085000000000036e+03
1.400000000000000203e-02 8.070995000000000807e-01 -3.819270000000000387e+00 8.531524999999999181e+01 1.553605000000000018e+03
1.499999999999999944e-02 8.065364999999999895e-01 -4.352932000000000023e+00 8.324119999999999209e+01 1.553119999999999891e+03
1.600000000000000033e-02 8.060879999999999157e-01 -4.594597500000000778e+00 8.138454999999999018e+01 1.552654999999999973e+03
1.700000000000000122e-02 8.057539999999999702e-01 -4.532361499999999488e+00 7.982644999999999413e+01 1.552240000000000009e+03
1.800000000000000211e-02 8.054949999999999610e-01 -4.219285000000000174e+00 7.854925000000000068e+01 1.551869999999999891e+03
1.900000000000000300e-02 8.052570000000000006e-01 -3.743714999999999904e+00 7.746160000000000423e+01 1.551539999999999964e+03
2.000000000000000042e-02 8.049930000000000696e-01 -3.195536499999999780e+00 7.644165000000000987e+01 1.551230000000000018e+03
2.100000000000000130e-02 8.046720000000000539e-01 -2.638667499999999944e+00 7.538195000000000334e+01 1.550910000000000082e+03
2.200000000000000219e-02 8.042920000000000069e-01 -2.097814999999999763e+00 7.422140000000000271e+01 1.550579999999999927e+03
2.299999999999999961e-02 8.038684999999999858e-01 -1.562899999999999956e+00 7.295380000000000109e+01 1.550224999999999909e+03
2.400000000000000050e-02 8.034284999999999899e-01 -1.007415000000000171e+00 7.161329999999999529e+01 1.549855000000000018e+03
2.500000000000000139e-02 8.029915000000000802e-01 -4.111000000000000210e-01 7.024564999999999770e+01 1.549485000000000127e+03
2.600000000000000228e-02 8.025640000000000551e-01 2.228650000000000908e-01 6.887944999999999141e+01 1.549105000000000018e+03
2.700000000000000316e-02 8.021329999999999849e-01 8.612099999999998090e-01 6.750764999999999816e+01 1.548724999999999909e+03
2.800000000000000058e-02 8.016719999999999402e-01 1.444735000000000102e+00 6.608295000000001096e+01 1.548329999999999927e+03
2.900000000000000147e-02 8.011460000000000248e-01 1.900484999999999758e+00 6.452770000000001005e+01 1.547910000000000082e+03
3.000000000000000236e-02 8.005240000000000133e-01 2.157984999999999598e+00 6.275260000000000105e+01 1.547450000000000045e+03
3.099999999999999978e-02 7.997845000000000093e-01 2.165505000000000013e+00 6.068125000000000568e+01 1.546925000000000182e+03
3.200000000000000067e-02 7.989239999999999675e-01 1.902355000000000018e+00 5.827219999999999800e+01 1.546329999999999927e+03
3.300000000000000155e-02 7.979585000000000150e-01 1.384249999999999758e+00 5.553435000000000343e+01 1.545670000000000073e+03
3.400000000000000244e-02 7.969224999999999781e-01 6.604200000000002291e-01 5.253125000000000000e+01 1.544944999999999936e+03
3.500000000000000333e-02 7.958620000000000694e-01 -1.961599999999998900e-01 4.937284999999999968e+01 1.544174999999999955e+03
3.600000000000000422e-02 7.948275000000000201e-01 -1.101605000000000167e+00 4.619969999999999999e+01 1.543404999999999973e+03
3.700000000000000511e-02 7.938665000000000305e-01 -1.974250000000000504e+00 4.316280000000000427e+01 1.542650000000000091e+03
3.799999999999999906e-02 7.930194999999999883e-01 -2.744089999999999918e+00 4.040449999999999875e+01 1.541945000000000164e+03
3.899999999999999994e-02 7.923154999999999504e-01 -3.358559999999999768e+00 3.804455000000000098e+01 1.541324999999999818e+03
4.000000000000000083e-02 7.917724999999999902e-01 -3.783264999999999656e+00 3.617099999999999937e+01 1.540805000000000064e+03
4.100000000000000172e-02 7.913995000000000335e-01 -4.000145999999999979e+00 3.483840000000000003e+01 1.540404999999999973e+03
4.200000000000000261e-02 7.911964999999999693e-01 -4.003314999999999735e+00 3.407000000000000028e+01 1.540134999999999991e+03
4.300000000000000350e-02 7.911595000000000155e-01 -3.794494999999999951e+00 3.386414999999999509e+01 1.540000000000000000e+03
4.400000000000000439e-02 7.912809999999999011e-01 -3.379055000000000142e+00 3.420120000000000005e+01 1.540000000000000000e+03
4.499999999999999833e-02 7.915514999999999635e-01 -2.763568999999999942e+00 3.505044999999999789e+01 1.540125000000000000e+03
4.599999999999999922e-02 7.919625000000000137e-01 -1.955114999999999936e+00 3.637519999999999953e+01 1.540375000000000000e+03
4.700000000000000011e-02 7.925014999999999699e-01 -9.620350000000001955e-01 3.813524999999999920e+01 1.540730000000000018e+03
4.800000000000000100e-02 7.931589999999999474e-01 2.044200000000002682e-01 4.028730000000000189e+01 1.541195000000000164e+03
4.900000000000000189e-02 7.939195000000000002e-01 1.528374999999999595e+00 4.278440000000000509e+01 1.541750000000000000e+03
5.000000000000000278e-02 7.947679999999999190e-01 2.988245000000000040e+00 4.557489999999999952e+01 1.542384999999999991e+03
5.100000000000000366e-02 7.956855000000000455e-01 4.556609999999999161e+00 4.860169999999999391e+01 1.543085000000000036e+03
5.200000000000000455e-02 7.966519999999999158e-01 6.201019999999999754e+00 5.180320000000000391e+01 1.543845000000000027e+03
5.300000000000000544e-02 7.976469999999999949e-01 7.886165000000000092e+00 5.511480000000000246e+01 1.544639999999999873e+03
5.399999999999999939e-02 7.986500000000000821e-01 9.575698000000000931e+00 5.847164999999999679e+01 1.545454999999999927e+03
5.500000000000000028e-02 7.996419999999999639e-01 1.123491499999999910e+01 6.181190000000000140e+01 1.546284999999999854e+03
5.600000000000000117e-02 8.006079999999999863e-01 1.283290000000000042e+01 6.508029999999999404e+01 1.547105000000000018e+03
5.700000000000000205e-02 8.015345000000000386e-01 1.434415500000000065e+01 6.823050000000000637e+01 1.547904999999999973e+03
5.800000000000000294e-02 8.024139999999999606e-01 1.574952000000000041e+01 7.122765000000001123e+01 1.548679999999999836e+03
5.900000000000000383e-02 8.032410000000000938e-01 1.703659999999999997e+01 7.404919999999999902e+01 1.549424999999999955e+03
6.000000000000000472e-02 8.040145000000000763e-01 1.819944999999999879e+01 7.668510000000000559e+01 1.550130000000000109e+03
6.099999999999999867e-02 8.047370000000000356e-01 1.923809999999999931e+01 7.913679999999999382e+01 1.550784999999999854e+03
6.199999999999999956e-02 8.054140000000000743e-01 2.015739999999999910e+01 8.141585000000000605e+01 1.551414999999999964e+03
6.300000000000000044e-02 8.060510000000000730e-01 2.096620000000000061e+01 8.354189999999999827e+01 1.552000000000000000e+03
6.400000000000000133e-02 8.066564999999999985e-01 2.167614999999999981e+01 8.554044999999999277e+01 1.552559999999999945e+03
6.500000000000000222e-02 8.072399999999999576e-01 2.230084999999999695e+01 8.744040000000001100e+01 1.553089999999999918e+03
6.600000000000000311e-02 8.078099999999999170e-01 2.285454999999999970e+01 8.927185000000000059e+01 1.553599999999999909e+03
6.700000000000000400e-02 8.083739999999999259e-01 2.335150000000000148e+01 9.106389999999998963e+01 1.554095000000000027e+03
6.800000000000000488e-02 8.089394999999999225e-01 2.380494999999999806e+01 9.284264999999999191e+01 1.554585000000000036e+03
6.900000000000000577e-02 8.095120000000000093e-01 2.422630000000000194e+01 9.462950000000000728e+01 1.555075000000000045e+03
7.000000000000000666e-02 8.100944999999999396e-01 2.462469999999999715e+01 9.643975000000000364e+01 1.555570000000000164e+03
7.100000000000000755e-02 8.106884999999999231e-01 2.500600000000000023e+01 9.828164999999999907e+01 1.556065000000000055e+03
7.200000000000000844e-02 8.112935000000000008e-01 2.537299999999999756e+01 1.001557999999999993e+02 1.556569999999999936e+03
7.300000000000000933e-02 8.119060000000000166e-01 2.572524999999999906e+01 1.020545500000000061e+02 1.557074999999999818e+03
7.399999999999999634e-02 8.125199999999999090e-01 2.605904999999999916e+01 1.039645000000000010e+02 1.557585000000000036e+03
7.499999999999999722e-02 8.131289999999999907e-01 2.636824999999999974e+01 1.058654999999999973e+02 1.558089999999999918e+03
7.599999999999999811e-02 8.137254999999999905e-01 2.664464999999999861e+01 1.077325000000000017e+02 1.558595000000000027e+03
7.699999999999999900e-02 8.143000000000000238e-01 2.687884999999999991e+01 1.095379999999999967e+02 1.559079999999999927e+03
7.799999999999999989e-02 8.148435000000000539e-01 2.706089999999999662e+01 1.112530000000000001e+02 1.559545000000000073e+03
7.900000000000000078e-02 8.153479999999999617e-01 2.718104999999999905e+01 1.128495000000000061e+02 1.559985000000000127e+03
8.000000000000000167e-02 8.158054999999999612e-01 2.723055000000000092e+01 1.143015000000000043e+02 1.560389999999999873e+03
8.100000000000000255e-02 8.162099999999999911e-01 2.720204999999999984e+01 1.155859999999999985e+02 1.560759999999999991e+03
8.200000000000000344e-02 8.165565000000000184e-01 2.709004999999999797e+01 1.166850000000000023e+02 1.561079999999999927e+03
8.300000000000000433e-02 8.168414999999999981e-01 2.689130000000000109e+01 1.175854999999999961e+02 1.561355000000000018e+03
8.400000000000000522e-02 8.170634999999999426e-01 2.660484999999999900e+01 1.182810000000000059e+02 1.561575000000000045e+03
8.500000000000000611e-02 8.172224999999999628e-01 2.623235000000000028e+01 1.187710000000000008e+02 1.561744999999999891e+03
8.600000000000000699e-02 8.173209999999999642e-01 2.577759999999999962e+01 1.190594999999999999e+02 1.561865000000000009e+03
8.700000000000000788e-02 8.173619999999999219e-01 2.524684999999999846e+01 1.191564999999999941e+02 1.561934999999999945e+03
8.800000000000000877e-02 8.173504999999999798e-01 2.464829999999999899e+01 1.190780000000000030e+02 1.561954999999999927e+03
8.899999999999999578e-02 8.172924999999999773e-01 2.399184999999999945e+01 1.188425000000000011e+02 1.561940000000000055e+03
8.999999999999999667e-02 8.171945000000000459e-01 2.328880000000000194e+01 1.184724999999999966e+02 1.561880000000000109e+03
9.099999999999999756e-02 8.170645000000000824e-01 2.255129999999999768e+01 1.179925000000000068e+02 1.561789999999999964e+03
9.199999999999999845e-02 8.169104999999999839e-01 2.179204999999999970e+01 1.174290000000000020e+02 1.561674999999999955e+03
9.299999999999999933e-02 8.167400000000000215e-01 2.102360000000000184e+01 1.168075000000000045e+02 1.561539999999999964e+03
9.400000000000000022e-02 8.165594999999999937e-01 2.025815000000000055e+01 1.161539999999999964e+02 1.561389999999999873e+03
9.500000000000000111e-02 8.163774999999999782e-01 1.950699999999999790e+01 1.154919999999999902e+02 1.561230000000000018e+03
9.600000000000000200e-02 8.161994999999999667e-01 1.877974999999999994e+01 1.148439999999999941e+02 1.561074999999999818e+03
9.700000000000000289e-02 8.160304999999999920e-01 1.808464999999999989e+01 1.142270000000000039e+02 1.560920000000000073e+03
9.800000000000000377e-02 8.158745000000000580e-01 1.742770000000000152e+01 1.136555000000000035e+02 1.560775000000000091e+03
9.900000000000000466e-02 8.157339999999999591e-01 1.681269999999999953e+01 1.131405000000000030e+02 1.560634999999999991e+03
1.000000000000000056e-01 8.156109999999999749e-01 1.624150000000000205e+01 1.126864999999999952e+02 1.560510000000000218e+03
1.010000000000000064e-01 8.155045000000000766e-01 1.571330000000000027e+01 1.122969999999999970e+02 1.560400000000000091e+03
1.020000000000000073e-01 8.154144999999999310e-01 1.522564999999999991e+01 1.119685000000000059e+02 1.560300000000000182e+03
1.030000000000000082e-01 8.153384999999999661e-01 1.477410000000000068e+01 1.116949999999999932e+02 1.560220000000000027e+03
1.040000000000000091e-01 8.152730000000000254e-01 1.435269999999999868e+01 1.114680000000000035e+02 1.560144999999999982e+03
1.050000000000000100e-01 8.152154999999999818e-01 1.395429999999999993e+01 1.112745000000000033e+02 1.560079999999999927e+03
1.059999999999999970e-01 8.151610000000000245e-01 1.357110000000000127e+01 1.111029999999999944e+02 1.560029999999999973e+03
1.069999999999999979e-01 8.151059999999999972e-01 1.319505000000000017e+01 1.109385000000000048e+02 1.559974999999999909e+03
1.079999999999999988e-01 8.150465000000000071e-01 1.281794999999999973e+01 1.107680000000000007e+02 1.559920000000000073e+03
1.089999999999999997e-01 8.149785000000000501e-01 1.243233999999999995e+01 1.105775000000000006e+02 1.559864999999999782e+03
1.100000000000000006e-01 8.148994999999999989e-01 1.203147500000000036e+01 1.103555000000000064e+02 1.559804999999999836e+03
1.110000000000000014e-01 8.148060000000000302e-01 1.160981500000000111e+01 1.100929999999999893e+02 1.559735000000000127e+03
1.120000000000000023e-01 8.146975000000000744e-01 1.116320500000000138e+01 1.097820000000000107e+02 1.559659999999999854e+03
1.130000000000000032e-01 8.145729999999999915e-01 1.068906499999999937e+01 1.094194999999999993e+02 1.559565000000000055e+03
1.140000000000000041e-01 8.144314999999999749e-01 1.018670000000000009e+01 1.090045000000000073e+02 1.559460000000000036e+03
1.150000000000000050e-01 8.142759999999999998e-01 9.656924999999999315e+00 1.085384999999999991e+02 1.559345000000000027e+03
1.160000000000000059e-01 8.141074999999999839e-01 9.102550000000000807e+00 1.080269999999999868e+02 1.559224999999999909e+03
1.170000000000000068e-01 8.139294999999999725e-01 8.527779999999999916e+00 1.074789999999999992e+02 1.559089999999999918e+03
1.180000000000000077e-01 8.137449999999999406e-01 7.938315000000000232e+00 1.069050000000000011e+02 1.558950000000000045e+03
1.190000000000000085e-01 8.135589999999999211e-01 7.341109999999999580e+00 1.063174999999999955e+02 1.558805000000000064e+03
1.200000000000000094e-01 8.133749999999999591e-01 6.743834999999999802e+00 1.057315000000000111e+02 1.558654999999999973e+03
1.209999999999999964e-01 8.131984999999999353e-01 6.154819999999999958e+00 1.051624999999999943e+02 1.558509999999999991e+03
1.219999999999999973e-01 8.130340000000000344e-01 5.582514999999999894e+00 1.046250000000000000e+02 1.558375000000000000e+03
1.229999999999999982e-01 8.128864999999999563e-01 5.035190000000000055e+00 1.041337000000000046e+02 1.558240000000000009e+03
1.239999999999999991e-01 8.127594999999999681e-01 4.520575000000000010e+00 1.037035500000000070e+02 1.558125000000000000e+03
1.250000000000000000e-01 8.126560000000000450e-01 4.045519999999999783e+00 1.033455000000000013e+02 1.558029999999999973e+03
1.260000000000000009e-01 8.125784999999999814e-01 3.615724999999999856e+00 1.030688499999999976e+02 1.557944999999999936e+03
1.270000000000000018e-01 8.125295000000000156e-01 3.235500000000000043e+00 1.028813499999999976e+02 1.557890000000000100e+03
1.280000000000000027e-01 8.125094999999999956e-01 2.907614999999999839e+00 1.027860000000000014e+02 1.557849999999999909e+03
1.290000000000000036e-01 8.125175000000000036e-01 2.633259999999999934e+00 1.027845000000000084e+02 1.557829999999999927e+03
1.300000000000000044e-01 8.125539999999999985e-01 2.411970000000000169e+00 1.028735000000000070e+02 1.557835000000000036e+03
1.310000000000000053e-01 8.126154999999999351e-01 2.241775000000000073e+00 1.030480000000000018e+02 1.557865000000000009e+03
1.320000000000000062e-01 8.126999999999999780e-01 2.119285000000000085e+00 1.032994999999999948e+02 1.557914999999999964e+03
1.330000000000000071e-01 8.128039999999999710e-01 2.039899999999999824e+00 1.036184999999999974e+02 1.557980000000000018e+03
1.340000000000000080e-01 8.129234999999999101e-01 1.998054999999999914e+00 1.039925000000000068e+02 1.558059999999999945e+03
1.350000000000000089e-01 8.130539999999999434e-01 1.987457499999999877e+00 1.044085000000000036e+02 1.558154999999999973e+03
1.360000000000000098e-01 8.131930000000000547e-01 2.001360000000000028e+00 1.048530000000000086e+02 1.558255000000000109e+03
1.370000000000000107e-01 8.133340000000000014e-01 2.032845000000000013e+00 1.053114999999999952e+02 1.558365000000000009e+03
1.380000000000000115e-01 8.134740000000000304e-01 2.075047999999999782e+00 1.057704999999999984e+02 1.558474999999999909e+03
1.390000000000000124e-01 8.136094999999999855e-01 2.121410000000000018e+00 1.062179999999999893e+02 1.558579999999999927e+03
1.400000000000000133e-01 8.137375000000000025e-01 2.165869999999999962e+00 1.066419999999999959e+02 1.558684999999999945e+03
1.410000000000000142e-01 8.138544999999999252e-01 2.203005000000000102e+00 1.070324999999999989e+02 1.558789999999999964e+03
1.420000000000000151e-01 8.139585000000000292e-01 2.228194999999999926e+00 1.073820000000000050e+02 1.558880000000000109e+03
1.430000000000000160e-01 8.140479999999999938e-01 2.237664999999999793e+00 1.076835000000000093e+02 1.558960000000000036e+03
1.440000000000000169e-01 8.141214999999999424e-01 2.228590000000000071e+00 1.079339999999999975e+02 1.559035000000000082e+03
1.450000000000000178e-01 8.141789999999999861e-01 2.199049999999999727e+00 1.081299999999999955e+02 1.559090000000000146e+03
1.459999999999999909e-01 8.142199999999999438e-01 2.148050000000000015e+00 1.082699999999999960e+02 1.559134999999999991e+03
1.469999999999999918e-01 8.142449999999999966e-01 2.075450000000000017e+00 1.083569999999999993e+02 1.559170000000000073e+03
1.479999999999999927e-01 8.142549999999999510e-01 1.981924999999999937e+00 1.083924999999999983e+02 1.559184999999999945e+03
1.489999999999999936e-01 8.142514999999999059e-01 1.868829999999999991e+00 1.083795000000000073e+02 1.559194999999999936e+03
1.499999999999999944e-01 8.142350000000000421e-01 1.738125000000000142e+00 1.083234999999999957e+02 1.559184999999999945e+03
1.509999999999999953e-01 8.142080000000000428e-01 1.592239999999999878e+00 1.082284999999999968e+02 1.559175000000000182e+03
1.519999999999999962e-01 8.141715000000000479e-01 1.433958499999999914e+00 1.081005000000000109e+02 1.559150000000000091e+03
1.529999999999999971e-01 8.141274999999998929e-01 1.266274000000000122e+00 1.079454999999999956e+02 1.559115000000000009e+03
1.539999999999999980e-01 8.140779999999999683e-01 1.092269500000000004e+00 1.077690000000000055e+02 1.559085000000000036e+03
1.549999999999999989e-01 8.140240000000000808e-01 9.149724999999999664e-01 1.075765000000000100e+02 1.559034999999999854e+03
1.559999999999999998e-01 8.139670000000001071e-01 7.372690499999999814e-01 1.073729999999999905e+02 1.558990000000000009e+03
1.570000000000000007e-01 8.139085000000000347e-01 5.617949999999999333e-01 1.071620000000000061e+02 1.558945000000000164e+03
1.580000000000000016e-01 8.138490000000000446e-01 3.908274999999999944e-01 1.069475000000000051e+02 1.558894999999999982e+03
1.590000000000000024e-01 8.137889999999999846e-01 2.262490000000000057e-01 1.067315000000000111e+02 1.558839999999999918e+03
