# t [s], A [cm^2], U [cm/s], P [cPa], c [cm/s]
1.000000000000000021e-03 5.086895000000000167e-01 3.495349999999994295e-03 9.183375000000000909e+01 1.504029999999999973e+03
2.000000000000000042e-03 5.086819999999999675e-01 -1.654666999999999857e-03 9.181624999999999659e+01 1.504025000000000091e+03
3.000000000000000062e-03 5.087055000000000327e-01 4.486564999999999304e-02 9.185920000000000130e+01 1.504035000000000082e+03
4.000000000000000083e-03 5.087485000000000479e-01 1.312515499999999946e-01 9.196244999999998981e+01 1.504065000000000055e+03
5.000000000000000104e-03 5.087585000000000024e-01 1.603054000000000145e-01 9.199854999999999450e+01 1.504074999999999818e+03
6.000000000000000125e-03 5.087289999999999868e-01 1.111155000000000059e-01 9.191335000000000832e+01 1.504055000000000064e+03
7.000000000000000146e-03 5.086915000000000742e-01 4.371100000000002761e-02 9.175929999999999609e+01 1.504019999999999982e+03
8.000000000000000167e-03 5.086574999999999847e-01 -2.209300000000002928e-02 9.156864999999999100e+01 1.503980000000000018e+03
9.000000000000001055e-03 5.086034999999999862e-01 -1.359265000000000612e-01 9.129185000000001082e+01 1.503920000000000073e+03
1.000000000000000194e-02 5.085150000000000503e-01 -3.292550000000000754e-01 9.087915000000000987e+01 1.503820000000000164e+03
1.099999999999999936e-02 5.083874999999999922e-01 -6.099749999999999339e-01 9.029904999999999404e+01 1.503684999999999945e+03
1.200000000000000025e-02 5.082119999999999971e-01 -9.913600000000000190e-01 8.951214999999999122e+01 1.503509999999999991e+03
1.300000000000000114e-02 5.079814999999999747e-01 -1.477829999999999977e+00 8.848545000000000016e+01 1.503264999999999873e+03
1.400000000000000203e-02 5.077059999999999906e-01 -2.035035000000000149e+00 8.723179999999999268e+01 1.502960000000000036e+03
1.499999999999999944e-02 5.074130000000000029e-01 -2.587820000000000231e+00 8.582410000000000139e+01 1.502615000000000009e+03
1.600000000000000033e-02 5.071345000000000436e-01 -3.048525000000000151e+00 8.436995000000000289e+01 1.502240000000000009e+03
1.700000000000000122e-02 5.068924999999999681e-01 -3.350152500000000089e+00 8.297074999999999534e+01 1.501865000000000009e+03
1.800000000000000211e-02 5.066930000000000600e-01 -3.464211500000000221e+00 8.169044999999999845e+01 1.501509999999999991e+03
1.900000000000000300e-02 5.065264999999999906e-01 -3.400310549999999932e+00 8.054505000000000337e+01 1.501170000000000073e+03
2.000000000000000042e-02 5.063765000000000072e-01 -3.194096500000000116e+00 7.950954999999999018e+01 1.500849999999999909e+03
2.100000000000000130e-02 5.062240000000000073e-01 -2.891273400000000215e+00 7.853449999999999420e+01 1.500539999999999964e+03
2.200000000000000219e-02 5.060540000000000038e-01 -2.533037499999999831e+00 7.756555000000000177e+01 1.500235000000000127e+03
2.299999999999999961e-02 5.058599999999999763e-01 -2.146062500000000206e+00 7.656034999999999968e+01 1.499914999999999964e+03
2.400000000000000050e-02 5.056429999999999536e-01 -1.738754999999999828e+00 7.549885000000000446e+01 1.499585000000000036e+03
2.500000000000000139e-02 5.054100000000000259e-01 -1.304140000000000077e+00 7.438550000000000750e+01 1.499240000000000009e+03
2.600000000000000228e-02 5.051710000000000367e-01 -8.278749999999999165e-01 7.324164999999999281e+01 1.498889999999999873e+03
2.700000000000000316e-02 5.049344999999999528e-01 -2.980749999999998678e-01 7.209454999999999814e+01 1.498534999999999854e+03
2.800000000000000058e-02 5.047049999999999592e-01 2.863700000000002355e-01 7.096469999999999345e+01 1.498179999999999836e+03
2.900000000000000147e-02 5.044790000000000108e-01 9.115149999999998531e-01 6.985684999999999434e+01 1.497829999999999927e+03
3.000000000000000236e-02 5.042499999999999760e-01 1.548630000000000173e+00 6.875575000000000614e+01 1.497480000000000018e+03
3.099999999999999978e-02 5.040059999999999540e-01 2.158459999999999823e+00 6.762900000000000489e+01 1.497130000000000109e+03
3.200000000000000067e-02 5.037355000000000027e-01 2.698090000000000543e+00 6.643305000000000859e+01 1.496759999999999991e+03
3.300000000000000155e-02 5.034279999999999866e-01 3.128775000000000084e+00 6.512330000000000041e+01 1.496369999999999891e+03
3.400000000000000244e-02 5.030769999999999964e-01 3.423175000000000523e+00 6.366474999999999795e+01 1.495944999999999936e+03
3.500000000000000333e-02 5.026835000000000608e-01 3.570369999999999600e+00 6.204100000000000392e+01 1.495480000000000018e+03
3.600000000000000422e-02 5.022545000000000481e-01 3.577520000000000255e+00 6.025985000000000014e+01 1.494985000000000127e+03
3.700000000000000511e-02 5.018024999999999292e-01 3.468210000000000015e+00 5.835439999999999827e+01 1.494449999999999818e+03
3.799999999999999906e-02 5.013444999999999707e-01 3.277479999999999727e+00 5.637854999999999706e+01 1.493905000000000200e+03
3.899999999999999994e-02 5.008964999999999668e-01 3.046050000000000146e+00 5.440050000000000097e+01 1.493355000000000018e+03
4.000000000000000083e-02 5.004760000000000320e-01 2.813955000000000428e+00 5.249349999999999739e+01 1.492815000000000055e+03
4.100000000000000172e-02 5.000965000000000549e-01 2.616335000000000299e+00 5.072789999999999822e+01 1.492309999999999945e+03
4.200000000000000261e-02 4.997685000000000044e-01 2.480510000000000659e+00 4.916509999999999536e+01 1.491844999999999800e+03
4.300000000000000350e-02 4.994990000000000263e-01 2.425574999999999815e+00 4.785370000000000346e+01 1.491449999999999818e+03
4.400000000000000439e-02 4.992929999999999868e-01 2.463244999999999685e+00 4.682824999999999704e+01 1.491119999999999891e+03
4.499999999999999833e-02 4.991514999999999702e-01 2.599896500000000277e+00 4.611045000000000016e+01 1.490869999999999891e+03
4.599999999999999922e-02 4.990744999999999765e-01 2.838805999999999941e+00 4.571134999999999593e+01 1.490710000000000036e+03
4.700000000000000011e-02 4.990629999999999789e-01 3.182244999999999990e+00 4.563450000000000273e+01 1.490625000000000000e+03
4.800000000000000100e-02 4.991154999999999897e-01 3.632919999999999927e+00 4.587859999999999872e+01 1.490639999999999873e+03
4.900000000000000189e-02 4.992324999999999680e-01 4.194519999999999804e+00 4.644004999999999939e+01 1.490735000000000127e+03
5.000000000000000278e-02 4.994140000000000246e-01 4.871425000000000338e+00 4.731385000000000218e+01 1.490925000000000182e+03
5.100000000000000366e-02 4.996579999999999910e-01 5.667724999999999902e+00 4.849389999999999645e+01 1.491200000000000045e+03
5.200000000000000455e-02 4.999649999999999928e-01 6.585874999999999702e+00 4.997204999999999586e+01 1.491555000000000064e+03
5.300000000000000544e-02 5.003324999999999578e-01 7.625490000000000101e+00 5.173714999999999975e+01 1.491994999999999891e+03
5.399999999999999939e-02 5.007559999999999789e-01 8.782154999999999490e+00 5.377365000000000350e+01 1.492509999999999991e+03
5.500000000000000028e-02 5.012315000000000520e-01 1.004720000000000013e+01 5.606105000000000160e+01 1.493105000000000018e+03
5.600000000000000117e-02 5.017525000000000457e-01 1.140769500000000036e+01 5.857330000000000325e+01 1.493759999999999991e+03
5.700000000000000205e-02 5.023115000000000219e-01 1.284702000000000055e+01 6.127955000000000041e+01 1.494480000000000018e+03
5.800000000000000294e-02 5.029010000000000424e-01 1.434600000000000009e+01 6.414509999999999934e+01 1.495250000000000000e+03
5.900000000000000383e-02 5.035119999999999596e-01 1.588409500000000030e+01 6.713275000000000148e+01 1.496059999999999945e+03
6.000000000000000472e-02 5.041375000000000162e-01 1.744059999999999988e+01 7.020494999999999663e+01 1.496904999999999973e+03
6.099999999999999867e-02 5.047699999999999410e-01 1.899595000000000056e+01 7.332545000000000357e+01 1.497769999999999982e+03
6.199999999999999956e-02 5.054030000000000467e-01 2.053239999999999910e+01 7.646074999999999022e+01 1.498650000000000091e+03
6.300000000000000044e-02 5.060310000000000086e-01 2.203484999999999872e+01 7.958199999999999363e+01 1.499534999999999854e+03
6.400000000000000133e-02 5.066505000000000036e-01 2.349125000000000085e+01 8.266525000000000034e+01 1.500420000000000073e+03
6.500000000000000222e-02 5.072585000000000566e-01 2.489224999999999710e+01 8.569214999999999804e+01 1.501295000000000073e+03
6.600000000000000311e-02 5.078529999999999989e-01 2.623134999999999906e+01 8.865030000000000143e+01 1.502154999999999973e+03
6.700000000000000400e-02 5.084340000000000526e-01 2.750465000000000160e+01 9.153209999999999980e+01 1.503000000000000000e+03
6.800000000000000488e-02 5.090000000000000080e-01 2.871000000000000085e+01 9.433440000000000225e+01 1.503829999999999927e+03
6.900000000000000577e-02 5.095534999999999926e-01 2.984700000000000131e+01 9.705834999999999013e+01 1.504639999999999873e+03
7.000000000000000666e-02 5.100934999999999775e-01 3.091625000000000156e+01 9.970680000000000121e+01 1.505434999999999945e+03
7.100000000000000755e-02 5.106224999999999792e-01 3.191890000000000072e+01 1.022852499999999907e+02 1.506204999999999927e+03
7.200000000000000844e-02 5.111409999999999565e-01 3.285654999999999859e+01 1.047992999999999881e+02 1.506965000000000146e+03
7.300000000000000933e-02 5.116490000000000204e-01 3.373059999999999548e+01 1.072543500000000023e+02 1.507710000000000036e+03
7.399999999999999634e-02 5.121485000000000065e-01 3.454225000000000279e+01 1.096550000000000011e+02 1.508434999999999945e+03
7.499999999999999722e-02 5.126390000000000668e-01 3.529200000000000159e+01 1.120039999999999907e+02 1.509144999999999982e+03
7.599999999999999811e-02 5.131204999999999794e-01 3.597979999999999734e+01 1.143019999999999925e+02 1.509844999999999800e+03
7.699999999999999900e-02 5.135914999999999786e-01 3.660484999999999900e+01 1.165480000000000018e+02 1.510530000000000200e+03
7.799999999999999989e-02 5.140519999999999534e-01 3.716595000000000226e+01 1.187385000000000019e+02 1.511200000000000045e+03
7.900000000000000078e-02 5.144994999999999985e-01 3.766110000000000468e+01 1.208665000000000020e+02 1.511855000000000018e+03
8.000000000000000167e-02 5.149325000000000152e-01 3.808814999999999884e+01 1.229260000000000019e+02 1.512485000000000127e+03
8.100000000000000255e-02 5.153495000000000159e-01 3.844490000000000407e+01 1.249074999999999989e+02 1.513099999999999909e+03
8.200000000000000344e-02 5.157484999999999431e-01 3.872915000000000418e+01 1.268025000000000091e+02 1.513690000000000055e+03
8.300000000000000433e-02 5.161265000000000436e-01 3.893919999999999959e+01 1.286009999999999991e+02 1.514250000000000000e+03
8.400000000000000522e-02 5.164834999999999843e-01 3.907359999999999900e+01 1.302950000000000159e+02 1.514784999999999854e+03
8.500000000000000611e-02 5.168159999999999421e-01 3.913174999999999670e+01 1.318750000000000000e+02 1.515285000000000082e+03
8.600000000000000699e-02 5.171244999999999870e-01 3.911360000000000525e+01 1.333355000000000246e+02 1.515755000000000109e+03
8.700000000000000788e-02 5.174075000000000202e-01 3.901980000000000359e+01 1.346709999999999923e+02 1.516184999999999945e+03
8.800000000000000877e-02 5.176634999999999431e-01 3.885190000000000055e+01 1.358765000000000214e+02 1.516585000000000036e+03
8.899999999999999578e-02 5.178930000000000478e-01 3.861185000000000400e+01 1.369509999999999934e+02 1.516945000000000164e+03
8.999999999999999667e-02 5.180960000000000010e-01 3.830254999999999654e+01 1.378944999999999936e+02 1.517264999999999873e+03
9.099999999999999756e-02 5.182729999999999837e-01 3.792730000000000246e+01 1.387069999999999936e+02 1.517550000000000182e+03
9.199999999999999845e-02 5.184235000000000371e-01 3.749014999999999986e+01 1.393924999999999841e+02 1.517795000000000073e+03
9.299999999999999933e-02 5.185494999999999965e-01 3.699569999999999936e+01 1.399549999999999841e+02 1.518005000000000109e+03
9.400000000000000022e-02 5.186524999999999608e-01 3.644910000000000139e+01 1.404000000000000057e+02 1.518174999999999955e+03
9.500000000000000111e-02 5.187325000000000408e-01 3.585614999999999952e+01 1.407344999999999970e+02 1.518315000000000055e+03
9.600000000000000200e-02 5.187924999999999898e-01 3.522299999999999898e+01 1.409680000000000177e+02 1.518420000000000073e+03
9.700000000000000289e-02 5.188335000000000585e-01 3.455610000000000070e+01 1.411080000000000041e+02 1.518500000000000000e+03
9.800000000000000377e-02 5.188585000000000003e-01 3.386240000000000094e+01 1.411655000000000086e+02 1.518549999999999955e+03
9.900000000000000466e-02 5.188684999999999548e-01 3.314889999999999759e+01 1.411519999999999868e+02 1.518575000000000045e+03
1.000000000000000056e-01 5.188669999999999671e-01 3.242244999999999777e+01 1.410769999999999982e+02 1.518585000000000036e+03
1.010000000000000064e-01 5.188555000000000250e-01 3.168990000000000151e+01 1.409524999999999864e+02 1.518570000000000164e+03
1.020000000000000073e-01 5.188364999999999227e-01 3.095734999999999815e+01 1.407889999999999873e+02 1.518539999999999964e+03
1.030000000000000082e-01 5.188110000000000221e-01 3.023055000000000092e+01 1.405960000000000036e+02 1.518505000000000109e+03
1.040000000000000091e-01 5.187819999999999654e-01 2.951435000000000031e+01 1.403834999999999980e+02 1.518460000000000036e+03
1.050000000000000100e-01 5.187494999999999745e-01 2.881259999999999621e+01 1.401574999999999989e+02 1.518400000000000091e+03
1.059999999999999970e-01 5.187154999999999960e-01 2.812814999999999799e+01 1.399254999999999995e+02 1.518344999999999800e+03
1.069999999999999979e-01 5.186794999999999600e-01 2.746285000000000309e+01 1.396910000000000025e+02 1.518279999999999973e+03
1.079999999999999988e-01 5.186429999999999652e-01 2.681725000000000136e+01 1.394569999999999936e+02 1.518219999999999800e+03
1.089999999999999997e-01 5.186060000000000114e-01 2.619115000000000038e+01 1.392250000000000227e+02 1.518144999999999982e+03
1.100000000000000006e-01 5.185680000000000289e-01 2.558314999999999984e+01 1.389929999999999950e+02 1.518079999999999927e+03
1.110000000000000014e-01 5.185279999999999889e-01 2.499119999999999919e+01 1.387595000000000027e+02 1.518014999999999873e+03
1.120000000000000023e-01 5.184854999999999325e-01 2.441264999999999930e+01 1.385225000000000080e+02 1.517940000000000055e+03
1.130000000000000032e-01 5.184400000000000119e-01 2.384424999999999883e+01 1.382760000000000105e+02 1.517869999999999891e+03
1.140000000000000041e-01 5.183894999999999476e-01 2.328260000000000218e+01 1.380169999999999959e+02 1.517789999999999964e+03
1.150000000000000050e-01 5.183345000000000313e-01 2.272415000000000163e+01 1.377390000000000043e+02 1.517710000000000036e+03
1.160000000000000059e-01 5.182735000000000536e-01 2.216544999999999987e+01 1.374389999999999930e+02 1.517615000000000009e+03
1.170000000000000068e-01 5.182054999999999856e-01 2.160325000000000273e+01 1.371115000000000066e+02 1.517519999999999982e+03
1.180000000000000077e-01 5.181299999999999795e-01 2.103454999999999941e+01 1.367529999999999859e+02 1.517420000000000073e+03
1.190000000000000085e-01 5.180464999999999653e-01 2.045700000000000074e+01 1.363609999999999900e+02 1.517304999999999836e+03
1.200000000000000094e-01 5.179544999999999844e-01 1.986860000000000070e+01 1.359325000000000045e+02 1.517184999999999945e+03
1.209999999999999964e-01 5.178544999999999954e-01 1.926814999999999856e+01 1.354669999999999845e+02 1.517049999999999955e+03
1.219999999999999973e-01 5.177469999999999573e-01 1.865494999999999948e+01 1.349650000000000034e+02 1.516909999999999854e+03
1.229999999999999982e-01 5.176319999999999810e-01 1.802919999999999945e+01 1.344275000000000091e+02 1.516760000000000218e+03
1.239999999999999991e-01 5.175104999999999844e-01 1.739160000000000039e+01 1.338569999999999993e+02 1.516599999999999909e+03
1.250000000000000000e-01 5.173824999999999674e-01 1.674370000000000047e+01 1.332574999999999932e+02 1.516430000000000064e+03
1.260000000000000009e-01 5.172499999999999876e-01 1.608765000000000001e+01 1.326334999999999980e+02 1.516250000000000000e+03
1.270000000000000018e-01 5.171139999999999626e-01 1.542610000000000170e+01 1.319904999999999973e+02 1.516069999999999936e+03
1.280000000000000027e-01 5.169764999999999500e-01 1.476229999999999976e+01 1.313355000000000246e+02 1.515880000000000109e+03
1.290000000000000036e-01 5.168380000000000196e-01 1.409986999999999924e+01 1.306750000000000114e+02 1.515695000000000164e+03
1.300000000000000044e-01 5.167009999999999659e-01 1.344272499999999937e+01 1.300159999999999911e+02 1.515505000000000109e+03
1.310000000000000053e-01 5.165659999999999696e-01 1.279500000000000171e+01 1.293665000000000020e+02 1.515315000000000055e+03
1.320000000000000062e-01 5.164360000000000062e-01 1.216075999999999979e+01 1.287334999999999923e+02 1.515130000000000109e+03
1.330000000000000071e-01 5.163109999999999644e-01 1.154414500000000032e+01 1.281245000000000118e+02 1.514950000000000045e+03
1.340000000000000080e-01 5.161934999999999718e-01 1.094888500000000064e+01 1.275455000000000041e+02 1.514775000000000091e+03
1.350000000000000089e-01 5.160834999999999173e-01 1.037857999999999947e+01 1.270030000000000143e+02 1.514615000000000009e+03
1.360000000000000098e-01 5.159834999999999283e-01 9.836344999999999672e+00 1.265015000000000072e+02 1.514465000000000146e+03
1.370000000000000107e-01 5.158924999999999761e-01 9.324674999999999159e+00 1.260455000000000041e+02 1.514315000000000055e+03
1.380000000000000115e-01 5.158119999999999372e-01 8.845634999999999692e+00 1.256370000000000005e+02 1.514190000000000055e+03
1.390000000000000124e-01 5.157420000000000337e-01 8.400510000000000588e+00 1.252789999999999964e+02 1.514074999999999818e+03
1.400000000000000133e-01 5.156819999999999737e-01 7.990079999999999849e+00 1.249710000000000036e+02 1.513970000000000027e+03
1.410000000000000142e-01 5.156325000000000491e-01 7.614335000000000520e+00 1.247125000000000057e+02 1.513884999999999991e+03
1.420000000000000151e-01 5.155920000000000503e-01 7.272774999999999324e+00 1.245024999999999977e+02 1.513809999999999945e+03
1.430000000000000160e-01 5.155615000000000059e-01 6.964274999999999771e+00 1.243365000000000009e+02 1.513744999999999891e+03
1.440000000000000169e-01 5.155385000000000106e-01 6.687239999999999185e+00 1.242129999999999939e+02 1.513695000000000164e+03
1.450000000000000178e-01 5.155229999999999535e-01 6.439650000000000318e+00 1.241254999999999882e+02 1.513660000000000082e+03
1.459999999999999909e-01 5.155140000000000278e-01 6.219190000000000218e+00 1.240704999999999956e+02 1.513630000000000109e+03
1.469999999999999918e-01 5.155094999999999539e-01 6.023295000000000066e+00 1.240424999999999898e+02 1.513610000000000127e+03
1.479999999999999927e-01 5.155094999999999539e-01 5.849275000000000446e+00 1.240364999999999895e+02 1.513599999999999909e+03
1.489999999999999936e-01 5.155119999999999703e-01 5.694390000000000285e+00 1.240469999999999970e+02 1.513590000000000146e+03
1.499999999999999944e-01 5.155164999999999331e-01 5.555925000000000225e+00 1.240690000000000026e+02 1.513585000000000036e+03
1.509999999999999953e-01 5.155220000000000358e-01 5.431235000000000035e+00 1.240979999999999990e+02 1.513585000000000036e+03
1.519999999999999962e-01 5.155285000000000561e-01 5.317809999999999704e+00 1.241290000000000049e+02 1.513585000000000036e+03
1.529999999999999971e-01 5.155334999999999779e-01 5.213319999999999510e+00 1.241589999999999918e+02 1.513590000000000146e+03
1.539999999999999980e-01 5.155374999999999819e-01 5.115624999999999645e+00 1.241839999999999975e+02 1.513595000000000027e+03
1.549999999999999989e-01 5.155404999999999571e-01 5.022804999999999964e+00 1.242014999999999958e+02 1.513594999999999800e+03
1.559999999999999998e-01 5.155410000000000270e-01 4.933175000000000310e+00 1.242100000000000080e+02 1.513594999999999800e+03
1.570000000000000007e-01 5.155389999999999695e-01 4.845280000000000697e+00 1.242065000000000055e+02 1.513589999999999918e+03
1.580000000000000016e-01 5.155345000000000066e-01 4.757900000000000240e+00 1.241905000000000001e+02 1.513589999999999918e+03
1.590000000000000024e-01 5.155270000000000685e-01 4.670060000000000322e+00 1.241610000000000014e+02 1.513574999999999818e+03
