# t [s], A [cm^2], U [cm/s], P [cPa], c [cm/s]
1.000000000000000021e-03 4.787259999999999849e-01 4.128300000000001413e-03 1.090655000000000001e+02 1.508284999999999854e+03
2.000000000000000042e-03 4.787194999999999645e-01 8.094400000000000293e-04 1.090450000000000017e+02 1.508284999999999854e+03
3.000000000000000062e-03 4.787595000000000045e-01 8.523479999999999945e-02 1.091289999999999907e+02 1.508304999999999836e+03
4.000000000000000083e-03 4.787994999999999890e-01 1.743415499999999840e-01 1.092390000000000043e+02 1.508335000000000036e+03
5.000000000000000104e-03 4.787890000000000201e-01 1.608840500000000007e-01 1.092135000000000105e+02 1.508335000000000036e+03
6.000000000000000125e-03 4.787449999999999761e-01 7.308999999999998831e-02 1.090414999999999992e+02 1.508300000000000182e+03
7.000000000000000146e-03 4.787020000000000164e-01 -1.860400000000000942e-02 1.087984999999999900e+02 1.508244999999999891e+03
8.000000000000000167e-03 4.786415000000000530e-01 -1.554405000000000370e-01 1.084495000000000005e+02 1.508164999999999964e+03
9.000000000000001055e-03 4.785375000000000045e-01 -3.967800000000000216e-01 1.079130000000000109e+02 1.508045000000000073e+03
1.000000000000000194e-02 4.783859999999999779e-01 -7.490600000000000591e-01 1.071449999999999960e+02 1.507869999999999891e+03
1.099999999999999936e-02 4.781795000000000351e-01 -1.217840000000000034e+00 1.061034999999999968e+02 1.507619999999999891e+03
1.200000000000000025e-02 4.779044999999999543e-01 -1.813539999999999708e+00 1.047394999999999925e+02 1.507295000000000073e+03
1.300000000000000114e-02 4.775670000000000193e-01 -2.503624999999999989e+00 1.030518500000000017e+02 1.506875000000000000e+03
1.400000000000000203e-02 4.771994999999999987e-01 -3.190750000000000419e+00 1.011313999999999993e+02 1.506389999999999873e+03
1.499999999999999944e-02 4.768459999999999921e-01 -3.745810000000000528e+00 9.913894999999999413e+01 1.505865000000000009e+03
1.600000000000000033e-02 4.765409999999999924e-01 -4.062470000000000248e+00 9.723964999999999748e+01 1.505345000000000027e+03
1.700000000000000122e-02 4.762975000000000403e-01 -4.093134000000000050e+00 9.554664999999999964e+01 1.504849999999999909e+03
1.800000000000000211e-02 4.761035000000000128e-01 -3.854036950000000239e+00 9.409055000000000746e+01 1.504400000000000091e+03
1.900000000000000300e-02 4.759344999999999826e-01 -3.407755100000000148e+00 9.282775000000000887e+01 1.503980000000000018e+03
2.000000000000000042e-02 4.757609999999999895e-01 -2.835976999999999748e+00 9.166704999999998904e+01 1.503585000000000036e+03
2.100000000000000130e-02 4.755604999999999971e-01 -2.212359999999999882e+00 9.050614999999999100e+01 1.503190000000000055e+03
2.200000000000000219e-02 4.753214999999999524e-01 -1.582839999999999803e+00 8.926570000000000960e+01 1.502784999999999854e+03
2.299999999999999961e-02 4.750465000000000382e-01 -9.586750000000001659e-01 8.791044999999999732e+01 1.502349999999999909e+03
2.400000000000000050e-02 4.747474999999999890e-01 -3.236050000000001425e-01 8.645114999999999839e+01 1.501894999999999982e+03
2.500000000000000139e-02 4.744410000000000016e-01 3.492649999999999366e-01 8.492924999999999613e+01 1.501414999999999964e+03
2.600000000000000228e-02 4.741380000000000039e-01 1.078699999999999992e+00 8.339265000000000327e+01 1.500934999999999945e+03
2.700000000000000316e-02 4.738424999999999998e-01 1.861869999999999914e+00 8.187290000000000134e+01 1.500454999999999927e+03
2.800000000000000058e-02 4.735485000000000388e-01 2.669535000000000213e+00 8.037045000000000528e+01 1.499974999999999909e+03
2.900000000000000147e-02 4.732434999999999836e-01 3.449934999999999974e+00 7.885169999999999391e+01 1.499485000000000127e+03
3.000000000000000236e-02 4.729094999999999827e-01 4.139019999999999477e+00 7.725645000000000095e+01 1.498985000000000127e+03
3.099999999999999978e-02 4.725304999999999644e-01 4.673945000000000682e+00 7.551310000000000855e+01 1.498454999999999927e+03
3.200000000000000067e-02 4.720944999999999725e-01 5.006895000000000095e+00 7.355850000000000932e+01 1.497869999999999891e+03
3.300000000000000155e-02 4.715989999999999904e-01 5.115845000000000198e+00 7.135589999999999122e+01 1.497235000000000127e+03
3.400000000000000244e-02 4.710530000000000550e-01 5.009890000000000398e+00 6.890915000000001100e+01 1.496545000000000073e+03
3.500000000000000333e-02 4.704730000000000301e-01 4.727714999999999890e+00 6.626689999999999259e+01 1.495804999999999836e+03
3.600000000000000422e-02 4.698829999999999951e-01 4.330480000000000551e+00 6.351834999999999809e+01 1.495025000000000091e+03
3.700000000000000511e-02 4.693110000000000337e-01 3.890789999999999971e+00 6.078099999999999881e+01 1.494259999999999991e+03
3.799999999999999906e-02 4.687839999999999785e-01 3.481829999999999981e+00 5.818469999999999942e+01 1.493505000000000109e+03
3.899999999999999994e-02 4.683240000000000181e-01 3.168335000000000345e+00 5.585585000000000377e+01 1.492820000000000164e+03
4.000000000000000083e-02 4.679500000000000326e-01 3.001164999999999861e+00 5.390500000000000114e+01 1.492220000000000027e+03
4.100000000000000172e-02 4.676735000000000197e-01 3.015320000000000000e+00 5.241795000000000471e+01 1.491735000000000127e+03
4.200000000000000261e-02 4.675015000000000143e-01 3.231125500000000095e+00 5.145315000000000083e+01 1.491380000000000109e+03
4.300000000000000350e-02 4.674359999999999626e-01 3.657385000000000108e+00 5.104220000000000113e+01 1.491174999999999955e+03
4.400000000000000439e-02 4.674760000000000026e-01 4.295260000000000744e+00 5.119409999999999883e+01 1.491119999999999891e+03
4.499999999999999833e-02 4.676190000000000069e-01 5.141999999999999460e+00 5.190109999999999957e+01 1.491219999999999800e+03
4.599999999999999922e-02 4.678610000000000269e-01 6.193599999999999994e+00 5.314435000000000286e+01 1.491465000000000146e+03
4.700000000000000011e-02 4.681985000000000174e-01 7.445985000000000298e+00 5.489874999999999972e+01 1.491869999999999891e+03
4.800000000000000100e-02 4.686270000000000158e-01 8.894669999999999632e+00 5.713589999999999947e+01 1.492410000000000082e+03
4.900000000000000189e-02 4.691409999999999747e-01 1.053351499999999952e+01 5.982460000000000377e+01 1.493079999999999927e+03
5.000000000000000278e-02 4.697350000000000136e-01 1.235289999999999822e+01 6.293044999999999334e+01 1.493884999999999991e+03
5.100000000000000366e-02 4.704015000000000279e-01 1.433819000000000088e+01 6.641479999999999961e+01 1.494799999999999955e+03
5.200000000000000455e-02 4.711319999999999952e-01 1.646880000000000166e+01 7.023349999999999227e+01 1.495820000000000164e+03
5.300000000000000544e-02 4.719145000000000145e-01 1.871858499999999736e+01 7.433620000000000516e+01 1.496934999999999945e+03
5.399999999999999939e-02 4.727399999999999936e-01 2.105669999999999931e+01 7.866755000000000564e+01 1.498119999999999891e+03
5.500000000000000028e-02 4.735949999999999882e-01 2.344934999999999903e+01 8.316899999999999693e+01 1.499375000000000000e+03
5.600000000000000117e-02 4.744680000000000009e-01 2.586189999999999856e+01 8.778055000000000518e+01 1.500670000000000073e+03
5.700000000000000205e-02 4.753479999999999928e-01 2.826115000000000066e+01 9.244435000000000002e+01 1.501994999999999891e+03
5.800000000000000294e-02 4.762260000000000382e-01 3.061690000000000111e+01 9.710814999999999486e+01 1.503340000000000146e+03
5.900000000000000383e-02 4.770939999999999626e-01 3.290335000000000321e+01 1.017262499999999932e+02 1.504684999999999945e+03
6.000000000000000472e-02 4.779459999999999820e-01 3.510025000000000261e+01 1.062616500000000030e+02 1.506025000000000091e+03
6.099999999999999867e-02 4.787780000000000369e-01 3.719275000000000375e+01 1.106889499999999913e+02 1.507340000000000146e+03
6.199999999999999956e-02 4.795884999999999732e-01 3.917135000000000389e+01 1.149918499999999995e+02 1.508634999999999991e+03
6.300000000000000044e-02 4.803764999999999841e-01 4.103144999999999953e+01 1.191634999999999991e+02 1.509894999999999982e+03
6.400000000000000133e-02 4.811440000000000161e-01 4.277250000000000085e+01 1.232049999999999983e+02 1.511134999999999991e+03
6.500000000000000222e-02 4.818919999999999870e-01 4.439730000000000132e+01 1.271250000000000000e+02 1.512339999999999918e+03
6.600000000000000311e-02 4.826239999999999974e-01 4.591114999999999924e+01 1.309370000000000118e+02 1.513519999999999982e+03
6.700000000000000400e-02 4.833425000000000082e-01 4.732099999999999795e+01 1.346580000000000155e+02 1.514670000000000073e+03
6.800000000000000488e-02 4.840514999999999679e-01 4.863474999999999682e+01 1.383045000000000186e+02 1.515809999999999945e+03
6.900000000000000577e-02 4.847529999999999895e-01 4.986050000000000182e+01 1.418954999999999984e+02 1.516925000000000182e+03
7.000000000000000666e-02 4.854499999999999371e-01 5.100610000000000355e+01 1.454459999999999980e+02 1.518029999999999973e+03
7.100000000000000755e-02 4.861449999999999383e-01 5.207805000000000462e+01 1.489685000000000059e+02 1.519130000000000109e+03
7.200000000000000844e-02 4.868375000000000341e-01 5.308119999999999550e+01 1.524705000000000155e+02 1.520215000000000146e+03
7.300000000000000933e-02 4.875285000000000313e-01 5.401845000000000141e+01 1.559544999999999959e+02 1.521295000000000073e+03
7.399999999999999634e-02 4.882155000000000244e-01 5.489034999999999798e+01 1.594170000000000016e+02 1.522375000000000000e+03
7.499999999999999722e-02 4.888970000000000260e-01 5.569474999999999909e+01 1.628489999999999895e+02 1.523444999999999936e+03
7.599999999999999811e-02 4.895699999999999497e-01 5.642770000000000152e+01 1.662359999999999900e+02 1.524500000000000000e+03
7.699999999999999900e-02 4.902294999999999847e-01 5.708310000000000173e+01 1.695570000000000164e+02 1.525539999999999964e+03
7.799999999999999989e-02 4.908709999999999463e-01 5.765359999999999729e+01 1.727900000000000205e+02 1.526554999999999836e+03
7.900000000000000078e-02 4.914890000000000092e-01 5.813110000000000355e+01 1.759094999999999800e+02 1.527539999999999964e+03
8.000000000000000167e-02 4.920789999999999886e-01 5.850755000000000194e+01 1.788890000000000100e+02 1.528485000000000127e+03
8.100000000000000255e-02 4.926365000000000327e-01 5.877524999999999977e+01 1.817024999999999864e+02 1.529389999999999873e+03
8.200000000000000344e-02 4.931560000000000388e-01 5.892775000000000318e+01 1.843274999999999864e+02 1.530240000000000009e+03
8.300000000000000433e-02 4.936359999999999637e-01 5.896020000000000039e+01 1.867439999999999998e+02 1.531029999999999973e+03
8.400000000000000522e-02 4.940714999999999968e-01 5.886950000000000216e+01 1.889354999999999905e+02 1.531759999999999991e+03
8.500000000000000611e-02 4.944619999999999571e-01 5.865484999999999616e+01 1.908925000000000125e+02 1.532424999999999955e+03
8.600000000000000699e-02 4.948065000000000380e-01 5.831779999999999831e+01 1.926080000000000041e+02 1.533014999999999873e+03
8.700000000000000788e-02 4.951050000000000173e-01 5.786189999999999856e+01 1.940815000000000055e+02 1.533534999999999854e+03
8.800000000000000877e-02 4.953589999999999938e-01 5.729319999999999879e+01 1.953185000000000002e+02 1.533985000000000127e+03
8.899999999999999578e-02 4.955700000000000105e-01 5.661974999999999625e+01 1.963285000000000196e+02 1.534365000000000009e+03
8.999999999999999667e-02 4.957409999999999872e-01 5.585150000000000148e+01 1.971250000000000000e+02 1.534679999999999836e+03
9.099999999999999756e-02 4.958749999999999547e-01 5.499974999999999881e+01 1.977259999999999991e+02 1.534934999999999945e+03
9.199999999999999845e-02 4.959770000000000012e-01 5.407739999999999725e+01 1.981525000000000034e+02 1.535130000000000109e+03
9.299999999999999933e-02 4.960499999999999909e-01 5.309794999999999732e+01 1.984270000000000209e+02 1.535275000000000091e+03
9.400000000000000022e-02 4.960994999999999711e-01 5.207540000000000191e+01 1.985734999999999957e+02 1.535380000000000109e+03
9.500000000000000111e-02 4.961295000000000011e-01 5.102384999999999593e+01 1.986165000000000020e+02 1.535440000000000055e+03
9.600000000000000200e-02 4.961444999999999883e-01 4.995690000000000452e+01 1.985799999999999841e+02 1.535474999999999909e+03
9.700000000000000289e-02 4.961495000000000211e-01 4.888734999999999786e+01 1.984875000000000114e+02 1.535485000000000127e+03
9.800000000000000377e-02 4.961470000000000047e-01 4.782654999999999745e+01 1.983590000000000089e+02 1.535480000000000018e+03
9.900000000000000466e-02 4.961404999999999843e-01 4.678435000000000343e+01 1.982129999999999939e+02 1.535465000000000146e+03
1.000000000000000056e-01 4.961329999999999907e-01 4.576869999999999550e+01 1.980635000000000048e+02 1.535434999999999945e+03
1.010000000000000064e-01 4.961260000000000114e-01 4.478529999999999944e+01 1.979214999999999804e+02 1.535404999999999973e+03
1.020000000000000073e-01 4.961204999999999643e-01 4.383759999999999479e+01 1.977939999999999827e+02 1.535375000000000000e+03
1.030000000000000082e-01 4.961170000000000302e-01 4.292694999999999794e+01 1.976845000000000141e+02 1.535349999999999909e+03
1.040000000000000091e-01 4.961145000000000138e-01 4.205245000000000033e+01 1.975925000000000011e+02 1.535319999999999936e+03
1.050000000000000100e-01 4.961130000000000262e-01 4.121134999999999593e+01 1.975129999999999768e+02 1.535295000000000073e+03
1.059999999999999970e-01 4.961105000000000098e-01 4.039919999999999334e+01 1.974389999999999930e+02 1.535269999999999982e+03
1.069999999999999979e-01 4.961050000000000182e-01 3.961050000000000182e+01 1.973605000000000018e+02 1.535244999999999891e+03
1.079999999999999988e-01 4.960949999999999527e-01 3.883854999999999791e+01 1.972669999999999959e+02 1.535215000000000146e+03
1.089999999999999997e-01 4.960769999999999902e-01 3.807639999999999958e+01 1.971460000000000150e+02 1.535175000000000182e+03
1.100000000000000006e-01 4.960499999999999909e-01 3.731680000000000064e+01 1.969859999999999900e+02 1.535130000000000109e+03
1.110000000000000014e-01 4.960109999999999797e-01 3.655295000000000272e+01 1.967735000000000127e+02 1.535069999999999936e+03
1.120000000000000023e-01 4.959589999999999832e-01 3.577859999999999729e+01 1.965000000000000000e+02 1.534990000000000009e+03
1.130000000000000032e-01 4.958924999999999583e-01 3.498834999999999695e+01 1.961560000000000059e+02 1.534889999999999873e+03
1.140000000000000041e-01 4.958095000000000141e-01 3.417804999999999893e+01 1.957339999999999804e+02 1.534769999999999982e+03
1.150000000000000050e-01 4.957105000000000539e-01 3.334459999999999980e+01 1.952314999999999827e+02 1.534634999999999991e+03
1.160000000000000059e-01 4.955954999999999666e-01 3.248664999999999736e+01 1.946449999999999818e+02 1.534470000000000027e+03
1.170000000000000068e-01 4.954640000000000155e-01 3.160399999999999920e+01 1.939775000000000205e+02 1.534279999999999973e+03
1.180000000000000077e-01 4.953184999999999949e-01 3.069814999999999827e+01 1.932314999999999827e+02 1.534070000000000164e+03
1.190000000000000085e-01 4.951590000000000158e-01 2.977189999999999870e+01 1.924150000000000205e+02 1.533840000000000146e+03
1.200000000000000094e-01 4.949879999999999836e-01 2.882934999999999803e+01 1.915355000000000132e+02 1.533595000000000027e+03
1.209999999999999964e-01 4.948074999999999557e-01 2.787579999999999814e+01 1.906034999999999968e+02 1.533324999999999818e+03
1.219999999999999973e-01 4.946205000000000185e-01 2.691740000000000066e+01 1.896315000000000168e+02 1.533045000000000073e+03
1.229999999999999982e-01 4.944284999999999930e-01 2.596114999999999640e+01 1.886324999999999932e+02 1.532755000000000109e+03
1.239999999999999991e-01 4.942354999999999943e-01 2.501435000000000031e+01 1.876209999999999809e+02 1.532460000000000036e+03
1.250000000000000000e-01 4.940434999999999688e-01 2.408469999999999800e+01 1.866105000000000018e+02 1.532160000000000082e+03
1.260000000000000009e-01 4.938549999999999884e-01 2.317985000000000184e+01 1.856154999999999973e+02 1.531865000000000009e+03
1.270000000000000018e-01 4.936724999999999586e-01 2.230709999999999837e+01 1.846485000000000127e+02 1.531570000000000164e+03
1.280000000000000027e-01 4.934985000000000621e-01 2.147315000000000040e+01 1.837214999999999918e+02 1.531289999999999964e+03
1.290000000000000036e-01 4.933345000000000091e-01 2.068415000000000248e+01 1.828460000000000036e+02 1.531019999999999982e+03
1.300000000000000044e-01 4.931830000000000380e-01 1.994514999999999816e+01 1.820300000000000011e+02 1.530759999999999991e+03
1.310000000000000053e-01 4.930440000000000378e-01 1.926019999999999754e+01 1.812800000000000011e+02 1.530519999999999982e+03
1.320000000000000062e-01 4.929185000000000372e-01 1.863214999999999932e+01 1.806005000000000109e+02 1.530305000000000064e+03
1.330000000000000071e-01 4.928069999999999951e-01 1.806259999999999977e+01 1.799950000000000045e+02 1.530099999999999909e+03
1.340000000000000080e-01 4.927094999999999669e-01 1.755199999999999960e+01 1.794629999999999939e+02 1.529920000000000073e+03
1.350000000000000089e-01 4.926249999999999796e-01 1.709935000000000116e+01 1.790024999999999977e+02 1.529759999999999991e+03
1.360000000000000098e-01 4.925530000000000186e-01 1.670270000000000010e+01 1.786094999999999970e+02 1.529619999999999891e+03
1.370000000000000107e-01 4.924924999999999997e-01 1.635895000000000010e+01 1.782789999999999964e+02 1.529500000000000000e+03
1.380000000000000115e-01 4.924414999999999765e-01 1.606409999999999982e+01 1.780035000000000025e+02 1.529394999999999982e+03
1.390000000000000124e-01 4.923990000000000311e-01 1.581360000000000099e+01 1.777754999999999939e+02 1.529304999999999836e+03
1.400000000000000133e-01 4.923629999999999951e-01 1.560235000000000127e+01 1.775860000000000127e+02 1.529224999999999909e+03
1.410000000000000142e-01 4.923319999999999919e-01 1.542480000000000118e+01 1.774264999999999759e+02 1.529154999999999973e+03
1.420000000000000151e-01 4.923039999999999639e-01 1.527550000000000097e+01 1.772874999999999943e+02 1.529099999999999909e+03
1.430000000000000160e-01 4.922775000000000345e-01 1.514890000000000114e+01 1.771610000000000014e+02 1.529045000000000073e+03
1.440000000000000169e-01 4.922515000000000085e-01 1.503969999999999985e+01 1.770394999999999754e+02 1.528994999999999891e+03
1.450000000000000178e-01 4.922244999999999537e-01 1.494320000000000093e+01 1.769150000000000205e+02 1.528944999999999936e+03
1.459999999999999909e-01 4.921955000000000080e-01 1.485495000000000054e+01 1.767830000000000155e+02 1.528900000000000091e+03
1.469999999999999918e-01 4.921639999999999904e-01 1.477120000000000033e+01 1.766384999999999934e+02 1.528849999999999909e+03
1.479999999999999927e-01 4.921290000000000386e-01 1.468880000000000052e+01 1.764780000000000086e+02 1.528795000000000073e+03
1.489999999999999936e-01 4.920899999999999719e-01 1.460535000000000139e+01 1.763000000000000114e+02 1.528735000000000127e+03
1.499999999999999944e-01 4.920480000000000409e-01 1.451895000000000024e+01 1.761025000000000205e+02 1.528674999999999955e+03
1.509999999999999953e-01 4.920029999999999681e-01 1.442859999999999943e+01 1.758874999999999886e+02 1.528605000000000018e+03
1.519999999999999962e-01 4.919545000000000168e-01 1.433349999999999902e+01 1.756555000000000177e+02 1.528535000000000082e+03
1.529999999999999971e-01 4.919035000000000490e-01 1.423375000000000057e+01 1.754089999999999918e+02 1.528464999999999918e+03
1.539999999999999980e-01 4.918509999999999827e-01 1.412969999999999970e+01 1.751510000000000105e+02 1.528384999999999991e+03
1.549999999999999989e-01 4.917964999999999698e-01 1.402210000000000001e+01 1.748840000000000146e+02 1.528305000000000064e+03
1.559999999999999998e-01 4.917420000000000124e-01 1.391205000000000069e+01 1.746114999999999782e+02 1.528224999999999909e+03
1.570000000000000007e-01 4.916874999999999996e-01 1.380080000000000062e+01 1.743375000000000057e+02 1.528144999999999982e+03
1.580000000000000016e-01 4.916329999999999867e-01 1.368955000000000055e+01 1.740654999999999859e+02 1.528059999999999945e+03
1.590000000000000024e-01 4.915800000000000169e-01 1.357965000000000089e+01 1.737975000000000136e+02 1.527980000000000018e+03
