# t [s], A [cm^2], U [cm/s], P [cPa], c [cm/s]
1.000000000000000021e-03 7.397654999999999648e-01 6.299749999999999794e-03 9.720599999999998886e+01 1.764284999999999854e+03
2.000000000000000042e-03 7.397534999999999528e-01 -1.329605000000000196e-03 9.717324999999999591e+01 1.764284999999999854e+03
3.000000000000000062e-03 7.398199999999999221e-01 1.099959500000000090e-01 9.730530000000000257e+01 1.764309999999999945e+03
4.000000000000000083e-03 7.398664999999999825e-01 2.040686500000000181e-01 9.742825000000000557e+01 1.764335000000000036e+03
5.000000000000000104e-03 7.398190000000000044e-01 1.539848000000000050e-01 9.731560000000000343e+01 1.764315000000000055e+03
6.000000000000000125e-03 7.397434999999999983e-01 5.071499999999995456e-02 9.704449999999999932e+01 1.764259999999999991e+03
7.000000000000000146e-03 7.396770000000000289e-01 -4.830099999999998284e-02 9.671385000000000787e+01 1.764195000000000164e+03
8.000000000000000167e-03 7.395580000000000487e-01 -2.501800000000000690e-01 9.619514999999999816e+01 1.764095000000000027e+03
9.000000000000001055e-03 7.393655000000000088e-01 -5.950999999999999623e-01 9.539849999999999852e+01 1.763940000000000055e+03
1.000000000000000194e-02 7.390885000000000371e-01 -1.096694999999999975e+00 9.426005000000000678e+01 1.763710000000000036e+03
1.099999999999999936e-02 7.387015000000000109e-01 -1.784370000000000012e+00 9.268840000000000146e+01 1.763394999999999982e+03
1.200000000000000025e-02 7.382195000000000285e-01 -2.613595000000000113e+00 9.068699999999999761e+01 1.762985000000000127e+03
1.300000000000000114e-02 7.377164999999999973e-01 -3.429349999999999898e+00 8.843854999999999222e+01 1.762514999999999873e+03
1.400000000000000203e-02 7.372790000000000177e-01 -4.046794499999999850e+00 8.622275000000000489e+01 1.762029999999999973e+03
1.499999999999999944e-02 7.369514999999999816e-01 -4.350812999999999597e+00 8.426560000000000628e+01 1.761574999999999818e+03
1.600000000000000033e-02 7.367224999999999469e-01 -4.333524999999999849e+00 8.264945000000000164e+01 1.761174999999999955e+03
1.700000000000000122e-02 7.365435000000000176e-01 -4.070734999999999992e+00 8.131264999999999077e+01 1.760825000000000045e+03
1.800000000000000211e-02 7.363569999999999283e-01 -3.671625000000000139e+00 8.010794999999998822e+01 1.760490000000000009e+03
1.900000000000000300e-02 7.361210000000000253e-01 -3.229789000000000243e+00 7.887895000000000323e+01 1.760159999999999854e+03
2.000000000000000042e-02 7.358229999999998938e-01 -2.791705199999999998e+00 7.752334999999999354e+01 1.759805000000000064e+03
2.100000000000000130e-02 7.354769999999999364e-01 -2.350831499999999963e+00 7.602355000000000018e+01 1.759424999999999955e+03
2.200000000000000219e-02 7.351144999999998930e-01 -1.866694999999999993e+00 7.443465000000000487e+01 1.759029999999999973e+03
2.299999999999999961e-02 7.347650000000000015e-01 -1.297694999999999821e+00 7.284154999999999802e+01 1.758630000000000109e+03
2.400000000000000050e-02 7.344414999999999694e-01 -6.310800000000000853e-01 7.130809999999999604e+01 1.758240000000000009e+03
2.500000000000000139e-02 7.341340000000000643e-01 1.018200000000000216e-01 6.984064999999999657e+01 1.757849999999999909e+03
2.600000000000000228e-02 7.338139999999999663e-01 8.281900000000002038e-01 6.837680000000000291e+01 1.757470000000000027e+03
2.700000000000000316e-02 7.334424999999999972e-01 1.450655000000000028e+00 6.679990000000000805e+01 1.757070000000000164e+03
2.800000000000000058e-02 7.329825000000000923e-01 1.872269999999999879e+00 6.497214999999999918e+01 1.756625000000000000e+03
2.900000000000000147e-02 7.324105000000000754e-01 2.022495000000000154e+00 6.277729999999999677e+01 1.756110000000000127e+03
3.000000000000000236e-02 7.317264999999999464e-01 1.876444999999999474e+00 6.015909999999999513e+01 1.755509999999999991e+03
3.099999999999999978e-02 7.309529999999999639e-01 1.461139999999999883e+00 5.714395000000000380e+01 1.754829999999999927e+03
3.200000000000000067e-02 7.301305000000000156e-01 8.467950000000001864e-01 5.383990000000000009e+01 1.754095000000000027e+03
3.300000000000000155e-02 7.293095000000000550e-01 1.275200000000005218e-01 5.041349999999999909e+01 1.753315000000000055e+03
3.400000000000000244e-02 7.285369999999999902e-01 -6.004950000000004451e-01 4.705595000000000283e+01 1.752550000000000182e+03
3.500000000000000333e-02 7.278499999999999970e-01 -1.256229999999999958e+00 4.394920000000000471e+01 1.751825000000000045e+03
3.600000000000000422e-02 7.272745000000000459e-01 -1.782945000000000224e+00 4.124164999999999992e+01 1.751170000000000073e+03
3.700000000000000511e-02 7.268224999999999270e-01 -2.149219999999999686e+00 3.903529999999999944e+01 1.750619999999999891e+03
3.799999999999999906e-02 7.264960000000000306e-01 -2.344075000000000131e+00 3.738499999999999801e+01 1.750184999999999945e+03
3.899999999999999994e-02 7.262915000000000898e-01 -2.369045999999999985e+00 3.630639999999999645e+01 1.749869999999999891e+03
4.000000000000000083e-02 7.262025000000000841e-01 -2.229845000000000077e+00 3.578879999999999484e+01 1.749684999999999945e+03
4.100000000000000172e-02 7.262239999999999807e-01 -1.930060000000000109e+00 3.580839999999999890e+01 1.749625000000000000e+03
4.200000000000000261e-02 7.263515000000000388e-01 -1.468156499999999864e+00 3.633885000000000076e+01 1.749679999999999836e+03
4.300000000000000350e-02 7.265835000000000488e-01 -8.382199999999999651e-01 3.735660000000000025e+01 1.749855000000000018e+03
4.400000000000000439e-02 7.269174999999999942e-01 -3.343500000000032557e-02 3.884040000000000248e+01 1.750134999999999991e+03
4.499999999999999833e-02 7.273510000000000808e-01 9.491249999999999964e-01 4.076754999999999995e+01 1.750525000000000091e+03
4.599999999999999922e-02 7.278759999999999675e-01 2.104439999999999866e+00 4.310815000000000197e+01 1.751015000000000100e+03
4.700000000000000011e-02 7.284819999999999629e-01 3.417114999999999903e+00 4.582065000000000055e+01 1.751594999999999800e+03
4.800000000000000100e-02 7.291545000000000387e-01 4.861369999999999969e+00 4.884995000000000687e+01 1.752250000000000000e+03
4.900000000000000189e-02 7.298759999999999692e-01 6.403095000000000425e+00 5.212845000000000084e+01 1.752970000000000027e+03
5.000000000000000278e-02 7.306280000000000552e-01 8.002992000000000772e+00 5.557979999999999876e+01 1.753740000000000009e+03
5.100000000000000366e-02 7.313920000000000421e-01 9.621015000000001649e+00 5.912484999999999502e+01 1.754549999999999955e+03
5.200000000000000455e-02 7.321515000000000661e-01 1.121968000000000032e+01 6.268795000000000073e+01 1.755365000000000009e+03
5.300000000000000544e-02 7.328940000000000454e-01 1.276727999999999952e+01 6.620265000000000555e+01 1.756184999999999945e+03
5.399999999999999939e-02 7.336099999999999843e-01 1.423960499999999918e+01 6.961619999999999209e+01 1.756994999999999891e+03
5.500000000000000028e-02 7.342945000000000721e-01 1.562049999999999983e+01 7.289209999999999923e+01 1.757779999999999973e+03
5.600000000000000117e-02 7.349449999999999594e-01 1.690140000000000242e+01 7.601024999999999920e+01 1.758530000000000200e+03
5.700000000000000205e-02 7.355635000000000367e-01 1.808030000000000115e+01 7.896604999999999563e+01 1.759255000000000109e+03
5.800000000000000294e-02 7.361530000000000573e-01 1.916055000000000064e+01 8.176765000000000327e+01 1.759945000000000164e+03
5.900000000000000383e-02 7.367185000000000539e-01 2.014874999999999972e+01 8.443299999999999272e+01 1.760610000000000127e+03
6.000000000000000472e-02 7.372665000000000468e-01 2.105395000000000039e+01 8.698615000000000919e+01 1.761250000000000000e+03
6.099999999999999867e-02 7.378020000000000689e-01 2.188575000000000159e+01 8.945394999999999186e+01 1.761860000000000127e+03
6.199999999999999956e-02 7.383299999999999308e-01 2.265364999999999895e+01 9.186244999999999550e+01 1.762465000000000146e+03
6.300000000000000044e-02 7.388540000000000108e-01 2.336565000000000225e+01 9.423425000000000296e+01 1.763055000000000064e+03
6.400000000000000133e-02 7.393784999999999386e-01 2.402765000000000128e+01 9.658599999999999852e+01 1.763644999999999982e+03
6.500000000000000222e-02 7.399020000000000596e-01 2.464280000000000115e+01 9.892674999999999841e+01 1.764220000000000027e+03
6.600000000000000311e-02 7.404239999999999711e-01 2.521144999999999925e+01 1.012569000000000017e+02 1.764800000000000182e+03
6.700000000000000400e-02 7.409419999999999895e-01 2.573124999999999929e+01 1.035686000000000035e+02 1.765369999999999891e+03
6.800000000000000488e-02 7.414514999999999301e-01 2.619749999999999801e+01 1.058474999999999966e+02 1.765934999999999945e+03
6.900000000000000577e-02 7.419474999999999820e-01 2.660405000000000086e+01 1.080720000000000027e+02 1.766485000000000127e+03
7.000000000000000666e-02 7.424245000000000427e-01 2.694420000000000215e+01 1.102169999999999987e+02 1.767025000000000091e+03
7.100000000000000755e-02 7.428759999999999808e-01 2.721099999999999852e+01 1.122584999999999980e+02 1.767539999999999964e+03
7.200000000000000844e-02 7.432969999999999855e-01 2.739845000000000041e+01 1.141689999999999969e+02 1.768025000000000091e+03
7.300000000000000933e-02 7.436840000000000117e-01 2.750164999999999793e+01 1.159269999999999925e+02 1.768474999999999909e+03
7.399999999999999634e-02 7.440309999999999979e-01 2.751709999999999923e+01 1.175120000000000005e+02 1.768884999999999991e+03
7.499999999999999722e-02 7.443374999999999853e-01 2.744310000000000116e+01 1.189085000000000036e+02 1.769255000000000109e+03
7.599999999999999811e-02 7.446004999999999985e-01 2.727929999999999922e+01 1.201069999999999993e+02 1.769579999999999927e+03
7.699999999999999900e-02 7.448194999999999677e-01 2.702730000000000032e+01 1.211014999999999873e+02 1.769855000000000018e+03
7.799999999999999989e-02 7.449945000000000039e-01 2.669024999999999892e+01 1.218915000000000077e+02 1.770079999999999927e+03
7.900000000000000078e-02 7.451265000000000249e-01 2.627289999999999992e+01 1.224805000000000064e+02 1.770259999999999991e+03
8.000000000000000167e-02 7.452180000000000470e-01 2.578190000000000026e+01 1.228774999999999977e+02 1.770389999999999873e+03
8.100000000000000255e-02 7.452714999999999756e-01 2.522540000000000049e+01 1.230955000000000013e+02 1.770480000000000018e+03
8.200000000000000344e-02 7.452910000000000368e-01 2.461314999999999742e+01 1.231514999999999986e+02 1.770529999999999973e+03
8.300000000000000433e-02 7.452815000000000412e-01 2.395615000000000094e+01 1.230655000000000001e+02 1.770539999999999964e+03
8.400000000000000522e-02 7.452469999999999928e-01 2.326650000000000063e+01 1.228599999999999994e+02 1.770514999999999873e+03
8.500000000000000611e-02 7.451944999999999819e-01 2.255649999999999977e+01 1.225589999999999975e+02 1.770470000000000027e+03
8.600000000000000699e-02 7.451274999999999427e-01 2.183869999999999933e+01 1.221880000000000024e+02 1.770404999999999973e+03
8.700000000000000788e-02 7.450529999999999653e-01 2.112470000000000070e+01 1.217720000000000056e+02 1.770319999999999936e+03
8.800000000000000877e-02 7.449734999999999552e-01 2.042510000000000048e+01 1.213329999999999984e+02 1.770230000000000018e+03
8.899999999999999578e-02 7.448939999999999451e-01 1.974849999999999994e+01 1.208900000000000006e+02 1.770130000000000109e+03
8.999999999999999667e-02 7.448179999999999801e-01 1.910150000000000148e+01 1.204604999999999961e+02 1.770029999999999973e+03
9.099999999999999756e-02 7.447464999999999780e-01 1.848825000000000074e+01 1.200550000000000068e+02 1.769934999999999945e+03
9.199999999999999845e-02 7.446800000000000086e-01 1.791035000000000110e+01 1.196800000000000068e+02 1.769845000000000027e+03
9.299999999999999933e-02 7.446194999999999897e-01 1.736720000000000041e+01 1.193379999999999939e+02 1.769759999999999991e+03
9.400000000000000022e-02 7.445634999999999337e-01 1.685589999999999833e+01 1.190264999999999986e+02 1.769679999999999836e+03
9.500000000000000111e-02 7.445100000000000051e-01 1.637185000000000201e+01 1.187394999999999925e+02 1.769605000000000018e+03
9.600000000000000200e-02 7.444570000000000354e-01 1.590915000000000035e+01 1.184670000000000130e+02 1.769534999999999854e+03
9.700000000000000289e-02 7.444024999999999670e-01 1.546085000000000065e+01 1.181974999999999909e+02 1.769460000000000036e+03
9.800000000000000377e-02 7.443425000000000180e-01 1.501960000000000051e+01 1.179184999999999945e+02 1.769389999999999873e+03
9.900000000000000466e-02 7.442750000000000199e-01 1.457795000000000130e+01 1.176175000000000068e+02 1.769315000000000055e+03
1.000000000000000056e-01 7.441980000000000262e-01 1.412904999999999944e+01 1.172819999999999965e+02 1.769235000000000127e+03
1.010000000000000064e-01 7.441085000000000615e-01 1.366665000000000063e+01 1.169014999999999986e+02 1.769139999999999873e+03
1.020000000000000073e-01 7.440065000000000150e-01 1.318581500000000162e+01 1.164675000000000011e+02 1.769035000000000082e+03
1.030000000000000082e-01 7.438899999999999402e-01 1.268301999999999907e+01 1.159755000000000109e+02 1.768925000000000182e+03
1.040000000000000091e-01 7.437599999999999767e-01 1.215644999999999953e+01 1.154219999999999970e+02 1.768795000000000073e+03
1.050000000000000100e-01 7.436164999999999026e-01 1.160615999999999914e+01 1.148100000000000023e+02 1.768654999999999973e+03
1.059999999999999970e-01 7.434624999999999151e-01 1.103415500000000016e+01 1.141444999999999936e+02 1.768500000000000000e+03
1.069999999999999979e-01 7.432990000000000430e-01 1.044415500000000030e+01 1.134339999999999975e+02 1.768335000000000036e+03
1.079999999999999988e-01 7.431300000000000683e-01 9.841695000000001414e+00 1.126915000000000049e+02 1.768164999999999964e+03
1.089999999999999997e-01 7.429589999999999250e-01 9.233484999999999943e+00 1.119320000000000022e+02 1.767990000000000009e+03
1.100000000000000006e-01 7.427900000000000613e-01 8.627565000000000595e+00 1.111724999999999994e+02 1.767804999999999836e+03
1.110000000000000014e-01 7.426269999999999261e-01 8.032505000000000450e+00 1.104309999999999974e+02 1.767630000000000109e+03
1.120000000000000023e-01 7.424739999999999673e-01 7.457054999999999545e+00 1.097265000000000015e+02 1.767465000000000146e+03
1.130000000000000032e-01 7.423355000000000370e-01 6.909854999999999414e+00 1.090769999999999982e+02 1.767304999999999836e+03
1.140000000000000041e-01 7.422139999999999294e-01 6.398819999999999730e+00 1.084989999999999952e+02 1.767159999999999854e+03
1.150000000000000050e-01 7.421130000000000226e-01 5.930830000000000268e+00 1.080064999999999884e+02 1.767034999999999854e+03
1.160000000000000059e-01 7.420339999999999714e-01 5.511359999999999815e+00 1.076105000000000018e+02 1.766930000000000064e+03
1.170000000000000068e-01 7.419789999999999441e-01 5.144264999999999866e+00 1.073190000000000026e+02 1.766845000000000027e+03
1.180000000000000077e-01 7.419474999999999820e-01 4.831599999999999895e+00 1.071345000000000027e+02 1.766789999999999964e+03
1.190000000000000085e-01 7.419389999999999041e-01 4.573595000000000077e+00 1.070570000000000022e+02 1.766750000000000000e+03
1.200000000000000094e-01 7.419530000000000847e-01 4.368730000000000224e+00 1.070829999999999984e+02 1.766744999999999891e+03
1.209999999999999964e-01 7.419869999999999521e-01 4.213874999999999815e+00 1.072034999999999911e+02 1.766759999999999991e+03
1.219999999999999973e-01 7.420385000000000453e-01 4.104544999999999888e+00 1.074089999999999918e+02 1.766789999999999964e+03
1.229999999999999982e-01 7.421029999999999571e-01 4.035214999999999996e+00 1.076855000000000047e+02 1.766840000000000146e+03
1.239999999999999991e-01 7.421794999999999920e-01 3.999624999999999986e+00 1.080190000000000055e+02 1.766904999999999973e+03
1.250000000000000000e-01 7.422634999999999650e-01 3.991109999999999935e+00 1.083944999999999936e+02 1.766985000000000127e+03
1.260000000000000009e-01 7.423519999999999008e-01 4.002934999999999910e+00 1.087964999999999947e+02 1.767070000000000164e+03
1.270000000000000018e-01 7.424420000000000464e-01 4.028545000000000265e+00 1.092119999999999891e+02 1.767164999999999964e+03
1.280000000000000027e-01 7.425310000000000521e-01 4.061815000000000175e+00 1.096260000000000048e+02 1.767255000000000109e+03
1.290000000000000036e-01 7.426159999999999428e-01 4.097204999999999764e+00 1.100285000000000082e+02 1.767345000000000027e+03
1.300000000000000044e-01 7.426960000000000228e-01 4.129920000000000258e+00 1.104095000000000084e+02 1.767434999999999945e+03
1.310000000000000053e-01 7.427695000000000825e-01 4.155969999999999942e+00 1.107609999999999957e+02 1.767519999999999982e+03
1.320000000000000062e-01 7.428349999999999120e-01 4.172225000000000072e+00 1.110780000000000030e+02 1.767595000000000027e+03
1.330000000000000071e-01 7.428924999999999557e-01 4.176420000000000243e+00 1.113565000000000111e+02 1.767664999999999964e+03
1.340000000000000080e-01 7.429414999999999214e-01 4.167144999999999655e+00 1.115960000000000036e+02 1.767724999999999909e+03
1.350000000000000089e-01 7.429824999999999902e-01 4.143794999999999895e+00 1.117959999999999923e+02 1.767775000000000091e+03
1.360000000000000098e-01 7.430160000000000098e-01 4.106505000000000294e+00 1.119579999999999984e+02 1.767820000000000164e+03
1.370000000000000107e-01 7.430419999999999803e-01 4.056039999999999424e+00 1.120854999999999961e+02 1.767860000000000127e+03
1.380000000000000115e-01 7.430624999999999591e-01 3.993710000000000093e+00 1.121820000000000022e+02 1.767884999999999991e+03
1.390000000000000124e-01 7.430775000000000574e-01 3.921235000000000248e+00 1.122514999999999930e+02 1.767905000000000200e+03
1.400000000000000133e-01 7.430885000000000407e-01 3.840600000000000236e+00 1.122990000000000066e+02 1.767930000000000064e+03
1.410000000000000142e-01 7.430970000000000075e-01 3.753890000000000171e+00 1.123290000000000077e+02 1.767940000000000055e+03
1.420000000000000151e-01 7.431024999999999991e-01 3.663199999999999790e+00 1.123460000000000036e+02 1.767950000000000045e+03
1.430000000000000160e-01 7.431065000000000031e-01 3.570434999999999803e+00 1.123534999999999968e+02 1.767954999999999927e+03
1.440000000000000169e-01 7.431099999999999373e-01 3.477265000000000050e+00 1.123549999999999898e+02 1.767954999999999927e+03
1.450000000000000178e-01 7.431125000000000647e-01 3.384980000000000100e+00 1.123525000000000063e+02 1.767954999999999927e+03
1.459999999999999909e-01 7.431145000000000111e-01 3.294500000000000206e+00 1.123470000000000084e+02 1.767960000000000036e+03
1.469999999999999918e-01 7.431159999999999988e-01 3.206305000000000405e+00 1.123375000000000057e+02 1.767960000000000036e+03
1.479999999999999927e-01 7.431164999999999576e-01 3.120510000000000339e+00 1.123250000000000028e+02 1.767960000000000036e+03
1.489999999999999936e-01 7.431155000000000399e-01 3.036894999999999900e+00 1.123064999999999998e+02 1.767954999999999927e+03
1.499999999999999944e-01 7.431125000000000647e-01 2.954990000000000006e+00 1.122804999999999893e+02 1.767950000000000045e+03
1.509999999999999953e-01 7.431069999999999620e-01 2.874175000000000146e+00 1.122435000000000116e+02 1.767945000000000164e+03
1.519999999999999962e-01 7.430980000000000363e-01 2.793789999999999996e+00 1.121940000000000026e+02 1.767930000000000064e+03
1.529999999999999971e-01 7.430855000000000654e-01 2.713239999999999874e+00 1.121289999999999907e+02 1.767920000000000073e+03
1.539999999999999980e-01 7.430689999999999795e-01 2.632080000000000197e+00 1.120465000000000089e+02 1.767900000000000091e+03
1.549999999999999989e-01 7.430479999999999308e-01 2.550089999999999968e+00 1.119459999999999980e+02 1.767880000000000109e+03
1.559999999999999998e-01 7.430224999999999191e-01 2.467309999999999892e+00 1.118259999999999934e+02 1.767855000000000018e+03
1.570000000000000007e-01 7.429930000000000145e-01 2.384079999999999977e+00 1.116869999999999976e+02 1.767819999999999936e+03
1.580000000000000016e-01 7.429594999999999949e-01 2.301025000000000098e+00 1.115310000000000059e+02 1.767784999999999854e+03
1.590000000000000024e-01 7.429225000000000412e-01 2.219005000000000116e+00 1.113590000000000089e+02 1.767744999999999891e+03
