# t [s], A [cm^2], U [cm/s], P [cPa], c [cm/s]
1.000000000000000021e-03 1.409540000000000237e-01 4.360884999999999900e-01 9.554240000000000066e+01 1.931889999999999873e+03
2.000000000000000042e-03 1.409185000000000021e-01 2.079844000000000026e+00 9.209360000000000923e+01 1.931539999999999964e+03
3.000000000000000062e-03 1.408154999999999824e-01 4.033265000000000100e+00 8.762879999999999825e+01 1.930539999999999964e+03
4.000000000000000083e-03 1.406715000000000049e-01 6.185275999999999996e+00 8.299049999999999727e+01 1.929175000000000182e+03
5.000000000000000104e-03 1.405150000000000010e-01 8.462989999999999569e+00 7.897620000000000573e+01 1.927694999999999936e+03
6.000000000000000125e-03 1.403615000000000002e-01 1.069655500000000004e+01 7.577179999999999893e+01 1.926260000000000218e+03
7.000000000000000146e-03 1.402165000000000217e-01 1.269830999999999932e+01 7.309964999999999691e+01 1.924920000000000073e+03
8.000000000000000167e-03 1.400830000000000131e-01 1.440099999999999980e+01 7.072605000000000075e+01 1.923710000000000036e+03
9.000000000000001055e-03 1.399630000000000041e-01 1.584004999999999974e+01 6.867449999999999477e+01 1.922639999999999873e+03
1.000000000000000194e-02 1.398599999999999843e-01 1.704729999999999990e+01 6.699940000000000850e+01 1.921730000000000018e+03
1.099999999999999936e-02 1.397740000000000093e-01 1.803229999999999933e+01 6.566239999999999100e+01 1.920980000000000018e+03
1.200000000000000025e-02 1.397025000000000072e-01 1.880545000000000044e+01 6.459595000000000198e+01 1.920360000000000127e+03
1.300000000000000114e-02 1.396449999999999914e-01 1.937679999999999936e+01 6.372835000000000605e+01 1.919869999999999891e+03
1.400000000000000203e-02 1.395965000000000122e-01 1.975999999999999801e+01 6.298460000000000036e+01 1.919465000000000146e+03
1.499999999999999944e-02 1.395569999999999866e-01 2.000070000000000192e+01 6.235379999999999967e+01 1.919139999999999873e+03
1.600000000000000033e-02 1.395264999999999977e-01 2.019525000000000148e+01 6.197119999999999607e+01 1.918894999999999982e+03
1.700000000000000122e-02 1.395109999999999961e-01 2.046605000000000274e+01 6.209635000000000105e+01 1.918779999999999973e+03
1.800000000000000211e-02 1.395155000000000145e-01 2.090639999999999787e+01 6.297405000000000541e+01 1.918835000000000036e+03
1.900000000000000300e-02 1.395440000000000014e-01 2.153229999999999933e+01 6.467164999999999964e+01 1.919095000000000027e+03
2.000000000000000042e-02 1.395959999999999979e-01 2.227139999999999986e+01 6.700119999999999720e+01 1.919555000000000064e+03
2.100000000000000130e-02 1.396630000000000094e-01 2.299080000000000013e+01 6.956264999999999077e+01 1.920150000000000091e+03
2.200000000000000219e-02 1.397344999999999837e-01 2.354554999999999865e+01 7.187575000000001069e+01 1.920795000000000073e+03
2.299999999999999961e-02 1.397990000000000066e-01 2.382634999999999792e+01 7.353459999999999752e+01 1.921380000000000109e+03
2.400000000000000050e-02 1.398475000000000135e-01 2.378914999999999935e+01 7.432290000000000418e+01 1.921829999999999927e+03
2.500000000000000139e-02 1.398749999999999993e-01 2.345944999999999681e+01 7.425464999999999804e+01 1.922095000000000027e+03
2.600000000000000228e-02 1.398825000000000207e-01 2.291324999999999790e+01 7.353525000000000489e+01 1.922184999999999945e+03
2.700000000000000316e-02 1.398745000000000127e-01 2.224575000000000102e+01 7.246750000000000114e+01 1.922134999999999991e+03
2.800000000000000058e-02 1.398570000000000091e-01 2.153925000000000267e+01 7.134309999999999263e+01 1.921984999999999900e+03
2.900000000000000147e-02 1.398355000000000015e-01 2.084270000000000067e+01 7.035845000000000482e+01 1.921804999999999836e+03
3.000000000000000236e-02 1.398145000000000082e-01 2.016645000000000110e+01 6.957880000000000109e+01 1.921625000000000000e+03
3.099999999999999978e-02 1.397950000000000026e-01 1.949115000000000109e+01 6.895259999999998968e+01 1.921449999999999818e+03
3.200000000000000067e-02 1.397760000000000113e-01 1.878525000000000134e+01 6.836154999999999404e+01 1.921289999999999964e+03
3.300000000000000155e-02 1.397559999999999913e-01 1.802420000000000044e+01 6.768444999999999823e+01 1.921110000000000127e+03
3.400000000000000244e-02 1.397325000000000095e-01 1.720530000000000115e+01 6.685330000000000439e+01 1.920905000000000200e+03
3.500000000000000333e-02 1.397045000000000092e-01 1.635454999999999970e+01 6.588660000000000139e+01 1.920664999999999964e+03
3.600000000000000422e-02 1.396745000000000070e-01 1.552405000000000079e+01 6.489215000000000089e+01 1.920400000000000091e+03
3.700000000000000511e-02 1.396455000000000057e-01 1.478079999999999927e+01 6.404035000000000366e+01 1.920139999999999873e+03
3.799999999999999906e-02 1.396209999999999951e-01 1.419069999999999965e+01 6.351834999999999809e+01 1.919930000000000064e+03
3.899999999999999994e-02 1.396069999999999811e-01 1.380214999999999925e+01 6.347735000000000127e+01 1.919800000000000182e+03
4.000000000000000083e-02 1.396070000000000089e-01 1.363370000000000104e+01 6.398965000000000458e+01 1.919784999999999854e+03
4.100000000000000172e-02 1.396215000000000095e-01 1.366880000000000095e+01 6.502590000000000714e+01 1.919904999999999973e+03
4.200000000000000261e-02 1.396499999999999964e-01 1.385814999999999841e+01 6.645660000000000878e+01 1.920144999999999982e+03
4.300000000000000350e-02 1.396890000000000076e-01 1.412829999999999941e+01 6.807545000000000357e+01 1.920485000000000127e+03
4.400000000000000439e-02 1.397335000000000105e-01 1.439419999999999966e+01 6.963669999999999050e+01 1.920865000000000009e+03
4.499999999999999833e-02 1.397760000000000113e-01 1.457185000000000130e+01 7.089695000000000391e+01 1.921240000000000009e+03
4.599999999999999922e-02 1.398110000000000186e-01 1.458974999999999866e+01 7.165129999999999200e+01 1.921549999999999955e+03
4.700000000000000011e-02 1.398324999999999985e-01 1.439594999999999914e+01 7.175905000000000200e+01 1.921740000000000009e+03
4.800000000000000100e-02 1.398365000000000025e-01 1.396180000000000021e+01 7.115444999999999709e+01 1.921780000000000200e+03
4.900000000000000189e-02 1.398205000000000142e-01 1.328125000000000000e+01 6.984449999999999648e+01 1.921644999999999982e+03
5.000000000000000278e-02 1.397840000000000193e-01 1.236795000000000044e+01 6.789679999999999893e+01 1.921329999999999927e+03
5.100000000000000366e-02 1.397285000000000055e-01 1.124999000000000038e+01 6.542069999999999652e+01 1.920849999999999909e+03
5.200000000000000455e-02 1.396560000000000024e-01 9.965329999999999799e+00 6.254845000000000255e+01 1.920220000000000027e+03
5.300000000000000544e-02 1.395710000000000006e-01 8.557399999999999451e+00 5.941845000000000709e+01 1.919469999999999800e+03
5.399999999999999939e-02 1.394755000000000023e-01 7.071749999999999758e+00 5.616409999999999769e+01 1.918625000000000000e+03
5.500000000000000028e-02 1.393745000000000123e-01 5.554605000000000459e+00 5.290724999999999767e+01 1.917739999999999782e+03
5.600000000000000117e-02 1.392709999999999781e-01 4.051594500000000210e+00 4.975710000000000122e+01 1.916824999999999818e+03
5.700000000000000205e-02 1.391689999999999872e-01 2.607792499999999958e+00 4.681165000000000020e+01 1.915914999999999964e+03
5.800000000000000294e-02 1.390710000000000002e-01 1.267480000000000162e+00 4.416025000000000489e+01 1.915050000000000182e+03
5.900000000000000383e-02 1.389814999999999801e-01 7.380499999999989846e-02 4.188615000000000066e+01 1.914250000000000000e+03
6.000000000000000472e-02 1.389019999999999977e-01 -9.320000000000000506e-01 4.006700000000000017e+01 1.913545000000000073e+03
6.099999999999999867e-02 1.388360000000000150e-01 -1.711891499999999899e+00 3.877389999999999759e+01 1.912945000000000164e+03
6.199999999999999956e-02 1.387855000000000061e-01 -2.232670499999999780e+00 3.806839999999999691e+01 1.912494999999999891e+03
6.300000000000000044e-02 1.387535000000000018e-01 -2.467785000000000117e+00 3.799889999999999901e+01 1.912194999999999936e+03
6.400000000000000133e-02 1.387415000000000176e-01 -2.399020000000000152e+00 3.859609999999999985e+01 1.912074999999999818e+03
6.500000000000000222e-02 1.387504999999999988e-01 -2.017789999999999750e+00 3.986990000000000123e+01 1.912135000000000218e+03
6.600000000000000311e-02 1.387809999999999877e-01 -1.325878499999999960e+00 4.180705000000000382e+01 1.912385000000000218e+03
6.700000000000000400e-02 1.388329999999999842e-01 -3.354799999999998894e-01 4.437109999999999843e+01 1.912824999999999818e+03
6.800000000000000488e-02 1.389059999999999739e-01 9.314649999999998764e-01 4.750374999999999659e+01 1.913450000000000045e+03
6.900000000000000577e-02 1.389974999999999961e-01 2.444516999999999829e+00 5.112860000000000582e+01 1.914244999999999891e+03
7.000000000000000666e-02 1.391064999999999940e-01 4.166472999999999871e+00 5.515555000000000518e+01 1.915194999999999936e+03
7.100000000000000755e-02 1.392300000000000204e-01 6.055345000000000866e+00 5.948600000000000421e+01 1.916269999999999982e+03
7.200000000000000844e-02 1.393645000000000023e-01 8.066615000000000535e+00 6.401885000000000048e+01 1.917454999999999927e+03
7.300000000000000933e-02 1.395075000000000065e-01 1.015503499999999981e+01 6.865550000000000352e+01 1.918720000000000027e+03
7.399999999999999634e-02 1.396570000000000034e-01 1.227696500000000057e+01 7.330469999999999686e+01 1.920034999999999854e+03
7.499999999999999722e-02 1.398079999999999878e-01 1.439199999999999946e+01 7.788660000000000139e+01 1.921384999999999991e+03
7.599999999999999811e-02 1.399595000000000145e-01 1.646440000000000126e+01 8.233549999999999613e+01 1.922735000000000127e+03
7.699999999999999900e-02 1.401094999999999979e-01 1.846454999999999913e+01 8.660249999999999204e+01 1.924070000000000164e+03
7.799999999999999989e-02 1.402549999999999908e-01 2.036939999999999884e+01 9.065604999999999336e+01 1.925375000000000000e+03
7.900000000000000078e-02 1.403955000000000064e-01 2.216319999999999979e+01 9.448230000000000928e+01 1.926639999999999873e+03
8.000000000000000167e-02 1.405299999999999883e-01 2.383740000000000236e+01 9.808375000000000909e+01 1.927849999999999909e+03
8.100000000000000255e-02 1.406580000000000052e-01 2.539014999999999844e+01 1.014774500000000046e+02 1.929014999999999873e+03
8.200000000000000344e-02 1.407809999999999895e-01 2.682560000000000144e+01 1.046930499999999995e+02 1.930125000000000000e+03
8.300000000000000433e-02 1.408984999999999821e-01 2.815270000000000294e+01 1.077665000000000077e+02 1.931190000000000055e+03
8.400000000000000522e-02 1.410115000000000118e-01 2.938380000000000081e+01 1.107409999999999997e+02 1.932224999999999909e+03
8.500000000000000611e-02 1.411209999999999964e-01 3.053350000000000009e+01 1.136580000000000013e+02 1.933220000000000027e+03
8.600000000000000699e-02 1.412289999999999934e-01 3.161680000000000135e+01 1.165569999999999879e+02 1.934210000000000036e+03
8.700000000000000788e-02 1.413355000000000028e-01 3.264804999999999779e+01 1.194719999999999942e+02 1.935179999999999836e+03
8.800000000000000877e-02 1.414424999999999988e-01 3.363965000000000316e+01 1.224275000000000091e+02 1.936154999999999973e+03
8.899999999999999578e-02 1.415500000000000091e-01 3.460119999999999862e+01 1.254395000000000095e+02 1.937139999999999873e+03
8.999999999999999667e-02 1.416590000000000071e-01 3.553889999999999816e+01 1.285120000000000005e+02 1.938130000000000109e+03
9.099999999999999756e-02 1.417694999999999927e-01 3.645515000000000327e+01 1.316380000000000052e+02 1.939134999999999991e+03
9.199999999999999845e-02 1.418810000000000071e-01 3.734850000000000136e+01 1.348019999999999925e+02 1.940154999999999973e+03
9.299999999999999933e-02 1.419934999999999947e-01 3.821405000000000030e+01 1.379784999999999968e+02 1.941184999999999945e+03
9.400000000000000022e-02 1.421060000000000101e-01 3.904364999999999952e+01 1.411359999999999957e+02 1.942215000000000146e+03
9.500000000000000111e-02 1.422184999999999977e-01 3.982665000000000077e+01 1.442369999999999948e+02 1.943235000000000127e+03
9.600000000000000200e-02 1.423289999999999833e-01 4.055060000000000286e+01 1.472415000000000020e+02 1.944244999999999891e+03
9.700000000000000289e-02 1.424360000000000070e-01 4.120210000000000150e+01 1.501105000000000018e+02 1.945230000000000018e+03
9.800000000000000377e-02 1.425390000000000268e-01 4.176735000000000042e+01 1.528040000000000020e+02 1.946175000000000182e+03
9.900000000000000466e-02 1.426364999999999994e-01 4.223324999999999818e+01 1.552860000000000014e+02 1.947065000000000055e+03
1.000000000000000056e-01 1.427280000000000215e-01 4.258780000000000143e+01 1.575260000000000105e+02 1.947904999999999973e+03
1.010000000000000064e-01 1.428114999999999801e-01 4.282099999999999795e+01 1.594984999999999786e+02 1.948675000000000182e+03
1.020000000000000073e-01 1.428865000000000274e-01 4.292515000000000214e+01 1.611850000000000023e+02 1.949375000000000000e+03
1.030000000000000082e-01 1.429519999999999957e-01 4.289520000000000266e+01 1.625745000000000005e+02 1.949985000000000127e+03
1.040000000000000091e-01 1.430080000000000240e-01 4.272939999999999827e+01 1.636634999999999991e+02 1.950509999999999991e+03
1.050000000000000100e-01 1.430544999999999733e-01 4.242914999999999992e+01 1.644555000000000007e+02 1.950945000000000164e+03
1.059999999999999970e-01 1.430914999999999826e-01 4.199889999999999901e+01 1.649629999999999939e+02 1.951289999999999964e+03
1.069999999999999979e-01 1.431184999999999818e-01 4.144630000000000081e+01 1.652030000000000030e+02 1.951549999999999955e+03
1.079999999999999988e-01 1.431370000000000142e-01 4.078170000000000073e+01 1.651995000000000005e+02 1.951724999999999909e+03
1.089999999999999997e-01 1.431459999999999955e-01 4.001794999999999902e+01 1.649819999999999993e+02 1.951819999999999936e+03
1.100000000000000006e-01 1.431485000000000118e-01 3.916969999999999885e+01 1.645815000000000055e+02 1.951849999999999909e+03
1.110000000000000014e-01 1.431435000000000068e-01 3.825310000000000343e+01 1.640339999999999918e+02 1.951815000000000055e+03
1.120000000000000023e-01 1.431330000000000102e-01 3.728495000000000203e+01 1.633729999999999905e+02 1.951730000000000018e+03
1.130000000000000032e-01 1.431180000000000230e-01 3.628220000000000312e+01 1.626340000000000146e+02 1.951595000000000027e+03
1.140000000000000041e-01 1.431000000000000050e-01 3.526129999999999853e+01 1.618495000000000061e+02 1.951434999999999945e+03
1.150000000000000050e-01 1.430790000000000117e-01 3.423765000000000214e+01 1.610500000000000114e+02 1.951244999999999891e+03
1.160000000000000059e-01 1.430565000000000031e-01 3.322514999999999930e+01 1.602595000000000027e+02 1.951050000000000182e+03
1.170000000000000068e-01 1.430335000000000079e-01 3.223570000000000135e+01 1.595000000000000000e+02 1.950840000000000146e+03
1.180000000000000077e-01 1.430109999999999992e-01 3.127885000000000204e+01 1.587855000000000132e+02 1.950625000000000000e+03
1.190000000000000085e-01 1.429884999999999906e-01 3.036175000000000068e+01 1.581274999999999977e+02 1.950424999999999955e+03
1.200000000000000094e-01 1.429670000000000107e-01 2.948880000000000123e+01 1.575280000000000200e+02 1.950235000000000127e+03
1.209999999999999964e-01 1.429475000000000051e-01 2.866195000000000093e+01 1.569870000000000232e+02 1.950045000000000073e+03
1.219999999999999973e-01 1.429294999999999871e-01 2.788064999999999927e+01 1.564979999999999905e+02 1.949875000000000000e+03
1.229999999999999982e-01 1.429119999999999835e-01 2.714195000000000135e+01 1.560500000000000114e+02 1.949710000000000036e+03
1.239999999999999991e-01 1.428959999999999952e-01 2.644115000000000038e+01 1.556279999999999859e+02 1.949559999999999945e+03
1.250000000000000000e-01 1.428800000000000070e-01 2.577185000000000059e+01 1.552164999999999964e+02 1.949414999999999964e+03
1.260000000000000009e-01 1.428650000000000198e-01 2.512640000000000029e+01 1.547959999999999923e+02 1.949275000000000091e+03
1.270000000000000018e-01 1.428494999999999904e-01 2.449665000000000248e+01 1.543464999999999918e+02 1.949125000000000000e+03
1.280000000000000027e-01 1.428329999999999878e-01 2.387409999999999854e+01 1.538509999999999991e+02 1.948974999999999909e+03
1.290000000000000036e-01 1.428149999999999975e-01 2.325029999999999930e+01 1.532905000000000086e+02 1.948809999999999945e+03
1.300000000000000044e-01 1.427950000000000053e-01 2.261764999999999759e+01 1.526510000000000105e+02 1.948619999999999891e+03
1.310000000000000053e-01 1.427729999999999833e-01 2.196954999999999814e+01 1.519200000000000159e+02 1.948420000000000073e+03
1.320000000000000062e-01 1.427479999999999860e-01 2.130059999999999931e+01 1.510885000000000105e+02 1.948184999999999945e+03
1.330000000000000071e-01 1.427194999999999991e-01 2.060725000000000051e+01 1.501535000000000082e+02 1.947929999999999836e+03
1.340000000000000080e-01 1.426879999999999815e-01 1.988775000000000048e+01 1.491139999999999759e+02 1.947644999999999982e+03
1.350000000000000089e-01 1.426534999999999886e-01 1.914225000000000065e+01 1.479755000000000109e+02 1.947325000000000045e+03
1.360000000000000098e-01 1.426160000000000205e-01 1.837290000000000134e+01 1.467470000000000141e+02 1.946985000000000127e+03
1.370000000000000107e-01 1.425750000000000073e-01 1.758384999999999820e+01 1.454420000000000073e+02 1.946610000000000127e+03
1.380000000000000115e-01 1.425314999999999777e-01 1.678089999999999904e+01 1.440769999999999982e+02 1.946215000000000146e+03
1.390000000000000124e-01 1.424860000000000015e-01 1.597129999999999939e+01 1.426730000000000018e+02 1.945799999999999955e+03
1.400000000000000133e-01 1.424389999999999823e-01 1.516365000000000052e+01 1.412510000000000048e+02 1.945369999999999891e+03
1.410000000000000142e-01 1.423909999999999898e-01 1.436724999999999852e+01 1.398344999999999914e+02 1.944934999999999945e+03
1.420000000000000151e-01 1.423429999999999973e-01 1.359189999999999898e+01 1.384474999999999909e+02 1.944500000000000000e+03
1.430000000000000160e-01 1.422954999999999914e-01 1.284724999999999895e+01 1.371129999999999995e+02 1.944065000000000055e+03
1.440000000000000169e-01 1.422495000000000009e-01 1.214270499999999942e+01 1.358514999999999873e+02 1.943644999999999982e+03
1.450000000000000178e-01 1.422054999999999847e-01 1.148667999999999978e+01 1.346814999999999998e+02 1.943239999999999782e+03
1.459999999999999909e-01 1.421640000000000126e-01 1.088662500000000044e+01 1.336200000000000045e+02 1.942860000000000127e+03
1.469999999999999918e-01 1.421260000000000023e-01 1.034839999999999982e+01 1.326784999999999854e+02 1.942505000000000109e+03
1.479999999999999927e-01 1.420910000000000228e-01 9.876429999999999154e+00 1.318639999999999759e+02 1.942190000000000055e+03
1.489999999999999936e-01 1.420600000000000196e-01 9.473185000000000855e+00 1.311809999999999832e+02 1.941904999999999973e+03
1.499999999999999944e-01 1.420339999999999936e-01 9.139464999999999506e+00 1.306290000000000191e+02 1.941659999999999854e+03
1.509999999999999953e-01 1.420115000000000127e-01 8.874245000000000161e+00 1.302044999999999959e+02 1.941450000000000045e+03
1.519999999999999962e-01 1.419929999999999803e-01 8.674839999999999662e+00 1.298990000000000009e+02 1.941275000000000091e+03
1.529999999999999971e-01 1.419785000000000075e-01 8.537099999999998801e+00 1.297024999999999864e+02 1.941139999999999873e+03
1.539999999999999980e-01 1.419674999999999965e-01 8.455600000000000449e+00 1.296020000000000039e+02 1.941039999999999964e+03
1.549999999999999989e-01 1.419600000000000029e-01 8.423909999999999343e+00 1.295819999999999936e+02 1.940960000000000036e+03
1.559999999999999998e-01 1.419549999999999979e-01 8.434844999999999260e+00 1.296279999999999859e+02 1.940914999999999964e+03
1.570000000000000007e-01 1.419535000000000102e-01 8.480809999999999960e+00 1.297235000000000014e+02 1.940889999999999873e+03
1.580000000000000016e-01 1.419529999999999959e-01 8.554020000000001289e+00 1.298524999999999920e+02 1.940884999999999991e+03
1.590000000000000024e-01 1.419544999999999835e-01 8.646810000000000329e+00 1.300000000000000000e+02 1.940894999999999982e+03
