# t [s], A [cm^2], U [cm/s], P [cPa], c [cm/s]
1.000000000000000021e-03 7.828859999999999708e-01 4.269499999999995521e-03 1.003084999999999951e+02 1.583380000000000109e+03
2.000000000000000042e-03 7.828760000000000163e-01 3.277435000000000417e-03 1.002824999999999989e+02 1.583375000000000000e+03
3.000000000000000062e-03 7.829625000000000057e-01 1.286463000000000190e-01 1.004127499999999884e+02 1.583404999999999973e+03
4.000000000000000083e-03 7.830129999999999590e-01 2.160559499999999966e-01 1.005137000000000000e+02 1.583424999999999955e+03
5.000000000000000104e-03 7.829504999999999937e-01 1.529880000000000129e-01 1.003880000000000052e+02 1.583405000000000200e+03
6.000000000000000125e-03 7.828515000000000335e-01 3.001300000000001189e-02 1.000974999999999966e+02 1.583345000000000027e+03
7.000000000000000146e-03 7.827505000000000157e-01 -1.075850000000000417e-01 9.971365000000000123e+01 1.583269999999999982e+03
8.000000000000000167e-03 7.825735000000000330e-01 -3.688649999999999984e-01 9.911330000000000950e+01 1.583150000000000091e+03
9.000000000000001055e-03 7.822979999999999379e-01 -7.867150000000000531e-01 9.821250000000000568e+01 1.582960000000000036e+03
1.000000000000000194e-02 7.819240000000000634e-01 -1.351204999999999767e+00 9.697554999999999836e+01 1.582700000000000045e+03
1.099999999999999936e-02 7.814220000000000610e-01 -2.082859999999999712e+00 9.533189999999999031e+01 1.582355000000000018e+03
1.200000000000000025e-02 7.807884999999999964e-01 -2.964230000000000143e+00 9.325294999999999845e+01 1.581909999999999854e+03
1.300000000000000114e-02 7.800880000000000036e-01 -3.869925000000000281e+00 9.085624999999998863e+01 1.581375000000000000e+03
1.400000000000000203e-02 7.794299999999999562e-01 -4.603460999999999359e+00 8.840019999999999811e+01 1.580809999999999945e+03
1.499999999999999944e-02 7.789029999999999010e-01 -4.997257949999999838e+00 8.616200000000000614e+01 1.580269999999999982e+03
1.600000000000000033e-02 7.785349999999999770e-01 -4.984214500000000214e+00 8.431854999999998768e+01 1.579795000000000073e+03
1.700000000000000122e-02 7.782910000000000661e-01 -4.607190000000000119e+00 8.289445000000000618e+01 1.579389999999999873e+03
1.800000000000000211e-02 7.780974999999999975e-01 -3.984960000000000058e+00 8.177834999999998900e+01 1.579045000000000073e+03
1.900000000000000300e-02 7.778780000000000694e-01 -3.259802000000000088e+00 8.078290000000001214e+01 1.578730000000000018e+03
2.000000000000000042e-02 7.775765000000000038e-01 -2.546385700000000085e+00 7.972220000000000084e+01 1.578410000000000082e+03
2.100000000000000130e-02 7.771784999999999943e-01 -1.898289999999999811e+00 7.847739999999998872e+01 1.578059999999999945e+03
2.200000000000000219e-02 7.767060000000000075e-01 -1.304635000000000211e+00 7.702664999999998940e+01 1.577664999999999964e+03
2.299999999999999961e-02 7.762005000000000710e-01 -7.161250000000001226e-01 7.542879999999999541e+01 1.577250000000000000e+03
2.400000000000000050e-02 7.757004999999999040e-01 -8.448000000000011056e-02 7.377554999999999552e+01 1.576809999999999945e+03
2.500000000000000139e-02 7.752250000000000529e-01 6.046149999999999025e-01 7.213774999999999693e+01 1.576375000000000000e+03
2.600000000000000228e-02 7.747619999999999507e-01 1.316525000000000389e+00 7.052844999999999231e+01 1.575940000000000055e+03
2.700000000000000316e-02 7.742755000000000054e-01 1.971785000000000121e+00 6.889104999999999279e+01 1.575494999999999891e+03
2.800000000000000058e-02 7.737190000000000456e-01 2.464550000000000018e+00 6.711205000000001064e+01 1.575029999999999973e+03
2.900000000000000147e-02 7.730420000000000069e-01 2.688715000000000188e+00 6.505225000000000080e+01 1.574505000000000109e+03
3.000000000000000236e-02 7.722124999999999684e-01 2.565119999999999845e+00 6.258695000000000164e+01 1.573900000000000091e+03
3.099999999999999978e-02 7.712229999999999919e-01 2.062810000000000255e+00 5.964535000000000053e+01 1.573200000000000045e+03
3.200000000000000067e-02 7.700960000000000027e-01 1.208479999999999777e+00 5.623760000000000048e+01 1.572400000000000091e+03
3.300000000000000155e-02 7.688809999999999256e-01 8.119999999999993889e-02 5.246085000000000065e+01 1.571514999999999873e+03
3.400000000000000244e-02 7.676430000000000753e-01 -1.204600000000000115e+00 4.848530000000000229e+01 1.570579999999999927e+03
3.500000000000000333e-02 7.664530000000000509e-01 -2.521900000000000475e+00 4.452420000000000044e+01 1.569630000000000109e+03
3.600000000000000422e-02 7.653744999999999576e-01 -3.751485000000000181e+00 4.080024999999999835e+01 1.568720000000000027e+03
3.700000000000000511e-02 7.644579999999999709e-01 -4.796700000000000408e+00 3.751505000000000223e+01 1.567894999999999982e+03
3.799999999999999906e-02 7.637369999999999992e-01 -5.590370000000000061e+00 3.482750000000000057e+01 1.567190000000000055e+03
3.899999999999999994e-02 7.632289999999999353e-01 -6.094689999999999941e+00 3.284304999999999808e+01 1.566630000000000109e+03
4.000000000000000083e-02 7.629380000000000051e-01 -6.296184999999999476e+00 3.161319999999999908e+01 1.566244999999999891e+03
4.100000000000000172e-02 7.628559999999999786e-01 -6.198434999999999917e+00 3.114274999999999949e+01 1.566029999999999973e+03
4.200000000000000261e-02 7.629704999999999959e-01 -5.814264999999999795e+00 3.140169999999999817e+01 1.565985000000000127e+03
4.300000000000000350e-02 7.632670000000000288e-01 -5.159794999999999909e+00 3.233850000000000335e+01 1.566115000000000009e+03
4.400000000000000439e-02 7.637279999999999625e-01 -4.251240000000000130e+00 3.389090000000000202e+01 1.566394999999999982e+03
4.499999999999999833e-02 7.643385000000000318e-01 -3.104820000000000135e+00 3.599255000000000138e+01 1.566815000000000055e+03
4.599999999999999922e-02 7.650809999999999000e-01 -1.738879999999999981e+00 3.857574999999999932e+01 1.567364999999999782e+03
4.700000000000000011e-02 7.659380000000000077e-01 -1.768700000000000827e-01 4.157065000000000055e+01 1.568025000000000091e+03
4.800000000000000100e-02 7.668869999999999854e-01 1.550235000000000696e+00 4.490269999999999584e+01 1.568769999999999982e+03
4.900000000000000189e-02 7.679055000000000186e-01 3.403099999999999792e+00 4.849134999999999707e+01 1.569595000000000027e+03
5.000000000000000278e-02 7.689654999999999685e-01 5.334985000000000532e+00 5.224989999999999668e+01 1.570474999999999909e+03
5.100000000000000366e-02 7.700409999999999755e-01 7.294645000000000046e+00 5.608769999999999811e+01 1.571380000000000109e+03
5.200000000000000455e-02 7.711044999999999705e-01 9.229760000000000630e+00 5.991414999999999935e+01 1.572305000000000064e+03
5.300000000000000544e-02 7.721320000000000405e-01 1.109130500000000019e+01 6.364435000000000286e+01 1.573220000000000027e+03
5.399999999999999939e-02 7.731049999999999311e-01 1.283668499999999923e+01 6.720394999999999186e+01 1.574110000000000127e+03
5.500000000000000028e-02 7.740080000000000293e-01 1.443252500000000005e+01 7.053405000000000769e+01 1.574954999999999927e+03
5.600000000000000117e-02 7.748329999999999940e-01 1.585617000000000054e+01 7.359395000000000664e+01 1.575744999999999891e+03
5.700000000000000205e-02 7.755775000000000308e-01 1.709554999999999936e+01 7.636265000000000214e+01 1.576480000000000018e+03
5.800000000000000294e-02 7.762430000000000163e-01 1.814855000000000018e+01 7.883795000000000641e+01 1.577150000000000091e+03
5.900000000000000383e-02 7.768369999999999997e-01 1.902170000000000272e+01 8.103470000000000084e+01 1.577755000000000109e+03
6.000000000000000472e-02 7.773695000000000466e-01 1.972849999999999682e+01 8.298144999999999527e+01 1.578300000000000182e+03
6.099999999999999867e-02 7.778505000000000003e-01 2.028739999999999810e+01 8.471729999999999450e+01 1.578795000000000073e+03
6.199999999999999956e-02 7.782949999999999591e-01 2.072084999999999866e+01 8.628825000000000500e+01 1.579244999999999891e+03
6.300000000000000044e-02 7.787155000000000049e-01 2.105324999999999847e+01 8.774389999999999645e+01 1.579659999999999854e+03
6.400000000000000133e-02 7.791259999999999852e-01 2.131034999999999968e+01 8.913445000000000107e+01 1.580059999999999945e+03
6.500000000000000222e-02 7.795399999999998997e-01 2.151764999999999972e+01 9.050790000000000646e+01 1.580445000000000164e+03
6.600000000000000311e-02 7.799675000000000358e-01 2.169910000000000139e+01 9.190735000000000809e+01 1.580829999999999927e+03
6.700000000000000400e-02 7.804185000000000150e-01 2.187575000000000003e+01 9.336865000000000236e+01 1.581230000000000018e+03
6.800000000000000488e-02 7.808979999999999810e-01 2.206484999999999985e+01 9.491810000000000969e+01 1.581634999999999991e+03
6.900000000000000577e-02 7.814100000000000490e-01 2.227799999999999869e+01 9.657054999999999723e+01 1.582069999999999936e+03
7.000000000000000666e-02 7.819525000000000503e-01 2.252105000000000246e+01 9.832845000000000368e+01 1.582525000000000091e+03
7.100000000000000755e-02 7.825210000000000221e-01 2.279339999999999833e+01 1.001814499999999981e+02 1.582994999999999891e+03
7.200000000000000844e-02 7.831079999999999153e-01 2.308854999999999791e+01 1.021069999999999993e+02 1.583485000000000127e+03
7.300000000000000933e-02 7.837015000000000509e-01 2.339460000000000051e+01 1.040715000000000003e+02 1.583989999999999782e+03
7.399999999999999634e-02 7.842899999999999316e-01 2.369559999999999889e+01 1.060340000000000060e+02 1.584490000000000009e+03
7.499999999999999722e-02 7.848589999999999733e-01 2.397299999999999898e+01 1.079474999999999909e+02 1.584985000000000127e+03
7.599999999999999811e-02 7.853939999999999255e-01 2.420710000000000051e+01 1.097630000000000052e+02 1.585460000000000036e+03
7.699999999999999900e-02 7.858819999999999695e-01 2.437845000000000084e+01 1.114329999999999927e+02 1.585900000000000091e+03
7.799999999999999989e-02 7.863115000000000521e-01 2.446945000000000192e+01 1.129134999999999991e+02 1.586300000000000182e+03
7.900000000000000078e-02 7.866720000000000379e-01 2.446509999999999962e+01 1.141680000000000064e+02 1.586650000000000091e+03
8.000000000000000167e-02 7.869574999999999765e-01 2.435410000000000252e+01 1.151675000000000040e+02 1.586934999999999945e+03
8.100000000000000255e-02 7.871630000000000571e-01 2.412935000000000230e+01 1.158930000000000007e+02 1.587164999999999964e+03
8.200000000000000344e-02 7.872874999999999179e-01 2.378800000000000026e+01 1.163370000000000033e+02 1.587324999999999818e+03
8.300000000000000433e-02 7.873330000000000606e-01 2.333185000000000286e+01 1.165010000000000048e+02 1.587410000000000082e+03
8.400000000000000522e-02 7.873025000000000162e-01 2.276695000000000135e+01 1.163969999999999914e+02 1.587430000000000064e+03
8.500000000000000611e-02 7.872034999999999449e-01 2.210320000000000107e+01 1.160455000000000041e+02 1.587394999999999982e+03
8.600000000000000699e-02 7.870455000000000645e-01 2.135385000000000133e+01 1.154765000000000015e+02 1.587289999999999964e+03
8.700000000000000788e-02 7.868370000000000086e-01 2.053509999999999991e+01 1.147229999999999990e+02 1.587144999999999982e+03
8.800000000000000877e-02 7.865899999999999004e-01 1.966494999999999749e+01 1.138249999999999886e+02 1.586954999999999927e+03
8.899999999999999578e-02 7.863165000000000848e-01 1.876245000000000118e+01 1.128230000000000075e+02 1.586735000000000127e+03
8.999999999999999667e-02 7.860274999999999901e-01 1.784720000000000084e+01 1.117595000000000027e+02 1.586490000000000009e+03
9.099999999999999756e-02 7.857345000000000024e-01 1.693809999999999860e+01 1.106750000000000114e+02 1.586235000000000127e+03
9.199999999999999845e-02 7.854479999999999240e-01 1.605270000000000152e+01 1.096069999999999993e+02 1.585980000000000018e+03
9.299999999999999933e-02 7.851770000000000138e-01 1.520663000000000054e+01 1.085904999999999916e+02 1.585724999999999909e+03
9.400000000000000022e-02 7.849284999999999179e-01 1.441262499999999847e+01 1.076514999999999986e+02 1.585490000000000009e+03
9.500000000000000111e-02 7.847079999999999611e-01 1.368036000000000030e+01 1.068130000000000024e+02 1.585269999999999982e+03
9.600000000000000200e-02 7.845189999999999664e-01 1.301609999999999800e+01 1.060889999999999986e+02 1.585070000000000164e+03
9.700000000000000289e-02 7.843640000000000612e-01 1.242250500000000102e+01 1.054874999999999972e+02 1.584904999999999973e+03
9.800000000000000377e-02 7.842409999999999659e-01 1.189872000000000085e+01 1.050084999999999980e+02 1.584764999999999873e+03
9.900000000000000466e-02 7.841484999999999150e-01 1.144057000000000102e+01 1.046454999999999984e+02 1.584650000000000091e+03
1.000000000000000056e-01 7.840819999999999457e-01 1.104107499999999931e+01 1.043874999999999886e+02 1.584565000000000055e+03
1.010000000000000064e-01 7.840374999999999428e-01 1.069062999999999874e+01 1.042154999999999916e+02 1.584500000000000000e+03
1.020000000000000073e-01 7.840074999999999683e-01 1.037784999999999869e+01 1.041110000000000042e+02 1.584449999999999818e+03
1.030000000000000082e-01 7.839865000000000306e-01 1.008999500000000005e+01 1.040485000000000042e+02 1.584414999999999964e+03
1.040000000000000091e-01 7.839669999999999694e-01 9.813810000000000144e+00 1.040045000000000073e+02 1.584389999999999873e+03
1.050000000000000100e-01 7.839424999999999866e-01 9.536059999999999093e+00 1.039544999999999959e+02 1.584364999999999782e+03
1.059999999999999970e-01 7.839074999999999793e-01 9.244344999999999146e+00 1.038750000000000000e+02 1.584335000000000036e+03
1.069999999999999979e-01 7.838549999999999685e-01 8.927630000000000621e+00 1.037464999999999975e+02 1.584299999999999955e+03
1.079999999999999988e-01 7.837819999999999787e-01 8.576734999999999332e+00 1.035510000000000019e+02 1.584250000000000000e+03
1.089999999999999997e-01 7.836860000000001047e-01 8.184965000000000046e+00 1.032770000000000010e+02 1.584184999999999945e+03
1.100000000000000006e-01 7.835650000000000670e-01 7.748279999999999390e+00 1.029165000000000134e+02 1.584099999999999909e+03
1.110000000000000014e-01 7.834194999999999354e-01 7.265595000000000248e+00 1.024688500000000033e+02 1.583994999999999891e+03
1.120000000000000023e-01 7.832514999999999894e-01 6.738715000000000899e+00 1.019372500000000059e+02 1.583869999999999891e+03
1.130000000000000032e-01 7.830634999999999124e-01 6.172344999999999970e+00 1.013306499999999915e+02 1.583730000000000018e+03
1.140000000000000041e-01 7.828604999999999592e-01 5.573809999999999931e+00 1.006640999999999906e+02 1.583574999999999818e+03
1.150000000000000050e-01 7.826490000000000391e-01 4.952684999999999782e+00 9.995515000000000327e+01 1.583404999999999973e+03
1.160000000000000059e-01 7.824340000000000739e-01 4.320330000000000226e+00 9.922509999999999764e+01 1.583230000000000018e+03
1.170000000000000068e-01 7.822240000000000304e-01 3.689354999999999940e+00 9.849824999999999875e+01 1.583055000000000064e+03
1.180000000000000077e-01 7.820245000000000113e-01 3.072980000000000267e+00 9.779874999999999829e+01 1.582875000000000000e+03
1.190000000000000085e-01 7.818435000000000246e-01 2.484391000000000016e+00 9.715100000000001046e+01 1.582714999999999918e+03
1.200000000000000094e-01 7.816864999999999508e-01 1.936134100000000080e+00 9.657819999999999538e+01 1.582570000000000164e+03
1.209999999999999964e-01 7.815594999999999626e-01 1.439482400000000162e+00 9.610035000000000593e+01 1.582440000000000055e+03
1.219999999999999973e-01 7.814659999999999940e-01 1.003928500000000001e+00 9.573409999999999798e+01 1.582335000000000036e+03
1.229999999999999982e-01 7.814099999999999380e-01 6.367513999999999674e-01 9.549199999999999022e+01 1.582259999999999991e+03
1.239999999999999991e-01 7.813915000000000166e-01 3.427465000000000095e-01 9.538134999999999764e+01 1.582215000000000146e+03
1.250000000000000000e-01 7.814119999999999955e-01 1.240299800000000119e-01 9.540430000000000632e+01 1.582204999999999927e+03
1.260000000000000009e-01 7.814695000000000391e-01 -1.995500000000000052e-02 9.555795000000000528e+01 1.582220000000000027e+03
1.270000000000000018e-01 7.815604999999999913e-01 -9.233299999999999841e-02 9.583420000000000982e+01 1.582264999999999873e+03
1.280000000000000027e-01 7.816819999999999879e-01 -9.856499999999990269e-02 9.622090000000000032e+01 1.582345000000000027e+03
1.290000000000000036e-01 7.818285000000000373e-01 -4.612000000000004984e-02 9.670185000000000741e+01 1.582440000000000055e+03
1.300000000000000044e-01 7.819940000000000779e-01 5.590499999999998249e-02 9.725825000000000387e+01 1.582559999999999945e+03
1.310000000000000053e-01 7.821730000000000071e-01 1.972550000000000692e-01 9.786905000000000143e+01 1.582699999999999818e+03
1.320000000000000062e-01 7.823590000000000266e-01 3.669450000000000767e-01 9.851234999999999786e+01 1.582849999999999909e+03
1.330000000000000071e-01 7.825465000000000337e-01 5.537450000000000427e-01 9.916694999999999993e+01 1.583005000000000109e+03
1.340000000000000080e-01 7.827284999999999382e-01 7.465835000000000665e-01 9.981059999999999377e+01 1.583154999999999973e+03
1.350000000000000089e-01 7.828999999999999293e-01 9.349634999999999474e-01 1.004244999999999948e+02 1.583309999999999945e+03
1.360000000000000098e-01 7.830574999999999619e-01 1.109319000000000166e+00 1.009906499999999880e+02 1.583450000000000045e+03
1.370000000000000107e-01 7.831954999999999334e-01 1.261274450000000158e+00 1.014950000000000045e+02 1.583574999999999818e+03
1.380000000000000115e-01 7.833120000000000083e-01 1.383901999999999965e+00 1.019260000000000019e+02 1.583690000000000055e+03
1.390000000000000124e-01 7.834050000000000180e-01 1.471837000000000062e+00 1.022745000000000033e+02 1.583789999999999964e+03
1.400000000000000133e-01 7.834730000000000860e-01 1.521419999999999995e+00 1.025365000000000038e+02 1.583859999999999900e+03
1.410000000000000142e-01 7.835159999999999902e-01 1.530660000000000132e+00 1.027094999999999914e+02 1.583920000000000073e+03
1.420000000000000151e-01 7.835354999999999404e-01 1.499239999999999906e+00 1.027944999999999993e+02 1.583954999999999927e+03
1.430000000000000160e-01 7.835319999999998952e-01 1.428395000000000081e+00 1.027969999999999970e+02 1.583970000000000027e+03
1.440000000000000169e-01 7.835075000000000234e-01 1.320802000000000032e+00 1.027220000000000084e+02 1.583964999999999918e+03
1.450000000000000178e-01 7.834645000000000081e-01 1.180320999999999954e+00 1.025785000000000053e+02 1.583945000000000164e+03
1.459999999999999909e-01 7.834065000000000056e-01 1.011830500000000077e+00 1.023760000000000048e+02 1.583904999999999973e+03
1.469999999999999918e-01 7.833360000000000323e-01 8.209577000000000124e-01 1.021264999999999930e+02 1.583860000000000127e+03
1.479999999999999927e-01 7.832574999999999399e-01 6.137829999999999675e-01 1.018410000000000082e+02 1.583800000000000182e+03
1.489999999999999936e-01 7.831725000000000492e-01 3.965974999999999917e-01 1.015297500000000070e+02 1.583730000000000018e+03
1.499999999999999944e-01 7.830850000000000311e-01 1.755979999999999763e-01 1.012051999999999907e+02 1.583654999999999973e+03
1.509999999999999953e-01 7.829975000000000129e-01 -4.334599999999999564e-02 1.008765500000000088e+02 1.583579999999999927e+03
1.519999999999999962e-01 7.829120000000000523e-01 -2.549484999999999668e-01 1.005526000000000124e+02 1.583505000000000109e+03
1.529999999999999971e-01 7.828304999999999847e-01 -4.546719999999999651e-01 1.002398000000000025e+02 1.583429999999999836e+03
1.539999999999999980e-01 7.827545000000000197e-01 -6.388998499999999359e-01 9.994454999999999245e+01 1.583355000000000018e+03
1.549999999999999989e-01 7.826835000000000875e-01 -8.050100000000000033e-01 9.966870000000000118e+01 1.583279999999999973e+03
1.559999999999999998e-01 7.826189999999999536e-01 -9.514244999999998953e-01 9.941434999999999889e+01 1.583220000000000027e+03
1.570000000000000007e-01 7.825594999999999635e-01 -1.077583500000000027e+00 9.918080000000000496e+01 1.583159999999999854e+03
1.580000000000000016e-01 7.825044999999999362e-01 -1.183877999999999986e+00 9.896574999999999989e+01 1.583099999999999909e+03
1.590000000000000024e-01 7.824530000000000651e-01 -1.271549499999999888e+00 9.876545000000000130e+01 1.583039999999999964e+03
