# t [s], A [cm^2], U [cm/s], P [cPa], c [cm/s]
1.000000000000000021e-03 2.136609999999999898e-01 2.500895000000000201e-01 1.050614999999999952e+02 2.067324999999999818e+03
2.000000000000000042e-03 2.136115000000000097e-01 1.778054000000000023e+00 1.018399000000000001e+02 2.066965000000000146e+03
3.000000000000000062e-03 2.134604999999999975e-01 3.704548499999999578e+00 9.732855000000000700e+01 2.065925000000000182e+03
4.000000000000000083e-03 2.132455000000000045e-01 5.880750499999999548e+00 9.223215000000000430e+01 2.064460000000000036e+03
5.000000000000000104e-03 2.130070000000000019e-01 8.236380000000000479e+00 8.745940000000000225e+01 2.062864999999999782e+03
6.000000000000000125e-03 2.127720000000000167e-01 1.061621999999999844e+01 8.342855000000000132e+01 2.061300000000000182e+03
7.000000000000000146e-03 2.125500000000000167e-01 1.280572999999999873e+01 8.001064999999999827e+01 2.059855000000000018e+03
8.000000000000000167e-03 2.123450000000000060e-01 1.468220000000000169e+01 7.695629999999999882e+01 2.058530000000000200e+03
9.000000000000001055e-03 2.121605000000000019e-01 1.625645000000000095e+01 7.425610000000000355e+01 2.057369999999999891e+03
1.000000000000000194e-02 2.120029999999999970e-01 1.756745000000000090e+01 7.199815000000000964e+01 2.056385000000000218e+03
1.099999999999999936e-02 2.118720000000000048e-01 1.863670000000000115e+01 7.019384999999999764e+01 2.055574999999999818e+03
1.200000000000000025e-02 2.117664999999999964e-01 1.948015000000000185e+01 6.879654999999999632e+01 2.054935000000000400e+03
1.300000000000000114e-02 2.116830000000000100e-01 2.010535000000000139e+01 6.771925000000000239e+01 2.054429999999999836e+03
1.400000000000000203e-02 2.116164999999999852e-01 2.051624999999999943e+01 6.683944999999999936e+01 2.054039999999999964e+03
1.499999999999999944e-02 2.115620000000000001e-01 2.074974999999999881e+01 6.608814999999999884e+01 2.053720000000000255e+03
1.600000000000000033e-02 2.115210000000000146e-01 2.090489999999999782e+01 6.556754999999999711e+01 2.053494999999999891e+03
1.700000000000000122e-02 2.115015000000000089e-01 2.112055000000000149e+01 6.555110000000000525e+01 2.053390000000000327e+03
1.800000000000000211e-02 2.115124999999999922e-01 2.151245000000000118e+01 6.633330000000000837e+01 2.053470000000000255e+03
1.900000000000000300e-02 2.115599999999999981e-01 2.211430000000000007e+01 6.803565000000000396e+01 2.053769999999999982e+03
2.000000000000000042e-02 2.116419999999999968e-01 2.286075000000000301e+01 7.049795000000000300e+01 2.054284999999999854e+03
2.100000000000000130e-02 2.117465000000000042e-01 2.361565000000000225e+01 7.331010000000000559e+01 2.054940000000000055e+03
2.200000000000000219e-02 2.118565000000000031e-01 2.422630000000000194e+01 7.595305000000000462e+01 2.055645000000000437e+03
2.299999999999999961e-02 2.119540000000000035e-01 2.457695000000000007e+01 7.797319999999999141e+01 2.056275000000000091e+03
2.400000000000000050e-02 2.120279999999999943e-01 2.462210000000000321e+01 7.911655000000000371e+01 2.056765000000000327e+03
2.500000000000000139e-02 2.120714999999999961e-01 2.439025000000000176e+01 7.937919999999999732e+01 2.057059999999999945e+03
2.600000000000000228e-02 2.120869999999999977e-01 2.396225000000000094e+01 7.896750000000000114e+01 2.057184999999999945e+03
2.700000000000000316e-02 2.120819999999999927e-01 2.343554999999999922e+01 7.819460000000000832e+01 2.057170000000000073e+03
2.800000000000000058e-02 2.120660000000000045e-01 2.288900000000000290e+01 7.735945000000000960e+01 2.057079999999999927e+03
2.900000000000000147e-02 2.120464999999999989e-01 2.236115000000000208e+01 7.665270000000001005e+01 2.056960000000000036e+03
3.000000000000000236e-02 2.120285000000000086e-01 2.184660000000000224e+01 7.611709999999999354e+01 2.056845000000000255e+03
3.099999999999999978e-02 2.120110000000000050e-01 2.130805000000000149e+01 7.566589999999999350e+01 2.056739999999999782e+03
3.200000000000000067e-02 2.119909999999999850e-01 2.069875000000000043e+01 7.514330000000001064e+01 2.056610000000000127e+03
3.300000000000000155e-02 2.119634999999999991e-01 1.998604999999999876e+01 7.440229999999999677e+01 2.056445000000000164e+03
3.400000000000000244e-02 2.119260000000000033e-01 1.916915000000000191e+01 7.337295000000000300e+01 2.056215000000000146e+03
3.500000000000000333e-02 2.118784999999999974e-01 1.828629999999999711e+01 7.210224999999999795e+01 2.055925000000000182e+03
3.600000000000000422e-02 2.118249999999999855e-01 1.740879999999999939e+01 7.075315000000000509e+01 2.055590000000000146e+03
3.700000000000000511e-02 2.117729999999999890e-01 1.662484999999999857e+01 6.956504999999999939e+01 2.055260000000000218e+03
3.799999999999999906e-02 2.117304999999999882e-01 1.601724999999999710e+01 6.878940000000000055e+01 2.054994999999999891e+03
3.899999999999999994e-02 2.117080000000000073e-01 1.564294999999999902e+01 6.862100000000000932e+01 2.054840000000000146e+03
4.000000000000000083e-02 2.117089999999999805e-01 1.551965000000000039e+01 6.914535000000000764e+01 2.054829999999999927e+03
4.100000000000000172e-02 2.117364999999999942e-01 1.562214999999999954e+01 7.031659999999999400e+01 2.054984999999999673e+03
4.200000000000000261e-02 2.117860000000000020e-01 1.588870000000000005e+01 7.196694999999999709e+01 2.055280000000000200e+03
4.300000000000000350e-02 2.118510000000000115e-01 1.623395000000000010e+01 7.384390000000000498e+01 2.055680000000000291e+03
4.400000000000000439e-02 2.119219999999999993e-01 1.656524999999999892e+01 7.566009999999999991e+01 2.056125000000000000e+03
4.499999999999999833e-02 2.119890000000000108e-01 1.679735000000000156e+01 7.714500000000001023e+01 2.056539999999999964e+03
4.599999999999999922e-02 2.120420000000000083e-01 1.686350000000000193e+01 7.808610000000000184e+01 2.056880000000000109e+03
4.700000000000000011e-02 2.120730000000000115e-01 1.672180000000000177e+01 7.835284999999998945e+01 2.057085000000000036e+03
4.800000000000000100e-02 2.120785000000000031e-01 1.635539999999999949e+01 7.790285000000000082e+01 2.057135000000000218e+03
4.900000000000000189e-02 2.120564999999999811e-01 1.576964999999999861e+01 7.677134999999999820e+01 2.057005000000000109e+03
5.000000000000000278e-02 2.120084999999999886e-01 1.498560000000000159e+01 7.504975000000000307e+01 2.056710000000000036e+03
5.100000000000000366e-02 2.119364999999999999e-01 1.403379999999999939e+01 7.286080000000001178e+01 2.056269999999999982e+03
5.200000000000000455e-02 2.118455000000000199e-01 1.294860500000000059e+01 7.033570000000000277e+01 2.055704999999999927e+03
5.300000000000000544e-02 2.117400000000000115e-01 1.176437499999999936e+01 6.759700000000000841e+01 2.055039999999999964e+03
5.399999999999999939e-02 2.116240000000000065e-01 1.051392500000000041e+01 6.475084999999999980e+01 2.054315000000000055e+03
5.500000000000000028e-02 2.115019999999999956e-01 9.228535000000000821e+00 6.188550000000000040e+01 2.053550000000000182e+03
5.600000000000000117e-02 2.113780000000000103e-01 7.939275000000000304e+00 5.907604999999999507e+01 2.052765000000000327e+03
5.700000000000000205e-02 2.112550000000000261e-01 6.678090000000000082e+00 5.639095000000000368e+01 2.051989999999999782e+03
5.800000000000000294e-02 2.111365000000000047e-01 5.479149999999999743e+00 5.389865000000000350e+01 2.051239999999999782e+03
5.900000000000000383e-02 2.110259999999999914e-01 4.378759999999999764e+00 5.167164999999999964e+01 2.050539999999999964e+03
6.000000000000000472e-02 2.109265000000000168e-01 3.414615500000000026e+00 4.978714999999999691e+01 2.049904999999999745e+03
6.099999999999999867e-02 2.108420000000000016e-01 2.624036499999999883e+00 4.832430000000000092e+01 2.049364999999999782e+03
6.199999999999999956e-02 2.107769999999999921e-01 2.041648499999999977e+00 4.735914999999999964e+01 2.048940000000000055e+03
6.300000000000000044e-02 2.107324999999999893e-01 1.696831999999999896e+00 4.695725000000000193e+01 2.048644999999999982e+03
6.400000000000000133e-02 2.107129999999999836e-01 1.611419999999999852e+00 4.716774999999999807e+01 2.048505000000000109e+03
6.500000000000000222e-02 2.107199999999999906e-01 1.797954999999999970e+00 4.801720000000000255e+01 2.048529999999999745e+03
6.600000000000000311e-02 2.107545000000000113e-01 2.258694999999999897e+00 4.950659999999999883e+01 2.048724999999999909e+03
6.700000000000000400e-02 2.108164999999999900e-01 2.985500000000000043e+00 5.161064999999999969e+01 2.049095000000000255e+03
6.800000000000000488e-02 2.109050000000000091e-01 3.960504999999999942e+00 5.427929999999999922e+01 2.049635000000000218e+03
6.900000000000000577e-02 2.110179999999999834e-01 5.157429999999999737e+00 5.744160000000000110e+01 2.050329999999999927e+03
7.000000000000000666e-02 2.111530000000000074e-01 6.543390000000000484e+00 6.101109999999999900e+01 2.051164999999999964e+03
7.100000000000000755e-02 2.113054999999999795e-01 8.080994999999999706e+00 6.489170000000000016e+01 2.052119999999999891e+03
7.200000000000000844e-02 2.114730000000000221e-01 9.730460000000000775e+00 6.898420000000000130e+01 2.053164999999999964e+03
7.300000000000000933e-02 2.116505000000000192e-01 1.145200999999999958e+01 7.319229999999998881e+01 2.054279999999999745e+03
7.399999999999999634e-02 2.118345000000000089e-01 1.320774499999999918e+01 7.742804999999999893e+01 2.055434999999999945e+03
7.499999999999999722e-02 2.120205000000000006e-01 1.496344999999999814e+01 8.161654999999998950e+01 2.056614999999999782e+03
7.599999999999999811e-02 2.122065000000000201e-01 1.669000000000000128e+01 8.569884999999999309e+01 2.057800000000000182e+03
7.699999999999999900e-02 2.123889999999999945e-01 1.836424999999999841e+01 8.963405000000000200e+01 2.058965000000000146e+03
7.799999999999999989e-02 2.125675000000000203e-01 1.996969999999999956e+01 9.339924999999999500e+01 2.060099999999999909e+03
7.900000000000000078e-02 2.127399999999999847e-01 2.149595000000000056e+01 9.698975000000000080e+01 2.061204999999999927e+03
8.000000000000000167e-02 2.129054999999999975e-01 2.293854999999999933e+01 1.004130499999999984e+02 2.062270000000000437e+03
8.100000000000000255e-02 2.130659999999999776e-01 2.429775000000000063e+01 1.036901500000000027e+02 2.063305000000000291e+03
8.200000000000000344e-02 2.132205000000000072e-01 2.557754999999999868e+01 1.068474999999999966e+02 2.064300000000000182e+03
8.300000000000000433e-02 2.133700000000000041e-01 2.678410000000000224e+01 1.099149999999999920e+02 2.065270000000000437e+03
8.400000000000000522e-02 2.135170000000000123e-01 2.792484999999999928e+01 1.129209999999999923e+02 2.066220000000000255e+03
8.500000000000000611e-02 2.136609999999999898e-01 2.900685000000000002e+01 1.158900000000000006e+02 2.067150000000000091e+03
8.600000000000000699e-02 2.138029999999999931e-01 3.003650000000000020e+01 1.188395000000000010e+02 2.068069999999999709e+03
8.700000000000000788e-02 2.139439999999999953e-01 3.101839999999999975e+01 1.217789999999999964e+02 2.068980000000000018e+03
8.800000000000000877e-02 2.140845000000000109e-01 3.195504999999999995e+01 1.247099999999999937e+02 2.069894999999999982e+03
8.899999999999999578e-02 2.142239999999999978e-01 3.284700000000000131e+01 1.276269999999999953e+02 2.070795000000000073e+03
8.999999999999999667e-02 2.143629999999999980e-01 3.369254999999999711e+01 1.305155000000000030e+02 2.071694999999999709e+03
9.099999999999999756e-02 2.144995000000000096e-01 3.448794999999999789e+01 1.333569999999999993e+02 2.072585000000000036e+03
9.199999999999999845e-02 2.146339999999999915e-01 3.522789999999999822e+01 1.361274999999999977e+02 2.073460000000000036e+03
9.299999999999999933e-02 2.147654999999999981e-01 3.590579999999999927e+01 1.388004999999999995e+02 2.074309999999999945e+03
9.400000000000000022e-02 2.148915000000000131e-01 3.651409999999999911e+01 1.413485000000000014e+02 2.075130000000000109e+03
9.500000000000000111e-02 2.150124999999999953e-01 3.704465000000000430e+01 1.437429999999999950e+02 2.075920000000000073e+03
9.600000000000000200e-02 2.151260000000000117e-01 3.748930000000000007e+01 1.459579999999999984e+02 2.076659999999999854e+03
9.700000000000000289e-02 2.152314999999999923e-01 3.784009999999999962e+01 1.479675000000000011e+02 2.077349999999999909e+03
9.800000000000000377e-02 2.153280000000000194e-01 3.809005000000000507e+01 1.497500000000000000e+02 2.077980000000000018e+03
9.900000000000000466e-02 2.154139999999999944e-01 3.823314999999999486e+01 1.512875000000000227e+02 2.078545000000000073e+03
1.000000000000000056e-01 2.154895000000000005e-01 3.826500000000000057e+01 1.525660000000000025e+02 2.079045000000000073e+03
1.010000000000000064e-01 2.155524999999999802e-01 3.818335000000000434e+01 1.535774999999999864e+02 2.079465000000000146e+03
1.020000000000000073e-01 2.156045000000000045e-01 3.798784999999999457e+01 1.543204999999999814e+02 2.079809999999999945e+03
1.030000000000000082e-01 2.156440000000000023e-01 3.768089999999999407e+01 1.547984999999999900e+02 2.080074999999999818e+03
1.040000000000000091e-01 2.156720000000000026e-01 3.726720000000000255e+01 1.550219999999999914e+02 2.080264999999999873e+03
1.050000000000000100e-01 2.156885000000000052e-01 3.675399999999999778e+01 1.550084999999999980e+02 2.080385000000000218e+03
1.059999999999999970e-01 2.156945000000000112e-01 3.615070000000000050e+01 1.547794999999999845e+02 2.080434999999999945e+03
1.069999999999999979e-01 2.156899999999999928e-01 3.546859999999999502e+01 1.543609999999999900e+02 2.080414999999999964e+03
1.079999999999999988e-01 2.156774999999999942e-01 3.472044999999999959e+01 1.537835000000000036e+02 2.080340000000000146e+03
1.089999999999999997e-01 2.156575000000000020e-01 3.392000000000000171e+01 1.530774999999999864e+02 2.080215000000000146e+03
1.100000000000000006e-01 2.156310000000000171e-01 3.308124999999999716e+01 1.522754999999999939e+02 2.080050000000000182e+03
1.110000000000000014e-01 2.156000000000000139e-01 3.221805000000000518e+01 1.514089999999999918e+02 2.079855000000000018e+03
1.120000000000000023e-01 2.155655000000000210e-01 3.134365000000000023e+01 1.505049999999999955e+02 2.079639999999999873e+03
1.130000000000000032e-01 2.155290000000000261e-01 3.047005000000000052e+01 1.495894999999999868e+02 2.079400000000000091e+03
1.140000000000000041e-01 2.154905000000000015e-01 2.960779999999999745e+01 1.486850000000000023e+02 2.079159999999999854e+03
1.150000000000000050e-01 2.154520000000000046e-01 2.876559999999999917e+01 1.478060000000000116e+02 2.078909999999999854e+03
1.160000000000000059e-01 2.154145000000000088e-01 2.795015000000000072e+01 1.469644999999999868e+02 2.078664999999999964e+03
1.170000000000000068e-01 2.153780000000000139e-01 2.716579999999999728e+01 1.461670000000000016e+02 2.078425000000000182e+03
1.180000000000000077e-01 2.153424999999999923e-01 2.641485000000000127e+01 1.454139999999999873e+02 2.078194999999999709e+03
1.190000000000000085e-01 2.153085000000000138e-01 2.569740000000000180e+01 1.447019999999999982e+02 2.077970000000000255e+03
1.200000000000000094e-01 2.152755000000000085e-01 2.501160000000000139e+01 1.440235000000000127e+02 2.077755000000000109e+03
1.209999999999999964e-01 2.152439999999999909e-01 2.435374999999999801e+01 1.433654999999999973e+02 2.077550000000000182e+03
1.219999999999999973e-01 2.152125000000000010e-01 2.371865000000000023e+01 1.427135000000000105e+02 2.077340000000000146e+03
1.229999999999999982e-01 2.151814999999999978e-01 2.310004999999999953e+01 1.420509999999999877e+02 2.077135000000000218e+03
1.239999999999999991e-01 2.151494999999999935e-01 2.249095000000000155e+01 1.413609999999999900e+02 2.076930000000000291e+03
1.250000000000000000e-01 2.151160000000000017e-01 2.188394999999999868e+01 1.406240000000000236e+02 2.076710000000000036e+03
1.260000000000000009e-01 2.150805000000000078e-01 2.127185000000000059e+01 1.398245000000000005e+02 2.076480000000000018e+03
1.270000000000000018e-01 2.150425000000000253e-01 2.064789999999999992e+01 1.389474999999999909e+02 2.076234999999999673e+03
1.280000000000000027e-01 2.150009999999999977e-01 2.000639999999999930e+01 1.379809999999999945e+02 2.075960000000000036e+03
1.290000000000000036e-01 2.149554999999999938e-01 1.934284999999999854e+01 1.369159999999999968e+02 2.075670000000000073e+03
1.300000000000000044e-01 2.149054999999999993e-01 1.865435000000000088e+01 1.357489999999999952e+02 2.075345000000000255e+03
1.310000000000000053e-01 2.148515000000000008e-01 1.793975000000000009e+01 1.344800000000000182e+02 2.075000000000000000e+03
1.320000000000000062e-01 2.147934999999999983e-01 1.719989999999999952e+01 1.331150000000000091e+02 2.074619999999999891e+03
1.330000000000000071e-01 2.147304999999999908e-01 1.643754999999999811e+01 1.316645000000000039e+02 2.074220000000000255e+03
1.340000000000000080e-01 2.146640000000000215e-01 1.565735000000000099e+01 1.301419999999999959e+02 2.073795000000000073e+03
1.350000000000000089e-01 2.145949999999999802e-01 1.486560000000000059e+01 1.285664999999999907e+02 2.073345000000000255e+03
1.360000000000000098e-01 2.145229999999999915e-01 1.407004999999999839e+01 1.269590000000000032e+02 2.072885000000000218e+03
1.370000000000000107e-01 2.144504999999999884e-01 1.327965000000000018e+01 1.253445000000000107e+02 2.072414999999999964e+03
1.380000000000000115e-01 2.143769999999999842e-01 1.250390000000000157e+01 1.237479999999999905e+02 2.071945000000000164e+03
1.390000000000000124e-01 2.143039999999999945e-01 1.175265500000000074e+01 1.221939999999999884e+02 2.071475000000000364e+03
1.400000000000000133e-01 2.142330000000000068e-01 1.103560500000000033e+01 1.207065000000000055e+02 2.071015000000000327e+03
1.410000000000000142e-01 2.141649999999999943e-01 1.036173499999999947e+01 1.193085000000000093e+02 2.070570000000000164e+03
1.420000000000000151e-01 2.141004999999999991e-01 9.739055000000000462e+00 1.180185000000000031e+02 2.070154999999999745e+03
1.430000000000000160e-01 2.140404999999999947e-01 9.174414999999999765e+00 1.168520000000000039e+02 2.069769999999999982e+03
1.440000000000000169e-01 2.139860000000000095e-01 8.672874999999999446e+00 1.158195000000000050e+02 2.069409999999999854e+03
1.450000000000000178e-01 2.139369999999999883e-01 8.237999999999999545e+00 1.149284999999999997e+02 2.069095000000000255e+03
1.459999999999999909e-01 2.138940000000000008e-01 7.871475000000000222e+00 1.141804999999999950e+02 2.068809999999999945e+03
1.469999999999999918e-01 2.138575000000000059e-01 7.573269999999999058e+00 1.135739999999999981e+02 2.068565000000000055e+03
1.479999999999999927e-01 2.138269999999999893e-01 7.341725000000000279e+00 1.131039999999999992e+02 2.068364999999999782e+03
1.489999999999999936e-01 2.138019999999999921e-01 7.173664999999999736e+00 1.127605000000000075e+02 2.068199999999999818e+03
1.499999999999999944e-01 2.137835000000000152e-01 7.064675000000000260e+00 1.125324999999999989e+02 2.068070000000000164e+03
1.509999999999999953e-01 2.137695000000000012e-01 7.009270000000000778e+00 1.124060000000000059e+02 2.067975000000000364e+03
1.519999999999999962e-01 2.137604999999999922e-01 7.001200000000000756e+00 1.123665000000000020e+02 2.067909999999999854e+03
1.529999999999999971e-01 2.137550000000000006e-01 7.033714999999999939e+00 1.123990000000000009e+02 2.067875000000000000e+03
1.539999999999999980e-01 2.137529999999999986e-01 7.099779999999999980e+00 1.124865000000000066e+02 2.067855000000000018e+03
1.549999999999999989e-01 2.137534999999999852e-01 7.192365000000000563e+00 1.126159999999999997e+02 2.067854999999999563e+03
1.559999999999999998e-01 2.137564999999999882e-01 7.304605000000000459e+00 1.127720000000000056e+02 2.067869999999999891e+03
1.570000000000000007e-01 2.137614999999999932e-01 7.430044999999999789e+00 1.129435000000000002e+02 2.067894999999999982e+03
1.580000000000000016e-01 2.137665000000000259e-01 7.562780000000000058e+00 1.131179999999999950e+02 2.067929999999999836e+03
1.590000000000000024e-01 2.137724999999999764e-01 7.697569999999999801e+00 1.132864999999999895e+02 2.067965000000000146e+03
