# t [s], A [cm^2], U [cm/s], P [cPa], c [cm/s]
1.000000000000000021e-03 1.617620000000000169e-01 2.619414999999999938e-01 9.210614999999999952e+01 1.742000000000000000e+03
2.000000000000000042e-03 1.617405000000000093e-01 1.667814499999999978e+00 8.947705000000000553e+01 1.741825000000000045e+03
3.000000000000000062e-03 1.616444999999999965e-01 3.391716000000000175e+00 8.609929999999999950e+01 1.741105000000000018e+03
4.000000000000000083e-03 1.614960000000000007e-01 5.293465900000000168e+00 8.228794999999999504e+01 1.740005000000000109e+03
5.000000000000000104e-03 1.613195000000000046e-01 7.329450000000000465e+00 7.863075000000000614e+01 1.738704999999999927e+03
6.000000000000000125e-03 1.611360000000000015e-01 9.420415000000000205e+00 7.547599999999999909e+01 1.737369999999999891e+03
7.000000000000000146e-03 1.609570000000000167e-01 1.143948499999999946e+01 7.284909999999999286e+01 1.736085000000000036e+03
8.000000000000000167e-03 1.607864999999999989e-01 1.327118000000000109e+01 7.059019999999999584e+01 1.734869999999999891e+03
9.000000000000001055e-03 1.606279999999999930e-01 1.487196999999999925e+01 6.857670000000000243e+01 1.733755000000000109e+03
1.000000000000000194e-02 1.604835000000000012e-01 1.625704999999999956e+01 6.680715000000000714e+01 1.732755000000000109e+03
1.099999999999999936e-02 1.603554999999999842e-01 1.744839999999999947e+01 6.531305000000000405e+01 1.731880000000000109e+03
1.200000000000000025e-02 1.602459999999999996e-01 1.845629999999999882e+01 6.408709999999999241e+01 1.731134999999999991e+03
1.300000000000000114e-02 1.601525000000000032e-01 1.928804999999999836e+01 6.309375000000000000e+01 1.730509999999999991e+03
1.400000000000000203e-02 1.600745000000000084e-01 1.995074999999999932e+01 6.228974999999999795e+01 1.729990000000000009e+03
1.499999999999999944e-02 1.600094999999999990e-01 2.045114999999999839e+01 6.162604999999999933e+01 1.729565000000000055e+03
1.600000000000000033e-02 1.599559999999999871e-01 2.080239999999999867e+01 6.105970000000000653e+01 1.729219999999999800e+03
1.700000000000000122e-02 1.599109999999999976e-01 2.103829999999999956e+01 6.058910000000000196e+01 1.728934999999999945e+03
1.800000000000000211e-02 1.598755000000000037e-01 2.121809999999999974e+01 6.028244999999999720e+01 1.728720000000000027e+03
1.900000000000000300e-02 1.598539999999999961e-01 2.141530000000000200e+01 6.026664999999999850e+01 1.728590000000000146e+03
2.000000000000000042e-02 1.598494999999999777e-01 2.169319999999999737e+01 6.067524999999999835e+01 1.728574999999999818e+03
2.100000000000000130e-02 1.598654999999999937e-01 2.208210000000000051e+01 6.158275000000000432e+01 1.728694999999999936e+03
2.200000000000000219e-02 1.599030000000000173e-01 2.256915000000000049e+01 6.296025000000000205e+01 1.728954999999999927e+03
2.299999999999999961e-02 1.599585000000000035e-01 2.310264999999999702e+01 6.467045000000000243e+01 1.729345000000000027e+03
2.400000000000000050e-02 1.600274999999999892e-01 2.360864999999999725e+01 6.649979999999999336e+01 1.729815000000000055e+03
2.500000000000000139e-02 1.601009999999999933e-01 2.401190000000000069e+01 6.821340000000000714e+01 1.730329999999999927e+03
2.600000000000000228e-02 1.601710000000000078e-01 2.425480000000000302e+01 6.961079999999999757e+01 1.730825000000000045e+03
2.700000000000000316e-02 1.602314999999999989e-01 2.430904999999999916e+01 7.056810000000000116e+01 1.731255000000000109e+03
2.800000000000000058e-02 1.602775000000000172e-01 2.417799999999999727e+01 7.105594999999999573e+01 1.731585000000000036e+03
2.900000000000000147e-02 1.603080000000000060e-01 2.389110000000000156e+01 7.113105000000000189e+01 1.731815000000000055e+03
3.000000000000000236e-02 1.603249999999999953e-01 2.349224999999999852e+01 7.090860000000000696e+01 1.731940000000000055e+03
3.099999999999999978e-02 1.603310000000000013e-01 2.302665000000000006e+01 7.052379999999999427e+01 1.731994999999999891e+03
3.200000000000000067e-02 1.603295000000000137e-01 2.252990000000000137e+01 7.009539999999999793e+01 1.732000000000000000e+03
3.300000000000000155e-02 1.603244999999999809e-01 2.202199999999999847e+01 6.970074999999999932e+01 1.731965000000000146e+03
3.400000000000000244e-02 1.603169999999999873e-01 2.150634999999999764e+01 6.936650000000000205e+01 1.731925000000000182e+03
3.500000000000000333e-02 1.603094999999999937e-01 2.097409999999999997e+01 6.907420000000000471e+01 1.731875000000000000e+03
3.600000000000000422e-02 1.603005000000000124e-01 2.041094999999999970e+01 6.877785000000000082e+01 1.731815000000000055e+03
3.700000000000000511e-02 1.602890000000000148e-01 1.980499999999999972e+01 6.842629999999999768e+01 1.731740000000000009e+03
3.799999999999999906e-02 1.602739999999999998e-01 1.915319999999999823e+01 6.798425000000000296e+01 1.731644999999999982e+03
3.899999999999999994e-02 1.602554999999999952e-01 1.846504999999999797e+01 6.744759999999999422e+01 1.731519999999999982e+03
4.000000000000000083e-02 1.602330000000000143e-01 1.776344999999999885e+01 6.684970000000001278e+01 1.731375000000000000e+03
4.100000000000000172e-02 1.602095000000000047e-01 1.708160000000000167e+01 6.625730000000000075e+01 1.731215000000000146e+03
4.200000000000000261e-02 1.601859999999999951e-01 1.645769999999999911e+01 6.575815000000000055e+01 1.731054999999999836e+03
4.300000000000000350e-02 1.601670000000000038e-01 1.592779999999999951e+01 6.544325000000000614e+01 1.730925000000000182e+03
4.400000000000000439e-02 1.601555000000000062e-01 1.551955000000000062e+01 6.538765000000000782e+01 1.730840000000000146e+03
4.499999999999999833e-02 1.601535000000000042e-01 1.524699999999999989e+01 6.563479999999999848e+01 1.730820000000000164e+03
4.599999999999999922e-02 1.601629999999999998e-01 1.510780000000000101e+01 6.618649999999999523e+01 1.730884999999999991e+03
4.700000000000000011e-02 1.601850000000000218e-01 1.508370000000000033e+01 6.700145000000000550e+01 1.731019999999999982e+03
4.800000000000000100e-02 1.602164999999999839e-01 1.514320000000000022e+01 6.800084999999999980e+01 1.731230000000000018e+03
4.900000000000000189e-02 1.602554999999999952e-01 1.524575000000000102e+01 6.907994999999999663e+01 1.731490000000000009e+03
5.000000000000000278e-02 1.602975000000000094e-01 1.534750000000000014e+01 7.012239999999999895e+01 1.731775000000000091e+03
5.100000000000000366e-02 1.603395000000000237e-01 1.540564999999999962e+01 7.101554999999999040e+01 1.732054999999999836e+03
5.200000000000000455e-02 1.603765000000000052e-01 1.538344999999999985e+01 7.166294999999999504e+01 1.732309999999999945e+03
5.300000000000000544e-02 1.604045000000000054e-01 1.525249999999999950e+01 7.199354999999999905e+01 1.732505000000000109e+03
5.399999999999999939e-02 1.604209999999999803e-01 1.499465000000000003e+01 7.196614999999999895e+01 1.732614999999999782e+03
5.500000000000000028e-02 1.604234999999999967e-01 1.460160000000000124e+01 7.156929999999999836e+01 1.732639999999999873e+03
5.600000000000000117e-02 1.604109999999999980e-01 1.407440000000000069e+01 7.081809999999998695e+01 1.732559999999999945e+03
5.700000000000000205e-02 1.603844999999999854e-01 1.342125000000000057e+01 6.974844999999999118e+01 1.732384999999999991e+03
5.800000000000000294e-02 1.603439999999999865e-01 1.265615000000000023e+01 6.841009999999999991e+01 1.732115000000000009e+03
5.900000000000000383e-02 1.602915000000000034e-01 1.179672000000000054e+01 6.686050000000000182e+01 1.731759999999999991e+03
6.000000000000000472e-02 1.602280000000000093e-01 1.086299999999999955e+01 6.515934999999998922e+01 1.731329999999999927e+03
6.099999999999999867e-02 1.601569999999999938e-01 9.876360000000000028e+00 6.336539999999999395e+01 1.730845000000000027e+03
6.199999999999999956e-02 1.600800000000000001e-01 8.859185000000000088e+00 6.153414999999999679e+01 1.730319999999999936e+03
6.300000000000000044e-02 1.599995000000000167e-01 7.834405000000000285e+00 5.971800000000000352e+01 1.729764999999999873e+03
6.400000000000000133e-02 1.599180000000000046e-01 6.825575000000000614e+00 5.796630000000000393e+01 1.729210000000000036e+03
6.500000000000000222e-02 1.598375000000000212e-01 5.857065000000000410e+00 5.632659999999999911e+01 1.728654999999999973e+03
6.600000000000000311e-02 1.597604999999999997e-01 4.953720000000000567e+00 5.484550000000000125e+01 1.728130000000000109e+03
6.700000000000000400e-02 1.596890000000000254e-01 4.140724999999999767e+00 5.356900000000000261e+01 1.727634999999999991e+03
6.800000000000000488e-02 1.596259999999999901e-01 3.443100000000000271e+00 5.254234999999999900e+01 1.727199999999999818e+03
6.900000000000000577e-02 1.595730000000000204e-01 2.884974999999999845e+00 5.180934999999999491e+01 1.726829999999999927e+03
7.000000000000000666e-02 1.595320000000000071e-01 2.488739999999999952e+00 5.141039999999999566e+01 1.726545000000000073e+03
7.100000000000000755e-02 1.595054999999999945e-01 2.274115000000000109e+00 5.138119999999999976e+01 1.726355000000000018e+03
7.200000000000000844e-02 1.594949999999999979e-01 2.257229999999999848e+00 5.175030000000000285e+01 1.726269999999999982e+03
7.300000000000000933e-02 1.595020000000000049e-01 2.449780000000000069e+00 5.253739999999999810e+01 1.726309999999999945e+03
7.399999999999999634e-02 1.595270000000000021e-01 2.858424999999999994e+00 5.375204999999999700e+01 1.726470000000000027e+03
7.499999999999999722e-02 1.595714999999999772e-01 3.484414999999999818e+00 5.539244999999999663e+01 1.726759999999999991e+03
7.599999999999999811e-02 1.596354999999999857e-01 4.323459999999999859e+00 5.744554999999999723e+01 1.727184999999999945e+03
7.699999999999999900e-02 1.597184999999999855e-01 5.365895000000000081e+00 5.988705000000000211e+01 1.727740000000000009e+03
7.799999999999999989e-02 1.598199999999999898e-01 6.597129999999999939e+00 6.268285000000000196e+01 1.728420000000000073e+03
7.900000000000000078e-02 1.599384999999999835e-01 7.998250000000000526e+00 6.579059999999999775e+01 1.729219999999999800e+03
8.000000000000000167e-02 1.600725000000000064e-01 9.546945000000000903e+00 6.916165000000000873e+01 1.730125000000000000e+03
8.100000000000000255e-02 1.602195000000000147e-01 1.121818500000000007e+01 7.274324999999998909e+01 1.731130000000000109e+03
8.200000000000000344e-02 1.603784999999999794e-01 1.298549000000000042e+01 7.648099999999999454e+01 1.732210000000000036e+03
8.300000000000000433e-02 1.605465000000000086e-01 1.482164999999999999e+01 8.032099999999999795e+01 1.733365000000000009e+03
8.400000000000000522e-02 1.607204999999999884e-01 1.669995000000000118e+01 8.421209999999999241e+01 1.734559999999999945e+03
8.500000000000000611e-02 1.608999999999999875e-01 1.859475000000000122e+01 8.810759999999999081e+01 1.735795000000000073e+03
8.600000000000000699e-02 1.610814999999999886e-01 2.048250000000000171e+01 9.196684999999999377e+01 1.737045000000000073e+03
8.700000000000000788e-02 1.612635000000000041e-01 2.234230000000000160e+01 9.575645000000000095e+01 1.738304999999999836e+03
8.800000000000000877e-02 1.614444999999999908e-01 2.415610000000000213e+01 9.945029999999999859e+01 1.739559999999999945e+03
8.899999999999999578e-02 1.616230000000000167e-01 2.590944999999999965e+01 1.030313500000000033e+02 1.740800000000000182e+03
8.999999999999999667e-02 1.617979999999999974e-01 2.759120000000000061e+01 1.064888500000000136e+02 1.742025000000000091e+03
9.099999999999999756e-02 1.619685000000000152e-01 2.919354999999999833e+01 1.098199999999999932e+02 1.743215000000000146e+03
9.199999999999999845e-02 1.621344999999999870e-01 3.071179999999999666e+01 1.130275000000000034e+02 1.744380000000000109e+03
9.299999999999999933e-02 1.622959999999999958e-01 3.214410000000000167e+01 1.161200000000000045e+02 1.745514999999999873e+03
9.400000000000000022e-02 1.624530000000000141e-01 3.349060000000000059e+01 1.191080000000000041e+02 1.746619999999999891e+03
9.500000000000000111e-02 1.626049999999999995e-01 3.475350000000000250e+01 1.220049999999999955e+02 1.747695000000000164e+03
9.600000000000000200e-02 1.627534999999999954e-01 3.593599999999999994e+01 1.248245000000000005e+02 1.748744999999999891e+03
9.700000000000000289e-02 1.628985000000000016e-01 3.704179999999999495e+01 1.275784999999999911e+02 1.749769999999999982e+03
9.800000000000000377e-02 1.630404999999999771e-01 3.807500000000000284e+01 1.302785000000000082e+02 1.750775000000000091e+03
9.900000000000000466e-02 1.631794999999999773e-01 3.903934999999999889e+01 1.329329999999999927e+02 1.751759999999999991e+03
1.000000000000000056e-01 1.633165000000000033e-01 3.993784999999999741e+01 1.355459999999999923e+02 1.752730000000000018e+03
1.010000000000000064e-01 1.634510000000000129e-01 4.077285000000000537e+01 1.381195000000000164e+02 1.753690000000000055e+03
1.020000000000000073e-01 1.635830000000000062e-01 4.154545000000000243e+01 1.406500000000000057e+02 1.754630000000000109e+03
1.030000000000000082e-01 1.637135000000000118e-01 4.225600000000000023e+01 1.431335000000000264e+02 1.755559999999999945e+03
1.040000000000000091e-01 1.638415000000000010e-01 4.290344999999999942e+01 1.455600000000000023e+02 1.756465000000000146e+03
1.050000000000000100e-01 1.639665000000000150e-01 4.348610000000000042e+01 1.479194999999999993e+02 1.757360000000000127e+03
1.059999999999999970e-01 1.640884999999999982e-01 4.400130000000000052e+01 1.501990000000000123e+02 1.758230000000000018e+03
1.069999999999999979e-01 1.642065000000000052e-01 4.444589999999999463e+01 1.523834999999999980e+02 1.759075000000000045e+03
1.079999999999999988e-01 1.643204999999999805e-01 4.481615000000000038e+01 1.544600000000000080e+02 1.759889999999999873e+03
1.089999999999999997e-01 1.644289999999999918e-01 4.510829999999999984e+01 1.564119999999999777e+02 1.760664999999999964e+03
1.100000000000000006e-01 1.645320000000000116e-01 4.531860000000000355e+01 1.582280000000000086e+02 1.761404999999999973e+03
1.110000000000000014e-01 1.646290000000000253e-01 4.544344999999999857e+01 1.598944999999999936e+02 1.762105000000000018e+03
1.120000000000000023e-01 1.647190000000000043e-01 4.547990000000000066e+01 1.614000000000000057e+02 1.762750000000000000e+03
1.130000000000000032e-01 1.648020000000000040e-01 4.542544999999999789e+01 1.627359999999999900e+02 1.763345000000000027e+03
1.140000000000000041e-01 1.648765000000000092e-01 4.527859999999999729e+01 1.638954999999999984e+02 1.763884999999999991e+03
1.150000000000000050e-01 1.649440000000000073e-01 4.503875000000000028e+01 1.648745000000000118e+02 1.764365000000000009e+03
1.160000000000000059e-01 1.650019999999999820e-01 4.470619999999999550e+01 1.656709999999999923e+02 1.764789999999999964e+03
1.170000000000000068e-01 1.650515000000000176e-01 4.428255000000000052e+01 1.662844999999999800e+02 1.765150000000000091e+03
1.180000000000000077e-01 1.650925000000000031e-01 4.377065000000000339e+01 1.667205000000000155e+02 1.765454999999999927e+03
1.190000000000000085e-01 1.651250000000000218e-01 4.317435000000000400e+01 1.669844999999999970e+02 1.765694999999999936e+03
1.200000000000000094e-01 1.651489999999999903e-01 4.249880000000000280e+01 1.670850000000000080e+02 1.765869999999999891e+03
1.209999999999999964e-01 1.651654999999999929e-01 4.175025000000000119e+01 1.670319999999999823e+02 1.765994999999999891e+03
1.219999999999999973e-01 1.651734999999999731e-01 4.093589999999999662e+01 1.668394999999999868e+02 1.766065000000000055e+03
1.229999999999999982e-01 1.651745000000000019e-01 4.006374999999999886e+01 1.665215000000000032e+02 1.766085000000000036e+03
1.239999999999999991e-01 1.651695000000000246e-01 3.914249999999999829e+01 1.660939999999999941e+02 1.766050000000000182e+03
1.250000000000000000e-01 1.651584999999999859e-01 3.818124999999999858e+01 1.655724999999999909e+02 1.765980000000000018e+03
1.260000000000000009e-01 1.651424999999999976e-01 3.718935000000000457e+01 1.649755000000000109e+02 1.765864999999999782e+03
1.270000000000000018e-01 1.651219999999999910e-01 3.617609999999999815e+01 1.643179999999999836e+02 1.765724999999999909e+03
1.280000000000000027e-01 1.650975000000000081e-01 3.515059999999999718e+01 1.636165000000000020e+02 1.765559999999999945e+03
1.290000000000000036e-01 1.650699999999999945e-01 3.412139999999999418e+01 1.628854999999999791e+02 1.765369999999999891e+03
1.300000000000000044e-01 1.650409999999999933e-01 3.309640000000000271e+01 1.621384999999999934e+02 1.765159999999999854e+03
1.310000000000000053e-01 1.650094999999999756e-01 3.208270000000000266e+01 1.613865000000000123e+02 1.764940000000000055e+03
1.320000000000000062e-01 1.649769999999999848e-01 3.108630000000000138e+01 1.606394999999999982e+02 1.764710000000000036e+03
1.330000000000000071e-01 1.649444999999999939e-01 3.011224999999999952e+01 1.599045000000000130e+02 1.764474999999999909e+03
1.340000000000000080e-01 1.649114999999999887e-01 2.916425000000000267e+01 1.591854999999999905e+02 1.764240000000000009e+03
1.350000000000000089e-01 1.648784999999999834e-01 2.824490000000000123e+01 1.584850000000000136e+02 1.764005000000000109e+03
1.360000000000000098e-01 1.648459999999999925e-01 2.735549999999999926e+01 1.578044999999999902e+02 1.763775000000000091e+03
1.370000000000000107e-01 1.648135000000000017e-01 2.649640000000000128e+01 1.571410000000000196e+02 1.763539999999999964e+03
1.380000000000000115e-01 1.647820000000000118e-01 2.566665000000000063e+01 1.564904999999999973e+02 1.763304999999999836e+03
1.390000000000000124e-01 1.647500000000000075e-01 2.486449999999999960e+01 1.558485000000000014e+02 1.763085000000000036e+03
1.400000000000000133e-01 1.647184999999999899e-01 2.408720000000000283e+01 1.552074999999999818e+02 1.762855000000000018e+03
1.410000000000000142e-01 1.646870000000000001e-01 2.333149999999999835e+01 1.545604999999999905e+02 1.762630000000000109e+03
1.420000000000000151e-01 1.646549999999999958e-01 2.259345000000000070e+01 1.538979999999999961e+02 1.762394999999999982e+03
1.430000000000000160e-01 1.646219999999999906e-01 2.186905000000000143e+01 1.532135000000000105e+02 1.762159999999999854e+03
1.440000000000000169e-01 1.645880000000000121e-01 2.115374999999999872e+01 1.524964999999999975e+02 1.761914999999999964e+03
1.450000000000000178e-01 1.645530000000000048e-01 2.044335000000000235e+01 1.517404999999999973e+02 1.761664999999999964e+03
1.459999999999999909e-01 1.645159999999999956e-01 1.973379999999999868e+01 1.509379999999999882e+02 1.761400000000000091e+03
1.469999999999999918e-01 1.644769999999999843e-01 1.902130000000000010e+01 1.500815000000000055e+02 1.761119999999999891e+03
1.479999999999999927e-01 1.644355000000000122e-01 1.830270000000000152e+01 1.491684999999999945e+02 1.760820000000000164e+03
1.489999999999999936e-01 1.643910000000000093e-01 1.757545000000000002e+01 1.481940000000000168e+02 1.760509999999999991e+03
1.499999999999999944e-01 1.643445000000000045e-01 1.683780000000000143e+01 1.471574999999999989e+02 1.760174999999999955e+03
1.509999999999999953e-01 1.642950000000000244e-01 1.608885000000000076e+01 1.460595000000000141e+02 1.759825000000000045e+03
1.519999999999999962e-01 1.642430000000000001e-01 1.532860000000000156e+01 1.449014999999999986e+02 1.759454999999999927e+03
1.529999999999999971e-01 1.641880000000000006e-01 1.455799999999999983e+01 1.436885000000000048e+02 1.759070000000000164e+03
1.539999999999999980e-01 1.641299999999999981e-01 1.377884999999999849e+01 1.424269999999999925e+02 1.758654999999999973e+03
1.549999999999999989e-01 1.640699999999999936e-01 1.299405000000000143e+01 1.411235000000000070e+02 1.758230000000000018e+03
1.559999999999999998e-01 1.640075000000000005e-01 1.220692500000000003e+01 1.397880000000000109e+02 1.757795000000000073e+03
1.570000000000000007e-01 1.639439999999999786e-01 1.142178999999999967e+01 1.384314999999999998e+02 1.757340000000000146e+03
1.580000000000000016e-01 1.638789999999999969e-01 1.064335999999999949e+01 1.370639999999999930e+02 1.756884999999999991e+03
1.590000000000000024e-01 1.638129999999999864e-01 9.876799999999999358e+00 1.356985000000000241e+02 1.756414999999999964e+03
