# t [s], A [cm^2], U [cm/s], P [cPa], c [cm/s]
1.000000000000000021e-03 6.089450000000000696e-01 2.718949999999997758e-03 9.673769999999998959e+01 1.383625000000000000e+03
2.000000000000000042e-03 6.089364999999999917e-01 1.579000000000011818e-05 9.672395000000000209e+01 1.383615000000000009e+03
3.000000000000000062e-03 6.089679999999999538e-01 4.675870000000000026e-02 9.676259999999999195e+01 1.383630000000000109e+03
4.000000000000000083e-03 6.090229999999999810e-01 1.294211499999999848e-01 9.685470000000000823e+01 1.383655000000000200e+03
5.000000000000000104e-03 6.090379999999999683e-01 1.553358999999999990e-01 9.688854999999999507e+01 1.383670000000000073e+03
6.000000000000000125e-03 6.090065000000000062e-01 1.111685000000000034e-01 9.681995000000000573e+01 1.383659999999999854e+03
7.000000000000000146e-03 6.089625000000000732e-01 4.459400000000002251e-02 9.668254999999999200e+01 1.383630000000000109e+03
8.000000000000000167e-03 6.089185000000000292e-01 -2.501949999999997232e-02 9.650135000000000218e+01 1.383585000000000036e+03
9.000000000000001055e-03 6.088500000000000023e-01 -1.383650000000000158e-01 9.623855000000000359e+01 1.383525000000000091e+03
1.000000000000000194e-02 6.087369999999999726e-01 -3.277499999999999858e-01 9.584730000000000416e+01 1.383434999999999945e+03
1.099999999999999936e-02 6.085749999999999771e-01 -5.989449999999999497e-01 9.529955000000001064e+01 1.383304999999999836e+03
1.200000000000000025e-02 6.083555000000000490e-01 -9.574350000000000360e-01 9.456709999999999638e+01 1.383130000000000109e+03
1.300000000000000114e-02 6.080680000000000529e-01 -1.408590000000000231e+00 9.362069999999999936e+01 1.382900000000000091e+03
1.400000000000000203e-02 6.077160000000000339e-01 -1.934679999999999955e+00 9.245525000000000659e+01 1.382605000000000018e+03
1.499999999999999944e-02 6.073224999999999874e-01 -2.482685000000000031e+00 9.111025000000000773e+01 1.382264999999999873e+03
1.600000000000000033e-02 6.069225000000000314e-01 -2.976640000000000175e+00 8.966514999999999702e+01 1.381880000000000109e+03
1.700000000000000122e-02 6.065494999999999637e-01 -3.343339999999999979e+00 8.821399999999999864e+01 1.381480000000000018e+03
1.800000000000000211e-02 6.062239999999999851e-01 -3.534126500000000171e+00 8.683674999999999500e+01 1.381090000000000146e+03
1.900000000000000300e-02 6.059479999999999311e-01 -3.533904999999999852e+00 8.558060000000000400e+01 1.380704999999999927e+03
2.000000000000000042e-02 6.057109999999999994e-01 -3.358274500000000273e+00 8.445459999999999923e+01 1.380355000000000018e+03
2.100000000000000130e-02 6.054924999999999891e-01 -3.043420500000000306e+00 8.343565000000000964e+01 1.380014999999999873e+03
2.200000000000000219e-02 6.052714999999999623e-01 -2.633492999999999640e+00 8.248070000000001301e+01 1.379690000000000055e+03
2.299999999999999961e-02 6.050320000000000142e-01 -2.168785000000000185e+00 8.154175000000000750e+01 1.379365000000000009e+03
2.400000000000000050e-02 6.047639999999999683e-01 -1.677280000000000104e+00 8.057910000000001105e+01 1.379039999999999964e+03
2.500000000000000139e-02 6.044675000000000464e-01 -1.171214999999999895e+00 7.957015000000001237e+01 1.378699999999999818e+03
2.600000000000000228e-02 6.041484999999999772e-01 -6.490850000000001341e-01 7.851205000000000211e+01 1.378349999999999909e+03
2.700000000000000316e-02 6.038164999999999782e-01 -1.019950000000000578e-01 7.741670000000000584e+01 1.377990000000000009e+03
2.800000000000000058e-02 6.034825000000000328e-01 4.783900000000000929e-01 7.630324999999999136e+01 1.377625000000000000e+03
2.900000000000000147e-02 6.031499999999999639e-01 1.092865000000000197e+00 7.518795000000000073e+01 1.377255000000000109e+03
3.000000000000000236e-02 6.028184999999999238e-01 1.730610000000000204e+00 7.407715000000000316e+01 1.376890000000000100e+03
3.099999999999999978e-02 6.024819999999999620e-01 2.368705000000000283e+00 7.296299999999999386e+01 1.376519999999999982e+03
3.200000000000000067e-02 6.021285000000000664e-01 2.974845000000000184e+00 7.182375000000000398e+01 1.376144999999999982e+03
3.300000000000000155e-02 6.017464999999999620e-01 3.512254999999999683e+00 7.062789999999999679e+01 1.375755000000000109e+03
3.400000000000000244e-02 6.013224999999999820e-01 3.945765000000000189e+00 6.934024999999999750e+01 1.375344999999999800e+03
3.500000000000000333e-02 6.008489999999999664e-01 4.247870000000000701e+00 6.792980000000000018e+01 1.374905000000000200e+03
3.600000000000000422e-02 6.003235000000000099e-01 4.403264999999999318e+00 6.637720000000000198e+01 1.374434999999999945e+03
3.700000000000000511e-02 5.997504999999999642e-01 4.411719999999999864e+00 6.468030000000000257e+01 1.373934999999999945e+03
3.799999999999999906e-02 5.991404999999999648e-01 4.288095000000000212e+00 6.285689999999999600e+01 1.373394999999999982e+03
3.899999999999999994e-02 5.985114999999999741e-01 4.059960000000000235e+00 6.094415000000000049e+01 1.372835000000000036e+03
4.000000000000000083e-02 5.978824999999999834e-01 3.763740000000000308e+00 5.899515000000000242e+01 1.372269999999999982e+03
4.100000000000000172e-02 5.972744999999999305e-01 3.439565000000000428e+00 5.707309999999999661e+01 1.371700000000000045e+03
4.200000000000000261e-02 5.967089999999999339e-01 3.127040000000000486e+00 5.524504999999999910e+01 1.371150000000000091e+03
4.300000000000000350e-02 5.962030000000000385e-01 2.861379999999999590e+00 5.357550000000000523e+01 1.370639999999999873e+03
4.400000000000000439e-02 5.957709999999999395e-01 2.671459999999999724e+00 5.212210000000000321e+01 1.370179999999999836e+03
4.499999999999999833e-02 5.954239999999999533e-01 2.578974999999999795e+00 5.093169999999999931e+01 1.369795000000000073e+03
4.599999999999999922e-02 5.951674999999999605e-01 2.598675000000000068e+00 5.003940000000000055e+01 1.369485000000000127e+03
4.700000000000000011e-02 5.950060000000000349e-01 2.739606000000000208e+00 4.946824999999999761e+01 1.369255000000000109e+03
4.800000000000000100e-02 5.949409999999999421e-01 3.006664999999999921e+00 4.923059999999999548e+01 1.369119999999999891e+03
4.900000000000000189e-02 5.949725000000000152e-01 3.402095000000000091e+00 4.933010000000000161e+01 1.369085000000000036e+03
5.000000000000000278e-02 5.950984999999999747e-01 3.926699999999999857e+00 4.976364999999999839e+01 1.369134999999999991e+03
5.100000000000000366e-02 5.953169999999999851e-01 4.580569999999999808e+00 5.052329999999999899e+01 1.369289999999999964e+03
5.200000000000000455e-02 5.956254999999999189e-01 5.363184999999999647e+00 5.159799999999999898e+01 1.369534999999999854e+03
5.300000000000000544e-02 5.960209999999999120e-01 6.273109999999999964e+00 5.297395000000000209e+01 1.369869999999999891e+03
5.399999999999999939e-02 5.964979999999999727e-01 7.307390000000000718e+00 5.463490000000000180e+01 1.370289999999999964e+03
5.500000000000000028e-02 5.970524999999999860e-01 8.460650000000001114e+00 5.656220000000000425e+01 1.370800000000000182e+03
5.600000000000000117e-02 5.976779999999999315e-01 9.724694999999998757e+00 5.873399999999999466e+01 1.371380000000000109e+03
5.700000000000000205e-02 5.983665000000000234e-01 1.108816500000000005e+01 6.112534999999999741e+01 1.372029999999999973e+03
5.800000000000000294e-02 5.991104999999999903e-01 1.253647000000000133e+01 6.370775000000000432e+01 1.372744999999999891e+03
5.900000000000000383e-02 5.998979999999999313e-01 1.405223999999999940e+01 6.645005000000000450e+01 1.373514999999999873e+03
6.000000000000000472e-02 6.007210000000000605e-01 1.561622999999999983e+01 6.931839999999999691e+01 1.374325000000000045e+03
6.099999999999999867e-02 6.015675000000000328e-01 1.720780500000000046e+01 7.227799999999999159e+01 1.375170000000000073e+03
6.199999999999999956e-02 6.024279999999999635e-01 1.880635499999999993e+01 7.529380000000000450e+01 1.376045000000000073e+03
6.300000000000000044e-02 6.032920000000000504e-01 2.039204999999999757e+01 7.833204999999999529e+01 1.376940000000000055e+03
6.400000000000000133e-02 6.041520000000000223e-01 2.194654999999999845e+01 8.136154999999999404e+01 1.377835000000000036e+03
6.500000000000000222e-02 6.050005000000000521e-01 2.345389999999999731e+01 8.435470000000000823e+01 1.378735000000000127e+03
6.600000000000000311e-02 6.058304999999999385e-01 2.490084999999999837e+01 8.728839999999999577e+01 1.379625000000000000e+03
6.700000000000000400e-02 6.066394999999999982e-01 2.627710000000000079e+01 9.014424999999999955e+01 1.380494999999999891e+03
6.800000000000000488e-02 6.074235000000000051e-01 2.757505000000000095e+01 9.290914999999999679e+01 1.381349999999999909e+03
6.900000000000000577e-02 6.081814999999999305e-01 2.879025000000000034e+01 9.557599999999999341e+01 1.382190000000000055e+03
7.000000000000000666e-02 6.089130000000000376e-01 2.992044999999999888e+01 9.814035000000001219e+01 1.382994999999999891e+03
7.100000000000000755e-02 6.096190000000000220e-01 3.096569999999999823e+01 1.006038999999999959e+02 1.383779999999999973e+03
7.200000000000000844e-02 6.103009999999999824e-01 3.192774999999999963e+01 1.029708499999999987e+02 1.384534999999999854e+03
7.300000000000000933e-02 6.109615000000000462e-01 3.280980000000000274e+01 1.052477000000000089e+02 1.385275000000000091e+03
7.399999999999999634e-02 6.116025000000000489e-01 3.361580000000000013e+01 1.074435000000000002e+02 1.385980000000000018e+03
7.499999999999999722e-02 6.122265000000000068e-01 3.435045000000000215e+01 1.095679999999999978e+02 1.386675000000000182e+03
7.599999999999999811e-02 6.128359999999999363e-01 3.501850000000000307e+01 1.116305000000000121e+02 1.387345000000000027e+03
7.699999999999999900e-02 6.134340000000000348e-01 3.562454999999999927e+01 1.136400000000000006e+02 1.388000000000000000e+03
7.799999999999999989e-02 6.140210000000000390e-01 3.617265000000000441e+01 1.156039999999999992e+02 1.388644999999999982e+03
7.900000000000000078e-02 6.145990000000000064e-01 3.666639999999999588e+01 1.175284999999999940e+02 1.389275000000000091e+03
8.000000000000000167e-02 6.151679999999999371e-01 3.710819999999999652e+01 1.194164999999999992e+02 1.389889999999999873e+03
8.100000000000000255e-02 6.157280000000000530e-01 3.749974999999999881e+01 1.212694999999999936e+02 1.390494999999999891e+03
8.200000000000000344e-02 6.162769999999999637e-01 3.784154999999999802e+01 1.230850000000000080e+02 1.391090000000000146e+03
8.300000000000000433e-02 6.168154999999999610e-01 3.813335000000000008e+01 1.248594999999999970e+02 1.391664999999999964e+03
8.400000000000000522e-02 6.173394999999999300e-01 3.837380000000000280e+01 1.265870000000000033e+02 1.392234999999999900e+03
8.500000000000000611e-02 6.178460000000000063e-01 3.856104999999999450e+01 1.282584999999999980e+02 1.392784999999999854e+03
8.600000000000000699e-02 6.183339999999999392e-01 3.869280000000000541e+01 1.298650000000000091e+02 1.393315000000000055e+03
8.700000000000000788e-02 6.187985000000000291e-01 3.876654999999999518e+01 1.313954999999999984e+02 1.393824999999999818e+03
8.800000000000000877e-02 6.192374999999999963e-01 3.877965000000000373e+01 1.328404999999999916e+02 1.394309999999999945e+03
8.899999999999999578e-02 6.196479999999999766e-01 3.872984999999999900e+01 1.341890000000000214e+02 1.394764999999999873e+03
8.999999999999999667e-02 6.200265000000000359e-01 3.861525000000000318e+01 1.354320000000000164e+02 1.395195000000000164e+03
9.099999999999999756e-02 6.203720000000000345e-01 3.843460000000000321e+01 1.365604999999999905e+02 1.395585000000000036e+03
9.199999999999999845e-02 6.206810000000000382e-01 3.818724999999999881e+01 1.375674999999999955e+02 1.395934999999999945e+03
9.299999999999999933e-02 6.209534999999999361e-01 3.787349999999999994e+01 1.384485000000000241e+02 1.396255000000000109e+03
9.400000000000000022e-02 6.211885000000000323e-01 3.749439999999999884e+01 1.391999999999999886e+02 1.396534999999999854e+03
9.500000000000000111e-02 6.213859999999999939e-01 3.705195000000000505e+01 1.398220000000000027e+02 1.396780000000000200e+03
9.600000000000000200e-02 6.215459999999999319e-01 3.654905000000000115e+01 1.403140000000000214e+02 1.396980000000000018e+03
9.700000000000000289e-02 6.216699999999999449e-01 3.598935000000000173e+01 1.406810000000000116e+02 1.397134999999999991e+03
9.800000000000000377e-02 6.217589999999999506e-01 3.537734999999999985e+01 1.409265000000000043e+02 1.397255000000000109e+03
9.900000000000000466e-02 6.218150000000000066e-01 3.471829999999999927e+01 1.410589999999999975e+02 1.397344999999999800e+03
1.000000000000000056e-01 6.218409999999999771e-01 3.401794999999999902e+01 1.410849999999999795e+02 1.397400000000000091e+03
1.010000000000000064e-01 6.218399999999999483e-01 3.328260000000000218e+01 1.410154999999999745e+02 1.397414999999999964e+03
1.020000000000000073e-01 6.218135000000000190e-01 3.251895000000000380e+01 1.408605000000000018e+02 1.397404999999999973e+03
1.030000000000000082e-01 6.217660000000000409e-01 3.173379999999999868e+01 1.406314999999999884e+02 1.397375000000000000e+03
1.040000000000000091e-01 6.217004999999999892e-01 3.093414999999999893e+01 1.403400000000000034e+02 1.397315000000000055e+03
1.050000000000000100e-01 6.216209999999999791e-01 3.012679999999999936e+01 1.399979999999999905e+02 1.397235000000000127e+03
1.059999999999999970e-01 6.215295000000000680e-01 2.931834999999999880e+01 1.396175000000000068e+02 1.397144999999999982e+03
1.069999999999999979e-01 6.214295000000000790e-01 2.851480000000000103e+01 1.392099999999999795e+02 1.397034999999999854e+03
1.079999999999999988e-01 6.213245000000000573e-01 2.772180000000000177e+01 1.387849999999999966e+02 1.396925000000000182e+03
1.089999999999999997e-01 6.212165000000000603e-01 2.694404999999999717e+01 1.383525000000000205e+02 1.396805000000000064e+03
1.100000000000000006e-01 6.211079999999999934e-01 2.618554999999999922e+01 1.379209999999999923e+02 1.396674999999999955e+03
1.110000000000000014e-01 6.209999999999999964e-01 2.544914999999999949e+01 1.374959999999999809e+02 1.396554999999999836e+03
1.120000000000000023e-01 6.208949999999999747e-01 2.473689999999999856e+01 1.370835000000000150e+02 1.396430000000000064e+03
1.130000000000000032e-01 6.207925000000000804e-01 2.404964999999999975e+01 1.366875000000000000e+02 1.396305000000000064e+03
1.140000000000000041e-01 6.206935000000000091e-01 2.338729999999999976e+01 1.363079999999999927e+02 1.396184999999999945e+03
1.150000000000000050e-01 6.205985000000000529e-01 2.274869999999999948e+01 1.359459999999999980e+02 1.396069999999999936e+03
1.160000000000000059e-01 6.205055000000000431e-01 2.213185000000000002e+01 1.356009999999999991e+02 1.395960000000000036e+03
1.170000000000000068e-01 6.204149999999999388e-01 2.153410000000000224e+01 1.352685000000000173e+02 1.395845000000000027e+03
1.180000000000000077e-01 6.203250000000000153e-01 2.095199999999999818e+01 1.349455000000000098e+02 1.395740000000000009e+03
1.190000000000000085e-01 6.202345000000000219e-01 2.038165000000000049e+01 1.346270000000000095e+02 1.395630000000000109e+03
1.200000000000000094e-01 6.201419999999999710e-01 1.981905000000000072e+01 1.343079999999999927e+02 1.395525000000000091e+03
1.209999999999999964e-01 6.200449999999999573e-01 1.925994999999999990e+01 1.339819999999999993e+02 1.395424999999999955e+03
1.219999999999999973e-01 6.199440000000000506e-01 1.870009999999999906e+01 1.336440000000000055e+02 1.395315000000000055e+03
1.229999999999999982e-01 6.198354999999999837e-01 1.813560000000000016e+01 1.332884999999999991e+02 1.395200000000000045e+03
1.239999999999999991e-01 6.197194999999999787e-01 1.756289999999999907e+01 1.329099999999999966e+02 1.395079999999999927e+03
1.250000000000000000e-01 6.195945000000000480e-01 1.697885000000000133e+01 1.325049999999999955e+02 1.394960000000000036e+03
1.260000000000000009e-01 6.194600000000000106e-01 1.638105000000000189e+01 1.320690000000000168e+02 1.394820000000000164e+03
1.270000000000000018e-01 6.193159999999999776e-01 1.576770000000000138e+01 1.316009999999999991e+02 1.394679999999999836e+03
1.280000000000000027e-01 6.191614999999999203e-01 1.513780000000000037e+01 1.310989999999999895e+02 1.394529999999999973e+03
1.290000000000000036e-01 6.189970000000000194e-01 1.449109999999999943e+01 1.305639999999999930e+02 1.394369999999999891e+03
1.300000000000000044e-01 6.188234999999999708e-01 1.382825500000000041e+01 1.299964999999999975e+02 1.394200000000000045e+03
1.310000000000000053e-01 6.186420000000000252e-01 1.315064500000000081e+01 1.293999999999999773e+02 1.394019999999999982e+03
1.320000000000000062e-01 6.184534999999999894e-01 1.246038000000000068e+01 1.287775000000000034e+02 1.393840000000000146e+03
1.330000000000000071e-01 6.182600000000000318e-01 1.176038999999999923e+01 1.281349999999999909e+02 1.393644999999999982e+03
1.340000000000000080e-01 6.180630000000000290e-01 1.105409500000000023e+01 1.274774999999999920e+02 1.393450000000000045e+03
1.350000000000000089e-01 6.178645000000000387e-01 1.034554499999999955e+01 1.268114999999999952e+02 1.393244999999999891e+03
1.360000000000000098e-01 6.176675000000000360e-01 9.639079999999999870e+00 1.261444999999999936e+02 1.393045000000000073e+03
1.370000000000000107e-01 6.174729999999999386e-01 8.939325000000000188e+00 1.254840000000000089e+02 1.392845000000000027e+03
1.380000000000000115e-01 6.172834999999999850e-01 8.251160000000000494e+00 1.248375000000000057e+02 1.392644999999999982e+03
1.390000000000000124e-01 6.171010000000000106e-01 7.579200000000000159e+00 1.242115000000000009e+02 1.392454999999999927e+03
1.400000000000000133e-01 6.169284999999999908e-01 6.928144999999999776e+00 1.236140000000000043e+02 1.392269999999999982e+03
1.410000000000000142e-01 6.167664999999999953e-01 6.302200000000000024e+00 1.230510000000000019e+02 1.392085000000000036e+03
1.420000000000000151e-01 6.166169999999999707e-01 5.705230000000000246e+00 1.225285000000000082e+02 1.391920000000000073e+03
1.430000000000000160e-01 6.164819999999999744e-01 5.140530000000000044e+00 1.220500000000000114e+02 1.391764999999999873e+03
1.440000000000000169e-01 6.163609999999999367e-01 4.610735000000000028e+00 1.216204999999999927e+02 1.391625000000000000e+03
1.450000000000000178e-01 6.162549999999999972e-01 4.117810000000000414e+00 1.212419999999999902e+02 1.391494999999999891e+03
1.459999999999999909e-01 6.161645000000000039e-01 3.662924999999999986e+00 1.209145000000000039e+02 1.391380000000000109e+03
1.469999999999999918e-01 6.160889999999999977e-01 3.246525000000000105e+00 1.206384999999999934e+02 1.391280000000000200e+03
1.479999999999999927e-01 6.160274999999999501e-01 2.868274999999999686e+00 1.204124999999999943e+02 1.391195000000000164e+03
1.489999999999999936e-01 6.159799999999999720e-01 2.527159999999999851e+00 1.202339999999999947e+02 1.391125000000000000e+03
1.499999999999999944e-01 6.159440000000000470e-01 2.221509999999999874e+00 1.200980000000000132e+02 1.391070000000000164e+03
1.509999999999999953e-01 6.159189999999999943e-01 1.949085000000000178e+00 1.200014999999999930e+02 1.391025000000000091e+03
1.519999999999999962e-01 6.159029999999999783e-01 1.707219999999999960e+00 1.199379999999999882e+02 1.390989999999999782e+03
1.529999999999999971e-01 6.158939999999999415e-01 1.492879999999999985e+00 1.199014999999999986e+02 1.390965000000000146e+03
1.539999999999999980e-01 6.158915000000000362e-01 1.302795000000000147e+00 1.198864999999999981e+02 1.390940000000000055e+03
1.549999999999999989e-01 6.158915000000000362e-01 1.133595000000000130e+00 1.198864999999999981e+02 1.390934999999999945e+03
1.559999999999999998e-01 6.158939999999999415e-01 9.818765000000000409e-01 1.198954999999999984e+02 1.390920000000000073e+03
1.570000000000000007e-01 6.158964999999999579e-01 8.443389999999999507e-01 1.199074999999999989e+02 1.390914999999999964e+03
1.580000000000000016e-01 6.158984999999999044e-01 7.178419999999999801e-01 1.199170000000000016e+02 1.390910000000000082e+03
1.590000000000000024e-01 6.158974999999999866e-01 5.994909999999999961e-01 1.199194999999999993e+02 1.390905000000000200e+03
