# t [s], A [cm^2], U [cm/s], P [cPa], c [cm/s]
1.000000000000000021e-03 5.004394999999999261e-01 2.772499999999997189e-03 1.019410000000000025e+02 1.432079999999999927e+03
2.000000000000000042e-03 5.004334999999999756e-01 1.285325000000000139e-03 1.019234999999999900e+02 1.432069999999999936e+03
3.000000000000000062e-03 5.004735000000000156e-01 8.014784999999999271e-02 1.019950000000000045e+02 1.432099999999999909e+03
4.000000000000000083e-03 5.005180000000000184e-01 1.675348499999999852e-01 1.020969999999999942e+02 1.432130000000000109e+03
5.000000000000000104e-03 5.005124999999999158e-01 1.614504999999999968e-01 1.020870000000000033e+02 1.432134999999999991e+03
6.000000000000000125e-03 5.004705000000000403e-01 8.247999999999999776e-02 1.019449999999999932e+02 1.432099999999999909e+03
7.000000000000000146e-03 5.004260000000000375e-01 -6.825999999999998735e-03 1.017295000000000016e+02 1.432045000000000073e+03
8.000000000000000167e-03 5.003670000000000062e-01 -1.308934999999999960e-01 1.014234999999999900e+02 1.431974999999999909e+03
9.000000000000001055e-03 5.002655000000000296e-01 -3.469849999999999879e-01 1.009555000000000007e+02 1.431855000000000018e+03
1.000000000000000194e-02 5.001150000000000873e-01 -6.669249999999998790e-01 1.002816499999999991e+02 1.431674999999999955e+03
1.099999999999999936e-02 4.999084999999999779e-01 -1.090810000000000057e+00 9.937014999999999532e+01 1.431434999999999945e+03
1.200000000000000025e-02 4.996359999999999690e-01 -1.628279999999999728e+00 9.818074999999998909e+01 1.431110000000000127e+03
1.300000000000000114e-02 4.992950000000000443e-01 -2.266154999999999919e+00 9.669499999999999318e+01 1.430694999999999936e+03
1.400000000000000203e-02 4.989069999999999894e-01 -2.938169999999999948e+00 9.496229999999999905e+01 1.430204999999999927e+03
1.499999999999999944e-02 4.985129999999999839e-01 -3.536030000000000229e+00 9.310240000000000293e+01 1.429650000000000091e+03
1.600000000000000033e-02 4.981539999999999857e-01 -3.950904999999999667e+00 9.126460000000000150e+01 1.429090000000000146e+03
1.700000000000000122e-02 4.978545000000000331e-01 -4.112488499999999547e+00 8.957605000000000928e+01 1.428545000000000073e+03
1.800000000000000211e-02 4.976160000000000028e-01 -4.005838999999999928e+00 8.810550000000000637e+01 1.428034999999999854e+03
1.900000000000000300e-02 4.974219999999999753e-01 -3.666216224999999884e+00 8.685370000000000346e+01 1.427579999999999927e+03
2.000000000000000042e-02 4.972465000000000357e-01 -3.160413500000000209e+00 8.576519999999999300e+01 1.427159999999999854e+03
2.100000000000000130e-02 4.970609999999999751e-01 -2.563483999999999874e+00 8.475345000000000084e+01 1.426755000000000109e+03
2.200000000000000219e-02 4.968464999999999687e-01 -1.937624999999999709e+00 8.373019999999999641e+01 1.426349999999999909e+03
2.299999999999999961e-02 4.965930000000000066e-01 -1.318645000000000067e+00 8.263069999999999027e+01 1.425929999999999836e+03
2.400000000000000050e-02 4.963049999999999962e-01 -7.132550000000001944e-01 8.142725000000000080e+01 1.425490000000000009e+03
2.500000000000000139e-02 4.959924999999999473e-01 -1.070649999999999658e-01 8.012809999999998922e+01 1.425019999999999982e+03
2.600000000000000228e-02 4.956699999999999995e-01 5.212099999999999511e-01 7.876449999999999818e+01 1.424534999999999854e+03
2.700000000000000316e-02 4.953480000000000105e-01 1.185159999999999769e+00 7.737215000000000487e+01 1.424034999999999854e+03
2.800000000000000058e-02 4.950275000000000092e-01 1.880715000000000137e+00 7.597409999999999286e+01 1.423534999999999854e+03
2.900000000000000147e-02 4.947050000000000058e-01 2.582844999999999835e+00 7.457025000000000148e+01 1.423025000000000091e+03
3.000000000000000236e-02 4.943680000000000296e-01 3.248714999999999797e+00 7.313495000000000346e+01 1.422509999999999991e+03
3.099999999999999978e-02 4.940019999999999967e-01 3.825489999999999835e+00 7.162210000000000321e+01 1.421970000000000027e+03
3.200000000000000067e-02 4.935904999999999876e-01 4.260625000000000107e+00 6.997579999999999245e+01 1.421394999999999982e+03
3.300000000000000155e-02 4.931235000000000479e-01 4.512450000000000294e+00 6.814430000000000121e+01 1.420775000000000091e+03
3.400000000000000244e-02 4.925960000000000338e-01 4.558624999999999261e+00 6.609404999999999575e+01 1.420099999999999909e+03
3.500000000000000333e-02 4.920145000000000213e-01 4.401085000000000136e+00 6.382004999999999484e+01 1.419360000000000127e+03
3.600000000000000422e-02 4.913899999999999935e-01 4.066100000000000492e+00 6.135155000000000314e+01 1.418569999999999936e+03
3.700000000000000511e-02 4.907449999999999868e-01 3.600325000000000220e+00 5.875070000000000192e+01 1.417740000000000009e+03
3.799999999999999906e-02 4.901024999999999965e-01 3.063134999999999497e+00 5.610569999999999879e+01 1.416889999999999873e+03
3.899999999999999994e-02 4.894884999999999931e-01 2.518695000000000128e+00 5.352015000000000100e+01 1.416049999999999955e+03
4.000000000000000083e-02 4.889280000000000292e-01 2.027955000000000396e+00 5.110190000000000055e+01 1.415250000000000000e+03
4.100000000000000172e-02 4.884399999999999853e-01 1.643174999999999830e+00 4.895139999999999958e+01 1.414514999999999873e+03
4.200000000000000261e-02 4.880415000000000170e-01 1.404610000000000358e+00 4.715415000000000134e+01 1.413875000000000000e+03
4.300000000000000350e-02 4.877414999999999945e-01 1.339740000000000375e+00 4.577524999999999977e+01 1.413360000000000127e+03
4.400000000000000439e-02 4.875464999999999938e-01 1.464409999999999989e+00 4.485750000000000171e+01 1.412970000000000027e+03
4.499999999999999833e-02 4.874585000000000168e-01 1.785123500000000085e+00 4.442255000000000109e+01 1.412724999999999909e+03
4.599999999999999922e-02 4.874764999999999793e-01 2.301864999999999828e+00 4.447379999999999711e+01 1.412634999999999991e+03
4.700000000000000011e-02 4.875955000000000150e-01 3.010670000000000179e+00 4.500069999999999482e+01 1.412690000000000055e+03
4.800000000000000100e-02 4.878129999999999966e-01 3.905460000000000154e+00 4.598269999999999413e+01 1.412900000000000091e+03
4.900000000000000189e-02 4.881219999999999448e-01 4.978985500000000286e+00 4.739269999999999783e+01 1.413244999999999891e+03
5.000000000000000278e-02 4.885169999999999790e-01 6.222790999999999961e+00 4.919969999999999999e+01 1.413724999999999909e+03
5.100000000000000366e-02 4.889919999999999822e-01 7.626490000000000435e+00 5.136965000000000003e+01 1.414329999999999927e+03
5.200000000000000455e-02 4.895374999999999588e-01 9.176854999999999762e+00 5.386560000000000059e+01 1.415054999999999836e+03
5.300000000000000544e-02 4.901469999999999994e-01 1.085708499999999965e+01 5.664789999999999281e+01 1.415875000000000000e+03
5.399999999999999939e-02 4.908095000000000097e-01 1.264646000000000114e+01 5.967340000000000089e+01 1.416784999999999854e+03
5.500000000000000028e-02 4.915140000000000065e-01 1.452036999999999978e+01 6.289600000000000080e+01 1.417775000000000091e+03
5.600000000000000117e-02 4.922505000000000353e-01 1.645144499999999965e+01 6.626715000000000089e+01 1.418820000000000164e+03
5.700000000000000205e-02 4.930065000000000142e-01 1.841064000000000078e+01 6.973725000000000307e+01 1.419914999999999964e+03
5.800000000000000294e-02 4.937719999999999887e-01 2.036885000000000190e+01 7.325730000000000075e+01 1.421039999999999964e+03
5.900000000000000383e-02 4.945359999999999756e-01 2.229840000000000089e+01 7.678109999999999502e+01 1.422190000000000055e+03
6.000000000000000472e-02 4.952904999999999669e-01 2.417449999999999832e+01 8.026714999999998668e+01 1.423335000000000036e+03
6.099999999999999867e-02 4.960280000000000244e-01 2.597629999999999839e+01 8.368025000000000091e+01 1.424469999999999800e+03
6.199999999999999956e-02 4.967439999999999634e-01 2.768744999999999834e+01 8.699320000000000164e+01 1.425585000000000036e+03
6.300000000000000044e-02 4.974349999999999605e-01 2.929659999999999798e+01 9.018715000000000259e+01 1.426675000000000182e+03
6.400000000000000133e-02 4.980994999999999728e-01 3.079729999999999990e+01 9.325130000000000052e+01 1.427735000000000127e+03
6.500000000000000222e-02 4.987380000000000146e-01 3.218724999999999881e+01 9.618434999999999491e+01 1.428759999999999991e+03
6.600000000000000311e-02 4.993524999999999769e-01 3.346829999999999927e+01 9.899039999999999395e+01 1.429750000000000000e+03
6.700000000000000400e-02 4.999454999999999871e-01 3.464520000000000266e+01 1.016804500000000075e+02 1.430710000000000036e+03
6.800000000000000488e-02 5.005209999999999937e-01 3.572514999999999930e+01 1.042702500000000043e+02 1.431634999999999991e+03
6.900000000000000577e-02 5.010820000000000274e-01 3.671710000000000207e+01 1.067779500000000041e+02 1.432534999999999854e+03
7.000000000000000666e-02 5.016340000000000243e-01 3.763094999999999857e+01 1.092240000000000038e+02 1.433414999999999964e+03
7.100000000000000755e-02 5.021799999999999597e-01 3.847670000000000101e+01 1.116274999999999977e+02 1.434279999999999973e+03
7.200000000000000844e-02 5.027239999999999487e-01 3.926420000000000243e+01 1.140080000000000098e+02 1.435134999999999991e+03
7.300000000000000933e-02 5.032699999999999951e-01 4.000244999999999607e+01 1.163804999999999978e+02 1.435984999999999900e+03
7.399999999999999634e-02 5.038184999999999469e-01 4.069894999999999641e+01 1.187590000000000003e+02 1.436829999999999927e+03
7.499999999999999722e-02 5.043714999999999726e-01 4.135944999999999538e+01 1.211495000000000033e+02 1.437684999999999945e+03
7.599999999999999811e-02 5.049295000000000311e-01 4.198734999999999928e+01 1.235575000000000045e+02 1.438534999999999854e+03
7.699999999999999900e-02 5.054909999999999126e-01 4.258400000000000318e+01 1.259795000000000016e+02 1.439394999999999982e+03
7.799999999999999989e-02 5.060544999999999627e-01 4.314799999999999613e+01 1.284080000000000155e+02 1.440255000000000109e+03
7.900000000000000078e-02 5.066154999999999964e-01 4.367580000000000240e+01 1.308310000000000173e+02 1.441110000000000127e+03
8.000000000000000167e-02 5.071710000000000385e-01 4.416190000000000282e+01 1.332325000000000159e+02 1.441960000000000036e+03
8.100000000000000255e-02 5.077159999999999451e-01 4.459905000000000541e+01 1.355925000000000011e+02 1.442800000000000182e+03
8.200000000000000344e-02 5.082450000000000578e-01 4.497894999999999754e+01 1.378870000000000005e+02 1.443619999999999891e+03
8.300000000000000433e-02 5.087530000000000108e-01 4.529274999999999807e+01 1.400929999999999893e+02 1.444409999999999854e+03
8.400000000000000522e-02 5.092345000000000343e-01 4.553164999999999907e+01 1.421864999999999952e+02 1.445174999999999955e+03
8.500000000000000611e-02 5.096849999999999437e-01 4.568744999999999834e+01 1.441454999999999984e+02 1.445894999999999982e+03
8.600000000000000699e-02 5.100999999999999979e-01 4.575289999999999679e+01 1.459474999999999909e+02 1.446565000000000055e+03
8.700000000000000788e-02 5.104755000000000820e-01 4.572244999999999493e+01 1.475779999999999745e+02 1.447184999999999945e+03
8.800000000000000877e-02 5.108095000000000274e-01 4.559215000000000373e+01 1.490210000000000150e+02 1.447740000000000009e+03
8.899999999999999578e-02 5.110995000000000399e-01 4.536025000000000063e+01 1.502685000000000173e+02 1.448235000000000127e+03
8.999999999999999667e-02 5.113459999999999672e-01 4.502700000000000102e+01 1.513160000000000025e+02 1.448664999999999964e+03
9.099999999999999756e-02 5.115480000000000027e-01 4.459484999999999388e+01 1.521639999999999873e+02 1.449029999999999973e+03
9.199999999999999845e-02 5.117074999999999818e-01 4.406835000000000235e+01 1.528154999999999859e+02 1.449324999999999818e+03
9.299999999999999933e-02 5.118260000000000032e-01 4.345390000000000441e+01 1.532814999999999941e+02 1.449554999999999836e+03
9.400000000000000022e-02 5.119070000000000009e-01 4.275964999999999350e+01 1.535729999999999791e+02 1.449730000000000018e+03
9.500000000000000111e-02 5.119534999999999503e-01 4.199514999999999532e+01 1.537059999999999889e+02 1.449844999999999800e+03
9.600000000000000200e-02 5.119694999999999663e-01 4.117109999999999559e+01 1.536984999999999957e+02 1.449909999999999854e+03
9.700000000000000289e-02 5.119599999999999707e-01 4.029909999999999570e+01 1.535704999999999814e+02 1.449924999999999955e+03
9.800000000000000377e-02 5.119285000000000085e-01 3.939090000000000202e+01 1.533429999999999893e+02 1.449905000000000200e+03
9.900000000000000466e-02 5.118800000000000017e-01 3.845870000000000033e+01 1.530364999999999895e+02 1.449849999999999909e+03
1.000000000000000056e-01 5.118190000000000239e-01 3.751420000000000243e+01 1.526725000000000136e+02 1.449765000000000100e+03
1.010000000000000064e-01 5.117490000000000094e-01 3.656850000000000023e+01 1.522694999999999936e+02 1.449664999999999964e+03
1.020000000000000073e-01 5.116745000000000321e-01 3.563185000000000002e+01 1.518469999999999800e+02 1.449550000000000182e+03
1.030000000000000082e-01 5.115990000000000260e-01 3.471309999999999718e+01 1.514194999999999993e+02 1.449424999999999955e+03
1.040000000000000091e-01 5.115245000000000486e-01 3.381974999999999909e+01 1.510009999999999764e+02 1.449299999999999955e+03
1.050000000000000100e-01 5.114535000000000053e-01 3.295765000000000100e+01 1.506024999999999920e+02 1.449174999999999955e+03
1.059999999999999970e-01 5.113870000000000360e-01 3.213064999999999571e+01 1.502305000000000064e+02 1.449049999999999955e+03
1.069999999999999979e-01 5.113259999999999472e-01 3.134100000000000108e+01 1.498884999999999934e+02 1.448934999999999945e+03
1.079999999999999988e-01 5.112710000000000310e-01 3.058905000000000030e+01 1.495785000000000196e+02 1.448825000000000045e+03
1.089999999999999997e-01 5.112200000000000077e-01 2.987344999999999828e+01 1.492984999999999900e+02 1.448720000000000027e+03
1.100000000000000006e-01 5.111734999999999474e-01 2.919129999999999825e+01 1.490425000000000182e+02 1.448625000000000000e+03
1.110000000000000014e-01 5.111290000000000555e-01 2.853839999999999932e+01 1.488050000000000068e+02 1.448539999999999964e+03
1.120000000000000023e-01 5.110844999999999416e-01 2.790934999999999988e+01 1.485765000000000100e+02 1.448449999999999818e+03
1.130000000000000032e-01 5.110379999999999923e-01 2.729829999999999757e+01 1.483470000000000084e+02 1.448365000000000009e+03
1.140000000000000041e-01 5.109875000000000389e-01 2.669870000000000232e+01 1.481064999999999827e+02 1.448275000000000091e+03
1.150000000000000050e-01 5.109295000000000364e-01 2.610390000000000299e+01 1.478425000000000011e+02 1.448179999999999836e+03
1.160000000000000059e-01 5.108630000000000670e-01 2.550739999999999696e+01 1.475450000000000159e+02 1.448075000000000045e+03
1.170000000000000068e-01 5.107859999999999623e-01 2.490319999999999823e+01 1.472044999999999959e+02 1.447954999999999927e+03
1.180000000000000077e-01 5.106954999999999689e-01 2.428600000000000136e+01 1.468114999999999952e+02 1.447825000000000045e+03
1.190000000000000085e-01 5.105914999999999759e-01 2.365129999999999910e+01 1.463605000000000018e+02 1.447674999999999955e+03
1.200000000000000094e-01 5.104730000000000656e-01 2.299589999999999890e+01 1.458455000000000155e+02 1.447505000000000109e+03
1.209999999999999964e-01 5.103389999999999871e-01 2.231755000000000067e+01 1.452644999999999982e+02 1.447315000000000055e+03
1.219999999999999973e-01 5.101900000000000324e-01 2.161560000000000059e+01 1.446159999999999854e+02 1.447105000000000018e+03
1.229999999999999982e-01 5.100274999999999670e-01 2.089055000000000106e+01 1.439030000000000200e+02 1.446880000000000109e+03
1.239999999999999991e-01 5.098510000000000542e-01 2.014430000000000121e+01 1.431295000000000073e+02 1.446625000000000000e+03
1.250000000000000000e-01 5.096629999999999772e-01 1.937999999999999901e+01 1.423019999999999925e+02 1.446360000000000127e+03
1.260000000000000009e-01 5.094659999999999744e-01 1.860210000000000008e+01 1.414284999999999854e+02 1.446070000000000164e+03
1.270000000000000018e-01 5.092609999999999637e-01 1.781575000000000131e+01 1.405194999999999936e+02 1.445775000000000091e+03
1.280000000000000027e-01 5.090520000000000600e-01 1.702725000000000222e+01 1.395860000000000127e+02 1.445465000000000146e+03
1.290000000000000036e-01 5.088409999999999878e-01 1.624334999999999951e+01 1.386399999999999864e+02 1.445150000000000091e+03
1.300000000000000044e-01 5.086310000000000553e-01 1.547122500000000045e+01 1.376949999999999932e+02 1.444829999999999927e+03
1.310000000000000053e-01 5.084245000000000569e-01 1.471814999999999962e+01 1.367640000000000100e+02 1.444519999999999982e+03
1.320000000000000062e-01 5.082254999999999967e-01 1.399131500000000017e+01 1.358584999999999923e+02 1.444204999999999927e+03
1.330000000000000071e-01 5.080344999999999445e-01 1.329751000000000083e+01 1.349909999999999854e+02 1.443904999999999973e+03
1.340000000000000080e-01 5.078559999999999741e-01 1.264290999999999876e+01 1.341725000000000136e+02 1.443619999999999891e+03
1.350000000000000089e-01 5.076899999999999746e-01 1.203290499999999952e+01 1.334110000000000014e+02 1.443345000000000027e+03
1.360000000000000098e-01 5.075389999999999624e-01 1.147190499999999957e+01 1.327155000000000200e+02 1.443089999999999918e+03
1.370000000000000107e-01 5.074035000000000073e-01 1.096308999999999934e+01 1.320900000000000034e+02 1.442860000000000127e+03
1.380000000000000115e-01 5.072845000000000271e-01 1.050855499999999942e+01 1.315380000000000109e+02 1.442650000000000091e+03
1.390000000000000124e-01 5.071820000000000217e-01 1.010909499999999994e+01 1.310610000000000070e+02 1.442465000000000146e+03
1.400000000000000133e-01 5.070955000000000323e-01 9.764330000000001064e+00 1.306585000000000036e+02 1.442305000000000064e+03
1.410000000000000142e-01 5.070234999999999603e-01 9.472529999999999006e+00 1.303260000000000218e+02 1.442164999999999964e+03
1.420000000000000151e-01 5.069660000000000277e-01 9.231189999999999785e+00 1.300600000000000023e+02 1.442045000000000073e+03
1.430000000000000160e-01 5.069215000000000249e-01 9.036704999999999544e+00 1.298534999999999968e+02 1.441949999999999818e+03
1.440000000000000169e-01 5.068869999999999765e-01 8.884714999999999918e+00 1.296995000000000005e+02 1.441869999999999891e+03
1.450000000000000178e-01 5.068615000000000759e-01 8.770400000000000418e+00 1.295894999999999868e+02 1.441809999999999945e+03
1.459999999999999909e-01 5.068429999999999325e-01 8.688470000000000582e+00 1.295144999999999982e+02 1.441759999999999991e+03
1.469999999999999918e-01 5.068300000000000027e-01 8.633480000000000487e+00 1.294655000000000200e+02 1.441720000000000027e+03
1.479999999999999927e-01 5.068189999999999085e-01 8.600055000000001115e+00 1.294345000000000141e+02 1.441684999999999945e+03
1.489999999999999936e-01 5.068104999999999416e-01 8.582929999999999282e+00 1.294124999999999943e+02 1.441664999999999964e+03
1.499999999999999944e-01 5.068015000000000159e-01 8.577149999999999608e+00 1.293930000000000007e+02 1.441644999999999982e+03
1.509999999999999953e-01 5.067915000000000614e-01 8.578150000000000830e+00 1.293685000000000116e+02 1.441619999999999891e+03
1.519999999999999962e-01 5.067789999999999795e-01 8.581970000000000098e+00 1.293344999999999914e+02 1.441599999999999909e+03
1.529999999999999971e-01 5.067630000000000745e-01 8.585180000000001144e+00 1.292855000000000132e+02 1.441579999999999927e+03
1.539999999999999980e-01 5.067429999999999435e-01 8.584859999999999047e+00 1.292199999999999989e+02 1.441549999999999955e+03
1.549999999999999989e-01 5.067194999999999894e-01 8.578929999999999723e+00 1.291349999999999909e+02 1.441514999999999873e+03
1.559999999999999998e-01 5.066915000000000724e-01 8.565699999999999648e+00 1.290305000000000177e+02 1.441480000000000018e+03
1.570000000000000007e-01 5.066595000000000404e-01 8.544114999999999682e+00 1.289060000000000059e+02 1.441440000000000055e+03
1.580000000000000016e-01 5.066230000000000455e-01 8.513754999999999740e+00 1.287624999999999886e+02 1.441389999999999873e+03
1.590000000000000024e-01 5.065834999999999644e-01 8.474474999999999980e+00 1.286024999999999920e+02 1.441340000000000146e+03
