# t [s], A [cm^2], U [cm/s], P [cPa], c [cm/s]
1.000000000000000021e-03 6.968309999999999782e-01 4.176600000000002533e-03 1.029070000000000107e+02 1.645335000000000036e+03
2.000000000000000042e-03 6.968244999999999578e-01 6.050499999999999455e-03 1.028845000000000027e+02 1.645325000000000045e+03
3.000000000000000062e-03 6.968989999999999352e-01 1.311881000000000019e-01 1.030229999999999961e+02 1.645360000000000127e+03
4.000000000000000083e-03 6.969384999999999053e-01 2.105081000000000035e-01 1.031225000000000023e+02 1.645384999999999991e+03
5.000000000000000104e-03 6.968864999999999643e-01 1.454455000000000053e-01 1.029925000000000068e+02 1.645359999999999900e+03
6.000000000000000125e-03 6.968099999999999294e-01 3.214400000000000590e-02 1.027094999999999914e+02 1.645305000000000064e+03
7.000000000000000146e-03 6.967280000000000140e-01 -1.021759999999999891e-01 1.023249999999999886e+02 1.645224999999999909e+03
8.000000000000000167e-03 6.965799999999999770e-01 -3.598350000000000160e-01 1.017129999999999939e+02 1.645095000000000027e+03
9.000000000000001055e-03 6.963485000000000369e-01 -7.708050000000000734e-01 1.007899500000000046e+02 1.644904999999999973e+03
1.000000000000000194e-02 6.960250000000000048e-01 -1.339174999999999782e+00 9.950074999999999648e+01 1.644635000000000218e+03
1.099999999999999936e-02 6.955864999999999965e-01 -2.084400000000000031e+00 9.777055000000000007e+01 1.644259999999999991e+03
1.200000000000000025e-02 6.950439999999999952e-01 -2.964074999999999793e+00 9.560040000000000759e+01 1.643789999999999964e+03
1.300000000000000114e-02 6.944634999999999003e-01 -3.831640000000000157e+00 9.315120000000000289e+01 1.643235000000000127e+03
1.400000000000000203e-02 6.939355000000000384e-01 -4.497946999999999917e+00 9.069505000000000905e+01 1.642659999999999854e+03
1.499999999999999944e-02 6.935184999999999267e-01 -4.826264500000000623e+00 8.848625000000001251e+01 1.642110000000000127e+03
1.600000000000000033e-02 6.932205000000000172e-01 -4.782702000000000453e+00 8.665930000000000177e+01 1.641630000000000109e+03
1.700000000000000122e-02 6.930015000000000480e-01 -4.428924999999999557e+00 8.520149999999999579e+01 1.641204999999999927e+03
1.800000000000000211e-02 6.928045000000000453e-01 -3.880770000000000053e+00 8.398650000000000659e+01 1.640835000000000036e+03
1.900000000000000300e-02 6.925755000000000106e-01 -3.257848000000000077e+00 8.284120000000000061e+01 1.640480000000000018e+03
2.000000000000000042e-02 6.922839999999998994e-01 -2.642002500000000254e+00 8.161634999999999707e+01 1.640115000000000009e+03
2.100000000000000130e-02 6.919290000000000163e-01 -2.058095000000000230e+00 8.023629999999999995e+01 1.639724999999999909e+03
2.200000000000000219e-02 6.915335000000000232e-01 -1.482869999999999910e+00 7.870904999999999063e+01 1.639305000000000064e+03
2.299999999999999961e-02 6.911289999999999933e-01 -8.746100000000001096e-01 7.709739999999999327e+01 1.638865000000000009e+03
2.400000000000000050e-02 6.907350000000000989e-01 -2.069449999999997125e-01 7.547175000000000011e+01 1.638420000000000073e+03
2.500000000000000139e-02 6.903529999999999944e-01 5.085100000000002396e-01 7.386619999999999209e+01 1.637980000000000018e+03
2.600000000000000228e-02 6.899649999999999395e-01 1.216965000000000074e+00 7.225499999999999545e+01 1.637530000000000200e+03
2.700000000000000316e-02 6.895364999999999966e-01 1.831260000000000110e+00 7.055410000000000537e+01 1.637065000000000055e+03
2.800000000000000058e-02 6.890304999999999902e-01 2.253115000000000201e+00 6.864230000000000587e+01 1.636559999999999945e+03
2.900000000000000147e-02 6.884149999999999991e-01 2.398179999999999978e+00 6.639669999999999561e+01 1.635980000000000018e+03
3.000000000000000236e-02 6.876774999999999416e-01 2.218309999999999782e+00 6.373049999999999926e+01 1.635325000000000045e+03
3.099999999999999978e-02 6.868254999999999777e-01 1.714749999999999552e+00 6.062409999999999854e+01 1.634570000000000164e+03
3.200000000000000067e-02 6.858904999999999585e-01 9.388100000000001444e-01 5.713854999999999507e+01 1.633730000000000018e+03
3.300000000000000155e-02 6.849195000000000144e-01 -1.994999999999969020e-02 5.340914999999999679e+01 1.632835000000000036e+03
3.400000000000000244e-02 6.839644999999999753e-01 -1.052810000000000024e+00 4.962255000000000393e+01 1.631909999999999854e+03
3.500000000000000333e-02 6.830780000000000740e-01 -2.051520000000000454e+00 4.598565000000000680e+01 1.631009999999999991e+03
3.600000000000000422e-02 6.823029999999999928e-01 -2.923745000000000260e+00 4.269490000000000407e+01 1.630174999999999955e+03
3.700000000000000511e-02 6.816694999999999283e-01 -3.601744999999999752e+00 3.991329999999999956e+01 1.629440000000000055e+03
3.799999999999999906e-02 6.811954999999999538e-01 -4.043944999999999901e+00 3.775710000000000122e+01 1.628835000000000036e+03
3.899999999999999994e-02 6.808874999999999789e-01 -4.231431500000000234e+00 3.629245000000000232e+01 1.628389999999999873e+03
4.000000000000000083e-02 6.807440000000000158e-01 -4.161590000000000344e+00 3.554070000000000107e+01 1.628115000000000009e+03
4.100000000000000172e-02 6.807575000000000154e-01 -3.840959999999999930e+00 3.548874999999999602e+01 1.628000000000000000e+03
4.200000000000000261e-02 6.809184999999999821e-01 -3.279480999999999646e+00 3.610065000000000168e+01 1.628049999999999955e+03
4.300000000000000350e-02 6.812180000000001012e-01 -2.487255000000000216e+00 3.732849999999999824e+01 1.628255000000000109e+03
4.400000000000000439e-02 6.816444999999999865e-01 -1.474210000000000020e+00 3.911899999999999977e+01 1.628610000000000127e+03
4.499999999999999833e-02 6.821865000000000290e-01 -2.519350000000000200e-01 4.141625000000000512e+01 1.629095000000000027e+03
4.599999999999999922e-02 6.828324999999999534e-01 1.163494999999999724e+00 4.416125000000000256e+01 1.629695000000000164e+03
4.700000000000000011e-02 6.835670000000000357e-01 2.749055000000000248e+00 4.728974999999999795e+01 1.630404999999999973e+03
4.800000000000000100e-02 6.843725000000000502e-01 4.473569999999999602e+00 5.073075000000000045e+01 1.631200000000000045e+03
4.900000000000000189e-02 6.852289999999999770e-01 6.298534999999999329e+00 5.440574999999999761e+01 1.632065000000000055e+03
5.000000000000000278e-02 6.861159999999999481e-01 8.179909999999999570e+00 5.823114999999999952e+01 1.632980000000000018e+03
5.100000000000000366e-02 6.870119999999999560e-01 1.007179100000000105e+01 6.212149999999999750e+01 1.633929999999999836e+03
5.200000000000000455e-02 6.878984999999999683e-01 1.192962499999999970e+01 6.599445000000000050e+01 1.634884999999999991e+03
5.300000000000000544e-02 6.887579999999999814e-01 1.371366999999999869e+01 6.977600000000001046e+01 1.635835000000000036e+03
5.399999999999999939e-02 6.895774999999999544e-01 1.539165000000000028e+01 7.340500000000000114e+01 1.636759999999999991e+03
5.500000000000000028e-02 6.903504999999999781e-01 1.693999999999999773e+01 7.683639999999999759e+01 1.637650000000000091e+03
5.600000000000000117e-02 6.910709999999999908e-01 1.834434999999999860e+01 8.004304999999999382e+01 1.638500000000000000e+03
5.700000000000000205e-02 6.917409999999999393e-01 1.959935000000000116e+01 8.301539999999999964e+01 1.639295000000000073e+03
5.800000000000000294e-02 6.923620000000000330e-01 2.070725000000000193e+01 8.576015000000001010e+01 1.640045000000000073e+03
5.900000000000000383e-02 6.929414999999999880e-01 2.167670000000000030e+01 8.829765000000000441e+01 1.640740000000000009e+03
6.000000000000000472e-02 6.934865000000000057e-01 2.252100000000000080e+01 9.065860000000000696e+01 1.641394999999999982e+03
6.099999999999999867e-02 6.940064999999999706e-01 2.325679999999999836e+01 9.288065000000000282e+01 1.642014999999999873e+03
6.199999999999999956e-02 6.945114999999999483e-01 2.390259999999999962e+01 9.500489999999999213e+01 1.642610000000000127e+03
6.300000000000000044e-02 6.950089999999999879e-01 2.447729999999999961e+01 9.707224999999999682e+01 1.643179999999999836e+03
6.400000000000000133e-02 6.955084999999999740e-01 2.499895000000000067e+01 9.912164999999998827e+01 1.643750000000000000e+03
6.500000000000000222e-02 6.960154999999998982e-01 2.548355000000000103e+01 1.011844999999999999e+02 1.644315000000000055e+03
6.600000000000000311e-02 6.965354999999999741e-01 2.594415000000000049e+01 1.032849999999999966e+02 1.644884999999999991e+03
6.700000000000000400e-02 6.970695000000000086e-01 2.638964999999999961e+01 1.054375000000000000e+02 1.645460000000000036e+03
6.800000000000000488e-02 6.976175000000000015e-01 2.682440000000000069e+01 1.076454999999999984e+02 1.646049999999999955e+03
6.900000000000000577e-02 6.981770000000000476e-01 2.724820000000000064e+01 1.099010000000000105e+02 1.646650000000000091e+03
7.000000000000000666e-02 6.987410000000000565e-01 2.765625000000000000e+01 1.121850000000000023e+02 1.647259999999999991e+03
7.100000000000000755e-02 6.993035000000000778e-01 2.804005000000000081e+01 1.144694999999999965e+02 1.647859999999999900e+03
7.200000000000000844e-02 6.998545000000000460e-01 2.838795000000000002e+01 1.167195000000000107e+02 1.648460000000000036e+03
7.300000000000000933e-02 7.003854999999999942e-01 2.868670000000000186e+01 1.188969999999999914e+02 1.649045000000000073e+03
7.399999999999999634e-02 7.008855000000000501e-01 2.892245000000000132e+01 1.209604999999999961e+02 1.649605000000000018e+03
7.499999999999999722e-02 7.013469999999999427e-01 2.908169999999999789e+01 1.228700000000000045e+02 1.650130000000000109e+03
7.599999999999999811e-02 7.017610000000000792e-01 2.915245000000000175e+01 1.245895000000000010e+02 1.650605000000000018e+03
7.699999999999999900e-02 7.021209999999999951e-01 2.912509999999999977e+01 1.260895000000000010e+02 1.651039999999999964e+03
7.799999999999999989e-02 7.024224999999999497e-01 2.899279999999999902e+01 1.273460000000000036e+02 1.651404999999999973e+03
7.900000000000000078e-02 7.026624999999999677e-01 2.875204999999999700e+01 1.283445000000000107e+02 1.651710000000000036e+03
8.000000000000000167e-02 7.028410000000000490e-01 2.840279999999999916e+01 1.290784999999999911e+02 1.651950000000000045e+03
8.100000000000000255e-02 7.029585000000000417e-01 2.794859999999999900e+01 1.295515000000000043e+02 1.652125000000000000e+03
8.200000000000000344e-02 7.030175000000000729e-01 2.739614999999999867e+01 1.297740000000000009e+02 1.652235000000000127e+03
8.300000000000000433e-02 7.030240000000000933e-01 2.675520000000000209e+01 1.297644999999999982e+02 1.652289999999999964e+03
8.400000000000000522e-02 7.029834999999999834e-01 2.603829999999999956e+01 1.295474999999999852e+02 1.652279999999999973e+03
8.500000000000000611e-02 7.029030000000000555e-01 2.525979999999999848e+01 1.291535000000000082e+02 1.652224999999999909e+03
8.600000000000000699e-02 7.027904999999999847e-01 2.443565000000000254e+01 1.286159999999999854e+02 1.652125000000000000e+03
8.700000000000000788e-02 7.026544999999999597e-01 2.358254999999999768e+01 1.279699999999999989e+02 1.651994999999999891e+03
8.800000000000000877e-02 7.025019999999999598e-01 2.271719999999999828e+01 1.272514999999999930e+02 1.651839999999999918e+03
8.899999999999999578e-02 7.023429999999999396e-01 2.185569999999999879e+01 1.264964999999999975e+02 1.651670000000000073e+03
8.999999999999999667e-02 7.021830000000000016e-01 2.101275000000000048e+01 1.257364999999999924e+02 1.651490000000000009e+03
9.099999999999999756e-02 7.020284999999999442e-01 2.020104999999999862e+01 1.250000000000000000e+02 1.651309999999999945e+03
9.199999999999999845e-02 7.018849999999999811e-01 1.943100000000000094e+01 1.243110000000000070e+02 1.651134999999999991e+03
9.299999999999999933e-02 7.017560000000000464e-01 1.870984999999999943e+01 1.236870000000000118e+02 1.650969999999999800e+03
9.400000000000000022e-02 7.016439999999999344e-01 1.804194999999999993e+01 1.231400000000000006e+02 1.650824999999999818e+03
9.500000000000000111e-02 7.015489999999999782e-01 1.742839999999999989e+01 1.226754999999999995e+02 1.650690000000000055e+03
9.600000000000000200e-02 7.014709999999999557e-01 1.686734999999999829e+01 1.222914999999999992e+02 1.650574999999999818e+03
9.700000000000000289e-02 7.014084999999999903e-01 1.635419999999999874e+01 1.219824999999999875e+02 1.650485000000000127e+03
9.800000000000000377e-02 7.013564999999999383e-01 1.588185000000000002e+01 1.217360000000000042e+02 1.650404999999999973e+03
9.900000000000000466e-02 7.013134999999999231e-01 1.544170000000000087e+01 1.215374999999999943e+02 1.650340000000000146e+03
1.000000000000000056e-01 7.012739999999999529e-01 1.502345000000000041e+01 1.213679999999999950e+02 1.650279999999999973e+03
1.010000000000000064e-01 7.012334999999999541e-01 1.461655000000000015e+01 1.212090000000000032e+02 1.650224999999999909e+03
1.020000000000000073e-01 7.011884999999999923e-01 1.421004999999999896e+01 1.210384999999999991e+02 1.650170000000000073e+03
1.030000000000000082e-01 7.011340000000000350e-01 1.379380000000000095e+01 1.208389999999999986e+02 1.650115000000000009e+03
1.040000000000000091e-01 7.010659999999999670e-01 1.335855000000000103e+01 1.205929999999999893e+02 1.650045000000000073e+03
1.050000000000000100e-01 7.009829999999999117e-01 1.289679999999999893e+01 1.202864999999999895e+02 1.649970000000000027e+03
1.059999999999999970e-01 7.008814999999999351e-01 1.240291000000000032e+01 1.199099999999999966e+02 1.649869999999999891e+03
1.069999999999999979e-01 7.007630000000000248e-01 1.187358500000000028e+01 1.194574999999999960e+02 1.649764999999999873e+03
1.079999999999999988e-01 7.006259999999999710e-01 1.130800499999999964e+01 1.189275000000000091e+02 1.649630000000000109e+03
1.089999999999999997e-01 7.004719999999999835e-01 1.070768500000000145e+01 1.183250000000000028e+02 1.649484999999999900e+03
1.100000000000000006e-01 7.003045000000001075e-01 1.007679999999999865e+01 1.176585000000000036e+02 1.649324999999999818e+03
1.110000000000000014e-01 7.001264999999999850e-01 9.421624999999998806e+00 1.169410000000000025e+02 1.649150000000000091e+03
1.120000000000000023e-01 6.999429999999999819e-01 8.750375000000000014e+00 1.161885000000000048e+02 1.648964999999999918e+03
1.130000000000000032e-01 6.997575000000000323e-01 8.072829999999999728e+00 1.154215000000000089e+02 1.648775000000000091e+03
1.140000000000000041e-01 6.995754999999999058e-01 7.399789999999999424e+00 1.146604999999999990e+02 1.648585000000000036e+03
1.150000000000000050e-01 6.994035000000000668e-01 6.742539999999999978e+00 1.139279999999999973e+02 1.648394999999999982e+03
1.160000000000000059e-01 6.992450000000000054e-01 6.112395000000000245e+00 1.132460000000000093e+02 1.648214999999999918e+03
1.170000000000000068e-01 6.991049999999999764e-01 5.520015000000000782e+00 1.126345000000000027e+02 1.648055000000000064e+03
1.180000000000000077e-01 6.989885000000000126e-01 4.974969999999999892e+00 1.121125000000000114e+02 1.647914999999999964e+03
1.190000000000000085e-01 6.988969999999999905e-01 4.485250000000000625e+00 1.116945000000000050e+02 1.647789999999999964e+03
1.200000000000000094e-01 6.988345000000000251e-01 4.056929999999999481e+00 1.113905000000000030e+02 1.647700000000000045e+03
1.209999999999999964e-01 6.988004999999999356e-01 3.693909999999999805e+00 1.112074999999999960e+02 1.647634999999999991e+03
1.219999999999999973e-01 6.987950000000000550e-01 3.397780000000000022e+00 1.111465000000000032e+02 1.647599999999999909e+03
1.229999999999999982e-01 6.988179999999999392e-01 3.167829999999999924e+00 1.112049999999999983e+02 1.647595000000000027e+03
1.239999999999999991e-01 6.988659999999999872e-01 3.001184999999999992e+00 1.113755000000000024e+02 1.647615000000000009e+03
1.250000000000000000e-01 6.989360000000000017e-01 2.892999999999999794e+00 1.116465000000000032e+02 1.647664999999999964e+03
1.260000000000000009e-01 6.990260000000000362e-01 2.836764999999999759e+00 1.120030000000000001e+02 1.647734999999999900e+03
1.270000000000000018e-01 6.991300000000000292e-01 2.824715000000000309e+00 1.124274999999999949e+02 1.647824999999999818e+03
1.280000000000000027e-01 6.992445000000000466e-01 2.848199999999999843e+00 1.129025000000000034e+02 1.647929999999999836e+03
1.290000000000000036e-01 6.993644999999999445e-01 2.898085000000000022e+00 1.134085000000000036e+02 1.648045000000000073e+03
1.300000000000000044e-01 6.994854999999999823e-01 2.965184999999999960e+00 1.139260000000000019e+02 1.648170000000000073e+03
1.310000000000000053e-01 6.996044999999999625e-01 3.040599999999999969e+00 1.144380000000000024e+02 1.648295000000000073e+03
1.320000000000000062e-01 6.997170000000000334e-01 3.116035000000000110e+00 1.149275000000000091e+02 1.648410000000000082e+03
1.330000000000000071e-01 6.998199999999999976e-01 3.184099999999999930e+00 1.153795000000000073e+02 1.648529999999999973e+03
1.340000000000000080e-01 6.999109999999999498e-01 3.238465000000000149e+00 1.157840000000000060e+02 1.648630000000000109e+03
1.350000000000000089e-01 6.999889999999999723e-01 3.274035000000000029e+00 1.161320000000000050e+02 1.648724999999999909e+03
1.360000000000000098e-01 7.000520000000000076e-01 3.287034999999999929e+00 1.164170000000000016e+02 1.648799999999999955e+03
1.370000000000000107e-01 7.000999999999999446e-01 3.275005000000000166e+00 1.166359999999999957e+02 1.648864999999999782e+03
1.380000000000000115e-01 7.001325000000000465e-01 3.236785000000000245e+00 1.167890000000000015e+02 1.648914999999999964e+03
1.390000000000000124e-01 7.001509999999999678e-01 3.172455000000000247e+00 1.168780000000000001e+02 1.648949999999999818e+03
1.400000000000000133e-01 7.001560000000000006e-01 3.083180000000000032e+00 1.169054999999999893e+02 1.648970000000000027e+03
1.410000000000000142e-01 7.001490000000000213e-01 2.971095000000000041e+00 1.168795000000000073e+02 1.648970000000000027e+03
1.420000000000000151e-01 7.001315000000000177e-01 2.839100000000000179e+00 1.168050000000000068e+02 1.648965000000000146e+03
1.430000000000000160e-01 7.001060000000000061e-01 2.690705000000000346e+00 1.166905000000000001e+02 1.648944999999999936e+03
1.440000000000000169e-01 7.000735000000000152e-01 2.529784999999999950e+00 1.165440000000000111e+02 1.648920000000000073e+03
1.450000000000000178e-01 7.000364999999999505e-01 2.360400000000000276e+00 1.163739999999999952e+02 1.648884999999999991e+03
1.459999999999999909e-01 6.999960000000000626e-01 2.186595000000000066e+00 1.161875000000000000e+02 1.648840000000000146e+03
1.469999999999999918e-01 6.999545000000000350e-01 2.012204999999999799e+00 1.159915000000000020e+02 1.648799999999999955e+03
1.479999999999999927e-01 6.999125000000000485e-01 1.840675000000000061e+00 1.157925000000000040e+02 1.648755000000000109e+03
1.489999999999999936e-01 6.998710000000000209e-01 1.674967500000000165e+00 1.155955000000000013e+02 1.648704999999999927e+03
1.499999999999999944e-01 6.998305000000000220e-01 1.517425000000000024e+00 1.154029999999999916e+02 1.648659999999999854e+03
1.509999999999999953e-01 6.997925000000000395e-01 1.369725000000000081e+00 1.152164999999999964e+02 1.648615000000000009e+03
1.519999999999999962e-01 6.997554999999999747e-01 1.232850000000000001e+00 1.150370000000000061e+02 1.648565000000000055e+03
1.529999999999999971e-01 6.997195000000000498e-01 1.107129000000000030e+00 1.148644999999999925e+02 1.648525000000000091e+03
1.539999999999999980e-01 6.996839999999999726e-01 9.922775000000000345e-01 1.146959999999999980e+02 1.648474999999999909e+03
1.549999999999999989e-01 6.996489999999999654e-01 8.874925000000000175e-01 1.145285000000000082e+02 1.648434999999999945e+03
1.559999999999999998e-01 6.996119999999999006e-01 7.915860000000000118e-01 1.143594999999999970e+02 1.648384999999999991e+03
1.570000000000000007e-01 6.995735000000000703e-01 7.030855000000000299e-01 1.141839999999999975e+02 1.648340000000000146e+03
1.580000000000000016e-01 6.995320000000000427e-01 6.203959999999999475e-01 1.139980000000000047e+02 1.648295000000000073e+03
1.590000000000000024e-01 6.994864999999999000e-01 5.419259499999999896e-01 1.137994999999999948e+02 1.648240000000000009e+03
