# t [s], A [cm^2], U [cm/s], P [cPa], c [cm/s]
1.000000000000000021e-03 1.850944999999999951e-01 4.286377500000000396e-01 9.774535000000000196e+01 2.071375000000000000e+03
2.000000000000000042e-03 1.850390000000000090e-01 2.095112000000000307e+00 9.405555000000001087e+01 2.070934999999999945e+03
3.000000000000000062e-03 1.848940000000000028e-01 4.095860499999999682e+00 8.913339999999999463e+01 2.069819999999999709e+03
4.000000000000000083e-03 1.847010000000000041e-01 6.321968499999999658e+00 8.406539999999999679e+01 2.068369999999999891e+03
5.000000000000000104e-03 1.844994999999999830e-01 8.676610000000000156e+00 7.977760000000000673e+01 2.066849999999999909e+03
6.000000000000000125e-03 1.843075000000000130e-01 1.093384000000000000e+01 7.638519999999999754e+01 2.065430000000000291e+03
7.000000000000000146e-03 1.841289999999999871e-01 1.288042500000000068e+01 7.349584999999999013e+01 2.064135000000000218e+03
8.000000000000000167e-03 1.839679999999999926e-01 1.448473500000000058e+01 7.093039999999999168e+01 2.062985000000000127e+03
9.000000000000001055e-03 1.838294999999999790e-01 1.580379999999999896e+01 6.879444999999999766e+01 2.062010000000000218e+03
1.000000000000000194e-02 1.837150000000000172e-01 1.686500000000000199e+01 6.712165000000000248e+01 2.061210000000000036e+03
1.099999999999999936e-02 1.836234999999999951e-01 1.768229999999999791e+01 6.584530000000000882e+01 2.060574999999999818e+03
1.200000000000000025e-02 1.835510000000000197e-01 1.826995000000000147e+01 6.487855000000000416e+01 2.060090000000000146e+03
1.300000000000000114e-02 1.834950000000000192e-01 1.863579999999999970e+01 6.410384999999999422e+01 2.059719999999999800e+03
1.400000000000000203e-02 1.834489999999999732e-01 1.881625000000000014e+01 6.344380000000000308e+01 2.059425000000000182e+03
1.499999999999999944e-02 1.834149999999999947e-01 1.892164999999999964e+01 6.302104999999999535e+01 2.059215000000000146e+03
1.600000000000000033e-02 1.834005000000000218e-01 1.911775000000000091e+01 6.318619999999999948e+01 2.059130000000000109e+03
1.700000000000000122e-02 1.834169999999999967e-01 1.954234999999999900e+01 6.431829999999999359e+01 2.059260000000000218e+03
1.800000000000000211e-02 1.834695000000000076e-01 2.022285000000000110e+01 6.654495000000000005e+01 2.059630000000000109e+03
1.900000000000000300e-02 1.835554999999999826e-01 2.105379999999999896e+01 6.959380000000000166e+01 2.060234999999999673e+03
2.000000000000000042e-02 1.836615000000000053e-01 2.184114999999999895e+01 7.286140000000000327e+01 2.060980000000000018e+03
2.100000000000000130e-02 1.837670000000000137e-01 2.238275000000000148e+01 7.564055000000000462e+01 2.061739999999999782e+03
2.200000000000000219e-02 1.838535000000000030e-01 2.254279999999999973e+01 7.737969999999999970e+01 2.062375000000000000e+03
2.299999999999999961e-02 1.839080000000000159e-01 2.229224999999999923e+01 7.785990000000001032e+01 2.062780000000000200e+03
2.400000000000000050e-02 1.839264999999999928e-01 2.170354999999999990e+01 7.722809999999999775e+01 2.062939999999999600e+03
2.500000000000000139e-02 1.839149999999999952e-01 2.090905000000000058e+01 7.589144999999999186e+01 2.062880000000000109e+03
2.600000000000000228e-02 1.838855000000000073e-01 2.004459999999999908e+01 7.433359999999998990e+01 2.062684999999999945e+03
2.700000000000000316e-02 1.838489999999999847e-01 1.920369999999999777e+01 7.293585000000000207e+01 2.062430000000000291e+03
2.800000000000000058e-02 1.838140000000000052e-01 1.841655000000000086e+01 7.187170000000000414e+01 2.062184999999999945e+03
2.900000000000000147e-02 1.837834999999999885e-01 1.765735000000000099e+01 7.109775000000000489e+01 2.061969999999999800e+03
3.000000000000000236e-02 1.837560000000000027e-01 1.687170000000000059e+01 7.042674999999999841e+01 2.061780000000000200e+03
3.099999999999999978e-02 1.837274999999999880e-01 1.601030000000000086e+01 6.964029999999999632e+01 2.061574999999999818e+03
3.200000000000000067e-02 1.836919999999999942e-01 1.505724999999999980e+01 6.859784999999999400e+01 2.061335000000000036e+03
3.300000000000000155e-02 1.836494999999999933e-01 1.404469999999999885e+01 6.730670000000000641e+01 2.061039999999999964e+03
3.400000000000000244e-02 1.836019999999999874e-01 1.304964999999999975e+01 6.593325000000000102e+01 2.060704999999999927e+03
3.500000000000000333e-02 1.835555000000000103e-01 1.217450000000000010e+01 6.475660000000000593e+01 2.060380000000000109e+03
3.600000000000000422e-02 1.835195000000000021e-01 1.151825000000000010e+01 6.408129999999999882e+01 2.060119999999999891e+03
3.700000000000000511e-02 1.835029999999999994e-01 1.114825000000000088e+01 6.414079999999999870e+01 2.059989999999999782e+03
3.799999999999999906e-02 1.835105000000000208e-01 1.108070000000000022e+01 6.502254999999999541e+01 2.060029999999999745e+03
3.899999999999999994e-02 1.835439999999999849e-01 1.127479999999999905e+01 6.663595000000000823e+01 2.060250000000000000e+03
4.000000000000000083e-02 1.835994999999999988e-01 1.164144999999999897e+01 6.872860000000000014e+01 2.060630000000000109e+03
4.100000000000000172e-02 1.836679999999999979e-01 1.206169999999999831e+01 7.094139999999998736e+01 2.061099999999999909e+03
4.200000000000000261e-02 1.837374999999999980e-01 1.240899999999999892e+01 7.288204999999999245e+01 2.061585000000000036e+03
4.300000000000000350e-02 1.837969999999999882e-01 1.257019999999999982e+01 7.419855000000001155e+01 2.062010000000000218e+03
4.400000000000000439e-02 1.838359999999999994e-01 1.246085000000000065e+01 7.463425000000000864e+01 2.062284999999999854e+03
4.499999999999999833e-02 1.838454999999999950e-01 1.203299999999999947e+01 7.405760000000000787e+01 2.062364999999999782e+03
4.599999999999999922e-02 1.838214999999999988e-01 1.127517500000000084e+01 7.246314999999999884e+01 2.062210000000000036e+03
4.700000000000000011e-02 1.837644999999999973e-01 1.020719499999999869e+01 6.995130000000000337e+01 2.061815000000000055e+03
4.800000000000000100e-02 1.836760000000000059e-01 8.871665000000000134e+00 6.669474999999999909e+01 2.061199999999999818e+03
4.900000000000000189e-02 1.835614999999999886e-01 7.324775000000000702e+00 6.290184999999999604e+01 2.060404999999999745e+03
5.000000000000000278e-02 1.834270000000000067e-01 5.628915000000000113e+00 5.878589999999999804e+01 2.059460000000000036e+03
5.100000000000000366e-02 1.832794999999999841e-01 3.847628999999999966e+00 5.454444999999999766e+01 2.058420000000000073e+03
5.200000000000000455e-02 1.831249999999999822e-01 2.042930000000000135e+00 5.034994999999999976e+01 2.057335000000000036e+03
5.300000000000000544e-02 1.829704999999999804e-01 2.747649999999999260e-01 4.634989999999999810e+01 2.056239999999999782e+03
5.399999999999999939e-02 1.828204999999999969e-01 -1.398694999999999800e+00 4.267199999999999704e+01 2.055184999999999945e+03
5.500000000000000028e-02 1.826804999999999957e-01 -2.920799500000000215e+00 3.943064999999999998e+01 2.054190000000000055e+03
5.600000000000000117e-02 1.825559999999999961e-01 -4.236760000000000304e+00 3.673199999999999932e+01 2.053295000000000073e+03
5.700000000000000205e-02 1.824494999999999867e-01 -5.295045000000000002e+00 3.467464999999999975e+01 2.052539999999999964e+03
5.800000000000000294e-02 1.823675000000000157e-01 -6.049654999999999561e+00 3.334685000000000343e+01 2.051940000000000055e+03
5.900000000000000383e-02 1.823104999999999865e-01 -6.462949999999999307e+00 3.282079999999999842e+01 2.051530000000000200e+03
6.000000000000000472e-02 1.822845000000000160e-01 -6.508510000000000240e+00 3.314495000000000147e+01 2.051320000000000164e+03
6.099999999999999867e-02 1.822885000000000200e-01 -6.173470000000000013e+00 3.433740000000000236e+01 2.051329999999999927e+03
6.199999999999999956e-02 1.823250000000000148e-01 -5.459870000000000445e+00 3.638170000000000215e+01 2.051565000000000055e+03
6.300000000000000044e-02 1.823934999999999862e-01 -4.384854999999999947e+00 3.922545000000000215e+01 2.052019999999999982e+03
6.400000000000000133e-02 1.824915000000000009e-01 -2.979594799999999655e+00 4.278294999999999959e+01 2.052690000000000055e+03
6.500000000000000222e-02 1.826169999999999738e-01 -1.287210000000000187e+00 4.694100000000000250e+01 2.053554999999999836e+03
6.600000000000000311e-02 1.827650000000000108e-01 6.400050000000001571e-01 5.156674999999999898e+01 2.054579999999999927e+03
6.700000000000000400e-02 1.829319999999999835e-01 2.743800000000000239e+00 5.651675000000000182e+01 2.055744999999999891e+03
6.800000000000000488e-02 1.831119999999999970e-01 4.963225500000000068e+00 6.164634999999999820e+01 2.057010000000000218e+03
6.900000000000000577e-02 1.833015000000000061e-01 7.237820000000000142e+00 6.681749999999999545e+01 2.058335000000000036e+03
7.000000000000000666e-02 1.834935000000000038e-01 9.510395000000000820e+00 7.190649999999999409e+01 2.059699999999999818e+03
7.100000000000000755e-02 1.836860000000000159e-01 1.172983499999999957e+01 7.680959999999998900e+01 2.061060000000000400e+03
7.200000000000000844e-02 1.838730000000000087e-01 1.385282000000000124e+01 8.144700000000000273e+01 2.062394999999999982e+03
7.300000000000000933e-02 1.840519999999999934e-01 1.584584999999999866e+01 8.576599999999999113e+01 2.063675000000000182e+03
7.399999999999999634e-02 1.842209999999999959e-01 1.768585000000000207e+01 8.974145000000000039e+01 2.064890000000000327e+03
7.499999999999999722e-02 1.843799999999999883e-01 1.936054999999999993e+01 9.337479999999999336e+01 2.066034999999999854e+03
7.599999999999999811e-02 1.845275000000000110e-01 2.086814999999999998e+01 9.669249999999999545e+01 2.067099999999999909e+03
7.699999999999999900e-02 1.846639999999999948e-01 2.221600000000000108e+01 9.974009999999999820e+01 2.068090000000000146e+03
7.799999999999999989e-02 1.847920000000000118e-01 2.341904999999999859e+01 1.025771000000000015e+02 2.069015000000000327e+03
7.900000000000000078e-02 1.849125000000000074e-01 2.449745000000000061e+01 1.052710000000000008e+02 2.069894999999999982e+03
8.000000000000000167e-02 1.850279999999999980e-01 2.547455000000000069e+01 1.078919999999999959e+02 2.070734999999999673e+03
8.100000000000000255e-02 1.851399999999999990e-01 2.637424999999999997e+01 1.105024999999999977e+02 2.071555000000000291e+03
8.200000000000000344e-02 1.852515000000000134e-01 2.721905000000000285e+01 1.131569999999999965e+02 2.072364999999999782e+03
8.300000000000000433e-02 1.853644999999999876e-01 2.802815000000000012e+01 1.158954999999999984e+02 2.073184999999999945e+03
8.400000000000000522e-02 1.854795000000000194e-01 2.881589999999999918e+01 1.187400000000000091e+02 2.074025000000000091e+03
8.500000000000000611e-02 1.855974999999999986e-01 2.959110000000000085e+01 1.216949999999999932e+02 2.074875000000000000e+03
8.600000000000000699e-02 1.857189999999999952e-01 3.035670000000000002e+01 1.247494999999999976e+02 2.075760000000000218e+03
8.700000000000000788e-02 1.858440000000000092e-01 3.110989999999999966e+01 1.278750000000000000e+02 2.076664999999999964e+03
8.800000000000000877e-02 1.859709999999999974e-01 3.184229999999999805e+01 1.310310000000000059e+02 2.077579999999999927e+03
8.899999999999999578e-02 1.860979999999999857e-01 3.254144999999999754e+01 1.341670000000000016e+02 2.078505000000000109e+03
8.999999999999999667e-02 1.862240000000000006e-01 3.319140000000000157e+01 1.372274999999999920e+02 2.079420000000000073e+03
9.099999999999999756e-02 1.863469999999999849e-01 3.377405000000000257e+01 1.401530000000000200e+02 2.080315000000000055e+03
9.199999999999999845e-02 1.864655000000000062e-01 3.427074999999999960e+01 1.428870000000000005e+02 2.081175000000000182e+03
9.299999999999999933e-02 1.865765000000000062e-01 3.466304999999999836e+01 1.453760000000000048e+02 2.081984999999999673e+03
9.400000000000000022e-02 1.866780000000000106e-01 3.493419999999999703e+01 1.475745000000000005e+02 2.082724999999999909e+03
9.500000000000000111e-02 1.867694999999999772e-01 3.506994999999999862e+01 1.494459999999999980e+02 2.083394999999999982e+03
9.600000000000000200e-02 1.868485000000000007e-01 3.505969999999999942e+01 1.509629999999999939e+02 2.083980000000000018e+03
9.700000000000000289e-02 1.869144999999999834e-01 3.489669999999999561e+01 1.521125000000000114e+02 2.084465000000000146e+03
9.800000000000000377e-02 1.869660000000000211e-01 3.457894999999999897e+01 1.528899999999999864e+02 2.084850000000000364e+03
9.900000000000000466e-02 1.870045000000000179e-01 3.410889999999999844e+01 1.533060000000000116e+02 2.085140000000000327e+03
1.000000000000000056e-01 1.870290000000000008e-01 3.349389999999999645e+01 1.533804999999999836e+02 2.085329999999999927e+03
1.010000000000000064e-01 1.870399999999999840e-01 3.274535000000000196e+01 1.531424999999999841e+02 2.085420000000000073e+03
1.020000000000000073e-01 1.870400000000000118e-01 3.187859999999999872e+01 1.526310000000000002e+02 2.085429999999999836e+03
1.030000000000000082e-01 1.870284999999999864e-01 3.091210000000000235e+01 1.518899999999999864e+02 2.085355000000000018e+03
1.040000000000000091e-01 1.870080000000000076e-01 2.986664999999999992e+01 1.509685000000000059e+02 2.085220000000000255e+03
1.050000000000000100e-01 1.869800000000000073e-01 2.876429999999999865e+01 1.499164999999999850e+02 2.085024999999999636e+03
1.059999999999999970e-01 1.869460000000000011e-01 2.762754999999999939e+01 1.487830000000000155e+02 2.084784999999999854e+03
1.069999999999999979e-01 1.869084999999999774e-01 2.647834999999999894e+01 1.476159999999999854e+02 2.084520000000000437e+03
1.079999999999999988e-01 1.868684999999999929e-01 2.533745000000000047e+01 1.464575000000000102e+02 2.084230000000000018e+03
1.089999999999999997e-01 1.868279999999999941e-01 2.422330000000000183e+01 1.453439999999999941e+02 2.083940000000000055e+03
1.100000000000000006e-01 1.867884999999999962e-01 2.315135000000000076e+01 1.443040000000000020e+02 2.083650000000000091e+03
1.110000000000000014e-01 1.867504999999999860e-01 2.213410000000000011e+01 1.433590000000000089e+02 2.083375000000000000e+03
1.120000000000000023e-01 1.867150000000000198e-01 2.118005000000000138e+01 1.425199999999999818e+02 2.083114999999999782e+03
1.130000000000000032e-01 1.866829999999999878e-01 2.029410000000000025e+01 1.417914999999999850e+02 2.082880000000000109e+03
1.140000000000000041e-01 1.866545000000000010e-01 1.947725000000000151e+01 1.411670000000000016e+02 2.082670000000000073e+03
1.150000000000000050e-01 1.866289999999999893e-01 1.872690000000000055e+01 1.406349999999999909e+02 2.082480000000000018e+03
1.160000000000000059e-01 1.866065000000000085e-01 1.803730000000000189e+01 1.401744999999999948e+02 2.082315000000000055e+03
1.170000000000000068e-01 1.865864999999999885e-01 1.739979999999999905e+01 1.397620000000000005e+02 2.082164999999999964e+03
1.180000000000000077e-01 1.865684999999999982e-01 1.680369999999999919e+01 1.393684999999999832e+02 2.082025000000000091e+03
1.190000000000000085e-01 1.865505000000000080e-01 1.623695000000000022e+01 1.389639999999999986e+02 2.081889999999999873e+03
1.200000000000000094e-01 1.865320000000000034e-01 1.568655000000000044e+01 1.385174999999999841e+02 2.081755000000000109e+03
1.209999999999999964e-01 1.865124999999999977e-01 1.513979999999999926e+01 1.380004999999999882e+02 2.081605000000000018e+03
1.219999999999999973e-01 1.864895000000000025e-01 1.458479999999999954e+01 1.373874999999999886e+02 2.081439999999999600e+03
1.229999999999999982e-01 1.864640000000000186e-01 1.401095000000000113e+01 1.366564999999999941e+02 2.081255000000000109e+03
1.239999999999999991e-01 1.864339999999999886e-01 1.341000000000000014e+01 1.357939999999999827e+02 2.081034999999999854e+03
1.250000000000000000e-01 1.863994999999999957e-01 1.277619999999999933e+01 1.347919999999999732e+02 2.080784999999999854e+03
1.260000000000000009e-01 1.863595000000000113e-01 1.210674999999999990e+01 1.336500000000000057e+02 2.080494999999999891e+03
1.270000000000000018e-01 1.863154999999999950e-01 1.140183999999999997e+01 1.323750000000000000e+02 2.080175000000000182e+03
1.280000000000000027e-01 1.862655000000000005e-01 1.066493999999999964e+01 1.309819999999999993e+02 2.079820000000000164e+03
1.290000000000000036e-01 1.862115000000000020e-01 9.902369999999999450e+00 1.294925000000000068e+02 2.079429999999999836e+03
1.300000000000000044e-01 1.861539999999999861e-01 9.123155000000000570e+00 1.279350000000000023e+02 2.079015000000000327e+03
1.310000000000000053e-01 1.860939999999999817e-01 8.338314999999999699e+00 1.263389999999999986e+02 2.078579999999999927e+03
1.320000000000000062e-01 1.860324999999999895e-01 7.560554999999999914e+00 1.247404999999999973e+02 2.078139999999999873e+03
1.330000000000000071e-01 1.859704999999999830e-01 6.803300000000000125e+00 1.231730000000000018e+02 2.077694999999999709e+03
1.340000000000000080e-01 1.859095000000000053e-01 6.080214999999999925e+00 1.216719999999999970e+02 2.077255000000000109e+03
1.350000000000000089e-01 1.858509999999999884e-01 5.404420000000000002e+00 1.202684999999999889e+02 2.076824999999999818e+03
1.360000000000000098e-01 1.857955000000000023e-01 4.787834999999999397e+00 1.189915000000000020e+02 2.076430000000000291e+03
1.370000000000000107e-01 1.857449999999999934e-01 4.240655000000000285e+00 1.178629999999999995e+02 2.076055000000000291e+03
1.380000000000000115e-01 1.856990000000000030e-01 3.770859999999999879e+00 1.168990000000000009e+02 2.075724999999999909e+03
1.390000000000000124e-01 1.856594999999999773e-01 3.383910000000000196e+00 1.161109999999999900e+02 2.075429999999999836e+03
1.400000000000000133e-01 1.856260000000000132e-01 3.082564999999999777e+00 1.155014999999999930e+02 2.075184999999999945e+03
1.410000000000000142e-01 1.855990000000000140e-01 2.866845000000000088e+00 1.150669999999999931e+02 2.074984999999999673e+03
1.420000000000000151e-01 1.855784999999999796e-01 2.734124999999999694e+00 1.147990000000000066e+02 2.074829999999999927e+03
1.430000000000000160e-01 1.855640000000000067e-01 2.679339999999999833e+00 1.146814999999999998e+02 2.074720000000000255e+03
1.440000000000000169e-01 1.855554999999999843e-01 2.695310000000000095e+00 1.146975000000000051e+02 2.074650000000000091e+03
1.450000000000000178e-01 1.855519999999999947e-01 2.773114999999999775e+00 1.148240000000000123e+02 2.074619999999999891e+03
1.459999999999999909e-01 1.855525000000000091e-01 2.902554999999999996e+00 1.150365000000000038e+02 2.074619999999999891e+03
1.469999999999999918e-01 1.855569999999999997e-01 3.072585000000000122e+00 1.153100000000000023e+02 2.074650000000000091e+03
1.479999999999999927e-01 1.855640000000000067e-01 3.271799999999999820e+00 1.156194999999999879e+02 2.074690000000000055e+03
1.489999999999999936e-01 1.855729999999999880e-01 3.488844999999999974e+00 1.159414999999999907e+02 2.074750000000000000e+03
1.499999999999999944e-01 1.855824999999999836e-01 3.712864999999999860e+00 1.162539999999999907e+02 2.074815000000000055e+03
1.509999999999999953e-01 1.855920000000000070e-01 3.933835000000000193e+00 1.165370000000000061e+02 2.074885000000000218e+03
1.519999999999999962e-01 1.856009999999999882e-01 4.142834999999999823e+00 1.167754999999999939e+02 2.074944999999999709e+03
1.529999999999999971e-01 1.856085000000000096e-01 4.332335000000000491e+00 1.169555000000000007e+02 2.075000000000000000e+03
1.539999999999999980e-01 1.856150000000000022e-01 4.496325000000000571e+00 1.170695000000000050e+02 2.075045000000000073e+03
1.549999999999999989e-01 1.856180000000000052e-01 4.630419999999999980e+00 1.171109999999999900e+02 2.075070000000000164e+03
1.559999999999999998e-01 1.856194999999999928e-01 4.731880000000000308e+00 1.170784999999999911e+02 2.075085000000000036e+03
1.570000000000000007e-01 1.856185000000000196e-01 4.799574999999999925e+00 1.169745000000000061e+02 2.075074999999999818e+03
1.580000000000000016e-01 1.856150000000000022e-01 4.833885000000000431e+00 1.168025000000000091e+02 2.075050000000000182e+03
1.590000000000000024e-01 1.856085000000000096e-01 4.836534999999999584e+00 1.165699999999999932e+02 2.075010000000000218e+03
