# t [s], A [cm^2], U [cm/s], P [cPa], c [cm/s]
1.000000000000000021e-03 6.875499999999999945e-01 5.517000000000001070e-03 1.034645000000000010e+02 1.646789999999999964e+03
2.000000000000000042e-03 6.875390000000000112e-01 -2.475675000000000098e-03 1.034375000000000000e+02 1.646784999999999854e+03
3.000000000000000062e-03 6.875910000000000633e-01 8.119289999999999841e-02 1.035304999999999893e+02 1.646804999999999836e+03
4.000000000000000083e-03 6.876444999999999919e-01 1.765519500000000130e-01 1.036539999999999964e+02 1.646840000000000146e+03
5.000000000000000104e-03 6.876255000000000006e-01 1.645120499999999930e-01 1.036204999999999927e+02 1.646835000000000036e+03
6.000000000000000125e-03 6.875610000000000888e-01 7.635450000000001958e-02 1.034265000000000043e+02 1.646795000000000073e+03
7.000000000000000146e-03 6.875059999999999505e-01 -3.902000000000016566e-03 1.031779999999999973e+02 1.646730000000000018e+03
8.000000000000000167e-03 6.874274999999999691e-01 -1.325634999999999453e-01 1.028259999999999934e+02 1.646650000000000091e+03
9.000000000000001055e-03 6.872920000000000140e-01 -3.714899999999999869e-01 1.022779999999999916e+02 1.646525000000000091e+03
1.000000000000000194e-02 6.870924999999999949e-01 -7.304600000000001092e-01 1.014867999999999881e+02 1.646340000000000146e+03
1.099999999999999936e-02 6.868119999999999781e-01 -1.229509999999999881e+00 1.003881999999999977e+02 1.646079999999999927e+03
1.200000000000000025e-02 6.864364999999998940e-01 -1.876844999999999875e+00 9.892759999999999820e+01 1.645730000000000018e+03
1.300000000000000114e-02 6.859930000000000749e-01 -2.608050000000000423e+00 9.714364999999999384e+01 1.645295000000000073e+03
1.400000000000000203e-02 6.855419999999999847e-01 -3.289600000000000080e+00 9.519055000000000177e+01 1.644805000000000064e+03
1.499999999999999944e-02 6.851475000000000204e-01 -3.783770500000000148e+00 9.326935000000000286e+01 1.644299999999999955e+03
1.600000000000000033e-02 6.848370000000000291e-01 -4.009513100000000385e+00 9.153390000000000271e+01 1.643819999999999936e+03
1.700000000000000122e-02 6.846019999999999328e-01 -3.961987500000000217e+00 9.004204999999998904e+01 1.643380000000000109e+03
1.800000000000000211e-02 6.844075000000000575e-01 -3.695971499999999743e+00 8.875739999999998986e+01 1.642984999999999900e+03
1.900000000000000300e-02 6.842110000000000136e-01 -3.293009999999999771e+00 8.758275000000000432e+01 1.642605000000000018e+03
2.000000000000000042e-02 6.839785000000000448e-01 -2.828451199999999943e+00 8.640694999999999482e+01 1.642224999999999909e+03
2.100000000000000130e-02 6.836944999999999828e-01 -2.348272999999999833e+00 8.514634999999999820e+01 1.641829999999999927e+03
2.200000000000000219e-02 6.833644999999999303e-01 -1.861034999999999773e+00 8.376955000000000950e+01 1.641405000000000200e+03
2.299999999999999961e-02 6.830074999999999896e-01 -1.345939999999999914e+00 8.229810000000000514e+01 1.640954999999999927e+03
2.400000000000000050e-02 6.826480000000000325e-01 -7.719699999999998230e-01 8.078610000000000468e+01 1.640500000000000000e+03
2.500000000000000139e-02 6.823015000000000052e-01 -1.190649999999999764e-01 7.929040000000000532e+01 1.640039999999999964e+03
2.600000000000000228e-02 6.819720000000000226e-01 6.069199999999996820e-01 7.784270000000000778e+01 1.639595000000000027e+03
2.700000000000000316e-02 6.816480000000000317e-01 1.369650000000000034e+00 7.643379999999999086e+01 1.639150000000000091e+03
2.800000000000000058e-02 6.813069999999999959e-01 2.107755000000000045e+00 7.501259999999999195e+01 1.638704999999999927e+03
2.900000000000000147e-02 6.809220000000000272e-01 2.747619999999999507e+00 7.349795000000000300e+01 1.638240000000000009e+03
3.000000000000000236e-02 6.804669999999999330e-01 3.219724999999999504e+00 7.180019999999998959e+01 1.637740000000000009e+03
3.099999999999999978e-02 6.799290000000000056e-01 3.474649999999999572e+00 6.984605000000000530e+01 1.637179999999999836e+03
3.200000000000000067e-02 6.793074999999999530e-01 3.494334999999999525e+00 6.760079999999999245e+01 1.636554999999999836e+03
3.300000000000000155e-02 6.786190000000000833e-01 3.295944999999999681e+00 6.508144999999998959e+01 1.635869999999999891e+03
3.400000000000000244e-02 6.778915000000000912e-01 2.926684999999999537e+00 6.235684999999999434e+01 1.635130000000000109e+03
3.500000000000000333e-02 6.771599999999999842e-01 2.452770000000000117e+00 5.953610000000000468e+01 1.634360000000000127e+03
3.600000000000000422e-02 6.764615000000000489e-01 1.945594999999999963e+00 5.674970000000000425e+01 1.633590000000000146e+03
3.700000000000000511e-02 6.758264999999999967e-01 1.470155000000000101e+00 5.412935000000000230e+01 1.632855000000000018e+03
3.799999999999999906e-02 6.752774999999999750e-01 1.077495000000000314e+00 5.179120000000000346e+01 1.632184999999999945e+03
3.899999999999999994e-02 6.748309999999999587e-01 8.018950000000000244e-01 4.982554999999999978e+01 1.631605000000000018e+03
4.000000000000000083e-02 6.744934999999999681e-01 6.621500000000000163e-01 4.829265000000000185e+01 1.631130000000000109e+03
4.100000000000000172e-02 6.742654999999999621e-01 6.654849999999998822e-01 4.722429999999999950e+01 1.630765000000000100e+03
4.200000000000000261e-02 6.741454999999999531e-01 8.124749999999999472e-01 4.662955000000000183e+01 1.630534999999999854e+03
4.300000000000000350e-02 6.741300000000000070e-01 1.101752999999999982e+00 4.650189999999999912e+01 1.630425000000000182e+03
4.400000000000000439e-02 6.742155000000000786e-01 1.533201000000000036e+00 4.682699999999999818e+01 1.630445000000000164e+03
4.499999999999999833e-02 6.743995000000000406e-01 2.109198549999999894e+00 4.758740000000000236e+01 1.630585000000000036e+03
4.599999999999999922e-02 6.746790000000000287e-01 2.833833499999999894e+00 4.876539999999999964e+01 1.630844999999999800e+03
4.700000000000000011e-02 6.750529999999999031e-01 3.710699499999999595e+00 5.034305000000000518e+01 1.631220000000000027e+03
4.800000000000000100e-02 6.755165000000000752e-01 4.740099999999999980e+00 5.229980000000000473e+01 1.631700000000000045e+03
4.900000000000000189e-02 6.760629999999999695e-01 5.916727999999999987e+00 5.460984999999999445e+01 1.632279999999999973e+03
5.000000000000000278e-02 6.766840000000000632e-01 7.228172500000000333e+00 5.723955000000000126e+01 1.632954999999999927e+03
5.100000000000000366e-02 6.773685000000000400e-01 8.654885000000000161e+00 6.014679999999999893e+01 1.633719999999999800e+03
5.200000000000000455e-02 6.781014999999999127e-01 1.017123500000000114e+01 6.328110000000000213e+01 1.634550000000000182e+03
5.300000000000000544e-02 6.788699999999999735e-01 1.174772500000000086e+01 6.658610000000000184e+01 1.635434999999999945e+03
5.399999999999999939e-02 6.796575000000000255e-01 1.335314499999999960e+01 7.000265000000000271e+01 1.636365000000000009e+03
5.500000000000000028e-02 6.804520000000000568e-01 1.495741500000000102e+01 7.347239999999999327e+01 1.637315000000000055e+03
5.600000000000000117e-02 6.812409999999999854e-01 1.653340000000000032e+01 7.694190000000000396e+01 1.638285000000000082e+03
5.700000000000000205e-02 6.820144999999999680e-01 1.805870000000000175e+01 8.036565000000000225e+01 1.639244999999999891e+03
5.800000000000000294e-02 6.827680000000000415e-01 1.951619999999999777e+01 8.370794999999999675e+01 1.640200000000000045e+03
5.900000000000000383e-02 6.834959999999999924e-01 2.089439999999999742e+01 8.694415000000000759e+01 1.641134999999999991e+03
6.000000000000000472e-02 6.841975000000000140e-01 2.218690000000000140e+01 9.006045000000000300e+01 1.642039999999999964e+03
6.099999999999999867e-02 6.848730000000000651e-01 2.339175000000000182e+01 9.305285000000000650e+01 1.642920000000000073e+03
6.199999999999999956e-02 6.855255000000000098e-01 2.451030000000000086e+01 9.592595000000000027e+01 1.643769999999999982e+03
6.300000000000000044e-02 6.861569999999999059e-01 2.554645000000000010e+01 9.869059999999998922e+01 1.644594999999999800e+03
6.400000000000000133e-02 6.867719999999999381e-01 2.650534999999999997e+01 1.013603999999999985e+02 1.645394999999999982e+03
6.500000000000000222e-02 6.873735000000000817e-01 2.739294999999999902e+01 1.039521499999999889e+02 1.646170000000000073e+03
6.600000000000000311e-02 6.879649999999999377e-01 2.821495000000000175e+01 1.064814999999999969e+02 1.646930000000000064e+03
6.700000000000000400e-02 6.885490000000000776e-01 2.897605000000000075e+01 1.089625000000000057e+02 1.647670000000000073e+03
6.800000000000000488e-02 6.891270000000000451e-01 2.967985000000000184e+01 1.114050000000000011e+02 1.648404999999999973e+03
6.900000000000000577e-02 6.896990000000000620e-01 3.032809999999999917e+01 1.138139999999999930e+02 1.649130000000000109e+03
7.000000000000000666e-02 6.902645000000000586e-01 3.092089999999999961e+01 1.161905000000000001e+02 1.649840000000000146e+03
7.100000000000000755e-02 6.908210000000000184e-01 3.145639999999999858e+01 1.185279999999999916e+02 1.650539999999999964e+03
7.200000000000000844e-02 6.913660000000000361e-01 3.193140000000000356e+01 1.208174999999999955e+02 1.651230000000000018e+03
7.300000000000000933e-02 6.918954999999999966e-01 3.234149999999999636e+01 1.230439999999999969e+02 1.651904999999999973e+03
7.399999999999999634e-02 6.924049999999999372e-01 3.268175000000000097e+01 1.251905000000000143e+02 1.652554999999999836e+03
7.499999999999999722e-02 6.928894999999999360e-01 3.294680000000000319e+01 1.272379999999999995e+02 1.653174999999999955e+03
7.599999999999999811e-02 6.933449999999999891e-01 3.313209999999999411e+01 1.291670000000000016e+02 1.653769999999999982e+03
7.699999999999999900e-02 6.937685000000000102e-01 3.323335000000000150e+01 1.309604999999999961e+02 1.654325000000000045e+03
7.799999999999999989e-02 6.941550000000000775e-01 3.324770000000000181e+01 1.326014999999999873e+02 1.654839999999999918e+03
7.900000000000000078e-02 6.945025000000000226e-01 3.317334999999999923e+01 1.340769999999999982e+02 1.655315000000000055e+03
8.000000000000000167e-02 6.948090000000000099e-01 3.300995000000000346e+01 1.353764999999999930e+02 1.655735000000000127e+03
8.100000000000000255e-02 6.950735000000000108e-01 3.275849999999999795e+01 1.364945000000000164e+02 1.656099999999999909e+03
8.200000000000000344e-02 6.952960000000000251e-01 3.242150000000000176e+01 1.374275000000000091e+02 1.656420000000000073e+03
8.300000000000000433e-02 6.954759999999999831e-01 3.200280000000000058e+01 1.381765000000000043e+02 1.656684999999999945e+03
8.400000000000000522e-02 6.956154999999999422e-01 3.150764999999999816e+01 1.387464999999999975e+02 1.656894999999999982e+03
8.500000000000000611e-02 6.957165000000000710e-01 3.094254999999999711e+01 1.391460000000000150e+02 1.657065000000000055e+03
8.600000000000000699e-02 6.957815000000000527e-01 3.031524999999999892e+01 1.393855000000000075e+02 1.657174999999999955e+03
8.700000000000000788e-02 6.958134999999999737e-01 2.963455000000000084e+01 1.394789999999999850e+02 1.657250000000000000e+03
8.800000000000000877e-02 6.958174999999999777e-01 2.891020000000000323e+01 1.394424999999999955e+02 1.657275000000000091e+03
8.899999999999999578e-02 6.957960000000000811e-01 2.815234999999999843e+01 1.392939999999999827e+02 1.657269999999999982e+03
8.999999999999999667e-02 6.957545000000000535e-01 2.737184999999999846e+01 1.390525000000000091e+02 1.657230000000000018e+03
9.099999999999999756e-02 6.956970000000000098e-01 2.657929999999999993e+01 1.387379999999999995e+02 1.657170000000000073e+03
9.199999999999999845e-02 6.956280000000000241e-01 2.578484999999999872e+01 1.383700000000000045e+02 1.657085000000000036e+03
9.299999999999999933e-02 6.955519999999999481e-01 2.499804999999999922e+01 1.379664999999999964e+02 1.656990000000000009e+03
9.400000000000000022e-02 6.954719999999999791e-01 2.422700000000000031e+01 1.375439999999999827e+02 1.656885000000000218e+03
9.500000000000000111e-02 6.953910000000000924e-01 2.347860000000000014e+01 1.371175000000000068e+02 1.656769999999999982e+03
9.600000000000000200e-02 6.953110000000000124e-01 2.275769999999999982e+01 1.366980000000000075e+02 1.656654999999999973e+03
9.700000000000000289e-02 6.952344999999999775e-01 2.206745000000000090e+01 1.362934999999999945e+02 1.656539999999999964e+03
9.800000000000000377e-02 6.951609999999999179e-01 2.140909999999999869e+01 1.359094999999999800e+02 1.656424999999999955e+03
9.900000000000000466e-02 6.950905000000000555e-01 2.078195000000000192e+01 1.355464999999999804e+02 1.656319999999999936e+03
1.000000000000000056e-01 6.950224999999999875e-01 2.018355000000000032e+01 1.352035000000000196e+02 1.656214999999999918e+03
1.010000000000000064e-01 6.949560000000000182e-01 1.961039999999999850e+01 1.348754999999999882e+02 1.656115000000000009e+03
1.020000000000000073e-01 6.948879999999999502e-01 1.905749999999999744e+01 1.345554999999999950e+02 1.656014999999999873e+03
1.030000000000000082e-01 6.948179999999999357e-01 1.851934999999999931e+01 1.342350000000000136e+02 1.655920000000000073e+03
1.040000000000000091e-01 6.947434999999999583e-01 1.799000000000000199e+01 1.339050000000000011e+02 1.655820000000000164e+03
1.050000000000000100e-01 6.946620000000000017e-01 1.746334999999999837e+01 1.335559999999999832e+02 1.655710000000000036e+03
1.059999999999999970e-01 6.945719999999999672e-01 1.693370000000000175e+01 1.331790000000000020e+02 1.655599999999999909e+03
1.069999999999999979e-01 6.944715000000000193e-01 1.639580000000000126e+01 1.327655000000000030e+02 1.655480000000000018e+03
1.079999999999999988e-01 6.943589999999999485e-01 1.584519999999999840e+01 1.323084999999999809e+02 1.655345000000000027e+03
1.089999999999999997e-01 6.942349999999999355e-01 1.527855000000000096e+01 1.318045000000000186e+02 1.655204999999999927e+03
1.100000000000000006e-01 6.940979999999999928e-01 1.469374999999999964e+01 1.312500000000000000e+02 1.655049999999999955e+03
1.110000000000000014e-01 6.939489999999999270e-01 1.408980000000000032e+01 1.306454999999999984e+02 1.654875000000000000e+03
1.120000000000000023e-01 6.937889999999999890e-01 1.346739000000000175e+01 1.299939999999999998e+02 1.654690000000000055e+03
1.130000000000000032e-01 6.936195000000000555e-01 1.282832499999999953e+01 1.292994999999999948e+02 1.654500000000000000e+03
1.140000000000000041e-01 6.934430000000000316e-01 1.217580500000000043e+01 1.285699999999999932e+02 1.654295000000000073e+03
1.150000000000000050e-01 6.932605000000000572e-01 1.151431499999999986e+01 1.278149999999999977e+02 1.654079999999999927e+03
1.160000000000000059e-01 6.930775000000000130e-01 1.084920999999999935e+01 1.270469999999999970e+02 1.653864999999999782e+03
1.170000000000000068e-01 6.928950000000000387e-01 1.018671999999999933e+01 1.262775000000000034e+02 1.653644999999999982e+03
1.180000000000000077e-01 6.927175000000000971e-01 9.533640000000000114e+00 1.255204999999999984e+02 1.653425000000000182e+03
1.190000000000000085e-01 6.925470000000000237e-01 8.896874999999999645e+00 1.247899999999999920e+02 1.653220000000000027e+03
1.200000000000000094e-01 6.923880000000000035e-01 8.283300000000000551e+00 1.240995000000000061e+02 1.653014999999999873e+03
1.209999999999999964e-01 6.922429999999999417e-01 7.699469999999999814e+00 1.234615000000000009e+02 1.652825000000000045e+03
1.219999999999999973e-01 6.921135000000000481e-01 7.151345000000000063e+00 1.228870000000000005e+02 1.652650000000000091e+03
1.229999999999999982e-01 6.920020000000000060e-01 6.643869999999999720e+00 1.223854999999999933e+02 1.652494999999999891e+03
1.239999999999999991e-01 6.919109999999999427e-01 6.180960000000000676e+00 1.219645000000000010e+02 1.652360000000000127e+03
1.250000000000000000e-01 6.918394999999999406e-01 5.765310000000000379e+00 1.216280000000000001e+02 1.652255000000000109e+03
1.260000000000000009e-01 6.917884999999999174e-01 5.398260000000000502e+00 1.213774999999999977e+02 1.652159999999999854e+03
1.270000000000000018e-01 6.917569999999999553e-01 5.079860000000000042e+00 1.212129999999999939e+02 1.652095000000000027e+03
1.280000000000000027e-01 6.917444999999999844e-01 4.808860000000000134e+00 1.211305000000000121e+02 1.652059999999999945e+03
1.290000000000000036e-01 6.917489999999999473e-01 4.582874999999999588e+00 1.211235000000000070e+02 1.652039999999999964e+03
1.300000000000000044e-01 6.917679999999999385e-01 4.398519999999999541e+00 1.211850000000000023e+02 1.652034999999999854e+03
1.310000000000000053e-01 6.918005000000000404e-01 4.251630000000000464e+00 1.213054999999999950e+02 1.652055000000000064e+03
1.320000000000000062e-01 6.918425000000000269e-01 4.137484999999999857e+00 1.214739999999999895e+02 1.652085000000000036e+03
1.330000000000000071e-01 6.918919999999999515e-01 4.051040000000000418e+00 1.216809999999999974e+02 1.652130000000000109e+03
1.340000000000000080e-01 6.919469999999999787e-01 3.987130000000000507e+00 1.219140000000000015e+02 1.652184999999999945e+03
1.350000000000000089e-01 6.920049999999999812e-01 3.940705000000000346e+00 1.221624999999999943e+02 1.652250000000000000e+03
1.360000000000000098e-01 6.920634999999999426e-01 3.906950000000000145e+00 1.224180000000000064e+02 1.652309999999999945e+03
1.370000000000000107e-01 6.921205000000000274e-01 3.881470000000000198e+00 1.226709999999999923e+02 1.652380000000000109e+03
1.380000000000000115e-01 6.921744999999999148e-01 3.860360000000000014e+00 1.229140000000000015e+02 1.652444999999999936e+03
1.390000000000000124e-01 6.922254999999999381e-01 3.840270000000000294e+00 1.231409999999999911e+02 1.652505000000000109e+03
1.400000000000000133e-01 6.922705000000000108e-01 3.818450000000000344e+00 1.233480000000000132e+02 1.652559999999999945e+03
1.410000000000000142e-01 6.923110000000000097e-01 3.792734999999999967e+00 1.235310000000000059e+02 1.652615000000000009e+03
1.420000000000000151e-01 6.923455000000000581e-01 3.761540000000000106e+00 1.236885000000000048e+02 1.652659999999999854e+03
1.430000000000000160e-01 6.923734999999999751e-01 3.723829999999999973e+00 1.238199999999999932e+02 1.652704999999999927e+03
1.440000000000000169e-01 6.923964999999999703e-01 3.679034999999999833e+00 1.239254999999999995e+02 1.652735000000000127e+03
1.450000000000000178e-01 6.924139999999999739e-01 3.627055000000000362e+00 1.240060000000000002e+02 1.652764999999999873e+03
1.459999999999999909e-01 6.924265000000000558e-01 3.568134999999999835e+00 1.240635000000000048e+02 1.652784999999999854e+03
1.469999999999999918e-01 6.924345000000000638e-01 3.502830000000000332e+00 1.241009999999999991e+02 1.652799999999999955e+03
1.479999999999999927e-01 6.924394999999999856e-01 3.431904999999999983e+00 1.241189999999999998e+02 1.652809999999999945e+03
1.489999999999999936e-01 6.924405000000000143e-01 3.356284999999999741e+00 1.241214999999999975e+02 1.652815000000000055e+03
1.499999999999999944e-01 6.924394999999999856e-01 3.276955000000000062e+00 1.241105000000000018e+02 1.652815000000000055e+03
1.509999999999999953e-01 6.924354999999999816e-01 3.194910000000000139e+00 1.240885000000000105e+02 1.652809999999999945e+03
1.519999999999999962e-01 6.924300000000001010e-01 3.111064999999999969e+00 1.240569999999999879e+02 1.652805000000000064e+03
1.529999999999999971e-01 6.924230000000000107e-01 3.026234999999999786e+00 1.240174999999999983e+02 1.652800000000000182e+03
1.539999999999999980e-01 6.924144999999999328e-01 2.941065000000000040e+00 1.239714999999999918e+02 1.652789999999999964e+03
1.549999999999999989e-01 6.924040000000000195e-01 2.856015000000000192e+00 1.239184999999999945e+02 1.652775000000000091e+03
1.559999999999999998e-01 6.923930000000000362e-01 2.771349999999999980e+00 1.238594999999999970e+02 1.652764999999999873e+03
1.570000000000000007e-01 6.923799999999999955e-01 2.687159999999999993e+00 1.237930000000000064e+02 1.652744999999999891e+03
1.580000000000000016e-01 6.923645000000000493e-01 2.603375000000000217e+00 1.237185000000000059e+02 1.652724999999999909e+03
1.590000000000000024e-01 6.923470000000000457e-01 2.519810000000000105e+00 1.236355000000000075e+02 1.652704999999999927e+03
