# t [s], A [cm^2], U [cm/s], P [cPa], c [cm/s]
1.000000000000000021e-03 5.024100000000000232e-01 4.248000000000001775e-03 1.066980000000000075e+02 1.575820000000000164e+03
2.000000000000000042e-03 5.024040000000000727e-01 8.781899999999998301e-04 1.066769999999999925e+02 1.575815000000000055e+03
3.000000000000000062e-03 5.024450000000000305e-01 8.823295000000000443e-02 1.067685000000000031e+02 1.575844999999999800e+03
4.000000000000000083e-03 5.024839999999999307e-01 1.761890500000000137e-01 1.068820000000000050e+02 1.575875000000000000e+03
5.000000000000000104e-03 5.024705000000000421e-01 1.587083499999999980e-01 1.068485000000000014e+02 1.575869999999999891e+03
6.000000000000000125e-03 5.024264999999999981e-01 7.214450000000000029e-02 1.066680000000000064e+02 1.575829999999999927e+03
7.000000000000000146e-03 5.023845000000000116e-01 -1.602399999999998270e-02 1.064194999999999993e+02 1.575775000000000091e+03
8.000000000000000167e-03 5.023225000000000051e-01 -1.557614999999999417e-01 1.060564999999999998e+02 1.575684999999999945e+03
9.000000000000001055e-03 5.022164999999999546e-01 -4.027600000000000069e-01 1.054950000000000045e+02 1.575550000000000182e+03
1.000000000000000194e-02 5.020609999999999795e-01 -7.655099999999999127e-01 1.046889999999999930e+02 1.575349999999999909e+03
1.099999999999999936e-02 5.018445000000000267e-01 -1.257675000000000320e+00 1.035834999999999866e+02 1.575075000000000045e+03
1.200000000000000025e-02 5.015570000000000306e-01 -1.885815000000000019e+00 1.021298500000000047e+02 1.574704999999999927e+03
1.300000000000000114e-02 5.012130000000000196e-01 -2.597850000000000215e+00 1.003524500000000046e+02 1.574240000000000009e+03
1.400000000000000203e-02 5.008525000000000338e-01 -3.277460000000000040e+00 9.837704999999999700e+01 1.573710000000000036e+03
1.499999999999999944e-02 5.005209999999999937e-01 -3.793279999999999763e+00 9.638594999999999402e+01 1.573150000000000091e+03
1.600000000000000033e-02 5.002459999999999685e-01 -4.054812500000000597e+00 9.454030000000000200e+01 1.572610000000000127e+03
1.700000000000000122e-02 5.000299999999999745e-01 -4.038605999999999696e+00 9.292725000000000080e+01 1.572105000000000018e+03
1.800000000000000211e-02 4.998555000000000081e-01 -3.781921999999999784e+00 9.154585000000000150e+01 1.571644999999999982e+03
1.900000000000000300e-02 4.996935000000000127e-01 -3.357638499999999748e+00 9.032675000000000409e+01 1.571220000000000027e+03
2.000000000000000042e-02 4.995169999999999888e-01 -2.844359999999999999e+00 8.916854999999999620e+01 1.570800000000000182e+03
2.100000000000000130e-02 4.993090000000000028e-01 -2.301443499999999975e+00 8.797710000000000719e+01 1.570380000000000109e+03
2.200000000000000219e-02 4.990649999999999809e-01 -1.755494999999999806e+00 8.669495000000000573e+01 1.569950000000000045e+03
2.299999999999999961e-02 4.987949999999999884e-01 -1.201375000000000082e+00 8.531274999999999409e+01 1.569485000000000127e+03
2.400000000000000050e-02 4.985129999999999839e-01 -6.156349999999999323e-01 8.386060000000000514e+01 1.569005000000000109e+03
2.500000000000000139e-02 4.982314999999999938e-01 2.456999999999975870e-02 8.238554999999999495e+01 1.568514999999999873e+03
2.600000000000000228e-02 4.979580000000000117e-01 7.250149999999999650e-01 8.092584999999999695e+01 1.568025000000000091e+03
2.700000000000000316e-02 4.976905000000000356e-01 1.465990000000000126e+00 7.949219999999999686e+01 1.567545000000000073e+03
2.800000000000000058e-02 4.974169999999999980e-01 2.202939999999999898e+00 7.805985000000001151e+01 1.567055000000000064e+03
2.900000000000000147e-02 4.971204999999999652e-01 2.874875000000000291e+00 7.657300000000000750e+01 1.566559999999999945e+03
3.000000000000000236e-02 4.967844999999999622e-01 3.417284999999999684e+00 7.495869999999999322e+01 1.566034999999999854e+03
3.099999999999999978e-02 4.963954999999999895e-01 3.776390000000000136e+00 7.314619999999999322e+01 1.565460000000000036e+03
3.200000000000000067e-02 4.959470000000000267e-01 3.921339999999999826e+00 7.108754999999999313e+01 1.564829999999999927e+03
3.300000000000000155e-02 4.954450000000000243e-01 3.851204999999999767e+00 6.877340000000000941e+01 1.564134999999999991e+03
3.400000000000000244e-02 4.949034999999999407e-01 3.595250000000000057e+00 6.624025000000000318e+01 1.563389999999999873e+03
3.500000000000000333e-02 4.943454999999999933e-01 3.206844999999999946e+00 6.356779999999999831e+01 1.562599999999999909e+03
3.600000000000000422e-02 4.937964999999999716e-01 2.753075000000000383e+00 6.086739999999999640e+01 1.561799999999999955e+03
3.700000000000000511e-02 4.932825000000000126e-01 2.303429999999999644e+00 5.826604999999999990e+01 1.561014999999999873e+03
3.799999999999999906e-02 4.928270000000000151e-01 1.920509999999999717e+00 5.588965000000000316e+01 1.560285000000000082e+03
3.899999999999999994e-02 4.924465000000000092e-01 1.654024999999999412e+00 5.384975000000000023e+01 1.559634999999999991e+03
4.000000000000000083e-02 4.921534999999999660e-01 1.538564999999999738e+00 5.223400000000000176e+01 1.559095000000000027e+03
4.100000000000000172e-02 4.919554999999999900e-01 1.594649999999999901e+00 5.110299999999999443e+01 1.558684999999999945e+03
4.200000000000000261e-02 4.918540000000000134e-01 1.831747499999999862e+00 5.049089999999999634e+01 1.558414999999999964e+03
4.300000000000000350e-02 4.918489999999999807e-01 2.252240000000000020e+00 5.040935000000000343e+01 1.558295000000000073e+03
4.400000000000000439e-02 4.919385000000000563e-01 2.855055000000000121e+00 5.085365000000000180e+01 1.558335000000000036e+03
4.499999999999999833e-02 4.921189999999999731e-01 3.638269999999999893e+00 5.180840000000000600e+01 1.558519999999999982e+03
4.599999999999999922e-02 4.923880000000000479e-01 4.600095500000000115e+00 5.325175000000000125e+01 1.558855000000000018e+03
4.700000000000000011e-02 4.927409999999999846e-01 5.738434999999999953e+00 5.515859999999999985e+01 1.559335000000000036e+03
4.800000000000000100e-02 4.931740000000000013e-01 7.049430000000000085e+00 5.750054999999999694e+01 1.559945000000000164e+03
4.900000000000000189e-02 4.936814999999999953e-01 8.525465000000000515e+00 6.024554999999999438e+01 1.560684999999999945e+03
5.000000000000000278e-02 4.942564999999999875e-01 1.015381000000000000e+01 6.335620000000000118e+01 1.561539999999999964e+03
5.100000000000000366e-02 4.948910000000000253e-01 1.191560499999999934e+01 6.678874999999999318e+01 1.562505000000000109e+03
5.200000000000000455e-02 4.955729999999999857e-01 1.378635999999999839e+01 7.049285000000000423e+01 1.563559999999999945e+03
5.300000000000000544e-02 4.962934999999999985e-01 1.573694500000000041e+01 7.441240000000000521e+01 1.564690000000000055e+03
5.399999999999999939e-02 4.970400000000000373e-01 1.773535500000000198e+01 7.848780000000000712e+01 1.565880000000000109e+03
5.500000000000000028e-02 4.978000000000000203e-01 1.974902499999999961e+01 8.265825000000000955e+01 1.567110000000000127e+03
5.600000000000000117e-02 4.985640000000000072e-01 2.174670000000000059e+01 8.686619999999999209e+01 1.568369999999999891e+03
5.700000000000000205e-02 4.993225000000000025e-01 2.370045000000000002e+01 9.105840000000000600e+01 1.569644999999999982e+03
5.800000000000000294e-02 5.000685000000000269e-01 2.558680000000000021e+01 9.518954999999999700e+01 1.570910000000000082e+03
5.900000000000000383e-02 5.007960000000000189e-01 2.738765000000000072e+01 9.922454999999999359e+01 1.572164999999999964e+03
6.000000000000000472e-02 5.015020000000000033e-01 2.909015000000000128e+01 1.031385500000000093e+02 1.573394999999999982e+03
6.099999999999999867e-02 5.021849999999999925e-01 3.068670000000000186e+01 1.069173999999999864e+02 1.574594999999999800e+03
6.199999999999999956e-02 5.028455000000000563e-01 3.217409999999999570e+01 1.105564499999999981e+02 1.575755000000000109e+03
6.300000000000000044e-02 5.034840000000000426e-01 3.355299999999999727e+01 1.140579999999999927e+02 1.576889999999999873e+03
6.400000000000000133e-02 5.041029999999999678e-01 3.482670000000000243e+01 1.174325000000000045e+02 1.577980000000000018e+03
6.500000000000000222e-02 5.047049999999999592e-01 3.600055000000000405e+01 1.206929999999999978e+02 1.579045000000000073e+03
6.600000000000000311e-02 5.052929999999999922e-01 3.708095000000000141e+01 1.238575000000000017e+02 1.580085000000000036e+03
6.700000000000000400e-02 5.058700000000000419e-01 3.807469999999999999e+01 1.269410000000000025e+02 1.581099999999999909e+03
6.800000000000000488e-02 5.064379999999999438e-01 3.898820000000000618e+01 1.299590000000000032e+02 1.582095000000000027e+03
6.900000000000000577e-02 5.069989999999999775e-01 3.982690000000000197e+01 1.329244999999999948e+02 1.583070000000000164e+03
7.000000000000000666e-02 5.075534999999999908e-01 4.059494999999999720e+01 1.358455000000000155e+02 1.584030000000000200e+03
7.100000000000000755e-02 5.081020000000000536e-01 4.129465000000000430e+01 1.387249999999999943e+02 1.584974999999999909e+03
7.200000000000000844e-02 5.086429999999999563e-01 4.192650000000000432e+01 1.415614999999999952e+02 1.585910000000000082e+03
7.300000000000000933e-02 5.091750000000000442e-01 4.248930000000000007e+01 1.443460000000000036e+02 1.586825000000000045e+03
7.399999999999999634e-02 5.096945000000000503e-01 4.298005000000000564e+01 1.470685000000000002e+02 1.587724999999999909e+03
7.499999999999999722e-02 5.101990000000000691e-01 4.339464999999999861e+01 1.497110000000000127e+02 1.588605000000000018e+03
7.599999999999999811e-02 5.106844999999999857e-01 4.372814999999999941e+01 1.522549999999999955e+02 1.589450000000000045e+03
7.699999999999999900e-02 5.111464999999999481e-01 4.397545000000000215e+01 1.546804999999999950e+02 1.590264999999999873e+03
7.799999999999999989e-02 5.115825000000000511e-01 4.413139999999999930e+01 1.569664999999999964e+02 1.591034999999999854e+03
7.900000000000000078e-02 5.119879999999999987e-01 4.419180000000000064e+01 1.590929999999999893e+02 1.591764999999999873e+03
8.000000000000000167e-02 5.123600000000000376e-01 4.415340000000000487e+01 1.610425000000000182e+02 1.592434999999999945e+03
8.100000000000000255e-02 5.126964999999999995e-01 4.401425000000000409e+01 1.628004999999999995e+02 1.593049999999999955e+03
8.200000000000000344e-02 5.129954999999999377e-01 4.377394999999999925e+01 1.643564999999999827e+02 1.593605000000000018e+03
8.300000000000000433e-02 5.132560000000000455e-01 4.343394999999999584e+01 1.657035000000000196e+02 1.594099999999999909e+03
8.400000000000000522e-02 5.134779999999999900e-01 4.299710000000000321e+01 1.668394999999999868e+02 1.594530000000000200e+03
8.500000000000000611e-02 5.136619999999999520e-01 4.246814999999999429e+01 1.677669999999999959e+02 1.594889999999999873e+03
8.600000000000000699e-02 5.138089999999999602e-01 4.185334999999999894e+01 1.684925000000000068e+02 1.595184999999999945e+03
8.700000000000000788e-02 5.139215000000000311e-01 4.116044999999999732e+01 1.690260000000000105e+02 1.595420000000000073e+03
8.800000000000000877e-02 5.140015000000000001e-01 4.039834999999999354e+01 1.693799999999999955e+02 1.595595000000000027e+03
8.899999999999999578e-02 5.140519999999999534e-01 3.957724999999999937e+01 1.695724999999999909e+02 1.595715000000000146e+03
8.999999999999999667e-02 5.140774999999999650e-01 3.870789999999999509e+01 1.696214999999999975e+02 1.595789999999999964e+03
9.099999999999999756e-02 5.140799999999999814e-01 3.780180000000000007e+01 1.695469999999999970e+02 1.595815000000000055e+03
9.199999999999999845e-02 5.140645000000000353e-01 3.687049999999999983e+01 1.693704999999999927e+02 1.595809999999999945e+03
9.299999999999999933e-02 5.140344999999999498e-01 3.592544999999999789e+01 1.691134999999999877e+02 1.595769999999999982e+03
9.400000000000000022e-02 5.139934999999999921e-01 3.497755000000000081e+01 1.687980000000000018e+02 1.595704999999999927e+03
9.500000000000000111e-02 5.139454999999999441e-01 3.403674999999999784e+01 1.684429999999999836e+02 1.595619999999999891e+03
9.600000000000000200e-02 5.138930000000000442e-01 3.311205000000000354e+01 1.680660000000000025e+02 1.595525000000000091e+03
9.700000000000000289e-02 5.138395000000000046e-01 3.221065000000000111e+01 1.676835000000000093e+02 1.595420000000000073e+03
9.800000000000000377e-02 5.137860000000000760e-01 3.133814999999999884e+01 1.673075000000000045e+02 1.595309999999999945e+03
9.900000000000000466e-02 5.137340000000000240e-01 3.049814999999999898e+01 1.669479999999999791e+02 1.595199999999999818e+03
1.000000000000000056e-01 5.136855000000000171e-01 2.969239999999999924e+01 1.666100000000000136e+02 1.595094999999999800e+03
1.010000000000000064e-01 5.136395000000000266e-01 2.892065000000000197e+01 1.662955000000000041e+02 1.594990000000000009e+03
1.020000000000000073e-01 5.135959999999999415e-01 2.818094999999999928e+01 1.660049999999999955e+02 1.594900000000000091e+03
1.030000000000000082e-01 5.135540000000000660e-01 2.746965000000000146e+01 1.657330000000000041e+02 1.594805000000000064e+03
1.040000000000000091e-01 5.135125000000000384e-01 2.678200000000000003e+01 1.654739999999999895e+02 1.594715000000000146e+03
1.050000000000000100e-01 5.134699999999999820e-01 2.611200000000000188e+01 1.652180000000000177e+02 1.594625000000000000e+03
1.059999999999999970e-01 5.134235000000000326e-01 2.545329999999999870e+01 1.649560000000000173e+02 1.594539999999999964e+03
1.069999999999999979e-01 5.133729999999999682e-01 2.479915000000000092e+01 1.646775000000000091e+02 1.594444999999999936e+03
1.079999999999999988e-01 5.133155000000000356e-01 2.414294999999999902e+01 1.643720000000000141e+02 1.594340000000000146e+03
1.089999999999999997e-01 5.132495000000000251e-01 2.347840000000000060e+01 1.640289999999999964e+02 1.594235000000000127e+03
1.100000000000000006e-01 5.131735000000000602e-01 2.280014999999999858e+01 1.636394999999999982e+02 1.594115000000000009e+03
1.110000000000000014e-01 5.130865000000000009e-01 2.210365000000000180e+01 1.631979999999999791e+02 1.593974999999999909e+03
1.120000000000000023e-01 5.129890000000000283e-01 2.138550000000000040e+01 1.626980000000000075e+02 1.593825000000000045e+03
1.130000000000000032e-01 5.128789999999999738e-01 2.064365000000000094e+01 1.621384999999999934e+02 1.593655000000000200e+03
1.140000000000000041e-01 5.127585000000000059e-01 1.987760000000000105e+01 1.615190000000000055e+02 1.593470000000000027e+03
1.150000000000000050e-01 5.126270000000000548e-01 1.908814999999999884e+01 1.608414999999999964e+02 1.593264999999999873e+03
1.160000000000000059e-01 5.124869999999999148e-01 1.827769999999999939e+01 1.601120000000000232e+02 1.593045000000000073e+03
1.170000000000000068e-01 5.123389999999999889e-01 1.744985000000000142e+01 1.593385000000000105e+02 1.592815000000000055e+03
1.180000000000000077e-01 5.121854999999999603e-01 1.660960000000000036e+01 1.585305000000000177e+02 1.592565000000000055e+03
1.190000000000000085e-01 5.120284999999999975e-01 1.576289999999999836e+01 1.576995000000000005e+02 1.592320000000000164e+03
1.200000000000000094e-01 5.118709999999999649e-01 1.491658500000000132e+01 1.568584999999999923e+02 1.592054999999999836e+03
1.209999999999999964e-01 5.117149999999999199e-01 1.407796000000000092e+01 1.560209999999999866e+02 1.591799999999999955e+03
1.219999999999999973e-01 5.115640000000000187e-01 1.325473500000000016e+01 1.552019999999999982e+02 1.591545000000000073e+03
1.229999999999999982e-01 5.114194999999999158e-01 1.245458999999999961e+01 1.544145000000000039e+02 1.591295000000000073e+03
1.239999999999999991e-01 5.112845000000000306e-01 1.168473999999999968e+01 1.536715000000000089e+02 1.591059999999999945e+03
1.250000000000000000e-01 5.111609999999999765e-01 1.095193500000000064e+01 1.529855000000000018e+02 1.590835000000000036e+03
1.260000000000000009e-01 5.110504999999999631e-01 1.026206499999999977e+01 1.523665000000000020e+02 1.590630000000000109e+03
1.270000000000000018e-01 5.109550000000000480e-01 9.619839999999999947e+00 1.518220000000000027e+02 1.590445000000000164e+03
1.280000000000000027e-01 5.108740000000000503e-01 9.028825000000001211e+00 1.513580000000000041e+02 1.590285000000000082e+03
1.290000000000000036e-01 5.108090000000000686e-01 8.491175000000000139e+00 1.509759999999999991e+02 1.590150000000000091e+03
1.300000000000000044e-01 5.107585000000000042e-01 8.007695000000000007e+00 1.506775000000000091e+02 1.590034999999999854e+03
1.310000000000000053e-01 5.107230000000000381e-01 7.577729999999999855e+00 1.504594999999999914e+02 1.589940000000000055e+03
1.320000000000000062e-01 5.107015000000000304e-01 7.199410000000000309e+00 1.503170000000000073e+02 1.589875000000000000e+03
1.330000000000000071e-01 5.106920000000000348e-01 6.869705000000000616e+00 1.502429999999999950e+02 1.589829999999999927e+03
1.340000000000000080e-01 5.106924999999999937e-01 6.584635000000000460e+00 1.502284999999999968e+02 1.589804999999999836e+03
1.350000000000000089e-01 5.107015000000000304e-01 6.339470000000000383e+00 1.502640000000000100e+02 1.589795000000000073e+03
1.360000000000000098e-01 5.107165000000000177e-01 6.128980000000000317e+00 1.503380000000000223e+02 1.589799999999999955e+03
1.370000000000000107e-01 5.107359999999999678e-01 5.947670000000000456e+00 1.504399999999999977e+02 1.589809999999999945e+03
1.380000000000000115e-01 5.107580000000000453e-01 5.790010000000000545e+00 1.505579999999999927e+02 1.589835000000000036e+03
1.390000000000000124e-01 5.107804999999999707e-01 5.650629999999999598e+00 1.506820000000000164e+02 1.589860000000000127e+03
1.400000000000000133e-01 5.108015000000000194e-01 5.524494999999999933e+00 1.508034999999999854e+02 1.589889999999999873e+03
1.410000000000000142e-01 5.108205000000000107e-01 5.407054999999999723e+00 1.509130000000000109e+02 1.589914999999999964e+03
1.420000000000000151e-01 5.108354999999999979e-01 5.294349999999999667e+00 1.510045000000000073e+02 1.589934999999999945e+03
1.430000000000000160e-01 5.108464999999999812e-01 5.183044999999999902e+00 1.510729999999999791e+02 1.589954999999999927e+03
1.440000000000000169e-01 5.108519999999999728e-01 5.070489999999999498e+00 1.511144999999999925e+02 1.589965000000000146e+03
1.450000000000000178e-01 5.108525000000000427e-01 4.954710000000000392e+00 1.511270000000000095e+02 1.589970000000000027e+03
1.459999999999999909e-01 5.108475000000000099e-01 4.834365000000000023e+00 1.511094999999999970e+02 1.589970000000000027e+03
1.469999999999999918e-01 5.108375000000000554e-01 4.708724999999999383e+00 1.510629999999999882e+02 1.589954999999999927e+03
1.479999999999999927e-01 5.108224999999999572e-01 4.577575000000000394e+00 1.509884999999999877e+02 1.589940000000000055e+03
1.489999999999999936e-01 5.108034999999999659e-01 4.441164999999999807e+00 1.508890000000000100e+02 1.589904999999999973e+03
1.499999999999999944e-01 5.107804999999999707e-01 4.300119999999999720e+00 1.507659999999999911e+02 1.589875000000000000e+03
1.509999999999999953e-01 5.107539999999999303e-01 4.155364999999999753e+00 1.506239999999999952e+02 1.589835000000000036e+03
1.519999999999999962e-01 5.107255000000000544e-01 4.008024999999999949e+00 1.504655000000000200e+02 1.589785000000000082e+03
1.529999999999999971e-01 5.106945000000000512e-01 3.859360000000000124e+00 1.502950000000000159e+02 1.589734999999999900e+03
1.539999999999999980e-01 5.106619999999999493e-01 3.710690000000000044e+00 1.501145000000000209e+02 1.589690000000000055e+03
1.549999999999999989e-01 5.106289999999999996e-01 3.563340000000000174e+00 1.499279999999999973e+02 1.589630000000000109e+03
1.559999999999999998e-01 5.105950000000000211e-01 3.418534999999999879e+00 1.497369999999999948e+02 1.589575000000000045e+03
1.570000000000000007e-01 5.105610000000000426e-01 3.277425000000000033e+00 1.495444999999999993e+02 1.589515000000000100e+03
1.580000000000000016e-01 5.105269999999999531e-01 3.141000000000000014e+00 1.493520000000000039e+02 1.589454999999999927e+03
1.590000000000000024e-01 5.104935000000000445e-01 3.010075000000000056e+00 1.491605000000000132e+02 1.589394999999999982e+03
