# t [s], A [cm^2], U [cm/s], P [cPa], c [cm/s]
1.000000000000000021e-03 8.122534999999999616e-01 5.740750000000002795e-03 9.864914999999999168e+01 1.649170000000000073e+03
2.000000000000000042e-03 8.122384999999999744e-01 -4.158580000000000262e-03 9.861924999999999386e+01 1.649159999999999854e+03
3.000000000000000062e-03 8.123000000000000220e-01 8.121380000000000265e-02 9.871244999999998981e+01 1.649184999999999945e+03
4.000000000000000083e-03 8.123644999999999339e-01 1.814494000000000107e-01 9.883910000000000196e+01 1.649214999999999918e+03
5.000000000000000104e-03 8.123384999999999634e-01 1.691851999999999800e-01 9.879955000000001064e+01 1.649204999999999927e+03
6.000000000000000125e-03 8.122555000000000192e-01 7.485999999999998211e-02 9.858990000000000009e+01 1.649159999999999854e+03
7.000000000000000146e-03 8.121875000000000622e-01 -6.419500000000022411e-03 9.833250000000001023e+01 1.649110000000000127e+03
8.000000000000000167e-03 8.120905000000000484e-01 -1.392374999999999585e-01 9.797124999999999773e+01 1.649029999999999973e+03
9.000000000000001055e-03 8.119224999999999914e-01 -3.896149999999999336e-01 9.740840000000000032e+01 1.648920000000000073e+03
1.000000000000000194e-02 8.116795000000001092e-01 -7.625500000000000611e-01 9.660200000000000387e+01 1.648750000000000000e+03
1.099999999999999936e-02 8.113410000000000899e-01 -1.277975000000000083e+00 9.548959999999999582e+01 1.648514999999999873e+03
1.200000000000000025e-02 8.108889999999999709e-01 -1.946915000000000173e+00 9.401179999999999382e+01 1.648200000000000045e+03
1.300000000000000114e-02 8.103559999999999652e-01 -2.702479999999999549e+00 9.220995000000000630e+01 1.647809999999999945e+03
1.400000000000000203e-02 8.098214999999999719e-01 -3.402634999999999632e+00 9.024970000000000425e+01 1.647369999999999891e+03
1.499999999999999944e-02 8.093614999999999560e-01 -3.901750500000000343e+00 8.834260000000000446e+01 1.646925000000000182e+03
1.600000000000000033e-02 8.090109999999999246e-01 -4.116915999999999798e+00 8.664664999999999395e+01 1.646509999999999991e+03
1.700000000000000122e-02 8.087554999999999605e-01 -4.047885500000000469e+00 8.521384999999999366e+01 1.646134999999999991e+03
1.800000000000000211e-02 8.085474999999999746e-01 -3.757635000000000058e+00 8.399430000000000973e+01 1.645795000000000073e+03
1.900000000000000300e-02 8.083305000000000629e-01 -3.335904499999999828e+00 8.287604999999999222e+01 1.645474999999999909e+03
2.000000000000000042e-02 8.080625000000000169e-01 -2.863202999999999943e+00 8.173680000000000234e+01 1.645150000000000091e+03
2.100000000000000130e-02 8.077254999999999852e-01 -2.385764500000000066e+00 8.049000000000000909e+01 1.644804999999999836e+03
2.200000000000000219e-02 8.073304999999999509e-01 -1.907620000000000093e+00 7.910960000000000036e+01 1.644440000000000055e+03
2.299999999999999961e-02 8.069045000000000245e-01 -1.400904999999999845e+00 7.762880000000001246e+01 1.644045000000000073e+03
2.400000000000000050e-02 8.064804999999999335e-01 -8.285050000000000470e-01 7.611424999999999841e+01 1.643644999999999982e+03
2.500000000000000139e-02 8.060800000000000187e-01 -1.683099999999999596e-01 7.463044999999999618e+01 1.643244999999999891e+03
2.600000000000000228e-02 8.057045000000000456e-01 5.706200000000003492e-01 7.320929999999999893e+01 1.642860000000000127e+03
2.700000000000000316e-02 8.053354999999999819e-01 1.344144999999999923e+00 7.183339999999999748e+01 1.642480000000000018e+03
2.800000000000000058e-02 8.049405000000000587e-01 2.080530000000000435e+00 7.043735000000000923e+01 1.642094999999999800e+03
2.900000000000000147e-02 8.044824999999999893e-01 2.695975000000000232e+00 6.892359999999999332e+01 1.641684999999999945e+03
3.000000000000000236e-02 8.039279999999999760e-01 3.113929999999999865e+00 6.718845000000000312e+01 1.641240000000000009e+03
3.099999999999999978e-02 8.032600000000000851e-01 3.283415000000000195e+00 6.515189999999999770e+01 1.640735000000000127e+03
3.200000000000000067e-02 8.024824999999999875e-01 3.191340000000000288e+00 6.278220000000000312e+01 1.640164999999999964e+03
3.300000000000000155e-02 8.016204999999999581e-01 2.865294999999999703e+00 6.010934999999999917e+01 1.639519999999999982e+03
3.400000000000000244e-02 8.007154999999999134e-01 2.366014999999999535e+00 5.722189999999999799e+01 1.638835000000000036e+03
3.500000000000000333e-02 7.998155000000000125e-01 1.772499999999999964e+00 5.425100000000000477e+01 1.638125000000000000e+03
3.600000000000000422e-02 7.989690000000000403e-01 1.166125000000000078e+00 5.134635000000000105e+01 1.637414999999999964e+03
3.700000000000000511e-02 7.982139999999999791e-01 6.174799999999995848e-01 4.865305000000000035e+01 1.636750000000000000e+03
3.799999999999999906e-02 7.975769999999999804e-01 1.787600000000000300e-01 4.629330000000000211e+01 1.636150000000000091e+03
3.899999999999999994e-02 7.970740000000000602e-01 -1.179050000000003706e-01 4.435644999999999527e+01 1.635639999999999873e+03
4.000000000000000083e-02 7.967094999999999594e-01 -2.579150000000001164e-01 4.289639999999999986e+01 1.635235000000000127e+03
4.100000000000000172e-02 7.964815000000000644e-01 -2.388599999999998502e-01 4.193534999999999968e+01 1.634940000000000055e+03
4.200000000000000261e-02 7.963850000000000096e-01 -6.436500000000000554e-02 4.147185000000000343e+01 1.634764999999999873e+03
4.300000000000000350e-02 7.964130000000000376e-01 2.613689999999999625e-01 4.149020000000000152e+01 1.634704999999999927e+03
4.400000000000000439e-02 7.965610000000000746e-01 7.369944999999999968e-01 4.196875000000000000e+01 1.634759999999999991e+03
4.499999999999999833e-02 7.968250000000000055e-01 1.364979999999999860e+00 4.288585000000000491e+01 1.634924999999999955e+03
4.599999999999999922e-02 7.972025000000000361e-01 2.150094999999999867e+00 4.422194999999999965e+01 1.635199999999999818e+03
4.700000000000000011e-02 7.976909999999999279e-01 3.096404999999999852e+00 4.595799999999999841e+01 1.635565000000000055e+03
4.800000000000000100e-02 7.982854999999999812e-01 4.203795000000000393e+00 4.807264999999999588e+01 1.636035000000000082e+03
4.900000000000000189e-02 7.989774999999998961e-01 5.465125000000000455e+00 5.053829999999999956e+01 1.636589999999999918e+03
5.000000000000000278e-02 7.997549999999999937e-01 6.865014000000000394e+00 5.331830000000000780e+01 1.637220000000000027e+03
5.100000000000000366e-02 8.006029999999999536e-01 8.379919499999999744e+00 5.636584999999999468e+01 1.637929999999999836e+03
5.200000000000000455e-02 8.015034999999999243e-01 9.979885000000001227e+00 5.962534999999999741e+01 1.638699999999999818e+03
5.300000000000000544e-02 8.024374999999999147e-01 1.163097999999999921e+01 6.303470000000000084e+01 1.639509999999999991e+03
5.399999999999999939e-02 8.033860000000000445e-01 1.329839500000000108e+01 6.652984999999999616e+01 1.640349999999999909e+03
5.500000000000000028e-02 8.043329999999999647e-01 1.494921500000000059e+01 7.004869999999999663e+01 1.641210000000000036e+03
5.600000000000000117e-02 8.052634999999999099e-01 1.655467499999999959e+01 7.353549999999999898e+01 1.642075000000000045e+03
5.700000000000000205e-02 8.061669999999999670e-01 1.809169999999999945e+01 7.694405000000000427e+01 1.642925000000000182e+03
5.800000000000000294e-02 8.070370000000000044e-01 1.954350000000000165e+01 8.023959999999999582e+01 1.643755000000000109e+03
5.900000000000000383e-02 8.078695000000000181e-01 2.089955000000000140e+01 8.339975000000001160e+01 1.644565000000000055e+03
6.000000000000000472e-02 8.086649999999999672e-01 2.215474999999999994e+01 8.641379999999999484e+01 1.645345000000000027e+03
6.099999999999999867e-02 8.094239999999999213e-01 2.330879999999999797e+01 8.928145000000000664e+01 1.646090000000000146e+03
6.199999999999999956e-02 8.101504999999999956e-01 2.436479999999999890e+01 9.201085000000000491e+01 1.646809999999999945e+03
6.300000000000000044e-02 8.108500000000000707e-01 2.532825000000000060e+01 9.461615000000000464e+01 1.647494999999999891e+03
6.400000000000000133e-02 8.115265000000000395e-01 2.620629999999999882e+01 9.711560000000000059e+01 1.648159999999999854e+03
6.500000000000000222e-02 8.121860000000000746e-01 2.700665000000000049e+01 9.952849999999999397e+01 1.648799999999999955e+03
6.600000000000000311e-02 8.128319999999999990e-01 2.773675000000000068e+01 1.018736000000000104e+02 1.649425000000000182e+03
6.700000000000000400e-02 8.134689999999999976e-01 2.840319999999999823e+01 1.041677499999999981e+02 1.650030000000000200e+03
6.800000000000000488e-02 8.140990000000000171e-01 2.901100000000000279e+01 1.064225000000000136e+02 1.650630000000000109e+03
6.900000000000000577e-02 8.147225000000000161e-01 2.956334999999999980e+01 1.086460000000000008e+02 1.651214999999999918e+03
7.000000000000000666e-02 8.153390000000000359e-01 3.006130000000000280e+01 1.108384999999999962e+02 1.651795000000000073e+03
7.100000000000000755e-02 8.159460000000000601e-01 3.050365000000000038e+01 1.129939999999999998e+02 1.652365000000000009e+03
7.200000000000000844e-02 8.165394999999999737e-01 3.088759999999999906e+01 1.151039999999999992e+02 1.652925000000000182e+03
7.300000000000000933e-02 8.171140000000000070e-01 3.120880000000000010e+01 1.171520000000000010e+02 1.653469999999999800e+03
7.399999999999999634e-02 8.176649999999999752e-01 3.146220000000000283e+01 1.191204999999999927e+02 1.653994999999999891e+03
7.499999999999999722e-02 8.181864999999999277e-01 3.164260000000000161e+01 1.209885000000000019e+02 1.654500000000000000e+03
7.599999999999999811e-02 8.186729999999999841e-01 3.174499999999999744e+01 1.227379999999999995e+02 1.654970000000000027e+03
7.699999999999999900e-02 8.191200000000000703e-01 3.176549999999999940e+01 1.243499999999999943e+02 1.655410000000000082e+03
7.799999999999999989e-02 8.195235000000000714e-01 3.170105000000000217e+01 1.258064999999999998e+02 1.655815000000000055e+03
7.900000000000000078e-02 8.198799999999999422e-01 3.155014999999999858e+01 1.270949999999999989e+02 1.656174999999999955e+03
8.000000000000000167e-02 8.201875000000000693e-01 3.131265000000000143e+01 1.282069999999999936e+02 1.656494999999999891e+03
8.100000000000000255e-02 8.204449999999999799e-01 3.098999999999999844e+01 1.291354999999999791e+02 1.656764999999999873e+03
8.200000000000000344e-02 8.206525000000000070e-01 3.058490000000000109e+01 1.298795000000000073e+02 1.656994999999999891e+03
8.300000000000000433e-02 8.208104999999999984e-01 3.010154999999999959e+01 1.304410000000000025e+02 1.657174999999999955e+03
8.400000000000000522e-02 8.209220000000000406e-01 2.954560000000000031e+01 1.308249999999999886e+02 1.657309999999999945e+03
8.500000000000000611e-02 8.209880000000000511e-01 2.892389999999999972e+01 1.310420000000000016e+02 1.657405000000000200e+03
8.600000000000000699e-02 8.210129999999999928e-01 2.824450000000000216e+01 1.311034999999999968e+02 1.657454999999999927e+03
8.700000000000000788e-02 8.210014999999999397e-01 2.751674999999999827e+01 1.310255000000000223e+02 1.657465000000000146e+03
8.800000000000000877e-02 8.209584999999999244e-01 2.675055000000000049e+01 1.308240000000000123e+02 1.657449999999999818e+03
8.899999999999999578e-02 8.208879999999999511e-01 2.595680000000000121e+01 1.305194999999999936e+02 1.657394999999999982e+03
8.999999999999999667e-02 8.207964999999999289e-01 2.514630000000000010e+01 1.301310000000000002e+02 1.657324999999999818e+03
9.099999999999999756e-02 8.206895000000000717e-01 2.432994999999999663e+01 1.296794999999999902e+02 1.657224999999999909e+03
9.199999999999999845e-02 8.205724999999999270e-01 2.351814999999999856e+01 1.291844999999999857e+02 1.657119999999999891e+03
9.299999999999999933e-02 8.204489999999999839e-01 2.272019999999999840e+01 1.286659999999999968e+02 1.657000000000000000e+03
9.400000000000000022e-02 8.203245000000000120e-01 2.194409999999999883e+01 1.281390000000000100e+02 1.656875000000000000e+03
9.500000000000000111e-02 8.202019999999999866e-01 2.119620000000000104e+01 1.276189999999999998e+02 1.656750000000000000e+03
9.600000000000000200e-02 8.200834999999999653e-01 2.048089999999999833e+01 1.271159999999999997e+02 1.656625000000000000e+03
9.700000000000000289e-02 8.199710000000000054e-01 1.980055000000000121e+01 1.266374999999999886e+02 1.656500000000000000e+03
9.800000000000000377e-02 8.198644999999999960e-01 1.915569999999999951e+01 1.261870000000000118e+02 1.656384999999999991e+03
9.900000000000000466e-02 8.197634999999999783e-01 1.854479999999999862e+01 1.257644999999999982e+02 1.656275000000000091e+03
1.000000000000000056e-01 8.196669999999999234e-01 1.796464999999999890e+01 1.253675000000000068e+02 1.656164999999999964e+03
1.010000000000000064e-01 8.195729999999999960e-01 1.741084999999999994e+01 1.249885000000000019e+02 1.656059999999999945e+03
1.020000000000000073e-01 8.194784999999999986e-01 1.687764999999999915e+01 1.246209999999999951e+02 1.655960000000000036e+03
1.030000000000000082e-01 8.193814999999999849e-01 1.635889999999999844e+01 1.242540000000000049e+02 1.655860000000000127e+03
1.040000000000000091e-01 8.192785000000000206e-01 1.584789999999999921e+01 1.238780000000000001e+02 1.655759999999999991e+03
1.050000000000000100e-01 8.191679999999998962e-01 1.533805000000000085e+01 1.234815000000000111e+02 1.655655000000000200e+03
1.059999999999999970e-01 8.190459999999999408e-01 1.482310000000000016e+01 1.230550000000000068e+02 1.655545000000000073e+03
1.069999999999999979e-01 8.189109999999999445e-01 1.429734999999999978e+01 1.225895000000000010e+02 1.655425000000000182e+03
1.079999999999999988e-01 8.187614999999999199e-01 1.375609999999999999e+01 1.220765000000000100e+02 1.655295000000000073e+03
1.089999999999999997e-01 8.185964999999999492e-01 1.319578999999999880e+01 1.215120000000000005e+02 1.655150000000000091e+03
1.100000000000000006e-01 8.184154999999999625e-01 1.261427500000000101e+01 1.208930000000000007e+02 1.655000000000000000e+03
1.110000000000000014e-01 8.182190000000000296e-01 1.201083000000000034e+01 1.202195000000000107e+02 1.654835000000000036e+03
1.120000000000000023e-01 8.180089999999999861e-01 1.138635000000000019e+01 1.194929999999999950e+02 1.654654999999999973e+03
1.130000000000000032e-01 8.177860000000000129e-01 1.074318500000000043e+01 1.187205000000000013e+02 1.654464999999999918e+03
1.140000000000000041e-01 8.175544999999999618e-01 1.008518499999999918e+01 1.179104999999999990e+02 1.654264999999999873e+03
1.150000000000000050e-01 8.173165000000000013e-01 9.417664999999999509e+00 1.170724999999999909e+02 1.654059999999999945e+03
1.160000000000000059e-01 8.170764999999999834e-01 8.746735000000001037e+00 1.162194999999999965e+02 1.653849999999999909e+03
1.170000000000000068e-01 8.168385000000000229e-01 8.079629999999999868e+00 1.153659999999999997e+02 1.653630000000000109e+03
1.180000000000000077e-01 8.166065000000000129e-01 7.423969999999999736e+00 1.145264999999999986e+02 1.653420000000000073e+03
1.190000000000000085e-01 8.163849999999999163e-01 6.787404999999999688e+00 1.137160000000000082e+02 1.653215000000000146e+03
1.200000000000000094e-01 8.161775000000000002e-01 6.177665000000000184e+00 1.129490000000000123e+02 1.653014999999999873e+03
1.209999999999999964e-01 8.159879999999999356e-01 5.601789999999999381e+00 1.122400000000000091e+02 1.652829999999999927e+03
1.219999999999999973e-01 8.158189999999999609e-01 5.066079999999999472e+00 1.115995000000000061e+02 1.652660000000000082e+03
1.229999999999999982e-01 8.156734999999999403e-01 4.575709999999999944e+00 1.110380000000000109e+02 1.652509999999999991e+03
1.239999999999999991e-01 8.155525000000000135e-01 4.134590000000000209e+00 1.105619999999999976e+02 1.652375000000000000e+03
1.250000000000000000e-01 8.154559999999999587e-01 3.745169999999999888e+00 1.101765000000000043e+02 1.652269999999999982e+03
1.260000000000000009e-01 8.153854999999999853e-01 3.408409999999999940e+00 1.098815000000000026e+02 1.652180000000000064e+03
1.270000000000000018e-01 8.153384999999999661e-01 3.123790000000000067e+00 1.096754999999999995e+02 1.652110000000000127e+03
1.280000000000000027e-01 8.153144999999999420e-01 2.889369999999999994e+00 1.095540000000000020e+02 1.652059999999999945e+03
1.290000000000000036e-01 8.153099999999999792e-01 2.701975000000000016e+00 1.095099999999999909e+02 1.652035000000000082e+03
1.300000000000000044e-01 8.153234999999999788e-01 2.557369999999999699e+00 1.095339999999999918e+02 1.652019999999999982e+03
1.310000000000000053e-01 8.153509999999999369e-01 2.450515000000000221e+00 1.096150000000000091e+02 1.652029999999999973e+03
1.320000000000000062e-01 8.153884999999999605e-01 2.375809999999999977e+00 1.097415000000000020e+02 1.652050000000000182e+03
1.330000000000000071e-01 8.154339999999999922e-01 2.327340000000000408e+00 1.099020000000000010e+02 1.652079999999999927e+03
1.340000000000000080e-01 8.154839999999999867e-01 2.299154999999999838e+00 1.100835000000000008e+02 1.652110000000000127e+03
1.350000000000000089e-01 8.155360000000000387e-01 2.285445000000000171e+00 1.102750000000000057e+02 1.652154999999999973e+03
1.360000000000000098e-01 8.155854999999999633e-01 2.280750000000000277e+00 1.104650000000000034e+02 1.652194999999999936e+03
1.370000000000000107e-01 8.156315000000000648e-01 2.280089999999999950e+00 1.106460000000000008e+02 1.652235000000000127e+03
1.380000000000000115e-01 8.156719999999999526e-01 2.279085000000000250e+00 1.108089999999999975e+02 1.652269999999999982e+03
1.390000000000000124e-01 8.157050000000000134e-01 2.274035000000000029e+00 1.109474999999999909e+02 1.652304999999999836e+03
1.400000000000000133e-01 8.157304999999999140e-01 2.261950000000000127e+00 1.110570000000000022e+02 1.652335000000000036e+03
1.410000000000000142e-01 8.157469999999999999e-01 2.240569999999999951e+00 1.111355000000000075e+02 1.652355000000000018e+03
1.420000000000000151e-01 8.157544999999999380e-01 2.208339999999999748e+00 1.111804999999999950e+02 1.652369999999999891e+03
1.430000000000000160e-01 8.157529999999999504e-01 2.164400000000000102e+00 1.111914999999999907e+02 1.652375000000000000e+03
1.440000000000000169e-01 8.157434999999999548e-01 2.108519999999999950e+00 1.111705000000000041e+02 1.652375000000000000e+03
1.450000000000000178e-01 8.157259999999999511e-01 2.041034999999999933e+00 1.111194999999999879e+02 1.652360000000000127e+03
1.459999999999999909e-01 8.157015000000000793e-01 1.962785000000000002e+00 1.110409999999999968e+02 1.652345000000000027e+03
1.469999999999999918e-01 8.156714999999999938e-01 1.874985000000000124e+00 1.109380000000000024e+02 1.652324999999999818e+03
1.479999999999999927e-01 8.156365000000000975e-01 1.779185000000000016e+00 1.108145000000000095e+02 1.652299999999999955e+03
1.489999999999999936e-01 8.155974999999999753e-01 1.677105499999999916e+00 1.106744999999999948e+02 1.652269999999999982e+03
1.499999999999999944e-01 8.155559999999999476e-01 1.570584000000000202e+00 1.105224999999999937e+02 1.652235000000000127e+03
1.509999999999999953e-01 8.155129999999999324e-01 1.461446500000000093e+00 1.103615000000000066e+02 1.652195000000000164e+03
1.519999999999999962e-01 8.154684999999999295e-01 1.351432500000000037e+00 1.101949999999999932e+02 1.652155000000000200e+03
1.529999999999999971e-01 8.154244999999999965e-01 1.242110000000000047e+00 1.100254999999999939e+02 1.652115000000000009e+03
1.539999999999999980e-01 8.153799999999999937e-01 1.134823499999999985e+00 1.098549999999999898e+02 1.652074999999999818e+03
1.549999999999999989e-01 8.153360000000000607e-01 1.030638000000000165e+00 1.096864999999999952e+02 1.652034999999999854e+03
1.559999999999999998e-01 8.152924999999999756e-01 9.303384999999999572e-01 1.095180000000000007e+02 1.651994999999999891e+03
1.570000000000000007e-01 8.152500000000000302e-01 8.344159999999999355e-01 1.093520000000000039e+02 1.651950000000000045e+03
1.580000000000000016e-01 8.152070000000000149e-01 7.431065000000000031e-01 1.091875000000000000e+02 1.651904999999999973e+03
1.590000000000000024e-01 8.151639999999999997e-01 6.564198500000000269e-01 1.090229999999999961e+02 1.651869999999999891e+03
