# t [s], A [cm^2], U [cm/s], P [cPa], c [cm/s]
1.000000000000000021e-03 6.842805000000000692e-01 6.061600000000000321e-03 1.025725000000000051e+02 1.650250000000000000e+03
2.000000000000000042e-03 6.842684999999999462e-01 -4.371540000000000148e-03 1.025434999999999945e+02 1.650240000000000009e+03
3.000000000000000062e-03 6.843144999999999367e-01 7.071364999999998902e-02 1.026264999999999930e+02 1.650259999999999991e+03
4.000000000000000083e-03 6.843704999999999927e-01 1.701904999999999946e-01 1.027545000000000073e+02 1.650295000000000073e+03
5.000000000000000104e-03 6.843570000000001041e-01 1.692670000000000008e-01 1.027355000000000018e+02 1.650289999999999964e+03
6.000000000000000125e-03 6.842909999999999826e-01 8.138150000000002326e-02 1.025459999999999923e+02 1.650250000000000000e+03
7.000000000000000146e-03 6.842364999999999142e-01 5.709999999999992859e-03 1.023089999999999975e+02 1.650199999999999818e+03
8.000000000000000167e-03 6.841665000000000108e-01 -1.049204999999999721e-01 1.019900000000000091e+02 1.650125000000000000e+03
9.000000000000001055e-03 6.840435000000000265e-01 -3.206299999999999706e-01 1.014929999999999950e+02 1.650009999999999991e+03
1.000000000000000194e-02 6.838614999999999000e-01 -6.501150000000001095e-01 1.007746999999999957e+02 1.649855000000000018e+03
1.099999999999999936e-02 6.836069999999999647e-01 -1.110755000000000159e+00 9.977840000000000487e+01 1.649630000000000109e+03
1.200000000000000025e-02 6.832605000000000484e-01 -1.719730000000000203e+00 9.843899999999999295e+01 1.649325000000000045e+03
1.300000000000000114e-02 6.828425000000000189e-01 -2.427239999999999842e+00 9.677495000000000402e+01 1.648940000000000055e+03
1.400000000000000203e-02 6.824109999999999898e-01 -3.107005000000000017e+00 9.492519999999998959e+01 1.648500000000000000e+03
1.499999999999999944e-02 6.820285000000000375e-01 -3.617717500000000364e+00 9.308445000000000391e+01 1.648045000000000073e+03
1.600000000000000033e-02 6.817290000000000294e-01 -3.869342800000000082e+00 9.141069999999999141e+01 1.647599999999999909e+03
1.700000000000000122e-02 6.815069999999999739e-01 -3.848776500000000045e+00 8.996799999999998931e+01 1.647204999999999927e+03
1.800000000000000211e-02 6.813270000000000159e-01 -3.606160500000000102e+00 8.872309999999998809e+01 1.646840000000000146e+03
1.900000000000000300e-02 6.811445000000000416e-01 -3.222185000000000077e+00 8.757930000000000348e+01 1.646494999999999891e+03
2.000000000000000042e-02 6.809235000000000149e-01 -2.774008849999999970e+00 8.642324999999999591e+01 1.646140000000000100e+03
2.100000000000000130e-02 6.806475000000000719e-01 -2.310454500000000078e+00 8.516825000000000045e+01 1.645769999999999982e+03
2.200000000000000219e-02 6.803190000000000071e-01 -1.842084999999999972e+00 8.378074999999999761e+01 1.645369999999999891e+03
2.299999999999999961e-02 6.799604999999999677e-01 -1.347560000000000091e+00 8.228289999999999793e+01 1.644945000000000164e+03
2.400000000000000050e-02 6.795964999999999367e-01 -7.921049999999998370e-01 8.073404999999999632e+01 1.644500000000000000e+03
2.500000000000000139e-02 6.792464999999999753e-01 -1.496149999999998315e-01 7.919964999999999122e+01 1.644054999999999836e+03
2.600000000000000228e-02 6.789184999999999803e-01 5.806599999999999540e-01 7.772175000000000011e+01 1.643630000000000109e+03
2.700000000000000316e-02 6.786019999999999275e-01 1.367459999999999898e+00 7.630070000000000618e+01 1.643204999999999927e+03
2.800000000000000058e-02 6.782755000000000312e-01 2.151410000000000267e+00 7.489135000000000275e+01 1.642784999999999854e+03
2.900000000000000147e-02 6.779109999999999303e-01 2.857019999999999893e+00 7.341390000000001237e+01 1.642355000000000018e+03
3.000000000000000236e-02 6.774809999999999999e-01 3.409180000000000099e+00 7.177400000000000091e+01 1.641889999999999873e+03
3.099999999999999978e-02 6.769669999999999854e-01 3.750314999999999621e+00 6.988904999999999745e+01 1.641380000000000109e+03
3.200000000000000067e-02 6.763665000000000926e-01 3.853720000000000034e+00 6.771264999999999645e+01 1.640800000000000182e+03
3.300000000000000155e-02 6.756930000000000991e-01 3.729414999999999925e+00 6.525010000000000332e+01 1.640154999999999973e+03
3.400000000000000244e-02 6.749735000000000040e-01 3.420310000000000183e+00 6.256135000000000446e+01 1.639465000000000146e+03
3.500000000000000333e-02 6.742440000000000655e-01 2.991114999999999746e+00 5.975010000000000332e+01 1.638740000000000009e+03
3.600000000000000422e-02 6.735409999999999453e-01 2.513980000000000548e+00 5.694459999999999411e+01 1.638005000000000109e+03
3.700000000000000511e-02 6.728959999999999386e-01 2.055140000000000189e+00 5.427580000000000382e+01 1.637300000000000182e+03
3.799999999999999906e-02 6.723324999999999996e-01 1.666564999999999408e+00 5.186005000000000109e+01 1.636644999999999982e+03
3.899999999999999994e-02 6.718655000000000044e-01 1.382570000000000299e+00 4.978699999999999903e+01 1.636065000000000055e+03
4.000000000000000083e-02 6.714999999999999858e-01 1.220790000000000042e+00 4.811549999999999727e+01 1.635579999999999927e+03
4.100000000000000172e-02 6.712359999999999438e-01 1.186370000000000147e+00 4.687514999999999787e+01 1.635200000000000045e+03
4.200000000000000261e-02 6.710715000000000430e-01 1.277390000000000247e+00 4.607224999999999682e+01 1.634930000000000064e+03
4.300000000000000350e-02 6.710004999999999997e-01 1.490237199999999929e+00 4.569774999999999920e+01 1.634769999999999982e+03
4.400000000000000439e-02 6.710194999999999910e-01 1.823509999999999964e+00 4.573574999999999591e+01 1.634720000000000027e+03
4.499999999999999833e-02 6.711264999999999592e-01 2.279875000000000096e+00 4.616929999999999978e+01 1.634780000000000200e+03
4.599999999999999922e-02 6.713204999999999867e-01 2.865577000000000041e+00 4.698375000000000057e+01 1.634940000000000055e+03
4.700000000000000011e-02 6.716005000000000447e-01 3.588151499999999938e+00 4.816684999999999661e+01 1.635195000000000164e+03
4.800000000000000100e-02 6.719650000000000345e-01 4.453185500000000019e+00 4.970609999999999928e+01 1.635550000000000182e+03
4.900000000000000189e-02 6.724105000000000221e-01 5.461314999999999920e+00 5.158520000000000039e+01 1.635994999999999891e+03
5.000000000000000278e-02 6.729309999999999459e-01 6.605974999999999930e+00 5.378085000000000093e+01 1.636525000000000091e+03
5.100000000000000366e-02 6.735160000000000036e-01 7.872925000000000395e+00 5.626059999999999661e+01 1.637139999999999873e+03
5.200000000000000455e-02 6.741550000000000598e-01 9.240739999999998844e+00 5.898239999999999839e+01 1.637820000000000164e+03
5.300000000000000544e-02 6.748330000000000162e-01 1.068273500000000098e+01 6.189650000000000318e+01 1.638555000000000064e+03
5.399999999999999939e-02 6.755364999999999842e-01 1.216938999999999993e+01 6.494809999999999661e+01 1.639335000000000036e+03
5.500000000000000028e-02 6.762525000000000341e-01 1.367112999999999978e+01 6.808135000000000048e+01 1.640150000000000091e+03
5.600000000000000117e-02 6.769685000000000841e-01 1.516059999999999874e+01 7.124330000000000496e+01 1.640980000000000018e+03
5.700000000000000205e-02 6.776750000000000274e-01 1.661464499999999944e+01 7.438745000000000118e+01 1.641815000000000055e+03
5.800000000000000294e-02 6.783649999999999958e-01 1.801534999999999798e+01 7.747624999999999318e+01 1.642650000000000091e+03
5.900000000000000383e-02 6.790344999999999853e-01 1.935025000000000261e+01 8.048279999999999745e+01 1.643465000000000146e+03
6.000000000000000472e-02 6.796819999999998974e-01 2.061234999999999928e+01 8.339095000000000368e+01 1.644264999999999873e+03
6.099999999999999867e-02 6.803069999999999951e-01 2.179894999999999783e+01 8.619469999999999743e+01 1.645039999999999964e+03
6.199999999999999956e-02 6.809119999999999617e-01 2.291110000000000113e+01 8.889650000000000318e+01 1.645789999999999964e+03
6.300000000000000044e-02 6.814999999999999947e-01 2.395230000000000103e+01 9.150544999999999618e+01 1.646525000000000091e+03
6.400000000000000133e-02 6.820744999999999170e-01 2.492770000000000152e+01 9.403544999999999732e+01 1.647235000000000127e+03
6.500000000000000222e-02 6.826399999999999135e-01 2.584304999999999808e+01 9.650155000000000882e+01 1.647930000000000064e+03
6.600000000000000311e-02 6.831985000000000419e-01 2.670404999999999873e+01 9.892135000000000389e+01 1.648615000000000009e+03
6.700000000000000400e-02 6.837535000000000140e-01 2.751570000000000249e+01 1.013084499999999935e+02 1.649289999999999964e+03
6.800000000000000488e-02 6.843069999999999986e-01 2.828170000000000073e+01 1.036745999999999981e+02 1.649954999999999927e+03
6.900000000000000577e-02 6.848594999999999544e-01 2.900410000000000110e+01 1.060264999999999986e+02 1.650619999999999891e+03
7.000000000000000666e-02 6.854104999999999226e-01 2.968319999999999936e+01 1.083675000000000068e+02 1.651275000000000091e+03
7.100000000000000755e-02 6.859584999999999155e-01 3.031745000000000090e+01 1.106935000000000002e+02 1.651934999999999945e+03
7.200000000000000844e-02 6.865004999999999580e-01 3.090359999999999729e+01 1.129954999999999927e+02 1.652585000000000036e+03
7.300000000000000933e-02 6.870335000000000747e-01 3.143714999999999904e+01 1.152630000000000052e+02 1.653224999999999909e+03
7.399999999999999634e-02 6.875530000000000808e-01 3.191280000000000427e+01 1.174784999999999968e+02 1.653849999999999909e+03
7.499999999999999722e-02 6.880545000000000133e-01 3.232509999999999906e+01 1.196250000000000000e+02 1.654460000000000036e+03
7.599999999999999811e-02 6.885350000000000081e-01 3.266859999999999786e+01 1.216839999999999975e+02 1.655050000000000182e+03
7.699999999999999900e-02 6.889890000000000736e-01 3.293869999999999720e+01 1.236370000000000005e+02 1.655615000000000009e+03
7.799999999999999989e-02 6.894139999999999713e-01 3.313170000000000215e+01 1.254685000000000059e+02 1.656144999999999982e+03
7.900000000000000078e-02 6.898070000000000590e-01 3.324490000000000123e+01 1.271640000000000015e+02 1.656640000000000100e+03
8.000000000000000167e-02 6.901654999999999873e-01 3.327685000000000315e+01 1.287130000000000223e+02 1.657099999999999909e+03
8.100000000000000255e-02 6.904879999999999907e-01 3.322740000000000293e+01 1.301065000000000111e+02 1.657514999999999873e+03
8.200000000000000344e-02 6.907745000000000690e-01 3.309754999999999825e+01 1.313410000000000082e+02 1.657889999999999873e+03
8.300000000000000433e-02 6.910245000000000415e-01 3.288935000000000031e+01 1.324130000000000109e+02 1.658224999999999909e+03
8.400000000000000522e-02 6.912380000000000191e-01 3.260629999999999740e+01 1.333249999999999886e+02 1.658514999999999873e+03
8.500000000000000611e-02 6.914164999999999894e-01 3.225280000000000058e+01 1.340815000000000055e+02 1.658759999999999991e+03
8.600000000000000699e-02 6.915624999999999689e-01 3.183460000000000178e+01 1.346889999999999930e+02 1.658965000000000146e+03
8.700000000000000788e-02 6.916765000000000274e-01 3.135849999999999937e+01 1.351580000000000155e+02 1.659130000000000109e+03
8.800000000000000877e-02 6.917630000000000168e-01 3.083230000000000359e+01 1.355000000000000000e+02 1.659259999999999991e+03
8.899999999999999578e-02 6.918254999999999821e-01 3.026460000000000150e+01 1.357294999999999732e+02 1.659355000000000018e+03
8.999999999999999667e-02 6.918670000000000098e-01 2.966464999999999819e+01 1.358619999999999948e+02 1.659420000000000073e+03
9.099999999999999756e-02 6.918914999999999926e-01 2.904209999999999781e+01 1.359139999999999873e+02 1.659465000000000146e+03
9.199999999999999845e-02 6.919020000000000170e-01 2.840635000000000332e+01 1.359029999999999916e+02 1.659485000000000127e+03
9.299999999999999933e-02 6.919035000000000046e-01 2.776650000000000063e+01 1.358439999999999941e+02 1.659485000000000127e+03
9.400000000000000022e-02 6.918984999999999719e-01 2.713060000000000116e+01 1.357535000000000025e+02 1.659474999999999909e+03
9.500000000000000111e-02 6.918900000000000050e-01 2.650565000000000282e+01 1.356449999999999818e+02 1.659460000000000036e+03
9.600000000000000200e-02 6.918804999999998984e-01 2.589710000000000178e+01 1.355294999999999845e+02 1.659434999999999945e+03
9.700000000000000289e-02 6.918699999999999850e-01 2.530865000000000009e+01 1.354145000000000039e+02 1.659414999999999964e+03
9.800000000000000377e-02 6.918610000000000593e-01 2.474224999999999852e+01 1.353054999999999950e+02 1.659384999999999991e+03
9.900000000000000466e-02 6.918524999999999814e-01 2.419814999999999827e+01 1.352050000000000125e+02 1.659360000000000127e+03
1.000000000000000056e-01 6.918440000000000145e-01 2.367490000000000094e+01 1.351114999999999782e+02 1.659335000000000036e+03
1.010000000000000064e-01 6.918345000000000189e-01 2.316985000000000028e+01 1.350199999999999818e+02 1.659309999999999945e+03
1.020000000000000073e-01 6.918214999999999781e-01 2.267914999999999992e+01 1.349259999999999877e+02 1.659279999999999973e+03
1.030000000000000082e-01 6.918044999999999334e-01 2.219810000000000016e+01 1.348209999999999980e+02 1.659250000000000000e+03
1.040000000000000091e-01 6.917800000000000615e-01 2.172160000000000224e+01 1.346970000000000027e+02 1.659215000000000146e+03
1.050000000000000100e-01 6.917474999999999596e-01 2.124439999999999884e+01 1.345440000000000111e+02 1.659170000000000073e+03
1.059999999999999970e-01 6.917035000000000267e-01 2.076129999999999853e+01 1.343539999999999850e+02 1.659119999999999891e+03
1.069999999999999979e-01 6.916474999999999707e-01 2.026760000000000161e+01 1.341184999999999832e+02 1.659059999999999945e+03
1.079999999999999988e-01 6.915780000000000260e-01 1.975925000000000153e+01 1.338310000000000173e+02 1.658985000000000127e+03
1.089999999999999997e-01 6.914940000000000531e-01 1.923304999999999865e+01 1.334859999999999900e+02 1.658894999999999982e+03
1.100000000000000006e-01 6.913949999999999818e-01 1.868694999999999951e+01 1.330810000000000173e+02 1.658789999999999964e+03
1.110000000000000014e-01 6.912810000000000343e-01 1.811994999999999933e+01 1.326154999999999973e+02 1.658670000000000073e+03
1.120000000000000023e-01 6.911540000000000461e-01 1.753249999999999886e+01 1.320904999999999916e+02 1.658534999999999854e+03
1.130000000000000032e-01 6.910140000000000171e-01 1.692624999999999957e+01 1.315109999999999957e+02 1.658384999999999991e+03
1.140000000000000041e-01 6.908635000000000748e-01 1.630430000000000135e+01 1.308834999999999980e+02 1.658220000000000027e+03
1.150000000000000050e-01 6.907054999999999723e-01 1.567079999999999984e+01 1.302175000000000011e+02 1.658045000000000073e+03
1.160000000000000059e-01 6.905419999999999892e-01 1.503105000000000047e+01 1.295235000000000127e+02 1.657865000000000009e+03
1.170000000000000068e-01 6.903764999999999485e-01 1.439122500000000038e+01 1.288139999999999930e+02 1.657674999999999955e+03
1.180000000000000077e-01 6.902120000000000477e-01 1.375805499999999881e+01 1.281034999999999968e+02 1.657480000000000018e+03
1.190000000000000085e-01 6.900519999999999987e-01 1.313854999999999862e+01 1.274055000000000035e+02 1.657295000000000073e+03
1.200000000000000094e-01 6.898999999999999577e-01 1.253984999999999950e+01 1.267344999999999970e+02 1.657105000000000018e+03
1.209999999999999964e-01 6.897590000000000110e-01 1.196879500000000007e+01 1.261040000000000134e+02 1.656934999999999945e+03
1.219999999999999973e-01 6.896314999999999529e-01 1.143162500000000037e+01 1.255259999999999962e+02 1.656769999999999982e+03
1.229999999999999982e-01 6.895199999999999108e-01 1.093390499999999932e+01 1.250120000000000005e+02 1.656625000000000000e+03
1.239999999999999991e-01 6.894264999999999421e-01 1.047995500000000035e+01 1.245709999999999980e+02 1.656494999999999891e+03
1.250000000000000000e-01 6.893515000000000059e-01 1.007312499999999922e+01 1.242085000000000008e+02 1.656380000000000109e+03
1.260000000000000009e-01 6.892960000000000198e-01 9.715374999999999872e+00 1.239279999999999973e+02 1.656289999999999964e+03
1.270000000000000018e-01 6.892594999999999139e-01 9.407354999999999023e+00 1.237319999999999993e+02 1.656219999999999800e+03
1.280000000000000027e-01 6.892409999999999926e-01 9.148365000000000080e+00 1.236175000000000068e+02 1.656175000000000182e+03
1.290000000000000036e-01 6.892409999999999926e-01 8.936574999999999491e+00 1.235815000000000055e+02 1.656150000000000091e+03
1.300000000000000044e-01 6.892555000000000209e-01 8.769050000000000011e+00 1.236165000000000020e+02 1.656139999999999873e+03
1.310000000000000053e-01 6.892845000000000777e-01 8.641985000000000028e+00 1.237164999999999964e+02 1.656154999999999973e+03
1.320000000000000062e-01 6.893249999999999655e-01 8.550924999999999443e+00 1.238710000000000093e+02 1.656180000000000064e+03
1.330000000000000071e-01 6.893745000000000012e-01 8.490985000000000227e+00 1.240705000000000098e+02 1.656220000000000027e+03
1.340000000000000080e-01 6.894299999999999873e-01 8.457065000000000055e+00 1.243050000000000068e+02 1.656269999999999982e+03
1.350000000000000089e-01 6.894909999999999650e-01 8.444100000000000605e+00 1.245649999999999977e+02 1.656329999999999927e+03
1.360000000000000098e-01 6.895540000000000003e-01 8.447179999999999467e+00 1.248400000000000034e+02 1.656400000000000091e+03
1.370000000000000107e-01 6.896179999999999533e-01 8.461750000000000327e+00 1.251219999999999999e+02 1.656465000000000146e+03
1.380000000000000115e-01 6.896809999999999885e-01 8.483679999999999666e+00 1.254029999999999916e+02 1.656534999999999854e+03
1.390000000000000124e-01 6.897415000000000074e-01 8.509359999999999147e+00 1.256779999999999973e+02 1.656610000000000127e+03
1.400000000000000133e-01 6.897999999999999687e-01 8.535740000000000549e+00 1.259410000000000025e+02 1.656675000000000182e+03
1.410000000000000142e-01 6.898539999999999672e-01 8.560335000000000250e+00 1.261889999999999930e+02 1.656740000000000009e+03
1.420000000000000151e-01 6.899045000000000316e-01 8.581215000000000259e+00 1.264205000000000041e+02 1.656804999999999836e+03
1.430000000000000160e-01 6.899509999999999810e-01 8.596994999999999720e+00 1.266324999999999932e+02 1.656865000000000009e+03
1.440000000000000169e-01 6.899930000000000785e-01 8.606790000000000163e+00 1.268265000000000100e+02 1.656914999999999964e+03
1.450000000000000178e-01 6.900315000000000198e-01 8.610170000000000101e+00 1.270020000000000095e+02 1.656970000000000027e+03
1.459999999999999909e-01 6.900669999999999860e-01 8.607089999999999463e+00 1.271610000000000014e+02 1.657014999999999873e+03
1.469999999999999918e-01 6.900990000000000180e-01 8.597865000000000535e+00 1.273059999999999974e+02 1.657055000000000064e+03
1.479999999999999927e-01 6.901289999999999925e-01 8.583085000000000520e+00 1.274380000000000024e+02 1.657095000000000027e+03
1.489999999999999936e-01 6.901565000000000616e-01 8.563539999999999708e+00 1.275605000000000047e+02 1.657134999999999991e+03
1.499999999999999944e-01 6.901835000000000608e-01 8.540155000000000385e+00 1.276749999999999972e+02 1.657164999999999964e+03
1.509999999999999953e-01 6.902094999999999203e-01 8.513944999999999652e+00 1.277845000000000084e+02 1.657195000000000164e+03
1.519999999999999962e-01 6.902355000000000018e-01 8.485879999999999868e+00 1.278905000000000030e+02 1.657235000000000127e+03
1.529999999999999971e-01 6.902610000000000134e-01 8.456904999999999006e+00 1.279955000000000069e+02 1.657259999999999991e+03
1.539999999999999980e-01 6.902869999999999839e-01 8.427809999999999135e+00 1.281005000000000109e+02 1.657289999999999964e+03
1.549999999999999989e-01 6.903129999999999544e-01 8.399235000000000895e+00 1.282069999999999936e+02 1.657324999999999818e+03
1.559999999999999998e-01 6.903405000000000236e-01 8.371615000000000251e+00 1.283140000000000214e+02 1.657355000000000018e+03
1.570000000000000007e-01 6.903675000000000228e-01 8.345189999999998776e+00 1.284225000000000136e+02 1.657384999999999991e+03
1.580000000000000016e-01 6.903950000000000919e-01 8.319990000000000663e+00 1.285314999999999941e+02 1.657414999999999964e+03
1.590000000000000024e-01 6.904220000000000912e-01 8.295860000000001122e+00 1.286405000000000030e+02 1.657445000000000164e+03
