# t [s], A [cm^2], U [cm/s], P [cPa], c [cm/s]
1.000000000000000021e-03 1.817614999999999925e-01 1.905084999999999973e-01 9.855920000000000414e+01 2.077590000000000146e+03
2.000000000000000042e-03 1.817245000000000110e-01 1.560409000000000157e+00 9.566235000000000355e+01 2.077260000000000218e+03
3.000000000000000062e-03 1.816079999999999917e-01 3.313405500000000004e+00 9.155410000000000537e+01 2.076284999999999854e+03
4.000000000000000083e-03 1.814399999999999902e-01 5.304959699999999501e+00 8.682725000000000648e+01 2.074904999999999745e+03
5.000000000000000104e-03 1.812524999999999831e-01 7.474225000000000563e+00 8.232065000000000055e+01 2.073380000000000109e+03
6.000000000000000125e-03 1.810674999999999923e-01 9.689985000000000070e+00 7.847495000000000687e+01 2.071890000000000327e+03
7.000000000000000146e-03 1.808919999999999972e-01 1.175122000000000000e+01 7.521584999999998900e+01 2.070505000000000109e+03
8.000000000000000167e-03 1.807290000000000008e-01 1.352496499999999813e+01 7.229784999999999684e+01 2.069239999999999782e+03
9.000000000000001055e-03 1.805829999999999935e-01 1.501154999999999973e+01 6.969075000000000841e+01 2.068119999999999891e+03
1.000000000000000194e-02 1.804560000000000053e-01 1.624995000000000189e+01 6.748650000000000659e+01 2.067159999999999854e+03
1.099999999999999936e-02 1.803504999999999969e-01 1.726235000000000142e+01 6.571244999999998981e+01 2.066375000000000000e+03
1.200000000000000025e-02 1.802654999999999952e-01 1.806499999999999773e+01 6.433535000000000537e+01 2.065750000000000000e+03
1.300000000000000114e-02 1.801989999999999981e-01 1.866605000000000203e+01 6.328179999999999694e+01 2.065265000000000327e+03
1.400000000000000203e-02 1.801455000000000140e-01 1.906470000000000198e+01 6.243274999999999864e+01 2.064880000000000109e+03
1.499999999999999944e-02 1.801014999999999977e-01 1.928444999999999965e+01 6.169599999999999795e+01 2.064574999999999818e+03
1.600000000000000033e-02 1.800670000000000048e-01 1.940834999999999866e+01 6.113049999999999784e+01 2.064340000000000146e+03
1.700000000000000122e-02 1.800485000000000002e-01 1.956819999999999737e+01 6.097825000000000273e+01 2.064220000000000255e+03
1.800000000000000211e-02 1.800525000000000042e-01 1.988745000000000118e+01 6.154220000000000113e+01 2.064265000000000327e+03
1.900000000000000300e-02 1.800869999999999971e-01 2.041874999999999929e+01 6.299365000000000236e+01 2.064519999999999982e+03
2.000000000000000042e-02 1.801490000000000036e-01 2.111715000000000231e+01 6.524089999999999634e+01 2.064989999999999782e+03
2.100000000000000130e-02 1.802320000000000033e-01 2.185985000000000156e+01 6.793115000000000236e+01 2.065625000000000000e+03
2.200000000000000219e-02 1.803224999999999967e-01 2.249609999999999843e+01 7.057004999999999484e+01 2.066319999999999709e+03
2.299999999999999961e-02 1.804054999999999964e-01 2.290174999999999983e+01 7.269034999999999513e+01 2.066970000000000255e+03
2.400000000000000050e-02 1.804699999999999915e-01 2.301684999999999803e+01 7.399615000000000009e+01 2.067479999999999563e+03
2.500000000000000139e-02 1.805100000000000038e-01 2.285560000000000258e+01 7.443100000000001160e+01 2.067810000000000400e+03
2.600000000000000228e-02 1.805265000000000064e-01 2.248949999999999960e+01 7.415815000000000623e+01 2.067954999999999927e+03
2.700000000000000316e-02 1.805245000000000044e-01 2.201415000000000077e+01 7.347069999999999368e+01 2.067960000000000036e+03
2.800000000000000058e-02 1.805125000000000202e-01 2.151335000000000264e+01 7.267369999999999663e+01 2.067880000000000109e+03
2.900000000000000147e-02 1.804975000000000052e-01 2.103389999999999915e+01 7.198284999999999911e+01 2.067770000000000437e+03
3.000000000000000236e-02 1.804834999999999912e-01 2.057730000000000103e+01 7.147104999999999109e+01 2.067664999999999964e+03
3.099999999999999978e-02 1.804700000000000193e-01 2.010865000000000080e+01 7.107235000000000014e+01 2.067560000000000400e+03
3.200000000000000067e-02 1.804554999999999909e-01 1.957710000000000150e+01 7.063315000000000055e+01 2.067449999999999818e+03
3.300000000000000155e-02 1.804354999999999987e-01 1.894004999999999939e+01 6.998730000000000473e+01 2.067300000000000182e+03
3.400000000000000244e-02 1.804060000000000108e-01 1.818384999999999962e+01 6.903059999999999263e+01 2.067085000000000036e+03
3.500000000000000333e-02 1.803669999999999995e-01 1.733459999999999823e+01 6.777160000000000650e+01 2.066795000000000073e+03
3.600000000000000422e-02 1.803199999999999803e-01 1.645640000000000214e+01 6.634409999999999741e+01 2.066444999999999709e+03
3.700000000000000511e-02 1.802719999999999878e-01 1.563724999999999987e+01 6.497785000000000366e+01 2.066085000000000036e+03
3.799999999999999906e-02 1.802300000000000013e-01 1.496750000000000114e+01 6.393890000000000384e+01 2.065760000000000218e+03
3.899999999999999994e-02 1.802015000000000144e-01 1.451694999999999958e+01 6.345754999999999768e+01 2.065530000000000200e+03
4.000000000000000083e-02 1.801929999999999921e-01 1.431869999999999976e+01 6.366714999999999947e+01 2.065449999999999818e+03
4.100000000000000172e-02 1.802070000000000061e-01 1.436214999999999975e+01 6.457049999999999557e+01 2.065534999999999854e+03
4.200000000000000261e-02 1.802414999999999989e-01 1.459680000000000000e+01 6.603989999999998872e+01 2.065784999999999854e+03
4.300000000000000350e-02 1.802920000000000078e-01 1.494364999999999988e+01 6.784680000000000177e+01 2.066154999999999745e+03
4.400000000000000439e-02 1.803509999999999835e-01 1.531135000000000090e+01 6.971020000000000039e+01 2.066595000000000255e+03
4.499999999999999833e-02 1.804095000000000004e-01 1.561199999999999832e+01 7.134954999999999359e+01 2.067034999999999854e+03
4.599999999999999922e-02 1.804584999999999939e-01 1.577350000000000030e+01 7.253085000000000093e+01 2.067414999999999964e+03
4.700000000000000011e-02 1.804925000000000002e-01 1.574745000000000061e+01 7.309699999999999420e+01 2.067684999999999945e+03
4.800000000000000100e-02 1.805065000000000142e-01 1.551115000000000066e+01 7.297909999999998831e+01 2.067800000000000182e+03
4.900000000000000189e-02 1.804985000000000062e-01 1.506479999999999819e+01 7.219055000000000177e+01 2.067750000000000000e+03
5.000000000000000278e-02 1.804679999999999895e-01 1.442580000000000062e+01 7.080760000000000787e+01 2.067534999999999854e+03
5.100000000000000366e-02 1.804189999999999960e-01 1.362204999999999977e+01 6.894419999999999504e+01 2.067164999999999964e+03
5.200000000000000455e-02 1.803534999999999999e-01 1.268538999999999994e+01 6.672679999999999723e+01 2.066679999999999836e+03
5.300000000000000544e-02 1.802745000000000042e-01 1.164733000000000018e+01 6.427504999999999313e+01 2.066085000000000036e+03
5.399999999999999939e-02 1.801875000000000004e-01 1.053690499999999908e+01 6.169099999999999540e+01 2.065420000000000073e+03
5.500000000000000028e-02 1.800944999999999907e-01 9.380784999999999485e+00 5.905634999999999479e+01 2.064710000000000036e+03
5.600000000000000117e-02 1.799975000000000047e-01 8.204245000000000232e+00 5.643659999999999854e+01 2.063979999999999563e+03
5.700000000000000205e-02 1.799010000000000054e-01 7.033545000000000158e+00 5.388859999999999673e+01 2.063244999999999891e+03
5.800000000000000294e-02 1.798060000000000214e-01 5.897325000000000372e+00 5.146875000000000000e+01 2.062515000000000327e+03
5.900000000000000383e-02 1.797159999999999869e-01 4.827440000000000175e+00 4.923919999999999675e+01 2.061824999999999818e+03
6.000000000000000472e-02 1.796320000000000139e-01 3.858859999999999957e+00 4.727044999999999675e+01 2.061180000000000291e+03
6.099999999999999867e-02 1.795585000000000098e-01 3.028181000000000012e+00 4.564005000000000223e+01 2.060609999999999673e+03
6.199999999999999956e-02 1.794979999999999909e-01 2.371505999999999670e+00 4.442810000000000059e+01 2.060135000000000218e+03
6.300000000000000044e-02 1.794530000000000014e-01 1.921741000000000144e+00 4.371039999999999992e+01 2.059775000000000091e+03
6.400000000000000133e-02 1.794260000000000022e-01 1.706010000000000026e+00 4.355060000000000286e+01 2.059559999999999945e+03
6.500000000000000222e-02 1.794199999999999962e-01 1.743405000000000094e+00 4.399370000000000402e+01 2.059494999999999891e+03
6.600000000000000311e-02 1.794359999999999844e-01 2.043499999999999872e+00 4.506085000000000207e+01 2.059595000000000255e+03
6.700000000000000400e-02 1.794744999999999813e-01 2.605725000000000069e+00 4.674699999999999989e+01 2.059869999999999891e+03
6.800000000000000488e-02 1.795355000000000145e-01 3.419510000000000272e+00 4.902114999999999867e+01 2.060315000000000055e+03
6.900000000000000577e-02 1.796179999999999999e-01 4.465250000000000163e+00 5.182885000000000275e+01 2.060920000000000073e+03
7.000000000000000666e-02 1.797199999999999909e-01 5.715809999999999391e+00 5.509685000000000343e+01 2.061684999999999945e+03
7.100000000000000755e-02 1.798389999999999989e-01 7.138384999999999536e+00 5.873850000000000193e+01 2.062574999999999818e+03
7.200000000000000844e-02 1.799715000000000065e-01 8.696580000000000865e+00 6.265989999999999327e+01 2.063579999999999927e+03
7.300000000000000933e-02 1.801154999999999839e-01 1.035259999999999891e+01 6.676630000000000109e+01 2.064670000000000073e+03
7.399999999999999634e-02 1.802664999999999962e-01 1.206938000000000066e+01 7.096795000000000186e+01 2.065820000000000164e+03
7.499999999999999722e-02 1.804224999999999857e-01 1.381240000000000023e+01 7.518489999999999895e+01 2.067010000000000218e+03
7.599999999999999811e-02 1.805795000000000039e-01 1.555129999999999946e+01 7.935144999999999982e+01 2.068220000000000255e+03
7.699999999999999900e-02 1.807364999999999944e-01 1.726115000000000066e+01 8.341839999999999122e+01 2.069425000000000182e+03
7.799999999999999989e-02 1.808905000000000096e-01 1.892295000000000016e+01 8.735454999999998904e+01 2.070614999999999782e+03
7.900000000000000078e-02 1.810414999999999941e-01 2.052380000000000138e+01 9.114600000000000080e+01 2.071784999999999854e+03
8.000000000000000167e-02 1.811880000000000157e-01 2.205669999999999931e+01 9.479400000000001114e+01 2.072925000000000182e+03
8.100000000000000255e-02 1.813305000000000056e-01 2.351939999999999742e+01 9.831295000000000073e+01 2.074029999999999745e+03
8.200000000000000344e-02 1.814689999999999914e-01 2.491359999999999886e+01 1.017246499999999969e+02 2.075109999999999673e+03
8.300000000000000433e-02 1.816045000000000020e-01 2.624349999999999739e+01 1.050552500000000009e+02 2.076164999999999964e+03
8.400000000000000522e-02 1.817374999999999963e-01 2.751460000000000150e+01 1.083319999999999936e+02 2.077204999999999927e+03
8.500000000000000611e-02 1.818684999999999885e-01 2.873274999999999935e+01 1.115764999999999958e+02 2.078230000000000018e+03
8.600000000000000699e-02 1.819990000000000219e-01 2.990279999999999916e+01 1.148064999999999998e+02 2.079250000000000000e+03
8.700000000000000788e-02 1.821280000000000121e-01 3.102854999999999919e+01 1.180335000000000036e+02 2.080265000000000327e+03
8.800000000000000877e-02 1.822570000000000023e-01 3.211189999999999856e+01 1.212579999999999956e+02 2.081275000000000091e+03
8.899999999999999578e-02 1.823859999999999926e-01 3.315314999999999657e+01 1.244759999999999991e+02 2.082284999999999854e+03
8.999999999999999667e-02 1.825140000000000096e-01 3.415044999999999931e+01 1.276744999999999948e+02 2.083289999999999964e+03
9.099999999999999756e-02 1.826415000000000122e-01 3.510065000000000168e+01 1.308379999999999939e+02 2.084289999999999964e+03
9.199999999999999845e-02 1.827670000000000128e-01 3.599894999999999357e+01 1.339445000000000050e+02 2.085279999999999745e+03
9.299999999999999933e-02 1.828899999999999970e-01 3.683934999999999604e+01 1.369699999999999989e+02 2.086244999999999891e+03
9.400000000000000022e-02 1.830104999999999926e-01 3.761520000000000152e+01 1.398899999999999864e+02 2.087189999999999600e+03
9.500000000000000111e-02 1.831260000000000110e-01 3.831900000000000261e+01 1.426775000000000091e+02 2.088104999999999563e+03
9.600000000000000200e-02 1.832364999999999966e-01 3.894315000000000282e+01 1.453079999999999927e+02 2.088980000000000018e+03
9.700000000000000289e-02 1.833410000000000040e-01 3.948004999999999853e+01 1.477560000000000002e+02 2.089804999999999836e+03
9.800000000000000377e-02 1.834390000000000187e-01 3.992239999999999611e+01 1.499995000000000118e+02 2.090579999999999927e+03
9.900000000000000466e-02 1.835289999999999977e-01 4.026375000000000171e+01 1.520190000000000055e+02 2.091295000000000073e+03
1.000000000000000056e-01 1.836109999999999964e-01 4.049899999999999523e+01 1.537975000000000136e+02 2.091940000000000055e+03
1.010000000000000064e-01 1.836824999999999986e-01 4.062440000000000140e+01 1.553245000000000005e+02 2.092519999999999982e+03
1.020000000000000073e-01 1.837455000000000060e-01 4.063839999999999719e+01 1.565919999999999845e+02 2.093029999999999745e+03
1.030000000000000082e-01 1.837984999999999758e-01 4.054165000000000418e+01 1.576009999999999991e+02 2.093454999999999927e+03
1.040000000000000091e-01 1.838424999999999920e-01 4.033715000000000117e+01 1.583564999999999827e+02 2.093805000000000291e+03
1.050000000000000100e-01 1.838759999999999839e-01 4.003045000000000186e+01 1.588709999999999809e+02 2.094079999999999927e+03
1.059999999999999970e-01 1.839004999999999945e-01 3.962924999999999898e+01 1.591624999999999943e+02 2.094289999999999964e+03
1.069999999999999979e-01 1.839169999999999972e-01 3.914345000000000141e+01 1.592534999999999741e+02 2.094425000000000182e+03
1.079999999999999988e-01 1.839254999999999918e-01 3.858450000000000557e+01 1.591709999999999923e+02 2.094500000000000000e+03
1.089999999999999997e-01 1.839275000000000215e-01 3.796484999999999843e+01 1.589435000000000002e+02 2.094524999999999636e+03
1.100000000000000006e-01 1.839239999999999764e-01 3.729789999999999850e+01 1.586024999999999920e+02 2.094505000000000109e+03
1.110000000000000014e-01 1.839155000000000095e-01 3.659669999999999845e+01 1.581775000000000091e+02 2.094444999999999709e+03
1.120000000000000023e-01 1.839040000000000119e-01 3.587425000000000352e+01 1.576965000000000146e+02 2.094355000000000018e+03
1.130000000000000032e-01 1.838895000000000113e-01 3.514229999999999876e+01 1.571850000000000023e+02 2.094244999999999891e+03
1.140000000000000041e-01 1.838730000000000087e-01 3.441150000000000375e+01 1.566650000000000205e+02 2.094125000000000000e+03
1.150000000000000050e-01 1.838560000000000194e-01 3.369075000000000131e+01 1.561539999999999964e+02 2.093989999999999782e+03
1.160000000000000059e-01 1.838394999999999890e-01 3.298709999999999809e+01 1.556634999999999991e+02 2.093859999999999673e+03
1.170000000000000068e-01 1.838230000000000142e-01 3.230570000000000164e+01 1.552024999999999864e+02 2.093725000000000364e+03
1.180000000000000077e-01 1.838059999999999972e-01 3.164934999999999832e+01 1.547724999999999795e+02 2.093595000000000255e+03
1.190000000000000085e-01 1.837909999999999822e-01 3.101910000000000167e+01 1.543720000000000141e+02 2.093470000000000255e+03
1.200000000000000094e-01 1.837759999999999949e-01 3.041385000000000005e+01 1.539954999999999927e+02 2.093355000000000018e+03
1.209999999999999964e-01 1.837614999999999943e-01 2.983070000000000022e+01 1.536314999999999884e+02 2.093239999999999782e+03
1.219999999999999973e-01 1.837469999999999937e-01 2.926545000000000130e+01 1.532669999999999959e+02 2.093125000000000000e+03
1.229999999999999982e-01 1.837329999999999797e-01 2.871255000000000024e+01 1.528870000000000005e+02 2.093005000000000109e+03
1.239999999999999991e-01 1.837175000000000058e-01 2.816544999999999987e+01 1.524750000000000227e+02 2.092885000000000218e+03
1.250000000000000000e-01 1.837010000000000032e-01 2.761749999999999972e+01 1.520135000000000218e+02 2.092750000000000000e+03
1.260000000000000009e-01 1.836814999999999976e-01 2.706179999999999808e+01 1.514859999999999900e+02 2.092604999999999563e+03
1.270000000000000018e-01 1.836605000000000043e-01 2.649190000000000111e+01 1.508770000000000095e+02 2.092434999999999945e+03
1.280000000000000027e-01 1.836360000000000214e-01 2.590214999999999890e+01 1.501750000000000114e+02 2.092239999999999782e+03
1.290000000000000036e-01 1.836085000000000078e-01 2.528795000000000215e+01 1.493709999999999809e+02 2.092024999999999636e+03
1.300000000000000044e-01 1.835765000000000036e-01 2.464625000000000199e+01 1.484590000000000032e+02 2.091775000000000091e+03
1.310000000000000053e-01 1.835414999999999963e-01 2.397560000000000002e+01 1.474390000000000214e+02 2.091494999999999891e+03
1.320000000000000062e-01 1.835014999999999841e-01 2.327620000000000289e+01 1.463135000000000048e+02 2.091195000000000164e+03
1.330000000000000071e-01 1.834584999999999966e-01 2.255039999999999978e+01 1.450925000000000011e+02 2.090849999999999909e+03
1.340000000000000080e-01 1.834115000000000051e-01 2.180225000000000080e+01 1.437880000000000109e+02 2.090489999999999782e+03
1.350000000000000089e-01 1.833619999999999972e-01 2.103725000000000023e+01 1.424169999999999732e+02 2.090099999999999909e+03
1.360000000000000098e-01 1.833095000000000141e-01 2.026275000000000048e+01 1.409989999999999952e+02 2.089690000000000055e+03
1.370000000000000107e-01 1.832555000000000156e-01 1.948709999999999809e+01 1.395575000000000045e+02 2.089269999999999982e+03
1.380000000000000115e-01 1.832010000000000027e-01 1.871934999999999860e+01 1.381165000000000020e+02 2.088840000000000146e+03
1.390000000000000124e-01 1.831459999999999755e-01 1.796904999999999930e+01 1.367005000000000052e+02 2.088409999999999854e+03
1.400000000000000133e-01 1.830919999999999770e-01 1.724555000000000149e+01 1.353329999999999984e+02 2.087984999999999673e+03
1.410000000000000142e-01 1.830399999999999805e-01 1.655790000000000006e+01 1.340369999999999777e+02 2.087574999999999818e+03
1.420000000000000151e-01 1.829899999999999860e-01 1.591420000000000101e+01 1.328309999999999889e+02 2.087184999999999945e+03
1.430000000000000160e-01 1.829435000000000089e-01 1.532130000000000081e+01 1.317309999999999945e+02 2.086815000000000055e+03
1.440000000000000169e-01 1.829009999999999803e-01 1.478474999999999895e+01 1.307500000000000000e+02 2.086474999999999909e+03
1.450000000000000178e-01 1.828619999999999968e-01 1.430835000000000079e+01 1.298954999999999984e+02 2.086175000000000182e+03
1.459999999999999909e-01 1.828279999999999905e-01 1.389430000000000121e+01 1.291709999999999923e+02 2.085900000000000091e+03
1.469999999999999918e-01 1.827989999999999893e-01 1.354320000000000057e+01 1.285754999999999768e+02 2.085664999999999964e+03
1.479999999999999927e-01 1.827739999999999920e-01 1.325390000000000157e+01 1.281055000000000064e+02 2.085465000000000146e+03
1.489999999999999936e-01 1.827539999999999998e-01 1.302400000000000091e+01 1.277535000000000025e+02 2.085300000000000182e+03
1.499999999999999944e-01 1.827384999999999982e-01 1.284980000000000011e+01 1.275090000000000146e+02 2.085175000000000182e+03
1.509999999999999953e-01 1.827269999999999728e-01 1.272664999999999935e+01 1.273609999999999900e+02 2.085079999999999927e+03
1.519999999999999962e-01 1.827185000000000059e-01 1.264910000000000068e+01 1.272965000000000089e+02 2.085010000000000218e+03
1.529999999999999971e-01 1.827139999999999875e-01 1.261125000000000007e+01 1.273010000000000019e+02 2.084965000000000146e+03
1.539999999999999980e-01 1.827114999999999989e-01 1.260684999999999967e+01 1.273609999999999900e+02 2.084944999999999709e+03
1.549999999999999989e-01 1.827114999999999989e-01 1.262975000000000136e+01 1.274629999999999939e+02 2.084940000000000055e+03
1.559999999999999998e-01 1.827130000000000143e-01 1.267384999999999984e+01 1.275949999999999989e+02 2.084949999999999818e+03
1.570000000000000007e-01 1.827165000000000039e-01 1.273339999999999961e+01 1.277464999999999975e+02 2.084969999999999800e+03
1.580000000000000016e-01 1.827205000000000079e-01 1.280304999999999893e+01 1.279060000000000059e+02 2.085000000000000000e+03
1.590000000000000024e-01 1.827249999999999985e-01 1.287809999999999988e+01 1.280654999999999859e+02 2.085034999999999854e+03
