# t [s], A [cm^2], U [cm/s], P [cPa], c [cm/s]
1.000000000000000021e-03 6.040539999999999798e-01 3.445049999999998114e-03 1.017439999999999998e+02 1.439670000000000073e+03
2.000000000000000042e-03 6.040464999999999307e-01 3.454149999999999582e-04 1.017300000000000040e+02 1.439670000000000073e+03
3.000000000000000062e-03 6.040699999999999958e-01 3.581764999999999255e-02 1.017615000000000123e+02 1.439674999999999955e+03
4.000000000000000083e-03 6.041214999999999780e-01 1.141628500000000102e-01 1.018545000000000016e+02 1.439704999999999927e+03
5.000000000000000104e-03 6.041410000000000391e-01 1.487975500000000006e-01 1.019010000000000105e+02 1.439720000000000027e+03
6.000000000000000125e-03 6.041164999999999452e-01 1.148885950000000100e-01 1.018474999999999966e+02 1.439710000000000036e+03
7.000000000000000146e-03 6.040760000000000574e-01 5.496400000000001285e-02 1.017235000000000014e+02 1.439684999999999945e+03
8.000000000000000167e-03 6.040394999999999515e-01 -1.125000000000042633e-03 1.015655000000000001e+02 1.439644999999999982e+03
9.000000000000001055e-03 6.039879999999999693e-01 -8.698600000000000776e-02 1.013449999999999989e+02 1.439589999999999918e+03
1.000000000000000194e-02 6.039004999999999512e-01 -2.380050000000000221e-01 1.010160000000000053e+02 1.439509999999999991e+03
1.099999999999999936e-02 6.037719999999999754e-01 -4.647799999999999709e-01 1.005473000000000070e+02 1.439400000000000091e+03
1.200000000000000025e-02 6.035919999999999064e-01 -7.759449999999999958e-01 9.990890000000000271e+01 1.439235000000000127e+03
1.300000000000000114e-02 6.033519999999999994e-01 -1.179899999999999949e+00 9.906624999999999659e+01 1.439019999999999982e+03
1.400000000000000203e-02 6.030530000000000612e-01 -1.662475000000000147e+00 9.801040000000000418e+01 1.438750000000000000e+03
1.499999999999999944e-02 6.027150000000000007e-01 -2.174475000000000158e+00 9.677635000000000787e+01 1.438420000000000073e+03
1.600000000000000033e-02 6.023709999999999898e-01 -2.643995000000000317e+00 9.543715000000000259e+01 1.438054999999999836e+03
1.700000000000000122e-02 6.020490000000000563e-01 -3.001974999999999838e+00 9.408004999999999995e+01 1.437670000000000073e+03
1.800000000000000211e-02 6.017665000000000930e-01 -3.203046500000000130e+00 9.277725000000000932e+01 1.437284999999999854e+03
1.900000000000000300e-02 6.015245000000000175e-01 -3.233301500000000051e+00 9.156864999999999100e+01 1.436909999999999854e+03
2.000000000000000042e-02 6.013110000000000399e-01 -3.106562000000000268e+00 9.045935000000000059e+01 1.436555000000000064e+03
2.100000000000000130e-02 6.011085000000000456e-01 -2.854222500000000107e+00 8.942640000000000100e+01 1.436204999999999927e+03
2.200000000000000219e-02 6.008985000000000021e-01 -2.513436499999999629e+00 8.843149999999999977e+01 1.435860000000000127e+03
2.299999999999999961e-02 6.006679999999999797e-01 -2.116890000000000160e+00 8.743444999999999823e+01 1.435514999999999873e+03
2.400000000000000050e-02 6.004104999999999581e-01 -1.685975000000000001e+00 8.640465000000000373e+01 1.435159999999999854e+03
2.500000000000000139e-02 6.001284999999999537e-01 -1.228559999999999874e+00 8.532769999999999300e+01 1.434795000000000073e+03
2.600000000000000228e-02 5.998269999999999991e-01 -7.412850000000001938e-01 8.420664999999999623e+01 1.434409999999999854e+03
2.700000000000000316e-02 5.995165000000000077e-01 -2.153849999999999376e-01 8.305700000000000216e+01 1.434019999999999982e+03
2.800000000000000058e-02 5.992060000000000164e-01 3.563350000000000684e-01 8.189894999999999925e+01 1.433625000000000000e+03
2.900000000000000147e-02 5.988985000000000003e-01 9.735249999999999737e-01 8.074895000000000778e+01 1.433230000000000018e+03
3.000000000000000236e-02 5.985940000000000705e-01 1.624934999999999796e+00 7.961279999999999291e+01 1.432835000000000036e+03
3.099999999999999978e-02 5.982864999999999434e-01 2.288280000000000314e+00 7.848290000000000077e+01 1.432445000000000164e+03
3.200000000000000067e-02 5.979649999999999688e-01 2.932830000000000048e+00 7.733875000000000455e+01 1.432050000000000182e+03
3.300000000000000155e-02 5.976190000000000113e-01 3.524034999999999584e+00 7.615080000000000382e+01 1.431639999999999873e+03
3.400000000000000244e-02 5.972390000000000754e-01 4.029020000000000046e+00 7.488679999999999382e+01 1.431220000000000027e+03
3.500000000000000333e-02 5.968175000000000008e-01 4.421879999999999811e+00 7.351875000000001137e+01 1.430775000000000091e+03
3.600000000000000422e-02 5.963534999999999808e-01 4.687935000000000407e+00 7.202969999999999118e+01 1.430299999999999955e+03
3.700000000000000511e-02 5.958505000000000607e-01 4.825775000000000148e+00 7.041839999999999122e+01 1.429795000000000073e+03
3.799999999999999906e-02 5.953190000000000426e-01 4.847199999999999953e+00 6.870159999999999911e+01 1.429259999999999991e+03
3.899999999999999994e-02 5.947729999999999961e-01 4.774760000000000559e+00 6.691270000000000095e+01 1.428710000000000036e+03
4.000000000000000083e-02 5.942294999999999661e-01 4.637945000000000206e+00 6.509829999999999472e+01 1.428154999999999973e+03
4.100000000000000172e-02 5.937054999999999971e-01 4.469009999999999927e+00 6.331264999999999787e+01 1.427595000000000027e+03
4.200000000000000261e-02 5.932165000000000354e-01 4.298885000000000289e+00 6.161204999999999643e+01 1.427065000000000055e+03
4.300000000000000350e-02 5.927759999999999696e-01 4.154560000000000031e+00 6.004959999999999809e+01 1.426570000000000164e+03
4.400000000000000439e-02 5.923945000000000460e-01 4.057489999999999597e+00 5.867145000000000010e+01 1.426115000000000009e+03
4.499999999999999833e-02 5.920784999999999521e-01 4.023260000000000502e+00 5.751449999999999818e+01 1.425724999999999909e+03
4.599999999999999922e-02 5.918330000000000535e-01 4.062471500000000013e+00 5.660604999999999620e+01 1.425405000000000200e+03
4.700000000000000011e-02 5.916605000000000336e-01 4.181915000000000049e+00 5.596399999999999864e+01 1.425154999999999973e+03
4.800000000000000100e-02 5.915619999999999212e-01 4.386074999999999946e+00 5.559864999999999924e+01 1.424990000000000009e+03
4.900000000000000189e-02 5.915380000000000082e-01 4.678475000000000605e+00 5.551439999999999486e+01 1.424910000000000082e+03
5.000000000000000278e-02 5.915880000000000027e-01 5.062525000000000830e+00 5.571174999999999500e+01 1.424909999999999854e+03
5.100000000000000366e-02 5.917125000000000856e-01 5.541935000000000500e+00 5.618840000000000146e+01 1.425000000000000000e+03
5.200000000000000455e-02 5.919099999999999362e-01 6.120465000000000266e+00 5.694039999999999679e+01 1.425170000000000073e+03
5.300000000000000544e-02 5.921800000000000397e-01 6.801345000000000418e+00 5.796204999999999785e+01 1.425424999999999955e+03
5.399999999999999939e-02 5.925215000000000343e-01 7.586449999999999250e+00 5.924584999999999724e+01 1.425764999999999873e+03
5.500000000000000028e-02 5.929309999999999858e-01 8.475315000000000154e+00 6.078145000000000664e+01 1.426184999999999945e+03
5.600000000000000117e-02 5.934059999999999890e-01 9.464740000000000819e+00 6.255549999999999500e+01 1.426674999999999955e+03
5.700000000000000205e-02 5.939395000000000646e-01 1.054813500000000026e+01 6.455080000000000950e+01 1.427240000000000009e+03
5.800000000000000294e-02 5.945255000000000400e-01 1.171576999999999913e+01 6.674625000000000341e+01 1.427869999999999891e+03
5.900000000000000383e-02 5.951584999999999237e-01 1.295496999999999943e+01 6.911709999999999354e+01 1.428559999999999945e+03
6.000000000000000472e-02 5.958274999999999544e-01 1.425089499999999987e+01 7.163569999999999993e+01 1.429299999999999955e+03
6.099999999999999867e-02 5.965260000000000007e-01 1.558735000000000070e+01 7.427240000000000464e+01 1.430085000000000036e+03
6.199999999999999956e-02 5.972444999999999560e-01 1.694761499999999899e+01 7.699665000000000248e+01 1.430900000000000091e+03
6.300000000000000044e-02 5.979760000000000630e-01 1.831540000000000035e+01 7.977844999999999231e+01 1.431740000000000009e+03
6.400000000000000133e-02 5.987130000000000507e-01 1.967564999999999742e+01 8.258975000000000932e+01 1.432605000000000018e+03
6.500000000000000222e-02 5.994490000000000096e-01 2.101470000000000127e+01 8.540500000000000114e+01 1.433474999999999909e+03
6.600000000000000311e-02 6.001790000000000180e-01 2.232139999999999702e+01 8.820224999999999227e+01 1.434349999999999909e+03
6.700000000000000400e-02 6.008990000000000720e-01 2.358655000000000257e+01 9.096385000000000787e+01 1.435220000000000027e+03
6.800000000000000488e-02 6.016070000000000029e-01 2.480320000000000036e+01 9.367584999999999695e+01 1.436085000000000036e+03
6.900000000000000577e-02 6.023005000000000164e-01 2.596645000000000181e+01 9.632980000000000587e+01 1.436934999999999945e+03
7.000000000000000666e-02 6.029795000000000016e-01 2.707329999999999615e+01 9.891899999999999693e+01 1.437769999999999982e+03
7.100000000000000755e-02 6.036424999999999708e-01 2.812205000000000155e+01 1.014414500000000032e+02 1.438590000000000146e+03
7.200000000000000844e-02 6.042910000000000226e-01 2.911214999999999975e+01 1.038972499999999997e+02 1.439394999999999982e+03
7.300000000000000933e-02 6.049255000000000049e-01 3.004374999999999929e+01 1.062891999999999939e+02 1.440179999999999836e+03
7.399999999999999634e-02 6.055464999999999876e-01 3.091754999999999853e+01 1.086195000000000022e+02 1.440950000000000045e+03
7.499999999999999722e-02 6.061549999999999994e-01 3.173424999999999940e+01 1.108919999999999959e+02 1.441704999999999927e+03
7.599999999999999811e-02 6.067519999999999580e-01 3.249465000000000003e+01 1.131105000000000018e+02 1.442440000000000055e+03
7.699999999999999900e-02 6.073370000000000157e-01 3.319899999999999807e+01 1.152775000000000034e+02 1.443159999999999854e+03
7.799999999999999989e-02 6.079105000000000203e-01 3.384740000000000038e+01 1.173944999999999936e+02 1.443869999999999891e+03
7.900000000000000078e-02 6.084720000000000129e-01 3.443930000000000291e+01 1.194604999999999961e+02 1.444565000000000055e+03
8.000000000000000167e-02 6.090200000000000058e-01 3.497390000000000043e+01 1.214749999999999943e+02 1.445240000000000009e+03
8.100000000000000255e-02 6.095544999999999991e-01 3.544969999999999999e+01 1.234339999999999975e+02 1.445904999999999973e+03
8.200000000000000344e-02 6.100729999999999764e-01 3.586504999999999654e+01 1.253334999999999866e+02 1.446545000000000073e+03
8.300000000000000433e-02 6.105739999999999501e-01 3.621804999999999808e+01 1.271665000000000134e+02 1.447164999999999964e+03
8.400000000000000522e-02 6.110550000000000148e-01 3.650679999999999836e+01 1.289275000000000091e+02 1.447765000000000100e+03
8.500000000000000611e-02 6.115140000000000020e-01 3.672939999999999827e+01 1.306074999999999875e+02 1.448345000000000027e+03
8.600000000000000699e-02 6.119494999999999241e-01 3.688434999999999775e+01 1.321999999999999886e+02 1.448894999999999982e+03
8.700000000000000788e-02 6.123600000000000154e-01 3.697044999999999959e+01 1.336984999999999957e+02 1.449420000000000073e+03
8.800000000000000877e-02 6.127430000000000376e-01 3.698709999999999809e+01 1.350949999999999989e+02 1.449909999999999854e+03
8.899999999999999578e-02 6.130970000000000031e-01 3.693424999999999869e+01 1.363840000000000146e+02 1.450369999999999891e+03
8.999999999999999667e-02 6.134215000000000639e-01 3.681230000000000047e+01 1.375614999999999952e+02 1.450789999999999964e+03
9.099999999999999756e-02 6.137159999999999282e-01 3.662260000000000559e+01 1.386234999999999786e+02 1.451180000000000064e+03
9.199999999999999845e-02 6.139790000000000525e-01 3.636674999999999613e+01 1.395685000000000002e+02 1.451529999999999973e+03
9.299999999999999933e-02 6.142119999999999802e-01 3.604724999999999824e+01 1.403960000000000150e+02 1.451845000000000027e+03
9.400000000000000022e-02 6.144134999999999458e-01 3.566700000000000159e+01 1.411064999999999827e+02 1.452119999999999891e+03
9.500000000000000111e-02 6.145855000000000068e-01 3.522950000000000159e+01 1.417019999999999982e+02 1.452360000000000127e+03
9.600000000000000200e-02 6.147285000000000110e-01 3.473879999999999768e+01 1.421860000000000070e+02 1.452559999999999945e+03
9.700000000000000289e-02 6.148430000000000284e-01 3.419934999999999548e+01 1.425629999999999882e+02 1.452730000000000018e+03
9.800000000000000377e-02 6.149310000000000054e-01 3.361605000000000132e+01 1.428389999999999986e+02 1.452860000000000127e+03
9.900000000000000466e-02 6.149944999999999995e-01 3.299414999999999765e+01 1.430199999999999818e+02 1.452960000000000036e+03
1.000000000000000056e-01 6.150355000000000683e-01 3.233924999999999983e+01 1.431134999999999877e+02 1.453029999999999973e+03
1.010000000000000064e-01 6.150560000000000471e-01 3.165724999999999767e+01 1.431274999999999977e+02 1.453070000000000164e+03
1.020000000000000073e-01 6.150569999999999649e-01 3.095390000000000086e+01 1.430709999999999980e+02 1.453090000000000146e+03
1.030000000000000082e-01 6.150424999999999365e-01 3.023545000000000016e+01 1.429529999999999745e+02 1.453085000000000036e+03
1.040000000000000091e-01 6.150150000000000894e-01 2.950755000000000194e+01 1.427830000000000155e+02 1.453054999999999836e+03
1.050000000000000100e-01 6.149750000000000494e-01 2.877600000000000335e+01 1.425695000000000050e+02 1.453014999999999873e+03
1.059999999999999970e-01 6.149264999999999315e-01 2.804594999999999771e+01 1.423210000000000264e+02 1.452954999999999927e+03
1.069999999999999979e-01 6.148704999999999865e-01 2.732229999999999848e+01 1.420469999999999970e+02 1.452884999999999991e+03
1.079999999999999988e-01 6.148100000000000787e-01 2.660914999999999964e+01 1.417539999999999907e+02 1.452804999999999836e+03
1.089999999999999997e-01 6.147449999999999859e-01 2.590980000000000061e+01 1.414495000000000005e+02 1.452720000000000027e+03
1.100000000000000006e-01 6.146780000000000577e-01 2.522690000000000055e+01 1.411379999999999768e+02 1.452625000000000000e+03
1.110000000000000014e-01 6.146089999999999609e-01 2.456204999999999927e+01 1.408240000000000123e+02 1.452529999999999973e+03
1.120000000000000023e-01 6.145395000000000163e-01 2.391615000000000180e+01 1.405110000000000241e+02 1.452434999999999945e+03
1.130000000000000032e-01 6.144690000000000429e-01 2.328909999999999769e+01 1.401999999999999886e+02 1.452335000000000036e+03
1.140000000000000041e-01 6.143969999999999709e-01 2.268015000000000114e+01 1.398915000000000077e+02 1.452235000000000127e+03
1.150000000000000050e-01 6.143245000000000511e-01 2.208774999999999977e+01 1.395849999999999795e+02 1.452134999999999991e+03
1.160000000000000059e-01 6.142505000000000326e-01 2.150974999999999682e+01 1.392789999999999964e+02 1.452034999999999854e+03
1.170000000000000068e-01 6.141739999999999977e-01 2.094375000000000142e+01 1.389705000000000155e+02 1.451934999999999945e+03
1.180000000000000077e-01 6.140944999999999876e-01 2.038684999999999903e+01 1.386570000000000107e+02 1.451825000000000045e+03
1.190000000000000085e-01 6.140105000000000146e-01 1.983605000000000018e+01 1.383344999999999914e+02 1.451720000000000027e+03
1.200000000000000094e-01 6.139219999999999677e-01 1.928829999999999956e+01 1.380000000000000000e+02 1.451609999999999900e+03
1.209999999999999964e-01 6.138274999999999704e-01 1.874080000000000013e+01 1.376500000000000057e+02 1.451494999999999891e+03
1.219999999999999973e-01 6.137270000000000225e-01 1.819069999999999965e+01 1.372819999999999823e+02 1.451380000000000109e+03
1.229999999999999982e-01 6.136194999999999844e-01 1.763575000000000159e+01 1.368930000000000007e+02 1.451250000000000000e+03
1.239999999999999991e-01 6.135055000000000369e-01 1.707390000000000185e+01 1.364814999999999827e+02 1.451114999999999782e+03
1.250000000000000000e-01 6.133834999999999704e-01 1.650359999999999872e+01 1.360459999999999923e+02 1.450980000000000018e+03
1.260000000000000009e-01 6.132554999999999534e-01 1.592399999999999949e+01 1.355865000000000009e+02 1.450835000000000036e+03
1.270000000000000018e-01 6.131199999999999983e-01 1.533445000000000036e+01 1.351034999999999968e+02 1.450679999999999836e+03
1.280000000000000027e-01 6.129789999999999406e-01 1.473519999999999897e+01 1.345985000000000014e+02 1.450519999999999982e+03
1.290000000000000036e-01 6.128325000000000022e-01 1.412689999999999912e+01 1.340740000000000123e+02 1.450355000000000018e+03
1.300000000000000044e-01 6.126814999999999900e-01 1.351073999999999842e+01 1.335324999999999989e+02 1.450184999999999945e+03
1.310000000000000053e-01 6.125279999999999614e-01 1.288841999999999999e+01 1.329789999999999850e+02 1.450009999999999991e+03
1.320000000000000062e-01 6.123730000000000562e-01 1.226219499999999840e+01 1.324165000000000134e+02 1.449829999999999927e+03
1.330000000000000071e-01 6.122170000000000112e-01 1.163466500000000003e+01 1.318520000000000039e+02 1.449655000000000200e+03
1.340000000000000080e-01 6.120630000000000237e-01 1.100870500000000085e+01 1.312884999999999991e+02 1.449470000000000027e+03
1.350000000000000089e-01 6.119120000000000115e-01 1.038748000000000005e+01 1.307340000000000089e+02 1.449295000000000073e+03
1.360000000000000098e-01 6.117649999999998922e-01 9.774419999999999220e+00 1.301930000000000121e+02 1.449125000000000000e+03
1.370000000000000107e-01 6.116245000000000154e-01 9.172879999999999256e+00 1.296715000000000089e+02 1.448954999999999927e+03
1.380000000000000115e-01 6.114910000000000068e-01 8.586304999999999410e+00 1.291754999999999995e+02 1.448789999999999964e+03
1.390000000000000124e-01 6.113669999999999938e-01 8.017894999999999328e+00 1.287094999999999914e+02 1.448634999999999991e+03
1.400000000000000133e-01 6.112535000000000052e-01 7.470724999999999838e+00 1.282789999999999964e+02 1.448494999999999891e+03
1.410000000000000142e-01 6.111504999999999299e-01 6.947580000000000311e+00 1.278870000000000005e+02 1.448360000000000127e+03
1.420000000000000151e-01 6.110595000000000887e-01 6.450839999999999463e+00 1.275384999999999991e+02 1.448240000000000009e+03
1.430000000000000160e-01 6.109809999999999963e-01 5.982470000000000176e+00 1.272340000000000089e+02 1.448130000000000109e+03
1.440000000000000169e-01 6.109160000000000146e-01 5.543929999999999580e+00 1.269759999999999991e+02 1.448039999999999964e+03
1.450000000000000178e-01 6.108629999999999338e-01 5.136190000000000033e+00 1.267660000000000053e+02 1.447960000000000036e+03
1.459999999999999909e-01 6.108230000000000048e-01 4.759685000000000166e+00 1.266029999999999944e+02 1.447894999999999982e+03
1.469999999999999918e-01 6.107949999999999768e-01 4.414334999999999454e+00 1.264850000000000136e+02 1.447840000000000146e+03
1.479999999999999927e-01 6.107789999999999608e-01 4.099585000000000257e+00 1.264114999999999895e+02 1.447804999999999836e+03
1.489999999999999936e-01 6.107740000000000391e-01 3.814410000000000078e+00 1.263780000000000143e+02 1.447775000000000091e+03
1.499999999999999944e-01 6.107780000000000431e-01 3.557389999999999830e+00 1.263820000000000050e+02 1.447764999999999873e+03
1.509999999999999953e-01 6.107910000000000839e-01 3.326769999999999783e+00 1.264194999999999993e+02 1.447764999999999873e+03
1.519999999999999962e-01 6.108109999999999928e-01 3.120530000000000026e+00 1.264859999999999900e+02 1.447775000000000091e+03
1.529999999999999971e-01 6.108370000000000744e-01 2.936455000000000037e+00 1.265765000000000100e+02 1.447789999999999964e+03
1.539999999999999980e-01 6.108679999999999666e-01 2.772199999999999775e+00 1.266860000000000070e+02 1.447815000000000055e+03
1.549999999999999989e-01 6.109025000000000150e-01 2.625354999999999883e+00 1.268104999999999905e+02 1.447845000000000027e+03
1.559999999999999998e-01 6.109394999999999687e-01 2.493520000000000181e+00 1.269445000000000050e+02 1.447880000000000109e+03
1.570000000000000007e-01 6.109769999999999923e-01 2.374340000000000117e+00 1.270835000000000008e+02 1.447909999999999854e+03
1.580000000000000016e-01 6.110145000000000159e-01 2.265565000000000051e+00 1.272235000000000014e+02 1.447950000000000045e+03
1.590000000000000024e-01 6.110514999999999697e-01 2.165045000000000108e+00 1.273610000000000042e+02 1.447994999999999891e+03
