# t [s], A [cm^2], U [cm/s], P [cPa], c [cm/s]
1.000000000000000021e-03 6.587800000000000322e-01 8.022000000000001352e-03 1.006220000000000141e+02 1.799394999999999982e+03
2.000000000000000042e-03 6.587674999999999503e-01 -3.084470499999999917e-03 1.005810000000000031e+02 1.799389999999999873e+03
3.000000000000000062e-03 6.588315000000000143e-01 1.221807500000000046e-01 1.007308500000000038e+02 1.799420000000000073e+03
4.000000000000000083e-03 6.588704999999999146e-01 2.216474999999999973e-01 1.008532500000000027e+02 1.799445000000000164e+03
5.000000000000000104e-03 6.588095000000000478e-01 1.446675000000000044e-01 1.006760000000000019e+02 1.799409999999999854e+03
6.000000000000000125e-03 6.587330000000000130e-01 2.748200000000000642e-02 1.003400000000000034e+02 1.799340000000000146e+03
7.000000000000000146e-03 6.586620000000000807e-01 -9.071900000000004960e-02 9.994030000000000769e+01 1.799259999999999991e+03
8.000000000000000167e-03 6.585259999999999447e-01 -3.553949999999999054e-01 9.928630000000001132e+01 1.799119999999999891e+03
9.000000000000001055e-03 6.583219999999999628e-01 -7.762450000000000738e-01 9.831499999999999773e+01 1.798914999999999964e+03
1.000000000000000194e-02 6.580394999999999994e-01 -1.363234999999999975e+00 9.696475000000000932e+01 1.798639999999999873e+03
1.099999999999999936e-02 6.576474999999999405e-01 -2.158514999999999961e+00 9.511610000000000298e+01 1.798250000000000000e+03
1.200000000000000025e-02 6.571725000000000483e-01 -3.085520000000000262e+00 9.280639999999999645e+01 1.797755000000000109e+03
1.300000000000000114e-02 6.567100000000000160e-01 -3.921937000000000229e+00 9.032264999999999588e+01 1.797200000000000045e+03
1.400000000000000203e-02 6.563505000000000589e-01 -4.440084849999999861e+00 8.803305000000000291e+01 1.796664999999999964e+03
1.499999999999999944e-02 6.561215000000000241e-01 -4.538190000000000168e+00 8.617130000000000223e+01 1.796195000000000164e+03
1.600000000000000033e-02 6.559854999999999992e-01 -4.265109999999999957e+00 8.474389999999999645e+01 1.795805000000000064e+03
1.700000000000000122e-02 6.558665000000000189e-01 -3.765280000000000182e+00 8.357210000000000605e+01 1.795465000000000146e+03
1.800000000000000211e-02 6.556969999999999743e-01 -3.197855000000000114e+00 8.240330000000000155e+01 1.795130000000000109e+03
1.900000000000000300e-02 6.554389999999999938e-01 -2.668091500000000060e+00 8.103185000000000571e+01 1.794759999999999991e+03
2.000000000000000042e-02 6.550990000000000979e-01 -2.194050000000000278e+00 7.938065000000000282e+01 1.794335000000000036e+03
2.100000000000000130e-02 6.547184999999999810e-01 -1.718760000000000066e+00 7.751359999999999673e+01 1.793865000000000009e+03
2.200000000000000219e-02 6.543444999999999956e-01 -1.157375000000000043e+00 7.558064999999999145e+01 1.793369999999999891e+03
2.299999999999999961e-02 6.540110000000000090e-01 -4.520349999999999646e-01 7.373060000000000969e+01 1.792890000000000100e+03
2.400000000000000050e-02 6.537200000000000788e-01 3.917749999999999844e-01 7.203624999999999545e+01 1.792434999999999945e+03
2.500000000000000139e-02 6.534454999999999014e-01 1.297514999999999974e+00 7.045799999999999841e+01 1.792005000000000109e+03
2.600000000000000228e-02 6.531389999999999141e-01 2.135650000000000048e+00 6.885120000000000573e+01 1.791574999999999818e+03
2.700000000000000316e-02 6.527479999999999949e-01 2.758754999999999846e+00 6.700929999999999609e+01 1.791099999999999909e+03
2.800000000000000058e-02 6.522320000000000340e-01 3.044159999999999755e+00 6.473035000000000139e+01 1.790545000000000073e+03
2.900000000000000147e-02 6.515794999999999781e-01 2.931885000000000296e+00 6.188795000000000357e+01 1.789880000000000109e+03
3.000000000000000236e-02 6.508115000000000983e-01 2.443959999999999688e+00 5.848140000000000072e+01 1.789095000000000027e+03
3.099999999999999978e-02 6.499764999999999571e-01 1.676199999999999690e+00 5.464480000000000359e+01 1.788215000000000146e+03
3.200000000000000067e-02 6.491400000000000503e-01 7.675950000000000273e-01 5.061315000000000452e+01 1.787284999999999854e+03
3.300000000000000155e-02 6.483619999999999939e-01 -1.372150000000003089e-01 4.666509999999999536e+01 1.786355000000000018e+03
3.400000000000000244e-02 6.476899999999999880e-01 -9.183199999999995811e-01 4.306510000000000105e+01 1.785485000000000127e+03
3.500000000000000333e-02 6.471534999999999371e-01 -1.495945000000000302e+00 4.002169999999999561e+01 1.784724999999999909e+03
3.600000000000000422e-02 6.467629999999999768e-01 -1.832205000000000084e+00 3.766799999999999926e+01 1.784099999999999909e+03
3.700000000000000511e-02 6.465155000000000207e-01 -1.922884999999999955e+00 3.606060000000000088e+01 1.783650000000000091e+03
3.799999999999999906e-02 6.464000000000000856e-01 -1.783933900000000072e+00 3.519464999999999577e+01 1.783360000000000127e+03
3.899999999999999994e-02 6.464039999999999786e-01 -1.437044999999999906e+00 3.502629999999999910e+01 1.783240000000000009e+03
4.000000000000000083e-02 6.465155000000000207e-01 -8.981585000000000818e-01 3.549745000000000061e+01 1.783279999999999973e+03
4.100000000000000172e-02 6.467279999999999696e-01 -1.717200000000000948e-01 3.655420000000000158e+01 1.783460000000000036e+03
4.200000000000000261e-02 6.470400000000000595e-01 7.482400000000000162e-01 3.815639999999999787e+01 1.783779999999999973e+03
4.300000000000000350e-02 6.474495000000000111e-01 1.871655000000000069e+00 4.027544999999999931e+01 1.784224999999999909e+03
4.400000000000000439e-02 6.479539999999999189e-01 3.203859999999999708e+00 4.288575000000000159e+01 1.784795000000000073e+03
4.499999999999999833e-02 6.485469999999999846e-01 4.738240000000000229e+00 4.595335000000000036e+01 1.785474999999999909e+03
4.599999999999999922e-02 6.492164999999999742e-01 6.452519999999999811e+00 4.942730000000000246e+01 1.786255000000000109e+03
4.700000000000000011e-02 6.499449999999999950e-01 8.309181249999999963e+00 5.323654999999999404e+01 1.787125000000000000e+03
4.800000000000000100e-02 6.507125000000000270e-01 1.025953499999999963e+01 5.729229999999999734e+01 1.788065000000000055e+03
4.900000000000000189e-02 6.514969999999999928e-01 1.224960500000000074e+01 6.149524999999999864e+01 1.789049999999999955e+03
5.000000000000000278e-02 6.522799999999999709e-01 1.422653499999999838e+01 6.574509999999999366e+01 1.790059999999999945e+03
5.100000000000000366e-02 6.530449999999999866e-01 1.614444500000000104e+01 6.995085000000000264e+01 1.791075000000000045e+03
5.200000000000000455e-02 6.537805000000000977e-01 1.796790000000000020e+01 7.403865000000000407e+01 1.792075000000000045e+03
5.300000000000000544e-02 6.544805000000000206e-01 1.967334999999999923e+01 7.795709999999999695e+01 1.793049999999999955e+03
5.399999999999999939e-02 6.551430000000000309e-01 2.124900000000000233e+01 8.167834999999999468e+01 1.793980000000000018e+03
5.500000000000000028e-02 6.557714999999999517e-01 2.269294999999999973e+01 8.519689999999999941e+01 1.794869999999999891e+03
5.600000000000000117e-02 6.563684999999999103e-01 2.401089999999999947e+01 8.852590000000000714e+01 1.795724999999999909e+03
5.700000000000000205e-02 6.569420000000000259e-01 2.521365000000000123e+01 9.169230000000000302e+01 1.796534999999999854e+03
5.800000000000000294e-02 6.574990000000000556e-01 2.631559999999999988e+01 9.473229999999999507e+01 1.797320000000000164e+03
5.900000000000000383e-02 6.580475000000000074e-01 2.733259999999999934e+01 9.768735000000000923e+01 1.798079999999999927e+03
6.000000000000000472e-02 6.585944999999999716e-01 2.828065000000000140e+01 1.005979499999999973e+02 1.798829999999999927e+03
6.099999999999999867e-02 6.591449999999999809e-01 2.917459999999999809e+01 1.035019000000000062e+02 1.799569999999999936e+03
6.199999999999999956e-02 6.597055000000000557e-01 3.002644999999999698e+01 1.064284999999999997e+02 1.800315000000000055e+03
6.300000000000000044e-02 6.602760000000000851e-01 3.084414999999999907e+01 1.093975000000000080e+02 1.801065000000000055e+03
6.400000000000000133e-02 6.608579999999999455e-01 3.163085000000000235e+01 1.124145000000000039e+02 1.801829999999999927e+03
6.500000000000000222e-02 6.614470000000000072e-01 3.238429999999999609e+01 1.154714999999999918e+02 1.802599999999999909e+03
6.600000000000000311e-02 6.620380000000000154e-01 3.309759999999999991e+01 1.185480000000000018e+02 1.803380000000000109e+03
6.700000000000000400e-02 6.626240000000001018e-01 3.375995000000000346e+01 1.216115000000000066e+02 1.804150000000000091e+03
6.800000000000000488e-02 6.631970000000000365e-01 3.435815000000000197e+01 1.246225000000000023e+02 1.804914999999999964e+03
6.900000000000000577e-02 6.637480000000000047e-01 3.487819999999999965e+01 1.275374999999999943e+02 1.805654999999999973e+03
7.000000000000000666e-02 6.642695000000000682e-01 3.530695000000000050e+01 1.303129999999999882e+02 1.806369999999999891e+03
7.100000000000000755e-02 6.647540000000000671e-01 3.563285000000000480e+01 1.329089999999999918e+02 1.807045000000000073e+03
7.200000000000000844e-02 6.651964999999999684e-01 3.584709999999999752e+01 1.352899999999999920e+02 1.807670000000000073e+03
7.300000000000000933e-02 6.655929999999999902e-01 3.594389999999999930e+01 1.374310000000000116e+02 1.808240000000000009e+03
7.399999999999999634e-02 6.659405000000000463e-01 3.592060000000000031e+01 1.393140000000000214e+02 1.808744999999999891e+03
7.499999999999999722e-02 6.662384999999999557e-01 3.577770000000000294e+01 1.409295000000000186e+02 1.809190000000000055e+03
7.599999999999999811e-02 6.664870000000000516e-01 3.551869999999999550e+01 1.422769999999999868e+02 1.809570000000000164e+03
7.699999999999999900e-02 6.666885000000000172e-01 3.515005000000000024e+01 1.433650000000000091e+02 1.809880000000000109e+03
7.799999999999999989e-02 6.668460000000000498e-01 3.468110000000000070e+01 1.442069999999999936e+02 1.810134999999999991e+03
7.900000000000000078e-02 6.669640000000000013e-01 3.412355000000000160e+01 1.448255000000000052e+02 1.810335000000000036e+03
8.000000000000000167e-02 6.670475000000000154e-01 3.349125000000000085e+01 1.452464999999999975e+02 1.810480000000000018e+03
8.100000000000000255e-02 6.671015000000000139e-01 3.279990000000000094e+01 1.455004999999999882e+02 1.810574999999999818e+03
8.200000000000000344e-02 6.671335000000000459e-01 3.206605000000000416e+01 1.456200000000000045e+02 1.810639999999999873e+03
8.300000000000000433e-02 6.671489999999999920e-01 3.130684999999999718e+01 1.456385000000000218e+02 1.810670000000000073e+03
8.400000000000000522e-02 6.671544999999999837e-01 3.053849999999999909e+01 1.455904999999999916e+02 1.810679999999999836e+03
8.500000000000000611e-02 6.671555000000000124e-01 2.977609999999999957e+01 1.455054999999999836e+02 1.810679999999999836e+03
8.600000000000000699e-02 6.671549999999999425e-01 2.903240000000000265e+01 1.454114999999999895e+02 1.810670000000000073e+03
8.700000000000000788e-02 6.671584999999999877e-01 2.831735000000000113e+01 1.453285000000000196e+02 1.810655000000000200e+03
8.800000000000000877e-02 6.671664999999999957e-01 2.763754999999999740e+01 1.452715000000000032e+02 1.810650000000000091e+03
8.899999999999999578e-02 6.671799999999999953e-01 2.699620000000000175e+01 1.452479999999999905e+02 1.810639999999999873e+03
8.999999999999999667e-02 6.671985000000000277e-01 2.639314999999999856e+01 1.452595000000000027e+02 1.810644999999999982e+03
9.099999999999999756e-02 6.672204999999999941e-01 2.582535000000000025e+01 1.453000000000000114e+02 1.810644999999999982e+03
9.199999999999999845e-02 6.672439999999999483e-01 2.528690000000000282e+01 1.453589999999999804e+02 1.810654999999999973e+03
9.299999999999999933e-02 6.672649999999999970e-01 2.477009999999999934e+01 1.454205000000000041e+02 1.810670000000000073e+03
9.400000000000000022e-02 6.672795000000000254e-01 2.426589999999999847e+01 1.454675000000000011e+02 1.810674999999999955e+03
9.500000000000000111e-02 6.672850000000000170e-01 2.376435000000000031e+01 1.454789999999999850e+02 1.810680000000000064e+03
9.600000000000000200e-02 6.672774999999999679e-01 2.325560000000000116e+01 1.454354999999999905e+02 1.810664999999999964e+03
9.700000000000000289e-02 6.672534999999999439e-01 2.273015000000000185e+01 1.453174999999999955e+02 1.810639999999999873e+03
9.800000000000000377e-02 6.672100000000000808e-01 2.217974999999999852e+01 1.451094999999999970e+02 1.810595000000000027e+03
9.900000000000000466e-02 6.671450000000000990e-01 2.159769999999999968e+01 1.447975000000000136e+02 1.810525000000000091e+03
1.000000000000000056e-01 6.670584999999999987e-01 2.097970000000000113e+01 1.443739999999999952e+02 1.810430000000000064e+03
1.010000000000000064e-01 6.669495000000000839e-01 2.032394999999999996e+01 1.438350000000000080e+02 1.810309999999999945e+03
1.020000000000000073e-01 6.668199999999999683e-01 1.963139999999999930e+01 1.431845000000000141e+02 1.810159999999999854e+03
1.030000000000000082e-01 6.666715000000000835e-01 1.890589999999999904e+01 1.424304999999999950e+02 1.809985000000000127e+03
1.040000000000000091e-01 6.665075000000000305e-01 1.815419999999999945e+01 1.415874999999999773e+02 1.809789999999999964e+03
1.050000000000000100e-01 6.663324999999999942e-01 1.738514999999999944e+01 1.406764999999999759e+02 1.809574999999999818e+03
1.059999999999999970e-01 6.661515000000000075e-01 1.660985000000000156e+01 1.397194999999999823e+02 1.809344999999999800e+03
1.069999999999999979e-01 6.659690000000000332e-01 1.584039999999999893e+01 1.387439999999999998e+02 1.809109999999999900e+03
1.079999999999999988e-01 6.657910000000000217e-01 1.508980000000000032e+01 1.377785000000000082e+02 1.808875000000000000e+03
1.089999999999999997e-01 6.656229999999999647e-01 1.437068500000000171e+01 1.368494999999999777e+02 1.808644999999999982e+03
1.100000000000000006e-01 6.654685000000000183e-01 1.369515499999999975e+01 1.359834999999999923e+02 1.808424999999999955e+03
1.110000000000000014e-01 6.653324999999999934e-01 1.307373499999999922e+01 1.352040000000000077e+02 1.808230000000000018e+03
1.120000000000000023e-01 6.652169999999999472e-01 1.251517000000000124e+01 1.345305000000000177e+02 1.808050000000000182e+03
1.130000000000000032e-01 6.651255000000000361e-01 1.202574500000000057e+01 1.339759999999999991e+02 1.807894999999999982e+03
1.140000000000000041e-01 6.650584999999999969e-01 1.160930000000000106e+01 1.335484999999999900e+02 1.807779999999999973e+03
1.150000000000000050e-01 6.650150000000000228e-01 1.126697000000000060e+01 1.332520000000000095e+02 1.807684999999999945e+03
1.160000000000000059e-01 6.649950000000000028e-01 1.099726000000000070e+01 1.330829999999999984e+02 1.807619999999999891e+03
1.170000000000000068e-01 6.649959999999999205e-01 1.079635000000000034e+01 1.330330000000000155e+02 1.807590000000000146e+03
1.180000000000000077e-01 6.650154999999999816e-01 1.065854000000000035e+01 1.330894999999999868e+02 1.807585000000000036e+03
1.190000000000000085e-01 6.650499999999999190e-01 1.057635499999999951e+01 1.332379999999999995e+02 1.807605000000000018e+03
1.200000000000000094e-01 6.650964999999999794e-01 1.054136500000000076e+01 1.334590000000000032e+02 1.807639999999999873e+03
1.209999999999999964e-01 6.651515000000000066e-01 1.054460999999999871e+01 1.337355000000000018e+02 1.807695000000000164e+03
1.219999999999999973e-01 6.652109999999999967e-01 1.057684499999999872e+01 1.340484999999999900e+02 1.807759999999999991e+03
1.229999999999999982e-01 6.652724999999999334e-01 1.062933999999999912e+01 1.343795000000000073e+02 1.807829999999999927e+03
1.239999999999999991e-01 6.653324999999999934e-01 1.069377000000000066e+01 1.347139999999999986e+02 1.807904999999999973e+03
1.250000000000000000e-01 6.653904999999999959e-01 1.076280999999999999e+01 1.350380000000000109e+02 1.807980000000000018e+03
1.260000000000000009e-01 6.654425000000000479e-01 1.083015500000000131e+01 1.353394999999999868e+02 1.808050000000000182e+03
1.270000000000000018e-01 6.654895000000000671e-01 1.089062500000000000e+01 1.356125000000000114e+02 1.808115000000000009e+03
1.280000000000000027e-01 6.655290000000000372e-01 1.094020000000000081e+01 1.358509999999999991e+02 1.808174999999999955e+03
1.290000000000000036e-01 6.655615000000000281e-01 1.097611500000000007e+01 1.360519999999999925e+02 1.808230000000000018e+03
1.300000000000000044e-01 6.655874999999999986e-01 1.099662499999999987e+01 1.362150000000000034e+02 1.808269999999999982e+03
1.310000000000000053e-01 6.656070000000000597e-01 1.100126000000000026e+01 1.363425000000000011e+02 1.808304999999999836e+03
1.320000000000000062e-01 6.656210000000000182e-01 1.099028999999999989e+01 1.364379999999999882e+02 1.808329999999999927e+03
1.330000000000000071e-01 6.656310000000000837e-01 1.096509499999999981e+01 1.365059999999999718e+02 1.808355000000000018e+03
1.340000000000000080e-01 6.656374999999999931e-01 1.092762000000000100e+01 1.365525000000000091e+02 1.808369999999999891e+03
1.350000000000000089e-01 6.656420000000000670e-01 1.088040499999999966e+01 1.365850000000000080e+02 1.808384999999999991e+03
1.360000000000000098e-01 6.656465000000000298e-01 1.082644499999999965e+01 1.366094999999999970e+02 1.808394999999999982e+03
1.370000000000000107e-01 6.656505000000000338e-01 1.076870500000000064e+01 1.366329999999999814e+02 1.808400000000000091e+03
1.380000000000000115e-01 6.656569999999999432e-01 1.071011000000000024e+01 1.366620000000000061e+02 1.808410000000000082e+03
1.390000000000000124e-01 6.656659999999999799e-01 1.065336999999999890e+01 1.367010000000000218e+02 1.808425000000000182e+03
1.400000000000000133e-01 6.656784999999999508e-01 1.060064999999999991e+01 1.367545000000000073e+02 1.808434999999999945e+03
1.410000000000000142e-01 6.656940000000000079e-01 1.055351999999999890e+01 1.368249999999999886e+02 1.808454999999999927e+03
1.420000000000000151e-01 6.657129999999999992e-01 1.051286499999999968e+01 1.369130000000000109e+02 1.808474999999999909e+03
1.430000000000000160e-01 6.657355000000000356e-01 1.047894499999999951e+01 1.370174999999999841e+02 1.808505000000000109e+03
1.440000000000000169e-01 6.657604999999999773e-01 1.045133500000000026e+01 1.371370000000000005e+02 1.808529999999999973e+03
1.450000000000000178e-01 6.657869999999999067e-01 1.042909000000000042e+01 1.372674999999999841e+02 1.808559999999999945e+03
1.459999999999999909e-01 6.658144999999999758e-01 1.041092500000000065e+01 1.374039999999999964e+02 1.808595000000000027e+03
1.469999999999999918e-01 6.658414999999999750e-01 1.039531999999999989e+01 1.375425000000000182e+02 1.808630000000000109e+03
1.479999999999999927e-01 6.658680000000000154e-01 1.038074999999999903e+01 1.376790000000000020e+02 1.808664999999999964e+03
1.489999999999999936e-01 6.658924999999999983e-01 1.036585999999999963e+01 1.378084999999999809e+02 1.808694999999999936e+03
1.499999999999999944e-01 6.659150000000000347e-01 1.034949999999999903e+01 1.379269999999999925e+02 1.808719999999999800e+03
1.509999999999999953e-01 6.659344999999999848e-01 1.033101500000000073e+01 1.380329999999999870e+02 1.808750000000000000e+03
1.519999999999999962e-01 6.659519999999999884e-01 1.031002499999999955e+01 1.381254999999999882e+02 1.808775000000000091e+03
1.529999999999999971e-01 6.659660000000000579e-01 1.028671999999999898e+01 1.382035000000000196e+02 1.808795000000000073e+03
1.539999999999999980e-01 6.659785000000000288e-01 1.026167500000000032e+01 1.382694999999999936e+02 1.808815000000000055e+03
1.549999999999999989e-01 6.659889999999999421e-01 1.023582000000000036e+01 1.383245000000000005e+02 1.808829999999999927e+03
1.559999999999999998e-01 6.659979999999999789e-01 1.021039500000000011e+01 1.383734999999999786e+02 1.808840000000000146e+03
1.570000000000000007e-01 6.660079999999999334e-01 1.018701500000000060e+01 1.384200000000000159e+02 1.808855000000000018e+03
1.580000000000000016e-01 6.660175000000000400e-01 1.016726000000000063e+01 1.384680000000000177e+02 1.808869999999999891e+03
1.590000000000000024e-01 6.660295000000000520e-01 1.015294499999999900e+01 1.385235000000000127e+02 1.808880000000000109e+03
