# t [s], A [cm^2], U [cm/s], P [cPa], c [cm/s]
1.000000000000000021e-03 1.749789999999999957e-01 2.443837499999999829e-01 9.673465000000000202e+01 2.265264999999999873e+03
2.000000000000000042e-03 1.749290000000000012e-01 1.689868499999999774e+00 9.333740000000000236e+01 2.264775000000000091e+03
3.000000000000000062e-03 1.748020000000000129e-01 3.537514500000000339e+00 8.839979999999999905e+01 2.263595000000000255e+03
4.000000000000000083e-03 1.746334999999999971e-01 5.659389500000000517e+00 8.298409999999999798e+01 2.262059999999999945e+03
5.000000000000000104e-03 1.744594999999999896e-01 7.963205000000000311e+00 7.816585000000000605e+01 2.260480000000000018e+03
6.000000000000000125e-03 1.742965000000000209e-01 1.021355999999999931e+01 7.423385000000000389e+01 2.259025000000000091e+03
7.000000000000000146e-03 1.741449999999999942e-01 1.214462999999999937e+01 7.080315000000000225e+01 2.257704999999999927e+03
8.000000000000000167e-03 1.740089999999999970e-01 1.370901500000000084e+01 6.770095000000000596e+01 2.256539999999999964e+03
9.000000000000001055e-03 1.738935000000000064e-01 1.497180000000000000e+01 6.509005000000000507e+01 2.255569999999999709e+03
1.000000000000000194e-02 1.738000000000000100e-01 1.596655000000000157e+01 6.303045000000000186e+01 2.254789999999999964e+03
1.099999999999999936e-02 1.737270000000000203e-01 1.672234999999999872e+01 6.148349999999999937e+01 2.254190000000000055e+03
1.200000000000000025e-02 1.736725000000000074e-01 1.725769999999999982e+01 6.036190000000000566e+01 2.253750000000000000e+03
1.300000000000000114e-02 1.736300000000000066e-01 1.756519999999999726e+01 5.947365000000000634e+01 2.253414999999999964e+03
1.400000000000000203e-02 1.735955000000000137e-01 1.768500000000000227e+01 5.868800000000000239e+01 2.253144999999999982e+03
1.499999999999999944e-02 1.735720000000000041e-01 1.777479999999999905e+01 5.821424999999999983e+01 2.252969999999999800e+03
1.600000000000000033e-02 1.735709999999999753e-01 1.805680000000000263e+01 5.858180000000000121e+01 2.252975000000000364e+03
1.700000000000000122e-02 1.736044999999999949e-01 1.867764999999999986e+01 6.026210000000000377e+01 2.253255000000000109e+03
1.800000000000000211e-02 1.736750000000000238e-01 1.960390000000000299e+01 6.325929999999999609e+01 2.253840000000000146e+03
1.900000000000000300e-02 1.737714999999999954e-01 2.062800000000000011e+01 6.699150000000000205e+01 2.254654999999999745e+03
2.000000000000000042e-02 1.738719999999999988e-01 2.146889999999999787e+01 7.051820000000000732e+01 2.255524999999999636e+03
2.100000000000000130e-02 1.739545000000000119e-01 2.189930000000000021e+01 7.294729999999999848e+01 2.256250000000000000e+03
2.200000000000000219e-02 1.740025000000000044e-01 2.183530000000000015e+01 7.379555000000000575e+01 2.256699999999999818e+03
2.299999999999999961e-02 1.740120000000000000e-01 2.135255000000000081e+01 7.313819999999999766e+01 2.256815000000000055e+03
2.400000000000000050e-02 1.739914999999999934e-01 2.063369999999999749e+01 7.150724999999999909e+01 2.256664999999999964e+03
2.500000000000000139e-02 1.739545000000000119e-01 1.987829999999999941e+01 6.961490000000000578e+01 2.256364999999999782e+03
2.600000000000000228e-02 1.739165000000000016e-01 1.922129999999999939e+01 6.804464999999999009e+01 2.256039999999999964e+03
2.700000000000000316e-02 1.738864999999999994e-01 1.869134999999999991e+01 6.704585000000000150e+01 2.255774999999999636e+03
2.800000000000000058e-02 1.738649999999999918e-01 1.821940000000000026e+01 6.649509999999999366e+01 2.255585000000000036e+03
2.900000000000000147e-02 1.738470000000000015e-01 1.768489999999999895e+01 6.601230000000001041e+01 2.255420000000000073e+03
3.000000000000000236e-02 1.738224999999999909e-01 1.697834999999999894e+01 6.516379999999999484e+01 2.255215000000000146e+03
3.099999999999999978e-02 1.737829999999999930e-01 1.605659999999999954e+01 6.367310000000000514e+01 2.254894999999999982e+03
3.200000000000000067e-02 1.737274999999999792e-01 1.497234999999999872e+01 6.156180000000000518e+01 2.254434999999999945e+03
3.300000000000000155e-02 1.736624999999999974e-01 1.386559999999999881e+01 5.917150000000000176e+01 2.253885000000000218e+03
3.400000000000000244e-02 1.735984999999999889e-01 1.292130000000000045e+01 5.705724999999999625e+01 2.253340000000000146e+03
3.500000000000000333e-02 1.735514999999999974e-01 1.230869999999999997e+01 5.579724999999999824e+01 2.252920000000000073e+03
3.600000000000000422e-02 1.735329999999999928e-01 1.212780000000000058e+01 5.579540000000000077e+01 2.252739999999999782e+03
3.700000000000000511e-02 1.735494999999999954e-01 1.238015000000000043e+01 5.714939999999999998e+01 2.252844999999999800e+03
3.799999999999999906e-02 1.735995000000000177e-01 1.297114999999999974e+01 5.962330000000000041e+01 2.253239999999999782e+03
3.899999999999999994e-02 1.736725000000000074e-01 1.373784999999999989e+01 6.271855000000000047e+01 2.253849999999999909e+03
4.000000000000000083e-02 1.737549999999999928e-01 1.449029999999999951e+01 6.580764999999999532e+01 2.254545000000000073e+03
4.100000000000000172e-02 1.738310000000000133e-01 1.505264999999999986e+01 6.828300000000000125e+01 2.255195000000000164e+03
4.200000000000000261e-02 1.738854999999999984e-01 1.529420000000000002e+01 6.968019999999999925e+01 2.255680000000000291e+03
4.300000000000000350e-02 1.739090000000000080e-01 1.514549999999999841e+01 6.974954999999999927e+01 2.255900000000000091e+03
4.400000000000000439e-02 1.738965000000000094e-01 1.459820000000000029e+01 6.846825000000001182e+01 2.255819999999999709e+03
4.499999999999999833e-02 1.738494999999999902e-01 1.369270000000000032e+01 6.600109999999999388e+01 2.255434999999999945e+03
4.599999999999999922e-02 1.737719999999999820e-01 1.249883499999999970e+01 6.262895000000000323e+01 2.254789999999999964e+03
4.700000000000000011e-02 1.736714999999999787e-01 1.109655500000000039e+01 5.867109999999999559e+01 2.253944999999999709e+03
4.800000000000000100e-02 1.735550000000000148e-01 9.561605000000000132e+00 5.442190000000000083e+01 2.252965000000000146e+03
4.900000000000000189e-02 1.734310000000000018e-01 7.958510000000000417e+00 5.011504999999999654e+01 2.251900000000000091e+03
5.000000000000000278e-02 1.733040000000000136e-01 6.340060000000000251e+00 4.591629999999999967e+01 2.250815000000000055e+03
5.100000000000000366e-02 1.731789999999999996e-01 4.752013999999999960e+00 4.193885000000000218e+01 2.249750000000000000e+03
5.200000000000000455e-02 1.730599999999999916e-01 3.238548499999999830e+00 3.826905000000000001e+01 2.248725000000000364e+03
5.300000000000000544e-02 1.729495000000000060e-01 1.847234999999999960e+00 3.499139999999999873e+01 2.247775000000000091e+03
5.399999999999999939e-02 1.728514999999999913e-01 6.308800000000001074e-01 3.220544999999999902e+01 2.246925000000000182e+03
5.500000000000000028e-02 1.727690000000000059e-01 -3.538550000000000306e-01 3.002960000000000207e+01 2.246204999999999927e+03
5.600000000000000117e-02 1.727064999999999850e-01 -1.050736500000000184e+00 2.859329999999999927e+01 2.245650000000000091e+03
5.700000000000000205e-02 1.726670000000000149e-01 -1.409854000000000163e+00 2.802019999999999911e+01 2.245295000000000073e+03
5.800000000000000294e-02 1.726550000000000029e-01 -1.393549999999999844e+00 2.840910000000000224e+01 2.245164999999999964e+03
5.900000000000000383e-02 1.726719999999999922e-01 -9.811198500000000156e-01 2.981665000000000276e+01 2.245279999999999745e+03
6.000000000000000472e-02 1.727194999999999980e-01 -1.712899999999999423e-01 3.224694999999999823e+01 2.245659999999999854e+03
6.099999999999999867e-02 1.727974999999999928e-01 1.017635000000000067e+00 3.564874999999999972e+01 2.246300000000000182e+03
6.199999999999999956e-02 1.729040000000000021e-01 2.549679000000000251e+00 3.992025000000000290e+01 2.247180000000000291e+03
6.300000000000000044e-02 1.730355000000000087e-01 4.374464000000000574e+00 4.491904999999999859e+01 2.248284999999999854e+03
6.400000000000000133e-02 1.731874999999999942e-01 6.431259999999999977e+00 5.047545000000000215e+01 2.249569999999999709e+03
6.500000000000000222e-02 1.733564999999999967e-01 8.653285000000000338e+00 5.640610000000000213e+01 2.250994999999999891e+03
6.600000000000000311e-02 1.735359999999999958e-01 1.097188000000000052e+01 6.252700000000000102e+01 2.252530000000000200e+03
6.700000000000000400e-02 1.737210000000000143e-01 1.332073499999999910e+01 6.866630000000000678e+01 2.254114999999999782e+03
6.800000000000000488e-02 1.739070000000000060e-01 1.563985000000000092e+01 7.467435000000000400e+01 2.255715000000000146e+03
6.900000000000000577e-02 1.740889999999999938e-01 1.787894999999999968e+01 8.043344999999999345e+01 2.257295000000000073e+03
7.000000000000000666e-02 1.742655000000000176e-01 2.000005000000000166e+01 8.586395000000000266e+01 2.258814999999999600e+03
7.100000000000000755e-02 1.744324999999999903e-01 2.197925000000000040e+01 9.092785000000000650e+01 2.260274999999999636e+03
7.200000000000000844e-02 1.745899999999999952e-01 2.380699999999999861e+01 9.562790000000001100e+01 2.261654999999999745e+03
7.300000000000000933e-02 1.747384999999999911e-01 2.548655000000000115e+01 1.000023999999999944e+02 2.262954999999999927e+03
7.399999999999999634e-02 1.748780000000000057e-01 2.703170000000000073e+01 1.041170500000000061e+02 2.264180000000000291e+03
7.499999999999999722e-02 1.750114999999999865e-01 2.846350000000000335e+01 1.080529999999999973e+02 2.265349999999999909e+03
7.599999999999999811e-02 1.751405000000000045e-01 2.980630000000000024e+01 1.118944999999999936e+02 2.266485000000000127e+03
7.699999999999999900e-02 1.752670000000000061e-01 3.108474999999999966e+01 1.157189999999999941e+02 2.267605000000000018e+03
7.799999999999999989e-02 1.753939999999999944e-01 3.232019999999999982e+01 1.195879999999999939e+02 2.268715000000000146e+03
7.900000000000000078e-02 1.755220000000000113e-01 3.352900000000000347e+01 1.235405000000000086e+02 2.269835000000000036e+03
8.000000000000000167e-02 1.756514999999999882e-01 3.472135000000000105e+01 1.275925000000000011e+02 2.270974999999999909e+03
8.100000000000000255e-02 1.757839999999999958e-01 3.590055000000000263e+01 1.317355000000000018e+02 2.272135000000000218e+03
8.200000000000000344e-02 1.759185000000000054e-01 3.706350000000000477e+01 1.359415000000000191e+02 2.273315000000000055e+03
8.300000000000000433e-02 1.760534999999999739e-01 3.820149999999999579e+01 1.401659999999999968e+02 2.274505000000000109e+03
8.400000000000000522e-02 1.761884999999999979e-01 3.930124999999999602e+01 1.443514999999999873e+02 2.275684999999999945e+03
8.500000000000000611e-02 1.763210000000000055e-01 4.034590000000000032e+01 1.484359999999999786e+02 2.276855000000000018e+03
8.600000000000000699e-02 1.764505000000000101e-01 4.131680000000000064e+01 1.523530000000000086e+02 2.277994999999999891e+03
8.700000000000000788e-02 1.765740000000000087e-01 4.219420000000000215e+01 1.560389999999999873e+02 2.279085000000000036e+03
8.800000000000000877e-02 1.766894999999999993e-01 4.295865000000000578e+01 1.594350000000000023e+02 2.280109999999999673e+03
8.899999999999999578e-02 1.767960000000000087e-01 4.359255000000000280e+01 1.624865000000000066e+02 2.281055000000000291e+03
8.999999999999999667e-02 1.768919999999999937e-01 4.408070000000000022e+01 1.651525000000000034e+02 2.281909999999999854e+03
9.099999999999999756e-02 1.769760000000000222e-01 4.441174999999999784e+01 1.674014999999999986e+02 2.282654999999999745e+03
9.199999999999999845e-02 1.770470000000000099e-01 4.457880000000000109e+01 1.692169999999999845e+02 2.283300000000000182e+03
9.299999999999999933e-02 1.771050000000000124e-01 4.458015000000000327e+01 1.705945000000000107e+02 2.283814999999999600e+03
9.400000000000000022e-02 1.771495000000000153e-01 4.441949999999999932e+01 1.715464999999999804e+02 2.284224999999999909e+03
9.500000000000000111e-02 1.771810000000000052e-01 4.410580000000000211e+01 1.720994999999999777e+02 2.284520000000000437e+03
9.600000000000000200e-02 1.772005000000000108e-01 4.365299999999999869e+01 1.722920000000000016e+02 2.284710000000000036e+03
9.700000000000000289e-02 1.772100000000000064e-01 4.307904999999999518e+01 1.721719999999999970e+02 2.284800000000000182e+03
9.800000000000000377e-02 1.772094999999999920e-01 4.240500000000000114e+01 1.717955000000000041e+02 2.284809999999999945e+03
9.900000000000000466e-02 1.772015000000000118e-01 4.165380000000000393e+01 1.712225000000000250e+02 2.284750000000000000e+03
1.000000000000000056e-01 1.771874999999999978e-01 4.084900000000000375e+01 1.705124999999999886e+02 2.284635000000000218e+03
1.010000000000000064e-01 1.771694999999999798e-01 4.001364999999999839e+01 1.697220000000000084e+02 2.284479999999999563e+03
1.020000000000000073e-01 1.771484999999999865e-01 3.916920000000000357e+01 1.689029999999999916e+02 2.284300000000000182e+03
1.030000000000000082e-01 1.771264999999999923e-01 3.833494999999999919e+01 1.680989999999999895e+02 2.284105000000000018e+03
1.040000000000000091e-01 1.771044999999999980e-01 3.752689999999999770e+01 1.673464999999999918e+02 2.283909999999999854e+03
1.050000000000000100e-01 1.770835000000000048e-01 3.675730000000000075e+01 1.666700000000000159e+02 2.283730000000000018e+03
1.059999999999999970e-01 1.770645000000000135e-01 3.603455000000000297e+01 1.660844999999999914e+02 2.283560000000000400e+03
1.069999999999999979e-01 1.770479999999999832e-01 3.536260000000000048e+01 1.655944999999999823e+02 2.283409999999999854e+03
1.079999999999999988e-01 1.770335000000000103e-01 3.474099999999999966e+01 1.651924999999999955e+02 2.283279999999999745e+03
1.089999999999999997e-01 1.770214999999999983e-01 3.416535000000000366e+01 1.648619999999999948e+02 2.283164999999999964e+03
1.100000000000000006e-01 1.770110000000000017e-01 3.362745000000000317e+01 1.645780000000000030e+02 2.283069999999999709e+03
1.110000000000000014e-01 1.770010000000000194e-01 3.311605000000000132e+01 1.643075000000000045e+02 2.282980000000000018e+03
1.120000000000000023e-01 1.769910000000000094e-01 3.261789999999999878e+01 1.640134999999999934e+02 2.282889999999999873e+03
1.130000000000000032e-01 1.769804999999999851e-01 3.211829999999999785e+01 1.636564999999999941e+02 2.282789999999999964e+03
1.140000000000000041e-01 1.769669999999999854e-01 3.160260000000000247e+01 1.631984999999999957e+02 2.282670000000000073e+03
1.150000000000000050e-01 1.769505000000000106e-01 3.105699999999999861e+01 1.626055000000000064e+02 2.282529999999999745e+03
1.160000000000000059e-01 1.769294999999999896e-01 3.046965000000000146e+01 1.618474999999999966e+02 2.282345000000000255e+03
1.170000000000000068e-01 1.769034999999999913e-01 2.983145000000000024e+01 1.609044999999999845e+02 2.282119999999999891e+03
1.180000000000000077e-01 1.768724999999999881e-01 2.913670000000000115e+01 1.597669999999999959e+02 2.281849999999999909e+03
1.190000000000000085e-01 1.768350000000000199e-01 2.838374999999999915e+01 1.584339999999999975e+02 2.281525000000000091e+03
1.200000000000000094e-01 1.767920000000000047e-01 2.757484999999999786e+01 1.569190000000000111e+02 2.281150000000000091e+03
1.209999999999999964e-01 1.767445000000000266e-01 2.671645000000000181e+01 1.552419999999999902e+02 2.280730000000000018e+03
1.219999999999999973e-01 1.766920000000000157e-01 2.581855000000000189e+01 1.534370000000000118e+02 2.280275000000000091e+03
1.229999999999999982e-01 1.766349999999999865e-01 2.489434999999999931e+01 1.515420000000000016e+02 2.279784999999999854e+03
1.239999999999999991e-01 1.765765000000000251e-01 2.395939999999999870e+01 1.496025000000000205e+02 2.279269999999999982e+03
1.250000000000000000e-01 1.765170000000000072e-01 2.303075000000000117e+01 1.476655000000000086e+02 2.278744999999999891e+03
1.260000000000000009e-01 1.764574999999999894e-01 2.212579999999999814e+01 1.457805000000000177e+02 2.278224999999999909e+03
1.270000000000000018e-01 1.764000000000000012e-01 2.126154999999999973e+01 1.439909999999999854e+02 2.277715000000000146e+03
1.280000000000000027e-01 1.763450000000000017e-01 2.045329999999999870e+01 1.423385000000000105e+02 2.277239999999999782e+03
1.290000000000000036e-01 1.762949999999999795e-01 1.971424999999999983e+01 1.408550000000000182e+02 2.276789999999999964e+03
1.300000000000000044e-01 1.762495000000000034e-01 1.905480000000000018e+01 1.395649999999999977e+02 2.276385000000000218e+03
1.310000000000000053e-01 1.762100000000000055e-01 1.848189999999999955e+01 1.384845000000000255e+02 2.276029999999999745e+03
1.320000000000000062e-01 1.761765000000000136e-01 1.799924999999999997e+01 1.376189999999999998e+02 2.275730000000000018e+03
1.330000000000000071e-01 1.761490000000000000e-01 1.760725000000000051e+01 1.369660000000000082e+02 2.275485000000000127e+03
1.340000000000000080e-01 1.761280000000000068e-01 1.730310000000000059e+01 1.365160000000000196e+02 2.275295000000000073e+03
1.350000000000000089e-01 1.761135000000000062e-01 1.708149999999999835e+01 1.362515000000000214e+02 2.275154999999999745e+03
1.360000000000000098e-01 1.761039999999999828e-01 1.693484999999999729e+01 1.361510000000000105e+02 2.275065000000000055e+03
1.370000000000000107e-01 1.760995000000000199e-01 1.685385000000000133e+01 1.361899999999999977e+02 2.275020000000000437e+03
1.380000000000000115e-01 1.760984999999999912e-01 1.682815000000000083e+01 1.363410000000000082e+02 2.275010000000000218e+03
1.390000000000000124e-01 1.761014999999999942e-01 1.684679999999999822e+01 1.365785000000000196e+02 2.275029999999999745e+03
1.400000000000000133e-01 1.761075000000000002e-01 1.689860000000000184e+01 1.368739999999999952e+02 2.275074999999999818e+03
1.410000000000000142e-01 1.761145000000000072e-01 1.697269999999999968e+01 1.372040000000000077e+02 2.275135000000000218e+03
1.420000000000000151e-01 1.761234999999999884e-01 1.705884999999999962e+01 1.375455000000000041e+02 2.275210000000000036e+03
1.430000000000000160e-01 1.761324999999999974e-01 1.714770000000000039e+01 1.378774999999999977e+02 2.275284999999999854e+03
1.440000000000000169e-01 1.761409999999999920e-01 1.723134999999999906e+01 1.381845000000000141e+02 2.275359999999999673e+03
1.450000000000000178e-01 1.761499999999999733e-01 1.730315000000000225e+01 1.384530000000000030e+02 2.275430000000000291e+03
1.459999999999999909e-01 1.761570000000000080e-01 1.735815000000000197e+01 1.386750000000000114e+02 2.275494999999999891e+03
1.469999999999999918e-01 1.761630000000000140e-01 1.739300000000000068e+01 1.388444999999999823e+02 2.275550000000000182e+03
1.479999999999999927e-01 1.761675000000000046e-01 1.740619999999999834e+01 1.389610000000000127e+02 2.275595000000000255e+03
1.489999999999999936e-01 1.761710000000000220e-01 1.739784999999999826e+01 1.390274999999999750e+02 2.275625000000000000e+03
1.499999999999999944e-01 1.761729999999999963e-01 1.736959999999999837e+01 1.390504999999999995e+02 2.275644999999999982e+03
1.509999999999999953e-01 1.761734999999999829e-01 1.732420000000000115e+01 1.390389999999999873e+02 2.275649999999999636e+03
1.519999999999999962e-01 1.761739999999999973e-01 1.726554999999999751e+01 1.390045000000000073e+02 2.275649999999999636e+03
1.529999999999999971e-01 1.761729999999999963e-01 1.719784999999999897e+01 1.389585000000000150e+02 2.275649999999999636e+03
1.539999999999999980e-01 1.761725000000000096e-01 1.712570000000000192e+01 1.389130000000000109e+02 2.275644999999999982e+03
1.549999999999999989e-01 1.761714999999999809e-01 1.705344999999999800e+01 1.388779999999999859e+02 2.275640000000000327e+03
1.559999999999999998e-01 1.761709999999999943e-01 1.698479999999999990e+01 1.388634999999999877e+02 2.275635000000000218e+03
1.570000000000000007e-01 1.761709999999999943e-01 1.692289999999999850e+01 1.388750000000000000e+02 2.275635000000000218e+03
1.580000000000000016e-01 1.761719999999999953e-01 1.686990000000000123e+01 1.389170000000000016e+02 2.275644999999999982e+03
1.590000000000000024e-01 1.761739999999999973e-01 1.682679999999999865e+01 1.389884999999999877e+02 2.275654999999999745e+03
