# t [s], A [cm^2], U [cm/s], P [cPa], c [cm/s]
1.000000000000000021e-03 1.200195000000000012e-01 3.602510000000000434e-01 1.024006500000000131e+02 2.103890000000000327e+03
2.000000000000000042e-03 1.199850000000000083e-01 2.010212500000000180e+00 9.876429999999999154e+01 2.103340000000000146e+03
3.000000000000000062e-03 1.198914999999999842e-01 4.040165000000000006e+00 9.376779999999999404e+01 2.101904999999999745e+03
4.000000000000000083e-03 1.197649999999999965e-01 6.321112999999999538e+00 8.841280000000000427e+01 2.100000000000000000e+03
5.000000000000000104e-03 1.196300000000000141e-01 8.764364999999999739e+00 8.368180000000000973e+01 2.097980000000000018e+03
6.000000000000000125e-03 1.195005000000000095e-01 1.116051999999999822e+01 7.983265000000000100e+01 2.096065000000000055e+03
7.000000000000000146e-03 1.193794999999999995e-01 1.327407000000000181e+01 7.653170000000000073e+01 2.094315000000000055e+03
8.000000000000000167e-03 1.192684999999999995e-01 1.503841500000000053e+01 7.354874999999999829e+01 2.092739999999999782e+03
9.000000000000001055e-03 1.191714999999999858e-01 1.650675000000000026e+01 7.097885000000000844e+01 2.091385000000000218e+03
1.000000000000000194e-02 1.190900000000000014e-01 1.771505000000000152e+01 6.889435000000000286e+01 2.090255000000000109e+03
1.099999999999999936e-02 1.190239999999999909e-01 1.868314999999999770e+01 6.726054999999999495e+01 2.089345000000000255e+03
1.200000000000000025e-02 1.189715000000000078e-01 1.942999999999999972e+01 6.601245000000000118e+01 2.088635000000000218e+03
1.300000000000000114e-02 1.189294999999999936e-01 1.995704999999999885e+01 6.502809999999999491e+01 2.088090000000000146e+03
1.400000000000000203e-02 1.188960000000000017e-01 2.027755000000000152e+01 6.417060000000000741e+01 2.087644999999999982e+03
1.499999999999999944e-02 1.188685000000000019e-01 2.047804999999999964e+01 6.347485000000000355e+01 2.087300000000000182e+03
1.600000000000000033e-02 1.188519999999999854e-01 2.072339999999999804e+01 6.324985000000000213e+01 2.087095000000000255e+03
1.700000000000000122e-02 1.188535000000000008e-01 2.117835000000000178e+01 6.392340000000000089e+01 2.087135000000000218e+03
1.800000000000000211e-02 1.188790000000000124e-01 2.190859999999999985e+01 6.573635000000000161e+01 2.087485000000000127e+03
1.900000000000000300e-02 1.189270000000000049e-01 2.283624999999999972e+01 6.852424999999999500e+01 2.088150000000000091e+03
2.000000000000000042e-02 1.189904999999999990e-01 2.377154999999999774e+01 7.172849999999999682e+01 2.089039999999999964e+03
2.100000000000000130e-02 1.190559999999999952e-01 2.449510000000000076e+01 7.460745000000000005e+01 2.089970000000000255e+03
2.200000000000000219e-02 1.191109999999999947e-01 2.484459999999999980e+01 7.652139999999999986e+01 2.090764999999999873e+03
2.299999999999999961e-02 1.191455000000000014e-01 2.476905000000000001e+01 7.715550000000000352e+01 2.091284999999999854e+03
2.400000000000000050e-02 1.191564999999999985e-01 2.433344999999999914e+01 7.659575000000000955e+01 2.091480000000000018e+03
2.500000000000000139e-02 1.191480000000000039e-01 2.367920000000000158e+01 7.524590000000000600e+01 2.091389999999999873e+03
2.600000000000000228e-02 1.191270000000000107e-01 2.296294999999999931e+01 7.363840000000000430e+01 2.091119999999999891e+03
2.700000000000000316e-02 1.191030000000000005e-01 2.229945000000000022e+01 7.222809999999999775e+01 2.090784999999999854e+03
2.800000000000000058e-02 1.190815000000000068e-01 2.173120000000000118e+01 7.124940000000000850e+01 2.090484999999999673e+03
2.900000000000000147e-02 1.190660000000000052e-01 2.122895000000000110e+01 7.067865000000000464e+01 2.090255000000000109e+03
3.000000000000000236e-02 1.190535000000000065e-01 2.071855000000000047e+01 7.029444999999999766e+01 2.090079999999999927e+03
3.099999999999999978e-02 1.190409999999999940e-01 2.011974999999999980e+01 6.979895000000000493e+01 2.089909999999999854e+03
3.200000000000000067e-02 1.190235000000000043e-01 1.938360000000000127e+01 6.895140000000000668e+01 2.089670000000000073e+03
3.300000000000000155e-02 1.189980000000000065e-01 1.851709999999999923e+01 6.767109999999999559e+01 2.089329999999999927e+03
3.400000000000000244e-02 1.189659999999999884e-01 1.758789999999999765e+01 6.607945000000000846e+01 2.088885000000000218e+03
3.500000000000000333e-02 1.189304999999999946e-01 1.670795000000000030e+01 6.447050000000000125e+01 2.088390000000000327e+03
3.600000000000000422e-02 1.188980000000000037e-01 1.600189999999999912e+01 6.322180000000000177e+01 2.087934999999999945e+03
3.700000000000000511e-02 1.188760000000000094e-01 1.557144999999999868e+01 6.267745000000000033e+01 2.087614999999999782e+03
3.799999999999999906e-02 1.188700000000000034e-01 1.546690000000000076e+01 6.304359999999999786e+01 2.087510000000000218e+03
3.899999999999999994e-02 1.188829999999999887e-01 1.567384999999999984e+01 6.432784999999999798e+01 2.087664999999999964e+03
4.000000000000000083e-02 1.189129999999999909e-01 1.611744999999999806e+01 6.633590000000000941e+01 2.088065000000000055e+03
4.100000000000000172e-02 1.189560000000000062e-01 1.668025000000000091e+01 6.871944999999999482e+01 2.088649999999999636e+03
4.200000000000000261e-02 1.190044999999999992e-01 1.722729999999999961e+01 7.105610000000000070e+01 2.089315000000000055e+03
4.300000000000000350e-02 1.190509999999999902e-01 1.763100000000000023e+01 7.293529999999999802e+01 2.089954999999999927e+03
4.400000000000000439e-02 1.190859999999999974e-01 1.779090000000000060e+01 7.403200000000001069e+01 2.090460000000000036e+03
4.499999999999999833e-02 1.191045000000000020e-01 1.764560000000000173e+01 7.415135000000000787e+01 2.090735000000000127e+03
4.599999999999999922e-02 1.191029999999999867e-01 1.717484999999999928e+01 7.324219999999999686e+01 2.090734999999999673e+03
4.700000000000000011e-02 1.190805000000000058e-01 1.639419999999999789e+01 7.138075000000000614e+01 2.090430000000000291e+03
4.800000000000000100e-02 1.190380000000000049e-01 1.534569999999999901e+01 6.873409999999999798e+01 2.089855000000000018e+03
4.900000000000000189e-02 1.189784999999999870e-01 1.408600000000000030e+01 6.551694999999999425e+01 2.089039999999999964e+03
5.000000000000000278e-02 1.189064999999999983e-01 1.267658499999999933e+01 6.195134999999999792e+01 2.088045000000000073e+03
5.100000000000000366e-02 1.188259999999999872e-01 1.117755000000000010e+01 5.823895000000000266e+01 2.086925000000000182e+03
5.200000000000000455e-02 1.187414999999999998e-01 9.644304999999999239e+00 5.454765000000000441e+01 2.085739999999999782e+03
5.300000000000000544e-02 1.186560000000000115e-01 8.127710000000000434e+00 5.101144999999999641e+01 2.084545000000000073e+03
5.399999999999999939e-02 1.185724999999999973e-01 6.675969999999999516e+00 4.773945000000000505e+01 2.083375000000000000e+03
5.500000000000000028e-02 1.184945000000000026e-01 5.336564999999999337e+00 4.482734999999999559e+01 2.082279999999999745e+03
5.600000000000000117e-02 1.184245000000000020e-01 4.157530000000000392e+00 4.236749999999999972e+01 2.081289999999999964e+03
5.700000000000000205e-02 1.183644999999999975e-01 3.187238999999999933e+00 4.045430000000000348e+01 2.080440000000000055e+03
5.800000000000000294e-02 1.183169999999999916e-01 2.472602499999999814e+00 3.918314999999999770e+01 2.079765000000000327e+03
5.900000000000000383e-02 1.182855000000000018e-01 2.056112499999999788e+00 3.864435000000000286e+01 2.079295000000000073e+03
6.000000000000000472e-02 1.182710000000000011e-01 1.972230000000000150e+00 3.891380000000000194e+01 2.079070000000000164e+03
6.099999999999999867e-02 1.182755000000000056e-01 2.244099999999999984e+00 4.004265000000000185e+01 2.079109999999999673e+03
6.199999999999999956e-02 1.183005000000000029e-01 2.881050000000000111e+00 4.204919999999999902e+01 2.079430000000000291e+03
6.300000000000000044e-02 1.183454999999999924e-01 3.877444999999999808e+00 4.491424999999999557e+01 2.080034999999999854e+03
6.400000000000000133e-02 1.184119999999999895e-01 5.213004999999999889e+00 4.858084999999999809e+01 2.080925000000000182e+03
6.500000000000000222e-02 1.184965000000000046e-01 6.854395000000000238e+00 5.295855000000000246e+01 2.082085000000000036e+03
6.600000000000000311e-02 1.185979999999999951e-01 8.757609999999999673e+00 5.793045000000000755e+01 2.083485000000000127e+03
6.700000000000000400e-02 1.187140000000000140e-01 1.087134999999999962e+01 6.336244999999999550e+01 2.085090000000000146e+03
6.800000000000000488e-02 1.188415000000000027e-01 1.313986500000000035e+01 6.911269999999998959e+01 2.086864999999999782e+03
6.900000000000000577e-02 1.189769999999999994e-01 1.550619999999999976e+01 7.504054999999999609e+01 2.088760000000000218e+03
7.000000000000000666e-02 1.191180000000000017e-01 1.791535000000000011e+01 8.101470000000000482e+01 2.090739999999999782e+03
7.100000000000000755e-02 1.192610000000000059e-01 2.031660000000000110e+01 8.691999999999998749e+01 2.092760000000000218e+03
7.200000000000000844e-02 1.194039999999999963e-01 2.266610000000000014e+01 9.266235000000000355e+01 2.094784999999999854e+03
7.300000000000000933e-02 1.195434999999999970e-01 2.492835000000000178e+01 9.817305000000000348e+01 2.096775000000000091e+03
7.399999999999999634e-02 1.196794999999999942e-01 2.707784999999999798e+01 1.034109499999999997e+02 2.098720000000000255e+03
7.499999999999999722e-02 1.198099999999999998e-01 2.909924999999999784e+01 1.083615000000000066e+02 2.100585000000000036e+03
7.599999999999999811e-02 1.199349999999999861e-01 3.098724999999999952e+01 1.130370000000000061e+02 2.102385000000000218e+03
7.699999999999999900e-02 1.200534999999999936e-01 3.274569999999999936e+01 1.174704999999999870e+02 2.104105000000000018e+03
7.799999999999999989e-02 1.201684999999999975e-01 3.438569999999999993e+01 1.217115000000000009e+02 2.105755000000000109e+03
7.900000000000000078e-02 1.202779999999999960e-01 3.592345000000000255e+01 1.258174999999999955e+02 2.107355000000000018e+03
8.000000000000000167e-02 1.203855000000000064e-01 3.737784999999999513e+01 1.298505000000000109e+02 2.108909999999999854e+03
8.100000000000000255e-02 1.204915000000000014e-01 3.876800000000000068e+01 1.338654999999999973e+02 2.110449999999999818e+03
8.200000000000000344e-02 1.205964999999999954e-01 4.011129999999999995e+01 1.379069999999999823e+02 2.111980000000000018e+03
8.300000000000000433e-02 1.207024999999999904e-01 4.142125000000000057e+01 1.420065000000000168e+02 2.113514999999999873e+03
8.400000000000000522e-02 1.208085000000000131e-01 4.270650000000000546e+01 1.461759999999999877e+02 2.115059999999999945e+03
8.500000000000000611e-02 1.209165000000000101e-01 4.397025000000000006e+01 1.504094999999999800e+02 2.116625000000000000e+03
8.600000000000000699e-02 1.210250000000000076e-01 4.520985000000000298e+01 1.546865000000000236e+02 2.118210000000000036e+03
8.700000000000000788e-02 1.211339999999999917e-01 4.641760000000000019e+01 1.589694999999999823e+02 2.119800000000000182e+03
8.800000000000000877e-02 1.212429999999999897e-01 4.758105000000000473e+01 1.632094999999999914e+02 2.121385000000000218e+03
8.899999999999999578e-02 1.213505000000000000e-01 4.868449999999999989e+01 1.673509999999999991e+02 2.122960000000000036e+03
8.999999999999999667e-02 1.214545000000000069e-01 4.970980000000000132e+01 1.713335000000000150e+02 2.124489999999999782e+03
9.099999999999999756e-02 1.215554999999999969e-01 5.063800000000000523e+01 1.750980000000000132e+02 2.125970000000000255e+03
9.199999999999999845e-02 1.216510000000000091e-01 5.145024999999999693e+01 1.785875000000000057e+02 2.127369999999999891e+03
9.299999999999999933e-02 1.217395000000000005e-01 5.212914999999999566e+01 1.817520000000000095e+02 2.128675000000000182e+03
9.400000000000000022e-02 1.218204999999999982e-01 5.265970000000000084e+01 1.845500000000000114e+02 2.129875000000000000e+03
9.500000000000000111e-02 1.218924999999999870e-01 5.302994999999999948e+01 1.869504999999999768e+02 2.130949999999999818e+03
9.600000000000000200e-02 1.219554999999999945e-01 5.323220000000000596e+01 1.889339999999999975e+02 2.131885000000000218e+03
9.700000000000000289e-02 1.220084999999999920e-01 5.326279999999999859e+01 1.904920000000000186e+02 2.132680000000000291e+03
9.800000000000000377e-02 1.220515000000000072e-01 5.312279999999999802e+01 1.916299999999999955e+02 2.133329999999999927e+03
9.900000000000000466e-02 1.220839999999999981e-01 5.281815000000000282e+01 1.923639999999999759e+02 2.133829999999999927e+03
1.000000000000000056e-01 1.221070000000000072e-01 5.235904999999999632e+01 1.927205000000000155e+02 2.134184999999999945e+03
1.010000000000000064e-01 1.221215000000000078e-01 5.175959999999999894e+01 1.927369999999999948e+02 2.134409999999999854e+03
1.020000000000000073e-01 1.221274999999999999e-01 5.103750000000000142e+01 1.924565000000000055e+02 2.134510000000000218e+03
1.030000000000000082e-01 1.221259999999999984e-01 5.021280000000000143e+01 1.919300000000000068e+02 2.134500000000000000e+03
1.040000000000000091e-01 1.221180000000000043e-01 4.930719999999999459e+01 1.912074999999999818e+02 2.134399999999999636e+03
1.050000000000000100e-01 1.221055000000000057e-01 4.834300000000000352e+01 1.903430000000000177e+02 2.134224999999999909e+03
1.059999999999999970e-01 1.220890000000000031e-01 4.734219999999999828e+01 1.893865000000000123e+02 2.133994999999999891e+03
1.069999999999999979e-01 1.220690000000000108e-01 4.632554999999999978e+01 1.883840000000000146e+02 2.133715000000000146e+03
1.079999999999999988e-01 1.220485000000000042e-01 4.531189999999999429e+01 1.873764999999999930e+02 2.133409999999999854e+03
1.089999999999999997e-01 1.220269999999999966e-01 4.431740000000000634e+01 1.863969999999999914e+02 2.133094999999999800e+03
1.100000000000000006e-01 1.220050000000000023e-01 4.335500000000000398e+01 1.854725000000000250e+02 2.132779999999999745e+03
1.110000000000000014e-01 1.219844999999999957e-01 4.243449999999999989e+01 1.846184999999999832e+02 2.132470000000000255e+03
1.120000000000000023e-01 1.219645000000000035e-01 4.156159999999999854e+01 1.838444999999999823e+02 2.132180000000000291e+03
1.130000000000000032e-01 1.219459999999999988e-01 4.073874999999999602e+01 1.831500000000000057e+02 2.131904999999999745e+03
1.140000000000000041e-01 1.219290000000000096e-01 3.996460000000000434e+01 1.825264999999999986e+02 2.131649999999999636e+03
1.150000000000000050e-01 1.219139999999999946e-01 3.923484999999999445e+01 1.819590000000000032e+02 2.131414999999999964e+03
1.160000000000000059e-01 1.218990000000000073e-01 3.854215000000000657e+01 1.814265000000000043e+02 2.131199999999999818e+03
1.170000000000000068e-01 1.218849999999999933e-01 3.787704999999999700e+01 1.809029999999999916e+02 2.130985000000000127e+03
1.180000000000000077e-01 1.218710000000000071e-01 3.722849999999999682e+01 1.803605000000000018e+02 2.130779999999999745e+03
1.190000000000000085e-01 1.218565000000000065e-01 3.658449999999999847e+01 1.797690000000000055e+02 2.130555000000000291e+03
1.200000000000000094e-01 1.218405000000000044e-01 3.593294999999999817e+01 1.790994999999999777e+02 2.130319999999999709e+03
1.209999999999999964e-01 1.218230000000000007e-01 3.526239999999999952e+01 1.783259999999999934e+02 2.130059999999999945e+03
1.219999999999999973e-01 1.218025000000000080e-01 3.456260000000000332e+01 1.774259999999999877e+02 2.129760000000000218e+03
1.229999999999999982e-01 1.217794999999999989e-01 3.382529999999999859e+01 1.763824999999999932e+02 2.129425000000000182e+03
1.239999999999999991e-01 1.217530000000000001e-01 3.304455000000000098e+01 1.751850000000000023e+02 2.129039999999999964e+03
1.250000000000000000e-01 1.217229999999999979e-01 3.221730000000000160e+01 1.738305000000000007e+02 2.128600000000000364e+03
1.260000000000000009e-01 1.216895000000000060e-01 3.134344999999999715e+01 1.723240000000000123e+02 2.128114999999999782e+03
1.270000000000000018e-01 1.216524999999999967e-01 3.042609999999999815e+01 1.706784999999999854e+02 2.127574999999999818e+03
1.280000000000000027e-01 1.216125000000000123e-01 2.947135000000000105e+01 1.689125000000000227e+02 2.126994999999999891e+03
1.290000000000000036e-01 1.215694999999999970e-01 2.848785000000000167e+01 1.670529999999999973e+02 2.126364999999999782e+03
1.300000000000000044e-01 1.215239999999999931e-01 2.748675000000000068e+01 1.651304999999999836e+02 2.125710000000000036e+03
1.310000000000000053e-01 1.214774999999999883e-01 2.648080000000000211e+01 1.631809999999999832e+02 2.125029999999999745e+03
1.320000000000000062e-01 1.214299999999999963e-01 2.548389999999999844e+01 1.612404999999999973e+02 2.124345000000000255e+03
1.330000000000000071e-01 1.213829999999999909e-01 2.451040000000000063e+01 1.593460000000000036e+02 2.123650000000000091e+03
1.340000000000000080e-01 1.213365000000000138e-01 2.357430000000000092e+01 1.575319999999999823e+02 2.122975000000000364e+03
1.350000000000000089e-01 1.212919999999999970e-01 2.268865000000000265e+01 1.558315000000000055e+02 2.122324999999999818e+03
1.360000000000000098e-01 1.212499999999999967e-01 2.186495000000000033e+01 1.542715000000000032e+02 2.121710000000000036e+03
1.370000000000000107e-01 1.212109999999999993e-01 2.111254999999999882e+01 1.528720000000000141e+02 2.121135000000000218e+03
1.380000000000000115e-01 1.211759999999999921e-01 2.043865000000000265e+01 1.516500000000000057e+02 2.120619999999999891e+03
1.390000000000000124e-01 1.211444999999999883e-01 1.984765000000000157e+01 1.506119999999999948e+02 2.120154999999999745e+03
1.400000000000000133e-01 1.211174999999999891e-01 1.934120000000000061e+01 1.497605000000000075e+02 2.119755000000000109e+03
1.410000000000000142e-01 1.210950000000000082e-01 1.891859999999999786e+01 1.490894999999999868e+02 2.119420000000000073e+03
1.420000000000000151e-01 1.210759999999999892e-01 1.857675000000000054e+01 1.485894999999999868e+02 2.119139999999999873e+03
1.430000000000000160e-01 1.210615000000000024e-01 1.831034999999999968e+01 1.482459999999999809e+02 2.118920000000000073e+03
1.440000000000000169e-01 1.210505000000000053e-01 1.811244999999999905e+01 1.480399999999999920e+02 2.118755000000000109e+03
1.450000000000000178e-01 1.210430000000000117e-01 1.797489999999999810e+01 1.479515000000000100e+02 2.118635000000000218e+03
1.459999999999999909e-01 1.210390000000000077e-01 1.788870000000000005e+01 1.479579999999999984e+02 2.118559999999999945e+03
1.469999999999999918e-01 1.210365000000000052e-01 1.784425000000000239e+01 1.480384999999999991e+02 2.118525000000000091e+03
1.479999999999999927e-01 1.210364999999999913e-01 1.783210000000000051e+01 1.481709999999999923e+02 2.118514999999999873e+03
1.489999999999999936e-01 1.210380000000000067e-01 1.784295000000000186e+01 1.483354999999999961e+02 2.118529999999999745e+03
1.499999999999999944e-01 1.210394999999999943e-01 1.786809999999999832e+01 1.485135000000000218e+02 2.118560000000000400e+03
1.509999999999999953e-01 1.210424999999999973e-01 1.789974999999999739e+01 1.486904999999999859e+02 2.118590000000000146e+03
1.519999999999999962e-01 1.210455000000000003e-01 1.793104999999999905e+01 1.488530000000000086e+02 2.118635000000000218e+03
1.529999999999999971e-01 1.210485000000000033e-01 1.795625000000000071e+01 1.489909999999999854e+02 2.118675000000000182e+03
1.539999999999999980e-01 1.210504999999999914e-01 1.797100000000000009e+01 1.490969999999999800e+02 2.118710000000000036e+03
1.549999999999999989e-01 1.210524999999999934e-01 1.797224999999999895e+01 1.491680000000000064e+02 2.118739999999999782e+03
1.559999999999999998e-01 1.210539999999999949e-01 1.795820000000000149e+01 1.492019999999999982e+02 2.118755000000000109e+03
1.570000000000000007e-01 1.210544999999999954e-01 1.792830000000000013e+01 1.492004999999999768e+02 2.118764999999999873e+03
1.580000000000000016e-01 1.210544999999999954e-01 1.788319999999999865e+01 1.491669999999999732e+02 2.118765000000000327e+03
1.590000000000000024e-01 1.210539999999999949e-01 1.782439999999999714e+01 1.491084999999999923e+02 2.118755000000000109e+03
