# t [s], A [cm^2], U [cm/s], P [cPa], c [cm/s]
1.000000000000000021e-03 4.518429999999999946e-01 6.182750000000000745e-03 1.073335000000000008e+02 1.671069999999999936e+03
2.000000000000000042e-03 4.518360000000000154e-01 1.952299999999997961e-04 1.073040000000000020e+02 1.671065000000000055e+03
3.000000000000000062e-03 4.518800000000000594e-01 1.124665000000000109e-01 1.074300000000000068e+02 1.671095000000000027e+03
4.000000000000000083e-03 4.519104999999999928e-01 2.054365500000000233e-01 1.075480000000000018e+02 1.671130000000000109e+03
5.000000000000000104e-03 4.518805000000000183e-01 1.540406500000000012e-01 1.074405000000000001e+02 1.671110000000000127e+03
6.000000000000000125e-03 4.518294999999999950e-01 3.982849999999998891e-02 1.071634999999999991e+02 1.671045000000000073e+03
7.000000000000000146e-03 4.517815000000000025e-01 -7.485949999999996773e-02 1.068135000000000048e+02 1.670950000000000045e+03
8.000000000000000167e-03 4.516989999999999617e-01 -2.936600000000000321e-01 1.062715000000000032e+02 1.670815000000000055e+03
9.000000000000001055e-03 4.515689999999999982e-01 -6.524800000000000599e-01 1.054540000000000077e+02 1.670605000000000018e+03
1.000000000000000194e-02 4.513884999999999703e-01 -1.149515000000000065e+00 1.043170000000000073e+02 1.670319999999999936e+03
1.099999999999999936e-02 4.511399999999999855e-01 -1.815315000000000012e+00 1.027729999999999961e+02 1.669914999999999964e+03
1.200000000000000025e-02 4.508205000000000129e-01 -2.632869999999999600e+00 1.007858999999999980e+02 1.669394999999999982e+03
1.300000000000000114e-02 4.504699999999999815e-01 -3.468595000000000095e+00 9.848789999999999623e+01 1.668769999999999982e+03
1.400000000000000203e-02 4.501485000000000070e-01 -4.124408499999999478e+00 9.614875000000000682e+01 1.668110000000000127e+03
1.499999999999999944e-02 4.498995000000000077e-01 -4.446138949999999923e+00 9.403559999999998809e+01 1.667474999999999909e+03
1.600000000000000033e-02 4.497280000000000166e-01 -4.388661500000000437e+00 9.229000000000000625e+01 1.666914999999999964e+03
1.700000000000000122e-02 4.496069999999999789e-01 -4.013270000000000337e+00 9.089574999999999250e+01 1.666429999999999836e+03
1.800000000000000211e-02 4.494949999999999779e-01 -3.443111000000000033e+00 8.971225000000001160e+01 1.665990000000000009e+03
1.900000000000000300e-02 4.493530000000000024e-01 -2.806794499999999637e+00 8.854980000000000473e+01 1.665559999999999945e+03
2.000000000000000042e-02 4.491590000000000305e-01 -2.191356999999999999e+00 8.724859999999999616e+01 1.665110000000000127e+03
2.100000000000000130e-02 4.489144999999999941e-01 -1.619144999999999834e+00 8.573484999999999445e+01 1.664605000000000018e+03
2.200000000000000219e-02 4.486390000000000100e-01 -1.055499999999999883e+00 8.403379999999999939e+01 1.664049999999999955e+03
2.299999999999999961e-02 4.483580000000000343e-01 -4.406300000000000772e-01 8.223855000000000359e+01 1.663470000000000027e+03
2.400000000000000050e-02 4.480914999999999759e-01 2.718950000000002198e-01 8.045580000000001064e+01 1.662884999999999991e+03
2.500000000000000139e-02 4.478465000000000362e-01 1.087155000000000094e+00 7.875374999999999659e+01 1.662320000000000164e+03
2.600000000000000228e-02 4.476120000000000099e-01 1.959619999999999918e+00 7.713159999999999172e+01 1.661764999999999873e+03
2.700000000000000316e-02 4.473679999999999879e-01 2.801635000000000097e+00 7.551570000000000960e+01 1.661215000000000146e+03
2.800000000000000058e-02 4.470855000000000246e-01 3.504554999999999865e+00 7.377934999999999377e+01 1.660634999999999991e+03
2.900000000000000147e-02 4.467400000000000260e-01 3.966154999999999653e+00 7.177915000000000134e+01 1.660000000000000000e+03
3.000000000000000236e-02 4.463169999999999638e-01 4.117395000000000138e+00 6.939905000000000257e+01 1.659275000000000091e+03
3.099999999999999978e-02 4.458189999999999653e-01 3.941165000000000251e+00 6.658920000000000528e+01 1.658444999999999936e+03
3.200000000000000067e-02 4.452619999999999911e-01 3.476890000000000036e+00 6.338690000000000424e+01 1.657510000000000218e+03
3.300000000000000155e-02 4.446765000000000301e-01 2.809960000000000235e+00 5.991429999999999723e+01 1.656494999999999891e+03
3.400000000000000244e-02 4.440979999999999928e-01 2.050530000000000186e+00 5.635430000000000206e+01 1.655450000000000045e+03
3.500000000000000333e-02 4.435615000000000530e-01 1.310674999999999812e+00 5.291594999999999516e+01 1.654420000000000073e+03
3.600000000000000422e-02 4.430950000000000166e-01 6.859249999999992298e-01 4.980044999999999789e+01 1.653465000000000146e+03
3.700000000000000511e-02 4.427185000000000148e-01 2.450000000000001066e-01 4.717430000000000234e+01 1.652630000000000109e+03
3.799999999999999906e-02 4.424425000000000163e-01 2.766000000000001791e-02 4.515525000000000233e+01 1.651944999999999936e+03
3.899999999999999994e-02 4.422685000000000088e-01 4.857000000000000206e-02 4.380799999999999983e+01 1.651449999999999818e+03
4.000000000000000083e-02 4.421954999999999636e-01 3.049849999999999506e-01 4.315024999999999977e+01 1.651144999999999982e+03
4.100000000000000172e-02 4.422169999999999712e-01 7.855075000000000252e-01 4.316485000000000127e+01 1.651039999999999964e+03
4.200000000000000261e-02 4.423270000000000257e-01 1.477643000000000040e+00 4.381385000000000218e+01 1.651125000000000000e+03
4.300000000000000350e-02 4.425179999999999669e-01 2.372399000000000147e+00 4.505134999999999934e+01 1.651390000000000100e+03
4.400000000000000439e-02 4.427875000000000005e-01 3.465139999999999443e+00 4.683174999999999955e+01 1.651825000000000045e+03
4.499999999999999833e-02 4.431294999999999540e-01 4.753185000000000215e+00 4.911284999999999457e+01 1.652414999999999964e+03
4.599999999999999922e-02 4.435399999999999898e-01 6.231644499999999809e+00 5.185354999999999848e+01 1.653159999999999854e+03
4.700000000000000011e-02 4.440129999999999910e-01 7.889168500000000250e+00 5.500970000000000226e+01 1.654034999999999854e+03
4.800000000000000100e-02 4.445394999999999763e-01 9.705104999999999649e+00 5.852944999999999709e+01 1.655025000000000091e+03
4.900000000000000189e-02 4.451089999999999769e-01 1.164917999999999942e+01 6.235115000000000407e+01 1.656119999999999891e+03
5.000000000000000278e-02 4.457099999999999396e-01 1.368309499999999979e+01 6.640314999999999657e+01 1.657300000000000182e+03
5.100000000000000366e-02 4.463289999999999758e-01 1.576361999999999952e+01 7.060734999999999673e+01 1.658539999999999964e+03
5.200000000000000455e-02 4.469545000000000323e-01 1.784682000000000102e+01 7.488410000000000366e+01 1.659809999999999945e+03
5.300000000000000544e-02 4.475744999999999862e-01 1.989189999999999969e+01 7.915784999999999627e+01 1.661105000000000018e+03
5.399999999999999939e-02 4.481804999999999817e-01 2.186435000000000173e+01 8.336324999999999363e+01 1.662394999999999982e+03
5.500000000000000028e-02 4.487670000000000270e-01 2.373819999999999908e+01 8.744915000000000305e+01 1.663664999999999964e+03
5.600000000000000117e-02 4.493300000000000072e-01 2.549624999999999986e+01 9.138210000000000832e+01 1.664900000000000091e+03
5.700000000000000205e-02 4.498689999999999634e-01 2.713005000000000067e+01 9.514374999999999716e+01 1.666099999999999909e+03
5.800000000000000294e-02 4.503844999999999654e-01 2.863860000000000028e+01 9.873400000000000887e+01 1.667255000000000109e+03
5.900000000000000383e-02 4.508805000000000174e-01 3.002669999999999817e+01 1.021644499999999880e+02 1.668369999999999891e+03
6.000000000000000472e-02 4.513610000000000122e-01 3.130349999999999966e+01 1.054580500000000001e+02 1.669434999999999945e+03
6.099999999999999867e-02 4.518290000000000362e-01 3.248069999999999879e+01 1.086430499999999881e+02 1.670485000000000127e+03
6.199999999999999956e-02 4.522904999999999842e-01 3.357155000000000200e+01 1.117520000000000095e+02 1.671500000000000000e+03
6.300000000000000044e-02 4.527499999999999858e-01 3.458950000000000102e+01 1.148164999999999907e+02 1.672500000000000000e+03
6.400000000000000133e-02 4.532104999999999606e-01 3.554699999999999704e+01 1.178679999999999950e+02 1.673494999999999891e+03
6.500000000000000222e-02 4.536749999999999949e-01 3.645510000000000161e+01 1.209284999999999997e+02 1.674490000000000009e+03
6.600000000000000311e-02 4.541459999999999386e-01 3.732155000000000200e+01 1.240155000000000030e+02 1.675494999999999891e+03
6.700000000000000400e-02 4.546234999999999582e-01 3.815085000000000548e+01 1.271370000000000005e+02 1.676500000000000000e+03
6.800000000000000488e-02 4.551055000000000517e-01 3.894339999999999691e+01 1.302895000000000039e+02 1.677519999999999982e+03
6.900000000000000577e-02 4.555905000000000094e-01 3.969554999999999723e+01 1.334600000000000080e+02 1.678539999999999964e+03
7.000000000000000666e-02 4.560730000000000062e-01 4.039969999999999573e+01 1.366260000000000048e+02 1.679559999999999945e+03
7.100000000000000755e-02 4.565489999999999826e-01 4.104550000000000409e+01 1.397565000000000168e+02 1.680569999999999936e+03
7.200000000000000844e-02 4.570115000000000149e-01 4.162030000000000030e+01 1.428149999999999977e+02 1.681565000000000055e+03
7.300000000000000933e-02 4.574559999999999738e-01 4.211064999999999969e+01 1.457620000000000005e+02 1.682529999999999973e+03
7.399999999999999634e-02 4.578754999999999908e-01 4.250345000000000084e+01 1.485564999999999998e+02 1.683454999999999927e+03
7.499999999999999722e-02 4.582654999999999923e-01 4.278669999999999618e+01 1.511634999999999991e+02 1.684325000000000045e+03
7.599999999999999811e-02 4.586215000000000153e-01 4.295090000000000430e+01 1.535484999999999900e+02 1.685130000000000109e+03
7.699999999999999900e-02 4.589400000000000146e-01 4.298914999999999509e+01 1.556859999999999786e+02 1.685865000000000009e+03
7.799999999999999989e-02 4.592185000000000294e-01 4.289789999999999992e+01 1.575570000000000164e+02 1.686519999999999982e+03
7.900000000000000078e-02 4.594564999999999899e-01 4.267685000000000173e+01 1.591519999999999868e+02 1.687094999999999800e+03
8.000000000000000167e-02 4.596534999999999926e-01 4.232925000000000182e+01 1.604694999999999823e+02 1.687579999999999927e+03
8.100000000000000255e-02 4.598114999999999841e-01 4.186144999999999783e+01 1.615155000000000030e+02 1.687985000000000127e+03
8.200000000000000344e-02 4.599329999999999807e-01 4.128300000000000125e+01 1.623045000000000186e+02 1.688300000000000182e+03
8.300000000000000433e-02 4.600210000000000132e-01 4.060580000000000211e+01 1.628564999999999827e+02 1.688550000000000182e+03
8.400000000000000522e-02 4.600790000000000157e-01 3.984404999999999575e+01 1.631965000000000146e+02 1.688719999999999800e+03
8.500000000000000611e-02 4.601115000000000066e-01 3.901350000000000051e+01 1.633550000000000182e+02 1.688835000000000036e+03
8.600000000000000699e-02 4.601235000000000186e-01 3.813100000000000023e+01 1.633625000000000114e+02 1.688889999999999873e+03
8.700000000000000788e-02 4.601195000000000146e-01 3.721359999999999957e+01 1.632539999999999907e+02 1.688904999999999973e+03
8.800000000000000877e-02 4.601045000000000273e-01 3.627819999999999823e+01 1.630604999999999905e+02 1.688884999999999991e+03
8.899999999999999578e-02 4.600830000000000197e-01 3.534065000000000367e+01 1.628139999999999930e+02 1.688845000000000027e+03
8.999999999999999667e-02 4.600579999999999670e-01 3.441510000000000247e+01 1.625414999999999850e+02 1.688779999999999973e+03
9.099999999999999756e-02 4.600330000000000252e-01 3.351370000000000005e+01 1.622669999999999959e+02 1.688714999999999918e+03
9.199999999999999845e-02 4.600100000000000300e-01 3.264565000000000339e+01 1.620099999999999909e+02 1.688644999999999982e+03
9.299999999999999933e-02 4.599914999999999976e-01 3.181749999999999901e+01 1.617835000000000036e+02 1.688579999999999927e+03
9.400000000000000022e-02 4.599784999999999568e-01 3.103255000000000052e+01 1.615939999999999941e+02 1.688519999999999982e+03
9.500000000000000111e-02 4.599689999999999612e-01 3.029115000000000180e+01 1.614429999999999836e+02 1.688470000000000027e+03
9.600000000000000200e-02 4.599630000000000107e-01 2.959064999999999657e+01 1.613265000000000100e+02 1.688424999999999955e+03
9.700000000000000289e-02 4.599590000000000067e-01 2.892620000000000147e+01 1.612345000000000255e+02 1.688389999999999873e+03
9.800000000000000377e-02 4.599550000000000027e-01 2.829090000000000060e+01 1.611550000000000011e+02 1.688360000000000127e+03
9.900000000000000466e-02 4.599480000000000235e-01 2.767634999999999934e+01 1.610715000000000146e+02 1.688325000000000045e+03
1.000000000000000056e-01 4.599364999999999704e-01 2.707325000000000159e+01 1.609664999999999964e+02 1.688284999999999854e+03
1.010000000000000064e-01 4.599169999999999647e-01 2.647210000000000107e+01 1.608224999999999909e+02 1.688240000000000009e+03
1.020000000000000073e-01 4.598865000000000314e-01 2.586359999999999815e+01 1.606209999999999809e+02 1.688174999999999955e+03
1.030000000000000082e-01 4.598440000000000305e-01 2.523930000000000007e+01 1.603464999999999918e+02 1.688094999999999800e+03
1.040000000000000091e-01 4.597879999999999745e-01 2.459194999999999709e+01 1.599859999999999900e+02 1.687985000000000127e+03
1.050000000000000100e-01 4.597165000000000279e-01 2.391595000000000226e+01 1.595300000000000011e+02 1.687849999999999909e+03
1.059999999999999970e-01 4.596290000000000098e-01 2.320785000000000053e+01 1.589720000000000084e+02 1.687690000000000055e+03
1.069999999999999979e-01 4.595265000000000044e-01 2.246629999999999683e+01 1.583125000000000000e+02 1.687494999999999891e+03
1.079999999999999988e-01 4.594090000000000118e-01 2.169249999999999901e+01 1.575529999999999973e+02 1.687269999999999982e+03
1.089999999999999997e-01 4.592784999999999784e-01 2.088980000000000103e+01 1.567024999999999864e+02 1.687019999999999982e+03
1.100000000000000006e-01 4.591374999999999762e-01 2.006380000000000052e+01 1.557744999999999891e+02 1.686740000000000009e+03
1.110000000000000014e-01 4.589879999999999516e-01 1.922230000000000061e+01 1.547839999999999918e+02 1.686444999999999936e+03
1.120000000000000023e-01 4.588340000000000196e-01 1.837444999999999951e+01 1.537509999999999764e+02 1.686130000000000109e+03
1.130000000000000032e-01 4.586774999999999602e-01 1.753089999999999904e+01 1.526974999999999909e+02 1.685809999999999945e+03
1.140000000000000041e-01 4.585230000000000139e-01 1.670275000000000176e+01 1.516469999999999914e+02 1.685485000000000127e+03
1.150000000000000050e-01 4.583740000000000037e-01 1.590139999999999887e+01 1.506225000000000023e+02 1.685164999999999964e+03
1.160000000000000059e-01 4.582330000000000014e-01 1.513785000000000025e+01 1.496460000000000150e+02 1.684849999999999909e+03
1.170000000000000068e-01 4.581040000000000667e-01 1.442225499999999982e+01 1.487389999999999759e+02 1.684554999999999836e+03
1.180000000000000077e-01 4.579879999999999507e-01 1.376339000000000112e+01 1.479189999999999827e+02 1.684284999999999854e+03
1.190000000000000085e-01 4.578884999999999761e-01 1.316829000000000072e+01 1.471995000000000005e+02 1.684045000000000073e+03
1.200000000000000094e-01 4.578054999999999763e-01 1.264200499999999927e+01 1.465919999999999845e+02 1.683829999999999927e+03
1.209999999999999964e-01 4.577400000000000357e-01 1.218748499999999879e+01 1.461014999999999873e+02 1.683655000000000200e+03
1.219999999999999973e-01 4.576915000000000289e-01 1.180527499999999996e+01 1.457295000000000016e+02 1.683509999999999991e+03
1.229999999999999982e-01 4.576594999999999969e-01 1.149393500000000046e+01 1.454719999999999800e+02 1.683404999999999973e+03
1.239999999999999991e-01 4.576429999999999665e-01 1.124992500000000106e+01 1.453224999999999909e+02 1.683329999999999927e+03
1.250000000000000000e-01 4.576390000000000180e-01 1.106807000000000052e+01 1.452699999999999818e+02 1.683279999999999973e+03
1.260000000000000009e-01 4.576474999999999849e-01 1.094186000000000014e+01 1.453019999999999925e+02 1.683264999999999873e+03
1.270000000000000018e-01 4.576644999999999741e-01 1.086373000000000033e+01 1.454029999999999916e+02 1.683269999999999982e+03
1.280000000000000027e-01 4.576885000000000536e-01 1.082561000000000107e+01 1.455575000000000045e+02 1.683299999999999955e+03
1.290000000000000036e-01 4.577165000000000261e-01 1.081908500000000117e+01 1.457489999999999952e+02 1.683335000000000036e+03
1.300000000000000044e-01 4.577470000000000150e-01 1.083599500000000049e+01 1.459629999999999939e+02 1.683384999999999991e+03
1.310000000000000053e-01 4.577775000000000039e-01 1.086863500000000116e+01 1.461845000000000141e+02 1.683440000000000055e+03
1.320000000000000062e-01 4.578070000000000195e-01 1.090998000000000090e+01 1.464025000000000034e+02 1.683500000000000000e+03
1.330000000000000071e-01 4.578340000000000187e-01 1.095378000000000007e+01 1.466059999999999945e+02 1.683554999999999836e+03
1.340000000000000080e-01 4.578569999999999585e-01 1.099481499999999912e+01 1.467870000000000061e+02 1.683605000000000018e+03
1.350000000000000089e-01 4.578765000000000196e-01 1.102899500000000010e+01 1.469410000000000025e+02 1.683654999999999973e+03
1.360000000000000098e-01 4.578910000000000480e-01 1.105320500000000017e+01 1.470639999999999930e+02 1.683694999999999936e+03
1.370000000000000107e-01 4.579010000000000025e-01 1.106541499999999978e+01 1.471555000000000177e+02 1.683719999999999800e+03
1.380000000000000115e-01 4.579064999999999941e-01 1.106447000000000003e+01 1.472160000000000082e+02 1.683744999999999891e+03
1.390000000000000124e-01 4.579084999999999961e-01 1.105027499999999918e+01 1.472479999999999905e+02 1.683755000000000109e+03
1.400000000000000133e-01 4.579070000000000085e-01 1.102339500000000072e+01 1.472554999999999836e+02 1.683764999999999873e+03
1.410000000000000142e-01 4.579035000000000188e-01 1.098513499999999965e+01 1.472434999999999832e+02 1.683764999999999873e+03
1.420000000000000151e-01 4.578975000000000128e-01 1.093729000000000084e+01 1.472164999999999964e+02 1.683765000000000100e+03
1.430000000000000160e-01 4.578915000000000068e-01 1.088202499999999873e+01 1.471809999999999832e+02 1.683755000000000109e+03
1.440000000000000169e-01 4.578849999999999865e-01 1.082174499999999995e+01 1.471419999999999959e+02 1.683744999999999891e+03
1.450000000000000178e-01 4.578794999999999948e-01 1.075906499999999966e+01 1.471050000000000182e+02 1.683735000000000127e+03
1.459999999999999909e-01 4.578754999999999908e-01 1.069628999999999941e+01 1.470749999999999886e+02 1.683730000000000018e+03
1.469999999999999918e-01 4.578740000000000032e-01 1.063565499999999986e+01 1.470564999999999998e+02 1.683724999999999909e+03
1.479999999999999927e-01 4.578744999999999621e-01 1.057906000000000013e+01 1.470515000000000043e+02 1.683724999999999909e+03
1.489999999999999936e-01 4.578774999999999373e-01 1.052785000000000082e+01 1.470625000000000000e+02 1.683724999999999909e+03
1.499999999999999944e-01 4.578830000000000400e-01 1.048301499999999997e+01 1.470910000000000082e+02 1.683735000000000127e+03
1.509999999999999953e-01 4.578910000000000480e-01 1.044487999999999950e+01 1.471355000000000075e+02 1.683750000000000000e+03
1.519999999999999962e-01 4.579010000000000025e-01 1.041333500000000001e+01 1.471949999999999932e+02 1.683765000000000100e+03
1.529999999999999971e-01 4.579130000000000145e-01 1.038777499999999954e+01 1.472674999999999841e+02 1.683789999999999964e+03
1.539999999999999980e-01 4.579265000000000141e-01 1.036732500000000101e+01 1.473489999999999895e+02 1.683809999999999945e+03
1.549999999999999989e-01 4.579404999999999726e-01 1.035062999999999889e+01 1.474364999999999952e+02 1.683835000000000036e+03
1.559999999999999998e-01 4.579539999999999722e-01 1.033632000000000062e+01 1.475244999999999891e+02 1.683865000000000009e+03
1.570000000000000007e-01 4.579670000000000130e-01 1.032289499999999904e+01 1.476109999999999900e+02 1.683889999999999873e+03
1.580000000000000016e-01 4.579795000000000393e-01 1.030902000000000029e+01 1.476899999999999977e+02 1.683914999999999964e+03
1.590000000000000024e-01 4.579894999999999938e-01 1.029339500000000029e+01 1.477609999999999957e+02 1.683934999999999945e+03
