# t [s], A [cm^2], U [cm/s], P [cPa], c [cm/s]
1.000000000000000021e-03 5.915700000000000403e-01 2.961499999999998856e-03 9.179739999999999611e+01 1.408255000000000109e+03
2.000000000000000042e-03 5.915615000000000734e-01 -1.068954999999999905e-03 9.178204999999999814e+01 1.408250000000000000e+03
3.000000000000000062e-03 5.915905000000000191e-01 4.456029999999999713e-02 9.181995000000000573e+01 1.408259999999999991e+03
4.000000000000000083e-03 5.916440000000000587e-01 1.307595000000000007e-01 9.191575000000000273e+01 1.408289999999999964e+03
5.000000000000000104e-03 5.916590000000000460e-01 1.610219000000000233e-01 9.195199999999999818e+01 1.408300000000000182e+03
6.000000000000000125e-03 5.916244999999999976e-01 1.148612999999999995e-01 9.187709999999999866e+01 1.408284999999999854e+03
7.000000000000000146e-03 5.915779999999999372e-01 4.456150000000000388e-02 9.173024999999999807e+01 1.408250000000000000e+03
8.000000000000000167e-03 5.915334999999999344e-01 -2.567500000000000338e-02 9.154380000000000450e+01 1.408210000000000036e+03
9.000000000000001055e-03 5.914660000000000473e-01 -1.406489999999999685e-01 9.127670000000000528e+01 1.408150000000000091e+03
1.000000000000000194e-02 5.913559999999999928e-01 -3.342349999999999488e-01 9.088030000000000541e+01 1.408054999999999836e+03
1.099999999999999936e-02 5.911990000000000300e-01 -6.111449999999999383e-01 9.032784999999999798e+01 1.407930000000000064e+03
1.200000000000000025e-02 5.909869999999999290e-01 -9.782199999999999784e-01 8.958975000000000932e+01 1.407755000000000109e+03
1.300000000000000114e-02 5.907094999999999985e-01 -1.443259999999999987e+00 8.863335000000000719e+01 1.407525000000000091e+03
1.400000000000000203e-02 5.903694999999999915e-01 -1.987620000000000164e+00 8.745375000000001364e+01 1.407235000000000127e+03
1.499999999999999944e-02 5.899920000000000719e-01 -2.552740000000000009e+00 8.609675000000000011e+01 1.406894999999999982e+03
1.600000000000000033e-02 5.896150000000000002e-01 -3.055614999999999970e+00 8.465139999999999532e+01 1.406525000000000091e+03
1.700000000000000122e-02 5.892724999999999769e-01 -3.418866500000000030e+00 8.321950000000001069e+01 1.406140000000000100e+03
1.800000000000000211e-02 5.889824999999999644e-01 -3.594560500000000047e+00 8.188240000000000407e+01 1.405759999999999991e+03
1.900000000000000300e-02 5.887430000000000163e-01 -3.572658500000000181e+00 8.068225000000001046e+01 1.405404999999999973e+03
2.000000000000000042e-02 5.885399999999999521e-01 -3.375920999999999950e+00 7.961809999999999832e+01 1.405079999999999927e+03
2.100000000000000130e-02 5.883515000000000272e-01 -3.047366250000000054e+00 7.865559999999999263e+01 1.404764999999999873e+03
2.200000000000000219e-02 5.881529999999999259e-01 -2.635621500000000061e+00 7.774180000000001201e+01 1.404460000000000036e+03
2.299999999999999961e-02 5.879294999999999938e-01 -2.181951499999999822e+00 7.682319999999999993e+01 1.404154999999999973e+03
2.400000000000000050e-02 5.876730000000000009e-01 -1.711625000000000174e+00 7.586005000000000109e+01 1.403840000000000146e+03
2.500000000000000139e-02 5.873859999999999637e-01 -1.231389999999999763e+00 7.483494999999999209e+01 1.403509999999999991e+03
2.600000000000000228e-02 5.870789999999999065e-01 -7.333049999999998736e-01 7.375324999999999420e+01 1.403164999999999964e+03
2.700000000000000316e-02 5.867629999999999235e-01 -2.030449999999999200e-01 7.263609999999999900e+01 1.402815000000000055e+03
2.800000000000000058e-02 5.864489999999999981e-01 3.705150000000001498e-01 7.150919999999999277e+01 1.402460000000000036e+03
2.900000000000000147e-02 5.861419999999999408e-01 9.877049999999998331e-01 7.039199999999999591e+01 1.402110000000000127e+03
3.000000000000000236e-02 5.858385000000000398e-01 1.634279999999999955e+00 6.928929999999999723e+01 1.401750000000000000e+03
3.099999999999999978e-02 5.855299999999999949e-01 2.281900000000000261e+00 6.818809999999999150e+01 1.401394999999999982e+03
3.200000000000000067e-02 5.852025000000000698e-01 2.892114999999999547e+00 6.705904999999999916e+01 1.401034999999999854e+03
3.300000000000000155e-02 5.848419999999999730e-01 3.422805000000000319e+00 6.586250000000001137e+01 1.400664999999999964e+03
3.400000000000000244e-02 5.844350000000000378e-01 3.835475000000000634e+00 6.455644999999999811e+01 1.400264999999999873e+03
3.500000000000000333e-02 5.839744999999999520e-01 4.102025000000000254e+00 6.310665000000000191e+01 1.399829999999999927e+03
3.600000000000000422e-02 5.834584999999999910e-01 4.210069999999999979e+00 6.149455000000000382e+01 1.399365000000000009e+03
3.700000000000000511e-02 5.828949999999999410e-01 4.164820000000000633e+00 5.972355000000000302e+01 1.398860000000000127e+03
3.799999999999999906e-02 5.822985000000000522e-01 3.988484999999999836e+00 5.782054999999999723e+01 1.398320000000000164e+03
3.899999999999999994e-02 5.816870000000000651e-01 3.716130000000000155e+00 5.583384999999999820e+01 1.397764999999999873e+03
4.000000000000000083e-02 5.810845000000000038e-01 3.390454999999999774e+00 5.382750000000000057e+01 1.397194999999999936e+03
4.100000000000000172e-02 5.805124999999999869e-01 3.055949999999999722e+00 5.187375000000000114e+01 1.396634999999999991e+03
4.200000000000000261e-02 5.799900000000000055e-01 2.753709999999999880e+00 5.004555000000000575e+01 1.396099999999999909e+03
4.300000000000000350e-02 5.795339999999999936e-01 2.518369999999999997e+00 4.840984999999999872e+01 1.395615000000000009e+03
4.400000000000000439e-02 5.791569999999999219e-01 2.376019999999999577e+00 4.702275000000000205e+01 1.395184999999999945e+03
4.499999999999999833e-02 5.788659999999999917e-01 2.344484999999999708e+00 4.592699999999999960e+01 1.394835000000000036e+03
4.599999999999999922e-02 5.786649999999999849e-01 2.434365000000000112e+00 4.515149999999999864e+01 1.394559999999999945e+03
4.700000000000000011e-02 5.785564999999999181e-01 2.650888000000000133e+00 4.471249999999999858e+01 1.394375000000000000e+03
4.800000000000000100e-02 5.785394999999999843e-01 2.995975000000000055e+00 4.461560000000000059e+01 1.394279999999999973e+03
4.900000000000000189e-02 5.786124999999999741e-01 3.470005000000000006e+00 4.485880000000000223e+01 1.394285000000000082e+03
5.000000000000000278e-02 5.787735000000000518e-01 4.073045000000000471e+00 4.543489999999999895e+01 1.394385000000000218e+03
5.100000000000000366e-02 5.790199999999999791e-01 4.805310000000000414e+00 4.633355000000000246e+01 1.394579999999999927e+03
5.200000000000000455e-02 5.793500000000000316e-01 5.666945000000000121e+00 4.754250000000000398e+01 1.394860000000000127e+03
5.300000000000000544e-02 5.797609999999999708e-01 6.657294999999999519e+00 4.904789999999999850e+01 1.395224999999999909e+03
5.399999999999999939e-02 5.802479999999999860e-01 7.773760000000000225e+00 5.083400000000000318e+01 1.395674999999999955e+03
5.500000000000000028e-02 5.808070000000000732e-01 9.011010000000000630e+00 5.288230000000000075e+01 1.396204999999999927e+03
5.600000000000000117e-02 5.814314999999999900e-01 1.036021500000000017e+01 5.517110000000000269e+01 1.396809999999999945e+03
5.700000000000000205e-02 5.821134999999999504e-01 1.180878500000000031e+01 5.767484999999999928e+01 1.397474999999999909e+03
5.800000000000000294e-02 5.828455000000000163e-01 1.334047499999999964e+01 6.036399999999999721e+01 1.398200000000000045e+03
5.900000000000000383e-02 5.836160000000000236e-01 1.493631500000000045e+01 6.320604999999999762e+01 1.398980000000000018e+03
6.000000000000000472e-02 5.844160000000000466e-01 1.657543499999999881e+01 6.616579999999999018e+01 1.399800000000000182e+03
6.099999999999999867e-02 5.852349999999999497e-01 1.823602999999999952e+01 6.920720000000000027e+01 1.400650000000000091e+03
6.199999999999999956e-02 5.860630000000000006e-01 1.989675000000000082e+01 7.229455000000000098e+01 1.401525000000000091e+03
6.300000000000000044e-02 5.868915000000000104e-01 2.153770000000000095e+01 7.539414999999999623e+01 1.402409999999999854e+03
6.400000000000000133e-02 5.877124999999999710e-01 2.314110000000000156e+01 7.847570000000000334e+01 1.403304999999999836e+03
6.500000000000000222e-02 5.885205000000000020e-01 2.469200000000000017e+01 8.151314999999999600e+01 1.404190000000000055e+03
6.600000000000000311e-02 5.893100000000000005e-01 2.617855000000000132e+01 8.448584999999999923e+01 1.405065000000000055e+03
6.700000000000000400e-02 5.900784999999999503e-01 2.759205000000000041e+01 8.737829999999999586e+01 1.405925000000000182e+03
6.800000000000000488e-02 5.908245000000000857e-01 2.892685000000000173e+01 9.018070000000000164e+01 1.406769999999999982e+03
6.900000000000000577e-02 5.915470000000000450e-01 3.017985000000000184e+01 9.288875000000000171e+01 1.407590000000000146e+03
7.000000000000000666e-02 5.922475000000000378e-01 3.135045000000000215e+01 9.550135000000000218e+01 1.408389999999999873e+03
7.100000000000000755e-02 5.929260000000000641e-01 3.243984999999999985e+01 9.802289999999999281e+01 1.409164999999999964e+03
7.200000000000000844e-02 5.935859999999999470e-01 3.345059999999999434e+01 1.004592000000000098e+02 1.409920000000000073e+03
7.300000000000000933e-02 5.942290000000000072e-01 3.438649999999999807e+01 1.028188499999999976e+02 1.410654999999999973e+03
7.399999999999999634e-02 5.948575000000000390e-01 3.525169999999999959e+01 1.051111500000000092e+02 1.411365000000000009e+03
7.499999999999999722e-02 5.954739999999999478e-01 3.605049999999999955e+01 1.073455000000000013e+02 1.412065000000000055e+03
7.599999999999999811e-02 5.960805000000000131e-01 3.678719999999999857e+01 1.095314999999999941e+02 1.412750000000000000e+03
7.699999999999999900e-02 5.966785000000000005e-01 3.746564999999999657e+01 1.116760000000000019e+02 1.413425000000000182e+03
7.799999999999999989e-02 5.972684999999999800e-01 3.808875000000000455e+01 1.137839999999999918e+02 1.414079999999999927e+03
7.900000000000000078e-02 5.978514999999999802e-01 3.865854999999999819e+01 1.158594999999999970e+02 1.414735000000000127e+03
8.000000000000000167e-02 5.984264999999999723e-01 3.917629999999999768e+01 1.179025000000000034e+02 1.415369999999999891e+03
8.100000000000000255e-02 5.989925000000000388e-01 3.964170000000000016e+01 1.199110000000000014e+02 1.416000000000000000e+03
8.200000000000000344e-02 5.995479999999999698e-01 4.005395000000000039e+01 1.218789999999999907e+02 1.416615000000000009e+03
8.300000000000000433e-02 6.000900000000000123e-01 4.041114999999999924e+01 1.238004999999999995e+02 1.417224999999999909e+03
8.400000000000000522e-02 6.006164999999999976e-01 4.071065000000000111e+01 1.256654999999999944e+02 1.417809999999999945e+03
8.500000000000000611e-02 6.011234999999999218e-01 4.094965000000000543e+01 1.274629999999999939e+02 1.418380000000000109e+03
8.600000000000000699e-02 6.016084999999999905e-01 4.112510000000000332e+01 1.291829999999999927e+02 1.418930000000000064e+03
8.700000000000000788e-02 6.020680000000000476e-01 4.123389999999999844e+01 1.308125000000000000e+02 1.419454999999999927e+03
8.800000000000000877e-02 6.024989999999998957e-01 4.127360000000000184e+01 1.323414999999999964e+02 1.419945000000000164e+03
8.899999999999999578e-02 6.028990000000000737e-01 4.124199999999999733e+01 1.337595000000000027e+02 1.420414999999999964e+03
8.999999999999999667e-02 6.032664999999999278e-01 4.113785000000000025e+01 1.350575000000000045e+02 1.420840000000000146e+03
9.099999999999999756e-02 6.035980000000000789e-01 4.096049999999999613e+01 1.362294999999999732e+02 1.421235000000000127e+03
9.199999999999999845e-02 6.038939999999999308e-01 4.071040000000000703e+01 1.372690000000000055e+02 1.421590000000000146e+03
9.299999999999999933e-02 6.041539999999999688e-01 4.038875000000000171e+01 1.381734999999999900e+02 1.421905000000000200e+03
9.400000000000000022e-02 6.043765000000000942e-01 3.999774999999999636e+01 1.389429999999999836e+02 1.422179999999999836e+03
9.500000000000000111e-02 6.045629999999999615e-01 3.954059999999999775e+01 1.395780000000000030e+02 1.422414999999999964e+03
9.600000000000000200e-02 6.047139999999999738e-01 3.902120000000000033e+01 1.400824999999999818e+02 1.422610000000000127e+03
9.700000000000000289e-02 6.048320000000000363e-01 3.844445000000000334e+01 1.404615000000000009e+02 1.422775000000000091e+03
9.800000000000000377e-02 6.049180000000000668e-01 3.781584999999999752e+01 1.407224999999999966e+02 1.422894999999999982e+03
9.900000000000000466e-02 6.049750000000000405e-01 3.714159999999999684e+01 1.408740000000000236e+02 1.422985000000000127e+03
1.000000000000000056e-01 6.050054999999999739e-01 3.642844999999999800e+01 1.409259999999999877e+02 1.423039999999999964e+03
1.010000000000000064e-01 6.050119999999999942e-01 3.568350000000000222e+01 1.408894999999999982e+02 1.423065000000000055e+03
1.020000000000000073e-01 6.049979999999999247e-01 3.491420000000000101e+01 1.407760000000000105e+02 1.423059999999999945e+03
1.030000000000000082e-01 6.049670000000000325e-01 3.412780000000000058e+01 1.405969999999999800e+02 1.423039999999999964e+03
1.040000000000000091e-01 6.049219999999999597e-01 3.333174999999999955e+01 1.403659999999999854e+02 1.423000000000000000e+03
1.050000000000000100e-01 6.048655000000000559e-01 3.253314999999999912e+01 1.400935000000000059e+02 1.422940000000000055e+03
1.059999999999999970e-01 6.048014999999999919e-01 3.173855000000000004e+01 1.397920000000000016e+02 1.422875000000000000e+03
1.069999999999999979e-01 6.047320000000000473e-01 3.095390000000000441e+01 1.394725000000000250e+02 1.422789999999999964e+03
1.079999999999999988e-01 6.046599999999999753e-01 3.018424999999999869e+01 1.391430000000000007e+02 1.422704999999999927e+03
1.089999999999999997e-01 6.045869999999999855e-01 2.943384999999999962e+01 1.388125000000000000e+02 1.422619999999999891e+03
1.100000000000000006e-01 6.045145000000000657e-01 2.870575000000000188e+01 1.384870000000000232e+02 1.422525000000000091e+03
1.110000000000000014e-01 6.044439999999999813e-01 2.800205000000000055e+01 1.381719999999999970e+02 1.422434999999999945e+03
1.120000000000000023e-01 6.043754999999999544e-01 2.732349999999999923e+01 1.378695000000000164e+02 1.422344999999999800e+03
1.130000000000000032e-01 6.043095000000000550e-01 2.666995000000000005e+01 1.375805000000000007e+02 1.422255000000000109e+03
1.140000000000000041e-01 6.042454999999999909e-01 2.604009999999999891e+01 1.373050000000000068e+02 1.422170000000000073e+03
1.150000000000000050e-01 6.041824999999999557e-01 2.543164999999999765e+01 1.370409999999999968e+02 1.422089999999999918e+03
1.160000000000000059e-01 6.041205000000000602e-01 2.484179999999999922e+01 1.367839999999999918e+02 1.422005000000000109e+03
1.170000000000000068e-01 6.040559999999999263e-01 2.426684999999999803e+01 1.365294999999999845e+02 1.421924999999999955e+03
1.180000000000000077e-01 6.039900000000000269e-01 2.370275000000000176e+01 1.362724999999999795e+02 1.421845000000000027e+03
1.190000000000000085e-01 6.039194999999999425e-01 2.314520000000000266e+01 1.360065000000000168e+02 1.421759999999999991e+03
1.200000000000000094e-01 6.038425000000000598e-01 2.258984999999999843e+01 1.357249999999999943e+02 1.421675000000000182e+03
1.209999999999999964e-01 6.037584999999999757e-01 2.203249999999999886e+01 1.354230000000000018e+02 1.421579999999999927e+03
1.219999999999999973e-01 6.036660000000000359e-01 2.146914999999999907e+01 1.350935000000000059e+02 1.421485000000000127e+03
1.229999999999999982e-01 6.035625000000000018e-01 2.089625000000000199e+01 1.347325000000000159e+02 1.421369999999999891e+03
1.239999999999999991e-01 6.034490000000000132e-01 2.031084999999999852e+01 1.343344999999999914e+02 1.421255000000000109e+03
1.250000000000000000e-01 6.033239999999999714e-01 1.971075000000000088e+01 1.338980000000000246e+02 1.421130000000000109e+03
1.260000000000000009e-01 6.031869999999999177e-01 1.909434999999999860e+01 1.334200000000000159e+02 1.420990000000000009e+03
1.270000000000000018e-01 6.030379999999999630e-01 1.846105000000000018e+01 1.329004999999999939e+02 1.420840000000000146e+03
1.280000000000000027e-01 6.028785000000000949e-01 1.781099999999999994e+01 1.323410000000000082e+02 1.420680000000000064e+03
1.290000000000000036e-01 6.027084999999999804e-01 1.714515000000000100e+01 1.317425000000000068e+02 1.420509999999999991e+03
1.300000000000000044e-01 6.025295000000000512e-01 1.646549999999999869e+01 1.311094999999999970e+02 1.420329999999999927e+03
1.310000000000000053e-01 6.023425000000000029e-01 1.577454999999999963e+01 1.304455000000000098e+02 1.420134999999999991e+03
1.320000000000000062e-01 6.021505000000000329e-01 1.507570000000000121e+01 1.297589999999999861e+02 1.419934999999999945e+03
1.330000000000000071e-01 6.019544999999999479e-01 1.437291499999999900e+01 1.290540000000000020e+02 1.419735000000000127e+03
1.340000000000000080e-01 6.017565000000000275e-01 1.367061999999999955e+01 1.283400000000000034e+02 1.419529999999999973e+03
1.350000000000000089e-01 6.015589999999999549e-01 1.297355999999999909e+01 1.276239999999999952e+02 1.419315000000000055e+03
1.360000000000000098e-01 6.013650000000000384e-01 1.228669499999999992e+01 1.269149999999999920e+02 1.419105000000000018e+03
1.370000000000000107e-01 6.011759999999999327e-01 1.161505000000000010e+01 1.262205000000000013e+02 1.418900000000000091e+03
1.380000000000000115e-01 6.009944999999999871e-01 1.096343500000000049e+01 1.255494999999999948e+02 1.418694999999999936e+03
1.390000000000000124e-01 6.008215000000000083e-01 1.033657499999999985e+01 1.249074999999999989e+02 1.418505000000000109e+03
1.400000000000000133e-01 6.006605000000000416e-01 9.738595000000000113e+00 1.243034999999999997e+02 1.418319999999999936e+03
1.410000000000000142e-01 6.005110000000000170e-01 9.173280000000000101e+00 1.237419999999999902e+02 1.418139999999999873e+03
1.420000000000000151e-01 6.003754999999999509e-01 8.643564999999998832e+00 1.232274999999999920e+02 1.417980000000000018e+03
1.430000000000000160e-01 6.002534999999999954e-01 8.151870000000000616e+00 1.227640000000000100e+02 1.417829999999999927e+03
1.440000000000000169e-01 6.001465000000000272e-01 7.699774999999999814e+00 1.223524999999999920e+02 1.417694999999999936e+03
1.450000000000000178e-01 6.000540000000000873e-01 7.288050000000000139e+00 1.219950000000000045e+02 1.417574999999999818e+03
1.459999999999999909e-01 5.999760000000000648e-01 6.916705000000000325e+00 1.216899999999999977e+02 1.417470000000000027e+03
1.469999999999999918e-01 5.999110000000000831e-01 6.584994999999999266e+00 1.214355000000000047e+02 1.417375000000000000e+03
1.479999999999999927e-01 5.998589999999999200e-01 6.291479999999999961e+00 1.212295000000000016e+02 1.417304999999999836e+03
1.489999999999999936e-01 5.998185000000000322e-01 6.034124999999999517e+00 1.210664999999999907e+02 1.417240000000000009e+03
1.499999999999999944e-01 5.997874999999999179e-01 5.810354999999999492e+00 1.209429999999999978e+02 1.417184999999999945e+03
1.509999999999999953e-01 5.997649999999999926e-01 5.617185000000000095e+00 1.208524999999999920e+02 1.417139999999999873e+03
1.519999999999999962e-01 5.997489999999999766e-01 5.451349999999999696e+00 1.207895000000000039e+02 1.417110000000000127e+03
1.529999999999999971e-01 5.997384999999999522e-01 5.309379999999999988e+00 1.207475000000000023e+02 1.417085000000000036e+03
1.539999999999999980e-01 5.997310000000000141e-01 5.187744999999999607e+00 1.207215000000000060e+02 1.417065000000000055e+03
1.549999999999999989e-01 5.997254999999999114e-01 5.082929999999999282e+00 1.207049999999999983e+02 1.417045000000000073e+03
1.559999999999999998e-01 5.997204999999999897e-01 4.991529999999999134e+00 1.206920000000000073e+02 1.417035000000000082e+03
1.570000000000000007e-01 5.997149999999999981e-01 4.910339999999999705e+00 1.206784999999999997e+02 1.417025000000000091e+03
1.580000000000000016e-01 5.997075000000000600e-01 4.836389999999999745e+00 1.206585000000000036e+02 1.417009999999999991e+03
1.590000000000000024e-01 5.996965000000000767e-01 4.767019999999999591e+00 1.206299999999999955e+02 1.417000000000000000e+03
