# t [s], A [cm^2], U [cm/s], P [cPa], c [cm/s]
1.000000000000000021e-03 5.010135000000000005e-01 2.231000000000003813e-03 9.588425000000000864e+01 1.479644999999999982e+03
2.000000000000000042e-03 5.010075000000000500e-01 2.344340000000000312e-03 9.586699999999999022e+01 1.479634999999999991e+03
3.000000000000000062e-03 5.010514999999999830e-01 9.119419999999998916e-02 9.595050000000000523e+01 1.479664999999999964e+03
4.000000000000000083e-03 5.010920000000000929e-01 1.766267499999999990e-01 9.605310000000000059e+01 1.479700000000000045e+03
5.000000000000000104e-03 5.010799999999999699e-01 1.596584500000000073e-01 9.602555000000000973e+01 1.479695000000000164e+03
6.000000000000000125e-03 5.010369999999999546e-01 7.515150000000000996e-02 9.586379999999999768e+01 1.479654999999999973e+03
7.000000000000000146e-03 5.009924999999999518e-01 -1.825100000000001721e-02 9.562754999999999939e+01 1.479599999999999909e+03
8.000000000000000167e-03 5.009280000000000399e-01 -1.612790000000000057e-01 9.528129999999998745e+01 1.479509999999999991e+03
9.000000000000001055e-03 5.008164999999999978e-01 -4.082400000000000473e-01 9.474760000000000559e+01 1.479380000000000109e+03
1.000000000000000194e-02 5.006539999999999324e-01 -7.667650000000000299e-01 9.398369999999999891e+01 1.479184999999999945e+03
1.099999999999999936e-02 5.004315000000000291e-01 -1.242365000000000164e+00 9.295090000000000430e+01 1.478909999999999854e+03
1.200000000000000025e-02 5.001390000000000002e-01 -1.843265000000000153e+00 9.160695000000001187e+01 1.478545000000000073e+03
1.300000000000000114e-02 4.997819999999999485e-01 -2.538235000000000241e+00 8.995470000000000255e+01 1.478095000000000027e+03
1.400000000000000203e-02 4.993919999999999471e-01 -3.236639999999999961e+00 8.808070000000000732e+01 1.477559999999999945e+03
1.499999999999999944e-02 4.990149999999999864e-01 -3.817014999999999603e+00 8.613769999999999527e+01 1.476990000000000009e+03
1.600000000000000033e-02 4.986875000000000058e-01 -4.176375000000000171e+00 8.428810000000000002e+01 1.476420000000000073e+03
1.700000000000000122e-02 4.984254999999999658e-01 -4.264687150000000315e+00 8.264820000000000277e+01 1.475889999999999873e+03
1.800000000000000211e-02 4.982210000000000250e-01 -4.091961500000000029e+00 8.126009999999999422e+01 1.475404999999999973e+03
1.900000000000000300e-02 4.980510000000000215e-01 -3.714010000000000034e+00 8.009319999999999595e+01 1.474974999999999909e+03
2.000000000000000042e-02 4.978874999999999829e-01 -3.208014499999999991e+00 7.906645000000000323e+01 1.474569999999999936e+03
2.100000000000000130e-02 4.977049999999999530e-01 -2.647140000000000271e+00 7.808129999999999882e+01 1.474184999999999945e+03
2.200000000000000219e-02 4.974894999999999734e-01 -2.081369999999999720e+00 7.705315000000000225e+01 1.473789999999999964e+03
2.299999999999999961e-02 4.972395000000000009e-01 -1.529400000000000093e+00 7.593330000000000268e+01 1.473375000000000000e+03
2.400000000000000050e-02 4.969635000000000025e-01 -9.830950000000000522e-01 7.471449999999998681e+01 1.472940000000000055e+03
2.500000000000000139e-02 4.966734999999999900e-01 -4.212299999999999933e-01 7.342069999999999652e+01 1.472485000000000127e+03
2.600000000000000228e-02 4.963824999999999488e-01 1.741150000000000198e-01 7.208779999999998722e+01 1.472015000000000100e+03
2.700000000000000316e-02 4.960930000000000062e-01 8.046299999999999564e-01 7.074285000000000423e+01 1.471545000000000073e+03
2.800000000000000058e-02 4.958025000000000349e-01 1.449975000000000014e+00 6.939060000000000628e+01 1.471059999999999945e+03
2.900000000000000147e-02 4.954999999999999405e-01 2.069505000000000372e+00 6.800745000000000573e+01 1.470569999999999936e+03
3.000000000000000236e-02 4.951699999999999990e-01 2.609839999999999716e+00 6.654609999999999559e+01 1.470054999999999836e+03
3.099999999999999978e-02 4.947960000000000136e-01 3.015855000000000175e+00 6.494634999999999536e+01 1.469510000000000218e+03
3.200000000000000067e-02 4.943670000000000009e-01 3.242329999999999934e+00 6.315085000000000548e+01 1.468914999999999964e+03
3.300000000000000155e-02 4.938774999999999693e-01 3.263879999999999892e+00 6.112049999999999983e+01 1.468255000000000109e+03
3.400000000000000244e-02 4.933325000000000071e-01 3.080610000000000070e+00 5.884745000000000203e+01 1.467534999999999854e+03
3.500000000000000333e-02 4.927429999999999866e-01 2.718944999999999723e+00 5.636155000000000115e+01 1.466755000000000109e+03
3.600000000000000422e-02 4.921314999999999995e-01 2.227079999999999949e+00 5.372934999999999661e+01 1.465934999999999945e+03
3.700000000000000511e-02 4.915215000000000001e-01 1.667289999999999939e+00 5.104675000000000296e+01 1.465090000000000146e+03
3.799999999999999906e-02 4.909400000000000430e-01 1.106609999999999872e+00 4.842674999999999841e+01 1.464255000000000109e+03
3.899999999999999994e-02 4.904115000000000002e-01 6.084849999999999426e-01 4.598635000000000161e+01 1.463460000000000036e+03
4.000000000000000083e-02 4.899560000000000026e-01 2.266650000000001164e-01 4.383429999999999893e+01 1.462734999999999900e+03
4.100000000000000172e-02 4.895895000000000108e-01 1.914999999999889013e-03 4.206194999999999595e+01 1.462119999999999891e+03
4.200000000000000261e-02 4.893220000000000347e-01 -3.863500000000019696e-02 4.073760000000000048e+01 1.461619999999999891e+03
4.300000000000000350e-02 4.891584999999999961e-01 1.200299999999998590e-01 3.990534999999999854e+01 1.461259999999999991e+03
4.400000000000000439e-02 4.891010000000000080e-01 4.834895000000000165e-01 3.958599999999999852e+01 1.461054999999999836e+03
4.499999999999999833e-02 4.891475000000000128e-01 1.050978999999999886e+00 3.978144999999999953e+01 1.461005000000000109e+03
4.599999999999999922e-02 4.892950000000000355e-01 1.818086300000000044e+00 4.047890000000000299e+01 1.461109999999999900e+03
4.700000000000000011e-02 4.895395000000000163e-01 2.778546999999999656e+00 4.165554999999999808e+01 1.461369999999999891e+03
4.800000000000000100e-02 4.898740000000000316e-01 3.924909999999999677e+00 4.328229999999999933e+01 1.461775000000000091e+03
4.900000000000000189e-02 4.902940000000000076e-01 5.248257999999999868e+00 4.532585000000000264e+01 1.462320000000000164e+03
5.000000000000000278e-02 4.907920000000000060e-01 6.737300499999999914e+00 4.774970000000000425e+01 1.462994999999999891e+03
5.100000000000000366e-02 4.913604999999999778e-01 8.377316999999999680e+00 5.051399999999999579e+01 1.463785000000000082e+03
5.200000000000000455e-02 4.919894999999999685e-01 1.014962000000000053e+01 5.357550000000000523e+01 1.464675000000000182e+03
5.300000000000000544e-02 4.926700000000000523e-01 1.203101999999999983e+01 5.688705000000000211e+01 1.465659999999999854e+03
5.399999999999999939e-02 4.933904999999999541e-01 1.399481000000000108e+01 6.039820000000000277e+01 1.466724999999999909e+03
5.500000000000000028e-02 4.941395000000000093e-01 1.601157500000000056e+01 6.405639999999999645e+01 1.467844999999999800e+03
5.600000000000000117e-02 4.949065000000000270e-01 1.805090500000000020e+01 6.780854999999999677e+01 1.469009999999999991e+03
5.700000000000000205e-02 4.956804999999999684e-01 2.008289999999999864e+01 7.160325000000000273e+01 1.470204999999999927e+03
5.800000000000000294e-02 4.964514999999999900e-01 2.208010000000000161e+01 7.539314999999999145e+01 1.471420000000000073e+03
5.900000000000000383e-02 4.972119999999999873e-01 2.401854999999999762e+01 7.913689999999999714e+01 1.472634999999999991e+03
6.000000000000000472e-02 4.979559999999999542e-01 2.587884999999999991e+01 8.280109999999999104e+01 1.473829999999999927e+03
6.099999999999999867e-02 4.986789999999999834e-01 2.764669999999999916e+01 8.636119999999999663e+01 1.475014999999999873e+03
6.199999999999999956e-02 4.993794999999999762e-01 2.931284999999999741e+01 8.980219999999999914e+01 1.476174999999999955e+03
6.300000000000000044e-02 5.000569999999999737e-01 3.087300000000000111e+01 9.311809999999999832e+01 1.477299999999999955e+03
6.400000000000000133e-02 5.007125000000000048e-01 3.232699999999999818e+01 9.631110000000001037e+01 1.478389999999999873e+03
6.500000000000000222e-02 5.013484999999999747e-01 3.367844999999999800e+01 9.938994999999999891e+01 1.479460000000000036e+03
6.600000000000000311e-02 5.019675000000000109e-01 3.493335000000000434e+01 1.023701000000000079e+02 1.480494999999999891e+03
6.700000000000000400e-02 5.025749999999999940e-01 3.610000000000000142e+01 1.052689499999999896e+02 1.481510000000000218e+03
6.800000000000000488e-02 5.031740000000000101e-01 3.718770000000000664e+01 1.081075000000000017e+02 1.482500000000000000e+03
6.900000000000000577e-02 5.037685000000000635e-01 3.820609999999999928e+01 1.109054999999999893e+02 1.483480000000000018e+03
7.000000000000000666e-02 5.043615000000000181e-01 3.916474999999999795e+01 1.136839999999999975e+02 1.484449999999999818e+03
7.100000000000000755e-02 5.049569999999999892e-01 4.007200000000000273e+01 1.164579999999999984e+02 1.485420000000000073e+03
7.200000000000000844e-02 5.055564999999999642e-01 4.093489999999999895e+01 1.192400000000000091e+02 1.486385000000000218e+03
7.300000000000000933e-02 5.061609999999999721e-01 4.175849999999999795e+01 1.220390000000000015e+02 1.487360000000000127e+03
7.399999999999999634e-02 5.067705000000000126e-01 4.254550000000000409e+01 1.248559999999999945e+02 1.488335000000000036e+03
7.499999999999999722e-02 5.073840000000000572e-01 4.329625000000000057e+01 1.276885000000000048e+02 1.489315000000000055e+03
7.599999999999999811e-02 5.079979999999999496e-01 4.400844999999999629e+01 1.305264999999999986e+02 1.490299999999999955e+03
7.699999999999999900e-02 5.086094999999999366e-01 4.467759999999999820e+01 1.333555000000000064e+02 1.491279999999999973e+03
7.799999999999999989e-02 5.092140000000000555e-01 4.529715000000000202e+01 1.361560000000000059e+02 1.492250000000000000e+03
7.900000000000000078e-02 5.098074999999999690e-01 4.585904999999999632e+01 1.389050000000000011e+02 1.493215000000000146e+03
8.000000000000000167e-02 5.103830000000000311e-01 4.635444999999999993e+01 1.415774999999999864e+02 1.494150000000000091e+03
8.100000000000000255e-02 5.109360000000000568e-01 4.677394999999999925e+01 1.441465000000000032e+02 1.495055000000000064e+03
8.200000000000000344e-02 5.114610000000000545e-01 4.710869999999999891e+01 1.465869999999999891e+02 1.495920000000000073e+03
8.300000000000000433e-02 5.119534999999999503e-01 4.735030000000000427e+01 1.488745000000000118e+02 1.496750000000000000e+03
8.400000000000000522e-02 5.124079999999999746e-01 4.749204999999999899e+01 1.509879999999999995e+02 1.497519999999999982e+03
8.500000000000000611e-02 5.128230000000000288e-01 4.752870000000000061e+01 1.529094999999999800e+02 1.498234999999999900e+03
8.600000000000000699e-02 5.131949999999999568e-01 4.745725000000000193e+01 1.546259999999999764e+02 1.498880000000000109e+03
8.700000000000000788e-02 5.135229999999999517e-01 4.727665000000000362e+01 1.561295000000000073e+02 1.499460000000000036e+03
8.800000000000000877e-02 5.138059999999999850e-01 4.698839999999999861e+01 1.574170000000000016e+02 1.499974999999999909e+03
8.899999999999999578e-02 5.140454999999999330e-01 4.659600000000000364e+01 1.584904999999999973e+02 1.500414999999999964e+03
8.999999999999999667e-02 5.142430000000000057e-01 4.610545000000000471e+01 1.593570000000000277e+02 1.500779999999999973e+03
9.099999999999999756e-02 5.143999999999999684e-01 4.552439999999999998e+01 1.600275000000000034e+02 1.501090000000000146e+03
9.199999999999999845e-02 5.145199999999999774e-01 4.486225000000000307e+01 1.605180000000000007e+02 1.501325000000000045e+03
9.299999999999999933e-02 5.146079999999999544e-01 4.413004999999999711e+01 1.608454999999999870e+02 1.501509999999999991e+03
9.400000000000000022e-02 5.146665000000000267e-01 4.333950000000000102e+01 1.610310000000000059e+02 1.501639999999999873e+03
9.500000000000000111e-02 5.147009999999999641e-01 4.250334999999999752e+01 1.610974999999999966e+02 1.501730000000000018e+03
9.600000000000000200e-02 5.147159999999999513e-01 4.163419999999999987e+01 1.610674999999999955e+02 1.501775000000000091e+03
9.700000000000000289e-02 5.147154999999999925e-01 4.074474999999999625e+01 1.609635000000000105e+02 1.501795000000000073e+03
9.800000000000000377e-02 5.147040000000000504e-01 3.984695000000000675e+01 1.608075000000000045e+02 1.501784999999999854e+03
9.900000000000000466e-02 5.146865000000000467e-01 3.895189999999999486e+01 1.606189999999999998e+02 1.501755000000000109e+03
1.000000000000000056e-01 5.146654999999999980e-01 3.806935000000000002e+01 1.604159999999999968e+02 1.501715000000000146e+03
1.010000000000000064e-01 5.146435000000000315e-01 3.720739999999999981e+01 1.602144999999999868e+02 1.501670000000000073e+03
1.020000000000000073e-01 5.146235000000000115e-01 3.637250000000000227e+01 1.600249999999999773e+02 1.501619999999999891e+03
1.030000000000000082e-01 5.146064999999999667e-01 3.556889999999999930e+01 1.598569999999999993e+02 1.501574999999999818e+03
1.040000000000000091e-01 5.145935000000000370e-01 3.479905000000000115e+01 1.597139999999999986e+02 1.501530000000000200e+03
1.050000000000000100e-01 5.145845000000000002e-01 3.406344999999999601e+01 1.595980000000000132e+02 1.501494999999999891e+03
1.059999999999999970e-01 5.145790000000000086e-01 3.336064999999999969e+01 1.595060000000000002e+02 1.501464999999999918e+03
1.069999999999999979e-01 5.145750000000000046e-01 3.268764999999999787e+01 1.594334999999999809e+02 1.501434999999999945e+03
1.079999999999999988e-01 5.145720000000000294e-01 3.203999999999999915e+01 1.593729999999999905e+02 1.501409999999999854e+03
1.089999999999999997e-01 5.145674999999999555e-01 3.141234999999999999e+01 1.593140000000000214e+02 1.501384999999999991e+03
1.100000000000000006e-01 5.145589999999999886e-01 3.079849999999999710e+01 1.592475000000000023e+02 1.501355000000000018e+03
1.110000000000000014e-01 5.145450000000000301e-01 3.019190000000000040e+01 1.591605000000000132e+02 1.501324999999999818e+03
1.120000000000000023e-01 5.145219999999999239e-01 2.958610000000000184e+01 1.590420000000000016e+02 1.501284999999999854e+03
1.130000000000000032e-01 5.144895000000000440e-01 2.897475000000000023e+01 1.588820000000000050e+02 1.501230000000000018e+03
1.140000000000000041e-01 5.144450000000000411e-01 2.835210000000000008e+01 1.586705000000000041e+02 1.501159999999999854e+03
1.150000000000000050e-01 5.143874999999999975e-01 2.771349999999999980e+01 1.584000000000000057e+02 1.501074999999999818e+03
1.160000000000000059e-01 5.143149999999999666e-01 2.705499999999999972e+01 1.580634999999999764e+02 1.500970000000000027e+03
1.170000000000000068e-01 5.142284999999999773e-01 2.637409999999999854e+01 1.576585000000000036e+02 1.500845000000000027e+03
1.180000000000000077e-01 5.141264999999999308e-01 2.566945000000000121e+01 1.571829999999999927e+02 1.500699999999999818e+03
1.190000000000000085e-01 5.140100000000000779e-01 2.494120000000000203e+01 1.566384999999999934e+02 1.500529999999999973e+03
1.200000000000000094e-01 5.138804999999999623e-01 2.419075000000000131e+01 1.560294999999999845e+02 1.500335000000000036e+03
1.209999999999999964e-01 5.137389999999999457e-01 2.342079999999999984e+01 1.553609999999999900e+02 1.500130000000000109e+03
1.219999999999999973e-01 5.135870000000000157e-01 2.263535000000000252e+01 1.546415000000000077e+02 1.499900000000000091e+03
1.229999999999999982e-01 5.134269999999999667e-01 2.183939999999999770e+01 1.538815000000000168e+02 1.499660000000000082e+03
1.239999999999999991e-01 5.132624999999999549e-01 2.103875000000000028e+01 1.530914999999999964e+02 1.499409999999999854e+03
1.250000000000000000e-01 5.130945000000000089e-01 2.023995000000000033e+01 1.522839999999999918e+02 1.499139999999999873e+03
1.260000000000000009e-01 5.129259999999999931e-01 1.945005000000000095e+01 1.514730000000000132e+02 1.498880000000000109e+03
1.270000000000000018e-01 5.127610000000000223e-01 1.867624999999999957e+01 1.506705000000000041e+02 1.498610000000000127e+03
1.280000000000000027e-01 5.126005000000000145e-01 1.792544999999999789e+01 1.498904999999999745e+02 1.498349999999999909e+03
1.290000000000000036e-01 5.124484999999999735e-01 1.720459999999999923e+01 1.491435000000000173e+02 1.498095000000000027e+03
1.300000000000000044e-01 5.123060000000000391e-01 1.651984999999999815e+01 1.484415000000000191e+02 1.497860000000000127e+03
1.310000000000000053e-01 5.121744999999999770e-01 1.587669999999999959e+01 1.477940000000000111e+02 1.497630000000000109e+03
1.320000000000000062e-01 5.120569999999999844e-01 1.527955000000000041e+01 1.472090000000000032e+02 1.497420000000000073e+03
1.330000000000000071e-01 5.119534999999999503e-01 1.473189999999999955e+01 1.466904999999999859e+02 1.497230000000000018e+03
1.340000000000000080e-01 5.118644999999999445e-01 1.423595000000000077e+01 1.462434999999999832e+02 1.497065000000000055e+03
1.350000000000000089e-01 5.117909999999999959e-01 1.379265000000000185e+01 1.458689999999999998e+02 1.496914999999999964e+03
1.360000000000000098e-01 5.117309999999999359e-01 1.340189999999999948e+01 1.455660000000000025e+02 1.496789999999999964e+03
1.370000000000000107e-01 5.116855000000000153e-01 1.306220000000000070e+01 1.453309999999999889e+02 1.496690000000000055e+03
1.380000000000000115e-01 5.116519999999999957e-01 1.277110000000000056e+01 1.451589999999999918e+02 1.496605000000000018e+03
1.390000000000000124e-01 5.116300000000000292e-01 1.252524999999999977e+01 1.450440000000000111e+02 1.496545000000000073e+03
1.400000000000000133e-01 5.116175000000000583e-01 1.232039999999999935e+01 1.449789999999999850e+02 1.496494999999999891e+03
1.410000000000000142e-01 5.116125000000000256e-01 1.215190000000000126e+01 1.449544999999999959e+02 1.496469999999999800e+03
1.420000000000000151e-01 5.116140000000000132e-01 1.201469999999999949e+01 1.449615000000000009e+02 1.496450000000000045e+03
1.430000000000000160e-01 5.116190000000000460e-01 1.190344999999999942e+01 1.449904999999999973e+02 1.496440000000000055e+03
1.440000000000000169e-01 5.116260000000000252e-01 1.181285000000000096e+01 1.450344999999999800e+02 1.496440000000000055e+03
1.450000000000000178e-01 5.116340000000000332e-01 1.173799999999999955e+01 1.450829999999999984e+02 1.496440000000000055e+03
1.459999999999999909e-01 5.116410000000000124e-01 1.167404499999999956e+01 1.451299999999999955e+02 1.496440000000000055e+03
1.469999999999999918e-01 5.116454999999999753e-01 1.161687500000000028e+01 1.451684999999999945e+02 1.496445000000000164e+03
1.479999999999999927e-01 5.116475000000000328e-01 1.156273499999999999e+01 1.451930000000000121e+02 1.496450000000000045e+03
1.489999999999999936e-01 5.116460000000000452e-01 1.150853500000000018e+01 1.452005000000000052e+02 1.496445000000000164e+03
1.499999999999999944e-01 5.116399999999999837e-01 1.145186999999999955e+01 1.451890000000000214e+02 1.496434999999999945e+03
1.509999999999999953e-01 5.116294999999999593e-01 1.139099000000000039e+01 1.451555000000000177e+02 1.496425000000000182e+03
1.519999999999999962e-01 5.116150000000000420e-01 1.132468500000000056e+01 1.451005000000000109e+02 1.496404999999999973e+03
1.529999999999999971e-01 5.115969999999999684e-01 1.125239499999999992e+01 1.450255000000000223e+02 1.496380000000000109e+03
1.539999999999999980e-01 5.115754999999999608e-01 1.117404999999999937e+01 1.449314999999999998e+02 1.496349999999999909e+03
1.549999999999999989e-01 5.115499999999999492e-01 1.108991500000000130e+01 1.448220000000000027e+02 1.496315000000000055e+03
1.559999999999999998e-01 5.115229999999999499e-01 1.100076999999999927e+01 1.446984999999999957e+02 1.496280000000000200e+03
1.570000000000000007e-01 5.114935000000000453e-01 1.090742999999999974e+01 1.445649999999999977e+02 1.496235000000000127e+03
1.580000000000000016e-01 5.114635000000000709e-01 1.081109499999999990e+01 1.444239999999999782e+02 1.496190000000000055e+03
1.590000000000000024e-01 5.114330000000000265e-01 1.071291500000000063e+01 1.442794999999999845e+02 1.496150000000000091e+03
