# t [s], A [cm^2], U [cm/s], P [cPa], c [cm/s]
1.000000000000000021e-03 6.680920000000000192e-01 3.778000000000003578e-03 1.025715000000000003e+02 1.867855000000000018e+03
2.000000000000000042e-03 6.681015000000000148e-01 4.088459999999999317e-02 1.025709999999999980e+02 1.867855000000000018e+03
3.000000000000000062e-03 6.681899999999999507e-01 2.351116000000000039e-01 1.028149999999999977e+02 1.867900000000000091e+03
4.000000000000000083e-03 6.681654999999999678e-01 2.300141199999999886e-01 1.027545000000000073e+02 1.867894999999999982e+03
5.000000000000000104e-03 6.680574999999999708e-01 4.958849999999997982e-02 1.022920000000000016e+02 1.867809999999999945e+03
6.000000000000000125e-03 6.679500000000000437e-01 -1.508300000000000196e-01 1.016564999999999941e+02 1.867694999999999936e+03
7.000000000000000146e-03 6.677484999999999671e-01 -5.663549999999999418e-01 1.005919999999999987e+02 1.867505000000000109e+03
8.000000000000000167e-03 6.674344999999999306e-01 -1.234105000000000008e+00 9.895050000000000523e+01 1.867210000000000036e+03
9.000000000000001055e-03 6.669985000000000497e-01 -2.152169999999999916e+00 9.665059999999999718e+01 1.866789999999999964e+03
1.000000000000000194e-02 6.664054999999999840e-01 -3.356070000000000331e+00 9.355169999999999675e+01 1.866220000000000027e+03
1.099999999999999936e-02 6.657165000000000443e-01 -4.677860000000000795e+00 8.981389999999998963e+01 1.865509999999999991e+03
1.200000000000000025e-02 6.650899999999999590e-01 -5.736612000000000045e+00 8.602394999999999925e+01 1.864755000000000109e+03
1.300000000000000114e-02 6.646544999999999259e-01 -6.204075000000000450e+00 8.283785000000000309e+01 1.864079999999999927e+03
1.400000000000000203e-02 6.644255000000000022e-01 -6.004940000000000389e+00 8.058580000000000609e+01 1.863545000000000073e+03
1.499999999999999944e-02 6.643170000000000464e-01 -5.313990000000000435e+00 7.914779999999998950e+01 1.863144999999999982e+03
1.600000000000000033e-02 6.642030000000000989e-01 -4.427764999999999951e+00 7.808559999999999945e+01 1.862829999999999927e+03
1.700000000000000122e-02 6.639865000000000350e-01 -3.606180000000000163e+00 7.689975000000001160e+01 1.862505000000000109e+03
1.800000000000000211e-02 6.636414999999999953e-01 -2.956548500000000246e+00 7.527975000000000705e+01 1.862119999999999891e+03
1.900000000000000300e-02 6.632124999999999826e-01 -2.419755000000000322e+00 7.321474999999999511e+01 1.861664999999999964e+03
2.000000000000000042e-02 6.627705000000000402e-01 -1.859549999999999814e+00 7.091219999999999857e+01 1.861155000000000200e+03
2.100000000000000130e-02 6.623634999999999939e-01 -1.183019999999999960e+00 6.860580000000000211e+01 1.860644999999999982e+03
2.200000000000000219e-02 6.619874999999999510e-01 -4.162099999999999689e-01 6.638644999999999641e+01 1.860134999999999991e+03
2.299999999999999961e-02 6.615899999999999004e-01 2.906649999999997291e-01 6.413080000000000780e+01 1.859619999999999891e+03
2.400000000000000050e-02 6.610909999999999842e-01 7.139299999999999535e-01 6.153674999999999784e+01 1.859045000000000073e+03
2.500000000000000139e-02 6.604155000000000442e-01 6.363300000000000622e-01 5.823754999999999882e+01 1.858349999999999909e+03
2.600000000000000228e-02 6.595239999999999991e-01 -7.194000000000055906e-02 5.395120000000000005e+01 1.857485000000000127e+03
2.700000000000000316e-02 6.584330000000000460e-01 -1.400745000000000573e+00 4.860864999999999725e+01 1.856430000000000064e+03
2.800000000000000058e-02 6.572105000000000308e-01 -3.198174999999999990e+00 4.240789999999999793e+01 1.855200000000000045e+03
2.900000000000000147e-02 6.559589999999999588e-01 -5.218220000000000525e+00 3.577414999999999878e+01 1.853875000000000000e+03
3.000000000000000236e-02 6.547859999999999792e-01 -7.189960000000001017e+00 2.925234999999999985e+01 1.852545000000000073e+03
3.099999999999999978e-02 6.537825000000000442e-01 -8.878825000000000855e+00 2.338459999999999894e+01 1.851299999999999955e+03
3.200000000000000067e-02 6.530089999999999506e-01 -1.012122999999999884e+01 1.861237500000000011e+01 1.850240000000000009e+03
3.300000000000000155e-02 6.524944999999999773e-01 -1.083186500000000052e+01 1.522229499999999902e+01 1.849434999999999945e+03
3.400000000000000244e-02 6.522434999999999761e-01 -1.099086000000000141e+01 1.333776500000000098e+01 1.848910000000000082e+03
3.500000000000000333e-02 6.522400000000000420e-01 -1.062008999999999936e+01 1.294525000000000148e+01 1.848679999999999836e+03
3.600000000000000422e-02 6.524609999999999577e-01 -9.759309999999999263e+00 1.394012999999999991e+01 1.848744999999999891e+03
3.700000000000000511e-02 6.528819999999999624e-01 -8.449265000000000470e+00 1.617350000000000065e+01 1.849065000000000055e+03
3.799999999999999906e-02 6.534800000000000608e-01 -6.726380000000000692e+00 1.948560499999999962e+01 1.849630000000000109e+03
3.899999999999999994e-02 6.542314999999999658e-01 -4.627554999999999197e+00 2.371894999999999953e+01 1.850394999999999982e+03
4.000000000000000083e-02 6.551120000000000276e-01 -2.200299999999999478e+00 2.871497499999999903e+01 1.851335000000000036e+03
4.100000000000000172e-02 6.560904999999999099e-01 4.891999999999994131e-01 3.430360000000000298e+01 1.852420000000000073e+03
4.200000000000000261e-02 6.571329999999999671e-01 3.353814999999999991e+00 4.029595000000000482e+01 1.853599999999999909e+03
4.300000000000000350e-02 6.581995000000000484e-01 6.290575000000000472e+00 4.648620000000000374e+01 1.854849999999999909e+03
4.400000000000000439e-02 6.592514999999999903e-01 9.190944999999999254e+00 5.266314999999999458e+01 1.856119999999999891e+03
4.499999999999999833e-02 6.602550000000000363e-01 1.195304499999999948e+01 5.862794999999999845e+01 1.857375000000000000e+03
4.599999999999999922e-02 6.611830000000000762e-01 1.449277999999999977e+01 6.421385000000000787e+01 1.858574999999999818e+03
4.700000000000000011e-02 6.620194999999999830e-01 1.675090999999999752e+01 6.930105000000000359e+01 1.859690000000000055e+03
4.800000000000000100e-02 6.627585000000000282e-01 1.869549999999999912e+01 7.382580000000000098e+01 1.860710000000000036e+03
4.900000000000000189e-02 6.634029999999999649e-01 2.032065000000000055e+01 7.777989999999999782e+01 1.861615000000000009e+03
5.000000000000000278e-02 6.639650000000000274e-01 2.164225000000000065e+01 8.120480000000000587e+01 1.862424999999999955e+03
5.100000000000000366e-02 6.644600000000000506e-01 2.269229999999999947e+01 8.418075000000000330e+01 1.863140000000000100e+03
5.200000000000000455e-02 6.649085000000000134e-01 2.351474999999999937e+01 8.681450000000000955e+01 1.863779999999999973e+03
5.300000000000000544e-02 6.653299999999999770e-01 2.416084999999999994e+01 8.922855000000001269e+01 1.864369999999999891e+03
5.399999999999999939e-02 6.657474999999999365e-01 2.468619999999999948e+01 9.155060000000000286e+01 1.864930000000000064e+03
5.500000000000000028e-02 6.661810000000000231e-01 2.514714999999999989e+01 9.390514999999999191e+01 1.865484999999999900e+03
5.600000000000000117e-02 6.666490000000000471e-01 2.559734999999999872e+01 9.640434999999999377e+01 1.866059999999999945e+03
5.700000000000000205e-02 6.671650000000000080e-01 2.608330000000000126e+01 9.913965000000000316e+01 1.866670000000000073e+03
5.800000000000000294e-02 6.677379999999999427e-01 2.663984999999999914e+01 1.021739500000000049e+02 1.867335000000000036e+03
5.900000000000000383e-02 6.683704999999999785e-01 2.728685000000000116e+01 1.055330000000000013e+02 1.868059999999999945e+03
6.000000000000000472e-02 6.690574999999999717e-01 2.802655000000000030e+01 1.092035000000000053e+02 1.868845000000000027e+03
6.099999999999999867e-02 6.697859999999999925e-01 2.884420000000000073e+01 1.131320000000000050e+02 1.869679999999999836e+03
6.199999999999999956e-02 6.705380000000000784e-01 2.970969999999999800e+01 1.172299999999999898e+02 1.870559999999999945e+03
6.300000000000000044e-02 6.712925000000000697e-01 3.058174999999999955e+01 1.213834999999999980e+02 1.871454999999999927e+03
6.400000000000000133e-02 6.720249999999999835e-01 3.141255000000000308e+01 1.254615000000000009e+02 1.872335000000000036e+03
6.500000000000000222e-02 6.727125000000000465e-01 3.215254999999999797e+01 1.293310000000000173e+02 1.873190000000000055e+03
6.600000000000000311e-02 6.733344999999999470e-01 3.275544999999999618e+01 1.328665000000000020e+02 1.873980000000000018e+03
6.700000000000000400e-02 6.738740000000000840e-01 3.318160000000000309e+01 1.359610000000000127e+02 1.874690000000000055e+03
6.800000000000000488e-02 6.743175000000000141e-01 3.340084999999999837e+01 1.385330000000000155e+02 1.875305000000000064e+03
6.900000000000000577e-02 6.746585000000000498e-01 3.339464999999999861e+01 1.405300000000000011e+02 1.875789999999999964e+03
7.000000000000000666e-02 6.748959999999999404e-01 3.315644999999999953e+01 1.419350000000000023e+02 1.876164999999999964e+03
7.100000000000000755e-02 6.750335000000000640e-01 3.269185000000000230e+01 1.427584999999999980e+02 1.876420000000000073e+03
7.200000000000000844e-02 6.750789999999999846e-01 3.201800000000000068e+01 1.430425000000000182e+02 1.876555000000000064e+03
7.300000000000000933e-02 6.750460000000000349e-01 3.116179999999999950e+01 1.428525000000000205e+02 1.876585000000000036e+03
7.399999999999999634e-02 6.749499999999999389e-01 3.015825000000000244e+01 1.422735000000000127e+02 1.876525000000000091e+03
7.499999999999999722e-02 6.748069999999999347e-01 2.904789999999999850e+01 1.414039999999999964e+02 1.876394999999999982e+03
7.599999999999999811e-02 6.746360000000000134e-01 2.787420000000000186e+01 1.403475000000000250e+02 1.876219999999999800e+03
7.699999999999999900e-02 6.744550000000000267e-01 2.668070000000000164e+01 1.392065000000000055e+02 1.876009999999999991e+03
7.799999999999999989e-02 6.742790000000000727e-01 2.550829999999999842e+01 1.380774999999999864e+02 1.875789999999999964e+03
7.900000000000000078e-02 6.741224999999999579e-01 2.439314999999999856e+01 1.370434999999999945e+02 1.875579999999999927e+03
8.000000000000000167e-02 6.739949999999998997e-01 2.336424999999999841e+01 1.361714999999999804e+02 1.875394999999999982e+03
8.100000000000000255e-02 6.739045000000000174e-01 2.244250000000000256e+01 1.355079999999999814e+02 1.875244999999999891e+03
8.200000000000000344e-02 6.738539999999999530e-01 2.163964999999999961e+01 1.350785000000000196e+02 1.875134999999999991e+03
8.300000000000000433e-02 6.738425000000000109e-01 2.095840000000000103e+01 1.348874999999999886e+02 1.875070000000000164e+03
8.400000000000000522e-02 6.738674999999999526e-01 2.039264999999999972e+01 1.349200000000000159e+02 1.875050000000000182e+03
8.500000000000000611e-02 6.739209999999999923e-01 1.992844999999999800e+01 1.351424999999999841e+02 1.875075000000000045e+03
8.600000000000000699e-02 6.739954999999999696e-01 1.954545000000000243e+01 1.355079999999999814e+02 1.875125000000000000e+03
8.700000000000000788e-02 6.740800000000000125e-01 1.921829999999999927e+01 1.359600000000000080e+02 1.875204999999999927e+03
8.800000000000000877e-02 6.741634999999999156e-01 1.891879999999999740e+01 1.364340000000000259e+02 1.875284999999999854e+03
8.899999999999999578e-02 6.742354999999999876e-01 1.861759999999999948e+01 1.368659999999999854e+02 1.875369999999999891e+03
8.999999999999999667e-02 6.742844999999999533e-01 1.828679999999999950e+01 1.371949999999999932e+02 1.875434999999999945e+03
9.099999999999999756e-02 6.743025000000000269e-01 1.790149999999999864e+01 1.373659999999999854e+02 1.875469999999999800e+03
9.199999999999999845e-02 6.742839999999999945e-01 1.744205000000000183e+01 1.373389999999999986e+02 1.875480000000000018e+03
9.299999999999999933e-02 6.742234999999999756e-01 1.689484999999999815e+01 1.370860000000000127e+02 1.875440000000000055e+03
9.400000000000000022e-02 6.741215000000000401e-01 1.625390000000000157e+01 1.365955000000000155e+02 1.875355000000000018e+03
9.500000000000000111e-02 6.739805000000000934e-01 1.552074999999999960e+01 1.358745000000000118e+02 1.875220000000000027e+03
9.600000000000000200e-02 6.738044999999999174e-01 1.470469999999999899e+01 1.349459999999999980e+02 1.875039999999999964e+03
9.700000000000000289e-02 6.736020000000000341e-01 1.382163500000000056e+01 1.338485000000000014e+02 1.874825000000000045e+03
9.800000000000000377e-02 6.733824999999999950e-01 1.289327499999999915e+01 1.326324999999999932e+02 1.874585000000000036e+03
9.900000000000000466e-02 6.731564999999999355e-01 1.194560999999999851e+01 1.313574999999999875e+02 1.874325000000000045e+03
1.000000000000000056e-01 6.729354999999999087e-01 1.100692000000000093e+01 1.300885000000000105e+02 1.874065000000000055e+03
1.010000000000000064e-01 6.727309999999999679e-01 1.010585000000000022e+01 1.288890000000000100e+02 1.873809999999999945e+03
1.020000000000000073e-01 6.725529999999999564e-01 9.269770000000001176e+00 1.278204999999999956e+02 1.873574999999999818e+03
1.030000000000000082e-01 6.724105000000000221e-01 8.522594999999999033e+00 1.269344999999999999e+02 1.873375000000000000e+03
1.040000000000000091e-01 6.723090000000000455e-01 7.883525000000000560e+00 1.262724999999999937e+02 1.873214999999999918e+03
1.050000000000000100e-01 6.722525000000000306e-01 7.365819999999999368e+00 1.258625000000000114e+02 1.873110000000000127e+03
1.059999999999999970e-01 6.722425000000000761e-01 6.976239999999999775e+00 1.257150000000000034e+02 1.873045000000000073e+03
1.069999999999999979e-01 6.722774999999999723e-01 6.714845000000000397e+00 1.258275000000000006e+02 1.873039999999999964e+03
1.079999999999999988e-01 6.723535000000000483e-01 6.575340000000000629e+00 1.261829999999999927e+02 1.873089999999999918e+03
1.089999999999999997e-01 6.724645000000000206e-01 6.545775000000000787e+00 1.267505000000000024e+02 1.873180000000000064e+03
1.100000000000000006e-01 6.726024999999999920e-01 6.609569999999999723e+00 1.274915000000000020e+02 1.873309999999999945e+03
1.110000000000000014e-01 6.727594999999999548e-01 6.746760000000000090e+00 1.283584999999999923e+02 1.873470000000000027e+03
1.120000000000000023e-01 6.729270000000000529e-01 6.935249999999999915e+00 1.293025000000000091e+02 1.873654999999999973e+03
1.130000000000000032e-01 6.730964999999999865e-01 7.152210000000000178e+00 1.302724999999999795e+02 1.873844999999999800e+03
1.140000000000000041e-01 6.732590000000000519e-01 7.375244999999999607e+00 1.312194999999999823e+02 1.874039999999999964e+03
1.150000000000000050e-01 6.734074999999999367e-01 7.583594999999999864e+00 1.321014999999999873e+02 1.874224999999999909e+03
1.160000000000000059e-01 6.735370000000000523e-01 7.759039999999999715e+00 1.328815000000000168e+02 1.874394999999999982e+03
1.170000000000000068e-01 6.736429999999999918e-01 7.886655000000000193e+00 1.335314999999999941e+02 1.874539999999999964e+03
1.180000000000000077e-01 6.737215000000000842e-01 7.955339999999999634e+00 1.340330000000000155e+02 1.874654999999999973e+03
1.190000000000000085e-01 6.737725000000001074e-01 7.958119999999999195e+00 1.343745000000000118e+02 1.874744999999999891e+03
1.200000000000000094e-01 6.737960000000000615e-01 7.892194999999999183e+00 1.345564999999999998e+02 1.874799999999999955e+03
1.209999999999999964e-01 6.737945000000000739e-01 7.758814999999999351e+00 1.345865000000000009e+02 1.874825000000000045e+03
1.219999999999999973e-01 6.737695000000000212e-01 7.562910000000000466e+00 1.344784999999999968e+02 1.874820000000000164e+03
1.229999999999999982e-01 6.737265000000000059e-01 7.312565000000000204e+00 1.342535000000000025e+02 1.874789999999999964e+03
1.239999999999999991e-01 6.736689999999999623e-01 7.018385000000000318e+00 1.339364999999999952e+02 1.874740000000000009e+03
1.250000000000000000e-01 6.736020000000000341e-01 6.692650000000000432e+00 1.335554999999999950e+02 1.874670000000000073e+03
1.260000000000000009e-01 6.735309999999999908e-01 6.348539999999999850e+00 1.331384999999999934e+02 1.874595000000000027e+03
1.270000000000000018e-01 6.734605000000000175e-01 5.999220000000000219e+00 1.327119999999999891e+02 1.874509999999999991e+03
1.280000000000000027e-01 6.733934999999999782e-01 5.657070000000000043e+00 1.323020000000000209e+02 1.874429999999999836e+03
1.290000000000000036e-01 6.733350000000000168e-01 5.332914999999999850e+00 1.319270000000000209e+02 1.874349999999999909e+03
1.300000000000000044e-01 6.732860000000000511e-01 5.035519999999999996e+00 1.316034999999999968e+02 1.874284999999999854e+03
1.310000000000000053e-01 6.732474999999999987e-01 4.771110000000000184e+00 1.313400000000000034e+02 1.874224999999999909e+03
1.320000000000000062e-01 6.732204999999999995e-01 4.543269999999999698e+00 1.311410000000000196e+02 1.874179999999999836e+03
1.330000000000000071e-01 6.732035000000000657e-01 4.352890000000000370e+00 1.310029999999999859e+02 1.874139999999999873e+03
1.340000000000000080e-01 6.731955000000000577e-01 4.198389999999999844e+00 1.309189999999999827e+02 1.874115000000000009e+03
1.350000000000000089e-01 6.731935000000000002e-01 4.076084999999999958e+00 1.308770000000000095e+02 1.874099999999999909e+03
1.360000000000000098e-01 6.731955000000000577e-01 3.980584999999999596e+00 1.308625000000000114e+02 1.874090000000000146e+03
1.370000000000000107e-01 6.731975000000000042e-01 3.905389999999999695e+00 1.308584999999999923e+02 1.874085000000000036e+03
1.380000000000000115e-01 6.731970000000000454e-01 3.843399999999999928e+00 1.308489999999999895e+02 1.874079999999999927e+03
1.390000000000000124e-01 6.731914999999999427e-01 3.787455000000000460e+00 1.308179999999999836e+02 1.874069999999999936e+03
1.400000000000000133e-01 6.731789999999999718e-01 3.730884999999999785e+00 1.307509999999999764e+02 1.874049999999999955e+03
1.410000000000000142e-01 6.731570000000000054e-01 3.667869999999999742e+00 1.306379999999999768e+02 1.874029999999999973e+03
1.420000000000000151e-01 6.731249999999999734e-01 3.593874999999999709e+00 1.304710000000000036e+02 1.873994999999999891e+03
1.430000000000000160e-01 6.730819999999999581e-01 3.505819999999999936e+00 1.302459999999999809e+02 1.873944999999999936e+03
1.440000000000000169e-01 6.730294999999999472e-01 3.402319999999999567e+00 1.299650000000000034e+02 1.873889999999999873e+03
1.450000000000000178e-01 6.729680000000000106e-01 3.283660000000000245e+00 1.296315000000000168e+02 1.873820000000000164e+03
1.459999999999999909e-01 6.728985000000000660e-01 3.151765000000000150e+00 1.292540000000000191e+02 1.873740000000000009e+03
1.469999999999999918e-01 6.728239999999999776e-01 3.010044999999999860e+00 1.288444999999999823e+02 1.873655000000000200e+03
1.479999999999999927e-01 6.727469999999999839e-01 2.863125000000000142e+00 1.284159999999999968e+02 1.873569999999999936e+03
1.489999999999999936e-01 6.726699999999999902e-01 2.716540000000000177e+00 1.279844999999999970e+02 1.873474999999999909e+03
1.499999999999999944e-01 6.725965000000000416e-01 2.576385000000000147e+00 1.275660000000000025e+02 1.873390000000000100e+03
1.509999999999999953e-01 6.725280000000000147e-01 2.448914999999999953e+00 1.271775000000000091e+02 1.873304999999999836e+03
1.519999999999999962e-01 6.724685000000000246e-01 2.340184999999999960e+00 1.268319999999999936e+02 1.873224999999999909e+03
1.529999999999999971e-01 6.724200000000000177e-01 2.255675000000000097e+00 1.265444999999999993e+02 1.873154999999999973e+03
1.539999999999999980e-01 6.723835000000000228e-01 2.199980000000000047e+00 1.263255000000000052e+02 1.873105000000000018e+03
1.549999999999999989e-01 6.723609999999999864e-01 2.176594999999999835e+00 1.261829999999999927e+02 1.873065000000000055e+03
1.559999999999999998e-01 6.723524999999999086e-01 2.187699999999999978e+00 1.261209999999999951e+02 1.873039999999999964e+03
1.570000000000000007e-01 6.723585000000000811e-01 2.234080000000000066e+00 1.261424999999999983e+02 1.873034999999999854e+03
1.580000000000000016e-01 6.723790000000000600e-01 2.315115000000000034e+00 1.262445000000000022e+02 1.873050000000000182e+03
1.590000000000000024e-01 6.724125000000000796e-01 2.428835000000000299e+00 1.264230000000000018e+02 1.873079999999999927e+03
