# t [s], A [cm^2], U [cm/s], P [cPa], c [cm/s]
1.000000000000000021e-03 1.201095000000000079e-01 2.380979999999999763e-01 8.775424999999999898e+01 1.882400000000000091e+03
2.000000000000000042e-03 1.200945000000000068e-01 1.494367500000000071e+00 8.519399999999998840e+01 1.882210000000000036e+03
3.000000000000000062e-03 1.200330000000000008e-01 3.040686500000000070e+00 8.187620000000001141e+01 1.881474999999999909e+03
4.000000000000000083e-03 1.199399999999999911e-01 4.757312100000000044e+00 7.815385000000000559e+01 1.880365000000000009e+03
5.000000000000000104e-03 1.198300000000000060e-01 6.603159999999999918e+00 7.460769999999999413e+01 1.879075000000000045e+03
6.000000000000000125e-03 1.197160000000000030e-01 8.499344999999999928e+00 7.156534999999999513e+01 1.877759999999999991e+03
7.000000000000000146e-03 1.196059999999999901e-01 1.032010499999999986e+01 6.902000000000001023e+01 1.876490000000000009e+03
8.000000000000000167e-03 1.194999999999999951e-01 1.195982500000000037e+01 6.679484999999999673e+01 1.875295000000000073e+03
9.000000000000001055e-03 1.194014999999999938e-01 1.338996999999999815e+01 6.478880000000000905e+01 1.874194999999999936e+03
1.000000000000000194e-02 1.193125000000000019e-01 1.463109499999999841e+01 6.302575000000000216e+01 1.873210000000000036e+03
1.099999999999999936e-02 1.192334999999999923e-01 1.570144999999999946e+01 6.153849999999999909e+01 1.872345000000000027e+03
1.200000000000000025e-02 1.191655000000000075e-01 1.660725000000000051e+01 6.031175000000000352e+01 1.871615000000000009e+03
1.300000000000000114e-02 1.191080000000000055e-01 1.735079999999999956e+01 5.930060000000000286e+01 1.871000000000000000e+03
1.400000000000000203e-02 1.190594999999999848e-01 1.793290000000000006e+01 5.844610000000000127e+01 1.870480000000000018e+03
1.499999999999999944e-02 1.190174999999999983e-01 1.835735000000000028e+01 5.768540000000000134e+01 1.870045000000000073e+03
1.600000000000000033e-02 1.189815000000000039e-01 1.864685000000000059e+01 5.698964999999999748e+01 1.869675000000000182e+03
1.700000000000000122e-02 1.189510000000000012e-01 1.885444999999999993e+01 5.640939999999999799e+01 1.869360000000000127e+03
1.800000000000000211e-02 1.189275000000000054e-01 1.905630000000000024e+01 5.608004999999999995e+01 1.869134999999999991e+03
1.900000000000000300e-02 1.189149999999999929e-01 1.932695000000000007e+01 5.616960000000000264e+01 1.869014999999999873e+03
2.000000000000000042e-02 1.189164999999999944e-01 1.971090000000000231e+01 5.679765000000000441e+01 1.869039999999999964e+03
2.100000000000000130e-02 1.189330000000000109e-01 2.020684999999999931e+01 5.797084999999999866e+01 1.869220000000000027e+03
2.200000000000000219e-02 1.189624999999999988e-01 2.076934999999999931e+01 5.956534999999999513e+01 1.869550000000000182e+03
2.299999999999999961e-02 1.190029999999999977e-01 2.132545000000000002e+01 6.135889999999999844e+01 1.869990000000000009e+03
2.400000000000000050e-02 1.190475000000000005e-01 2.179795000000000016e+01 6.309309999999999263e+01 1.870485000000000127e+03
2.500000000000000139e-02 1.190910000000000024e-01 2.212599999999999767e+01 6.454059999999999775e+01 1.870974999999999909e+03
2.600000000000000228e-02 1.191289999999999988e-01 2.227819999999999823e+01 6.555580000000000496e+01 1.871404999999999973e+03
2.700000000000000316e-02 1.191585000000000005e-01 2.225560000000000116e+01 6.609640000000000271e+01 1.871750000000000000e+03
2.800000000000000058e-02 1.191784999999999928e-01 2.208484999999999943e+01 6.621465000000000600e+01 1.871980000000000018e+03
2.900000000000000147e-02 1.191895000000000038e-01 2.180644999999999811e+01 6.602475000000001160e+01 1.872115000000000009e+03
3.000000000000000236e-02 1.191935000000000078e-01 2.146069999999999922e+01 6.565980000000000416e+01 1.872174999999999955e+03
3.099999999999999978e-02 1.191924999999999929e-01 2.107734999999999914e+01 6.523234999999999673e+01 1.872170000000000073e+03
3.200000000000000067e-02 1.191885000000000028e-01 2.067010000000000147e+01 6.480910000000000082e+01 1.872139999999999873e+03
3.300000000000000155e-02 1.191829999999999973e-01 2.023754999999999882e+01 6.440409999999999968e+01 1.872079999999999927e+03
3.400000000000000244e-02 1.191755000000000037e-01 1.976855000000000118e+01 6.398944999999999794e+01 1.872000000000000000e+03
3.500000000000000333e-02 1.191659999999999942e-01 1.925015000000000143e+01 6.351709999999999923e+01 1.871905000000000200e+03
3.600000000000000422e-02 1.191534999999999955e-01 1.867564999999999742e+01 6.294440000000000168e+01 1.871775000000000091e+03
3.700000000000000511e-02 1.191385000000000083e-01 1.804994999999999905e+01 6.225575000000000614e+01 1.871610000000000127e+03
3.799999999999999906e-02 1.191194999999999893e-01 1.739245000000000019e+01 6.147500000000000142e+01 1.871409999999999854e+03
3.899999999999999994e-02 1.190989999999999965e-01 1.673450000000000060e+01 6.066604999999999848e+01 1.871190000000000055e+03
4.000000000000000083e-02 1.190779999999999894e-01 1.611529999999999774e+01 5.992239999999999611e+01 1.870965000000000146e+03
4.100000000000000172e-02 1.190589999999999982e-01 1.557409999999999961e+01 5.934725000000000250e+01 1.870755000000000109e+03
4.200000000000000261e-02 1.190439999999999832e-01 1.514300000000000068e+01 5.903220000000000312e+01 1.870595000000000027e+03
4.300000000000000350e-02 1.190360000000000029e-01 1.484094999999999942e+01 5.903679999999999950e+01 1.870500000000000000e+03
4.400000000000000439e-02 1.190354999999999885e-01 1.467040000000000077e+01 5.937584999999999980e+01 1.870490000000000009e+03
4.499999999999999833e-02 1.190434999999999965e-01 1.461720000000000041e+01 6.001565000000000083e+01 1.870565000000000055e+03
4.599999999999999922e-02 1.190585000000000115e-01 1.465309999999999846e+01 6.087954999999999472e+01 1.870720000000000027e+03
4.700000000000000011e-02 1.190789999999999904e-01 1.474044999999999916e+01 6.186070000000000135e+01 1.870934999999999945e+03
4.800000000000000100e-02 1.191019999999999995e-01 1.483769999999999989e+01 6.283870000000000289e+01 1.871190000000000055e+03
4.900000000000000189e-02 1.191264999999999963e-01 1.490479999999999983e+01 6.369644999999999868e+01 1.871445000000000164e+03
5.000000000000000278e-02 1.191480000000000039e-01 1.490739999999999910e+01 6.433459999999999468e+01 1.871674999999999955e+03
5.100000000000000366e-02 1.191644999999999927e-01 1.481949999999999967e+01 6.468075000000000330e+01 1.871865000000000009e+03
5.200000000000000455e-02 1.191744999999999888e-01 1.462470000000000070e+01 6.469389999999999930e+01 1.871974999999999909e+03
5.300000000000000544e-02 1.191764999999999908e-01 1.431574999999999953e+01 6.436334999999999695e+01 1.872000000000000000e+03
5.399999999999999939e-02 1.191699999999999982e-01 1.389315000000000033e+01 6.370374999999999943e+01 1.871929999999999836e+03
5.500000000000000028e-02 1.191550000000000109e-01 1.336345000000000027e+01 6.274880000000000280e+01 1.871764999999999873e+03
5.600000000000000117e-02 1.191310000000000008e-01 1.273730000000000118e+01 6.154314999999999714e+01 1.871514999999999873e+03
5.700000000000000205e-02 1.191004999999999980e-01 1.202790999999999855e+01 6.013660000000000139e+01 1.871190000000000055e+03
5.800000000000000294e-02 1.190635000000000027e-01 1.125000000000000000e+01 5.857909999999999684e+01 1.870789999999999964e+03
5.900000000000000383e-02 1.190215000000000023e-01 1.041930499999999959e+01 5.691870000000000118e+01 1.870329999999999927e+03
6.000000000000000472e-02 1.189759999999999984e-01 9.552554999999999907e+00 5.520080000000000098e+01 1.869835000000000036e+03
6.099999999999999867e-02 1.189280000000000059e-01 8.667704999999999771e+00 5.346899999999999409e+01 1.869309999999999945e+03
6.199999999999999956e-02 1.188774999999999971e-01 7.784155000000000157e+00 5.176664999999999850e+01 1.868764999999999873e+03
6.300000000000000044e-02 1.188285000000000036e-01 6.922950000000000159e+00 5.013844999999999885e+01 1.868224999999999909e+03
6.400000000000000133e-02 1.187799999999999967e-01 6.106729999999999769e+00 4.863110000000000355e+01 1.867694999999999936e+03
6.500000000000000222e-02 1.187340000000000062e-01 5.359320000000000306e+00 4.729364999999999952e+01 1.867190000000000055e+03
6.600000000000000311e-02 1.186925000000000063e-01 4.705064999999999387e+00 4.617654999999999887e+01 1.866740000000000009e+03
6.700000000000000400e-02 1.186564999999999981e-01 4.167894999999999683e+00 4.532954999999999757e+01 1.866339999999999918e+03
6.800000000000000488e-02 1.186284999999999978e-01 3.770274999999999821e+00 4.479975000000000307e+01 1.866025000000000091e+03
6.900000000000000577e-02 1.186085000000000056e-01 3.532060000000000421e+00 4.462855000000000416e+01 1.865800000000000182e+03
7.000000000000000666e-02 1.185979999999999951e-01 3.469495000000000218e+00 4.484919999999999618e+01 1.865675000000000182e+03
7.100000000000000755e-02 1.185984999999999956e-01 3.594384999999999941e+00 4.548470000000000368e+01 1.865670000000000073e+03
7.200000000000000844e-02 1.186110000000000081e-01 3.913469999999999782e+00 4.654610000000000269e+01 1.865795000000000073e+03
7.300000000000000933e-02 1.186355000000000048e-01 4.428175000000000416e+00 4.803199999999999648e+01 1.866049999999999955e+03
7.399999999999999634e-02 1.186725000000000002e-01 5.134615000000000151e+00 4.992849999999999966e+01 1.866434999999999945e+03
7.499999999999999722e-02 1.187209999999999932e-01 6.023909999999999876e+00 5.221049999999999613e+01 1.866954999999999927e+03
7.599999999999999811e-02 1.187814999999999982e-01 7.082779999999999632e+00 5.484290000000000020e+01 1.867599999999999909e+03
7.699999999999999900e-02 1.188524999999999998e-01 8.294280000000000541e+00 5.778300000000000125e+01 1.868365000000000009e+03
7.799999999999999989e-02 1.189329999999999971e-01 9.638595000000000468e+00 6.098310000000000741e+01 1.869240000000000009e+03
7.900000000000000078e-02 1.190225000000000033e-01 1.109436499999999981e+01 6.439265000000000327e+01 1.870204999999999927e+03
8.000000000000000167e-02 1.191185000000000022e-01 1.263918500000000122e+01 6.796144999999999925e+01 1.871250000000000000e+03
8.100000000000000255e-02 1.192205000000000070e-01 1.425099999999999945e+01 7.164144999999999186e+01 1.872365000000000009e+03
8.200000000000000344e-02 1.193280000000000035e-01 1.590859999999999985e+01 7.538904999999999745e+01 1.873534999999999854e+03
8.300000000000000433e-02 1.194380000000000025e-01 1.759250000000000114e+01 7.916669999999999163e+01 1.874740000000000009e+03
8.400000000000000522e-02 1.195499999999999896e-01 1.928549999999999898e+01 8.294370000000000687e+01 1.875974999999999909e+03
8.500000000000000611e-02 1.196635000000000060e-01 2.097279999999999944e+01 8.669665000000000532e+01 1.877224999999999909e+03
8.600000000000000699e-02 1.197774999999999951e-01 2.264240000000000208e+01 9.040954999999999586e+01 1.878485000000000127e+03
8.700000000000000788e-02 1.198915000000000119e-01 2.428464999999999918e+01 9.407294999999999163e+01 1.879744999999999891e+03
8.800000000000000877e-02 1.200050000000000006e-01 2.589254999999999995e+01 9.768309999999999604e+01 1.881009999999999991e+03
8.899999999999999578e-02 1.201175000000000020e-01 2.746079999999999899e+01 1.012400000000000091e+02 1.882259999999999991e+03
8.999999999999999667e-02 1.202285000000000020e-01 2.898590000000000089e+01 1.047470500000000015e+02 1.883505000000000109e+03
9.099999999999999756e-02 1.203395000000000159e-01 3.046549999999999869e+01 1.082085000000000008e+02 1.884740000000000009e+03
9.199999999999999845e-02 1.204490000000000005e-01 3.189795000000000158e+01 1.116285000000000025e+02 1.885974999999999909e+03
9.299999999999999933e-02 1.205579999999999985e-01 3.328190000000000026e+01 1.150109999999999957e+02 1.887190000000000055e+03
9.400000000000000022e-02 1.206654999999999950e-01 3.461615000000000464e+01 1.183575000000000017e+02 1.888400000000000091e+03
9.500000000000000111e-02 1.207725000000000048e-01 3.589905000000000257e+01 1.216659999999999968e+02 1.889599999999999909e+03
9.600000000000000200e-02 1.208780000000000132e-01 3.712890000000000157e+01 1.249339999999999975e+02 1.890795000000000073e+03
9.700000000000000289e-02 1.209830000000000072e-01 3.830339999999999634e+01 1.281550000000000011e+02 1.891974999999999909e+03
9.800000000000000377e-02 1.210859999999999992e-01 3.941969999999999885e+01 1.313204999999999814e+02 1.893144999999999982e+03
9.900000000000000466e-02 1.211884999999999907e-01 4.047464999999999691e+01 1.344199999999999875e+02 1.894289999999999964e+03
1.000000000000000056e-01 1.212880000000000069e-01 4.146460000000000434e+01 1.374420000000000073e+02 1.895425000000000182e+03
1.010000000000000064e-01 1.213859999999999939e-01 4.238580000000000325e+01 1.403729999999999905e+02 1.896534999999999854e+03
1.020000000000000073e-01 1.214810000000000056e-01 4.323409999999999798e+01 1.431995000000000005e+02 1.897615000000000009e+03
1.030000000000000082e-01 1.215730000000000005e-01 4.400539999999999452e+01 1.459080000000000155e+02 1.898659999999999854e+03
1.040000000000000091e-01 1.216620000000000063e-01 4.469565000000000055e+01 1.484845000000000255e+02 1.899674999999999955e+03
1.050000000000000100e-01 1.217469999999999941e-01 4.530095000000000027e+01 1.509159999999999968e+02 1.900644999999999982e+03
1.059999999999999970e-01 1.218279999999999919e-01 4.581759999999999877e+01 1.531910000000000025e+02 1.901565000000000055e+03
1.069999999999999979e-01 1.219039999999999846e-01 4.624245000000000516e+01 1.552980000000000018e+02 1.902440000000000055e+03
1.079999999999999988e-01 1.219760000000000011e-01 4.657280000000000086e+01 1.572275000000000205e+02 1.903259999999999991e+03
1.089999999999999997e-01 1.220420000000000116e-01 4.680679999999999552e+01 1.589719999999999800e+02 1.904019999999999982e+03
1.100000000000000006e-01 1.221025000000000027e-01 4.694334999999999525e+01 1.605250000000000057e+02 1.904719999999999800e+03
1.110000000000000014e-01 1.221575000000000022e-01 4.698225000000000051e+01 1.618849999999999909e+02 1.905349999999999909e+03
1.120000000000000023e-01 1.222064999999999957e-01 4.692464999999999975e+01 1.630494999999999948e+02 1.905920000000000073e+03
1.130000000000000032e-01 1.222504999999999842e-01 4.677259999999999707e+01 1.640215000000000032e+02 1.906425000000000182e+03
1.140000000000000041e-01 1.222879999999999939e-01 4.652955000000000041e+01 1.648054999999999950e+02 1.906865000000000009e+03
1.150000000000000050e-01 1.223194999999999977e-01 4.620000000000000284e+01 1.654099999999999966e+02 1.907235000000000127e+03
1.160000000000000059e-01 1.223454999999999959e-01 4.578974999999999795e+01 1.658455000000000155e+02 1.907539999999999964e+03
1.170000000000000068e-01 1.223664999999999892e-01 4.530545000000000044e+01 1.661240000000000236e+02 1.907789999999999964e+03
1.180000000000000077e-01 1.223829999999999918e-01 4.475469999999999970e+01 1.662599999999999909e+02 1.907980000000000018e+03
1.190000000000000085e-01 1.223940000000000028e-01 4.414585000000000292e+01 1.662699999999999818e+02 1.908115000000000009e+03
1.200000000000000094e-01 1.224009999999999959e-01 4.348744999999999550e+01 1.661719999999999970e+02 1.908204999999999927e+03
1.209999999999999964e-01 1.224044999999999994e-01 4.278839999999999577e+01 1.659809999999999945e+02 1.908250000000000000e+03
1.219999999999999973e-01 1.224044999999999994e-01 4.205745000000000289e+01 1.657154999999999916e+02 1.908255000000000109e+03
1.229999999999999982e-01 1.224014999999999964e-01 4.130310000000000059e+01 1.653909999999999911e+02 1.908230000000000018e+03
1.239999999999999991e-01 1.223964999999999914e-01 4.053324999999999534e+01 1.650219999999999914e+02 1.908174999999999955e+03
1.250000000000000000e-01 1.223895000000000122e-01 3.975504999999999711e+01 1.646220000000000141e+02 1.908099999999999909e+03
1.260000000000000009e-01 1.223809999999999898e-01 3.897489999999999810e+01 1.642010000000000218e+02 1.908009999999999991e+03
1.270000000000000018e-01 1.223715000000000080e-01 3.819809999999999661e+01 1.637669999999999959e+02 1.907905000000000200e+03
1.280000000000000027e-01 1.223609999999999975e-01 3.742884999999999707e+01 1.633269999999999982e+02 1.907779999999999973e+03
1.290000000000000036e-01 1.223499999999999865e-01 3.667029999999999745e+01 1.628849999999999909e+02 1.907655000000000200e+03
1.300000000000000044e-01 1.223380000000000023e-01 3.592454999999999643e+01 1.624409999999999741e+02 1.907525000000000091e+03
1.310000000000000053e-01 1.223259999999999903e-01 3.519250000000000256e+01 1.619950000000000045e+02 1.907384999999999991e+03
1.320000000000000062e-01 1.223135000000000056e-01 3.447429999999999950e+01 1.615450000000000159e+02 1.907240000000000009e+03
1.330000000000000071e-01 1.223005000000000064e-01 3.376895000000000380e+01 1.610869999999999891e+02 1.907094999999999800e+03
1.340000000000000080e-01 1.222870000000000068e-01 3.307504999999999740e+01 1.606144999999999925e+02 1.906940000000000055e+03
1.350000000000000089e-01 1.222729999999999928e-01 3.239030000000000342e+01 1.601225000000000023e+02 1.906779999999999973e+03
1.360000000000000098e-01 1.222585000000000061e-01 3.171225000000000094e+01 1.596039999999999850e+02 1.906610000000000127e+03
1.370000000000000107e-01 1.222425000000000039e-01 3.103795000000000215e+01 1.590520000000000209e+02 1.906429999999999836e+03
1.380000000000000115e-01 1.222260000000000013e-01 3.036449999999999960e+01 1.584604999999999961e+02 1.906239999999999782e+03
1.390000000000000124e-01 1.222084999999999977e-01 2.968900000000000006e+01 1.578229999999999791e+02 1.906035000000000082e+03
1.400000000000000133e-01 1.221889999999999921e-01 2.900884999999999891e+01 1.571345000000000027e+02 1.905820000000000164e+03
1.410000000000000142e-01 1.221684999999999993e-01 2.832179999999999964e+01 1.563910000000000196e+02 1.905579999999999927e+03
1.420000000000000151e-01 1.221465000000000051e-01 2.762590000000000146e+01 1.555899999999999750e+02 1.905325000000000045e+03
1.430000000000000160e-01 1.221225000000000088e-01 2.692004999999999981e+01 1.547305000000000064e+02 1.905054999999999836e+03
1.440000000000000169e-01 1.220964999999999967e-01 2.620365000000000322e+01 1.538125000000000000e+02 1.904759999999999991e+03
1.450000000000000178e-01 1.220690000000000108e-01 2.547695000000000221e+01 1.528389999999999986e+02 1.904450000000000045e+03
1.459999999999999909e-01 1.220400000000000096e-01 2.474085000000000178e+01 1.518135000000000048e+02 1.904115000000000009e+03
1.469999999999999918e-01 1.220094999999999930e-01 2.399709999999999965e+01 1.507415000000000020e+02 1.903769999999999982e+03
1.479999999999999927e-01 1.219770000000000021e-01 2.324804999999999922e+01 1.496304999999999836e+02 1.903404999999999973e+03
1.489999999999999936e-01 1.219435000000000102e-01 2.249680000000000035e+01 1.484895000000000209e+02 1.903025000000000091e+03
1.499999999999999944e-01 1.219090000000000035e-01 2.174690000000000012e+01 1.473269999999999982e+02 1.902634999999999991e+03
1.509999999999999953e-01 1.218734999999999957e-01 2.100244999999999962e+01 1.461539999999999964e+02 1.902240000000000009e+03
1.519999999999999962e-01 1.218380000000000019e-01 2.026780000000000115e+01 1.449825000000000159e+02 1.901829999999999927e+03
1.529999999999999971e-01 1.218025000000000080e-01 1.954744999999999777e+01 1.438215000000000146e+02 1.901420000000000073e+03
1.539999999999999980e-01 1.217659999999999992e-01 1.884600000000000009e+01 1.426834999999999809e+02 1.901019999999999982e+03
1.549999999999999989e-01 1.217310000000000059e-01 1.816765000000000185e+01 1.415774999999999864e+02 1.900615000000000009e+03
1.559999999999999998e-01 1.216964999999999991e-01 1.751655000000000229e+01 1.405130000000000052e+02 1.900224999999999909e+03
1.570000000000000007e-01 1.216625000000000068e-01 1.689634999999999820e+01 1.394985000000000070e+02 1.899845000000000027e+03
1.580000000000000016e-01 1.216305000000000025e-01 1.631009999999999849e+01 1.385405000000000086e+02 1.899474999999999909e+03
1.590000000000000024e-01 1.215994999999999993e-01 1.576030000000000086e+01 1.376434999999999889e+02 1.899125000000000000e+03
