# t [s], A [cm^2], U [cm/s], P [cPa], c [cm/s]
1.000000000000000021e-03 4.521695000000000020e-01 2.743599999999998817e-03 9.214894999999999925e+01 1.495170000000000073e+03
2.000000000000000042e-03 4.521634999999999405e-01 -4.631399999999999059e-04 9.213325000000000387e+01 1.495170000000000073e+03
3.000000000000000062e-03 4.521870000000000056e-01 5.241964999999999819e-02 9.218205000000000382e+01 1.495179999999999836e+03
4.000000000000000083e-03 4.522244999999999737e-01 1.354653500000000121e-01 9.228215000000000146e+01 1.495210000000000036e+03
5.000000000000000104e-03 4.522309999999999941e-01 1.552801500000000057e-01 9.230984999999999729e+01 1.495215000000000146e+03
6.000000000000000125e-03 4.522065000000000112e-01 1.051779999999999937e-01 9.222530000000000427e+01 1.495199999999999818e+03
7.000000000000000146e-03 4.521770000000000511e-01 4.041700000000000847e-02 9.207605000000000928e+01 1.495164999999999964e+03
8.000000000000000167e-03 4.521465000000000067e-01 -3.034649999999999848e-02 9.187995000000000800e+01 1.495125000000000000e+03
9.000000000000001055e-03 4.520959999999999424e-01 -1.535195000000000309e-01 9.158719999999999573e+01 1.495059999999999945e+03
1.000000000000000194e-02 4.520140000000000269e-01 -3.568850000000000078e-01 9.114994999999998981e+01 1.494954999999999927e+03
1.099999999999999936e-02 4.518949999999999911e-01 -6.494950000000000445e-01 9.053409999999999513e+01 1.494809999999999945e+03
1.200000000000000025e-02 4.517309999999999937e-01 -1.043109999999999982e+00 8.970120000000000005e+01 1.494609999999999900e+03
1.300000000000000114e-02 4.515185000000000448e-01 -1.536259999999999959e+00 8.862549999999998818e+01 1.494349999999999909e+03
1.400000000000000203e-02 4.512674999999999881e-01 -2.090174999999999894e+00 8.732729999999999393e+01 1.494025000000000091e+03
1.499999999999999944e-02 4.510024999999999729e-01 -2.631385000000000307e+00 8.588100000000000023e+01 1.493650000000000091e+03
1.600000000000000033e-02 4.507499999999999840e-01 -3.078540000000000276e+00 8.439044999999998709e+01 1.493255000000000109e+03
1.700000000000000122e-02 4.505264999999999409e-01 -3.370980000000000310e+00 8.295214999999998895e+01 1.492855000000000018e+03
1.800000000000000211e-02 4.503374999999999462e-01 -3.483317500000000067e+00 8.162850000000000250e+01 1.492470000000000027e+03
1.900000000000000300e-02 4.501770000000000493e-01 -3.424472100000000019e+00 8.043815000000000737e+01 1.492105000000000018e+03
2.000000000000000042e-02 4.500315000000000287e-01 -3.226897600000000033e+00 7.936180000000000234e+01 1.491755000000000109e+03
2.100000000000000130e-02 4.498860000000000081e-01 -2.932432499999999997e+00 7.835654999999999859e+01 1.491424999999999955e+03
2.200000000000000219e-02 4.497299999999999631e-01 -2.579366999999999965e+00 7.737324999999999875e+01 1.491090000000000146e+03
2.299999999999999961e-02 4.495564999999999700e-01 -2.193469499999999961e+00 7.637165000000000248e+01 1.490755000000000109e+03
2.400000000000000050e-02 4.493654999999999733e-01 -1.784664999999999946e+00 7.532970000000000255e+01 1.490414999999999964e+03
2.500000000000000139e-02 4.491625000000000201e-01 -1.349580000000000002e+00 7.424609999999999843e+01 1.490059999999999945e+03
2.600000000000000228e-02 4.489530000000000465e-01 -8.784899999999999931e-01 7.313429999999999609e+01 1.489694999999999936e+03
2.700000000000000316e-02 4.487434999999999619e-01 -3.638049999999997119e-01 7.201300000000000523e+01 1.489335000000000036e+03
2.800000000000000058e-02 4.485359999999999348e-01 1.929650000000000531e-01 7.089570000000000505e+01 1.488970000000000027e+03
2.900000000000000147e-02 4.483285000000000187e-01 7.776599999999997959e-01 6.978300000000000125e+01 1.488599999999999909e+03
3.000000000000000236e-02 4.481140000000000123e-01 1.363930000000000087e+00 6.865944999999999254e+01 1.488230000000000018e+03
3.099999999999999978e-02 4.478855000000000475e-01 1.917080000000000117e+00 6.749569999999999936e+01 1.487849999999999909e+03
3.200000000000000067e-02 4.476324999999999887e-01 2.400079999999999991e+00 6.625424999999999898e+01 1.487454999999999927e+03
3.300000000000000155e-02 4.473479999999999679e-01 2.780184999999999906e+00 6.489759999999999707e+01 1.487030000000000200e+03
3.400000000000000244e-02 4.470279999999999809e-01 3.034905000000000186e+00 6.339739999999999753e+01 1.486570000000000164e+03
3.500000000000000333e-02 4.466729999999999867e-01 3.155995000000000328e+00 6.174195000000000277e+01 1.486079999999999927e+03
3.600000000000000422e-02 4.462895000000000056e-01 3.150609999999999467e+00 5.994039999999999679e+01 1.485549999999999955e+03
3.700000000000000511e-02 4.458870000000000333e-01 3.039789999999999548e+00 5.802374999999999972e+01 1.484990000000000009e+03
3.799999999999999906e-02 4.454779999999999851e-01 2.854589999999999517e+00 5.604135000000000133e+01 1.484414999999999964e+03
3.899999999999999994e-02 4.450764999999999860e-01 2.630890000000000395e+00 5.405490000000000350e+01 1.483835000000000036e+03
4.000000000000000083e-02 4.446959999999999802e-01 2.404609999999999914e+00 5.213139999999999930e+01 1.483259999999999991e+03
4.100000000000000172e-02 4.443469999999999920e-01 2.207819999999999894e+00 5.033615000000000350e+01 1.482720000000000027e+03
4.200000000000000261e-02 4.440405000000000046e-01 2.066350000000000353e+00 4.872724999999999795e+01 1.482230000000000018e+03
4.300000000000000350e-02 4.437824999999999687e-01 1.999225000000000030e+00 4.735224999999999795e+01 1.481789999999999964e+03
4.400000000000000439e-02 4.435769999999999991e-01 2.019185000000000230e+00 4.624660000000000082e+01 1.481420000000000073e+03
4.499999999999999833e-02 4.434265000000000012e-01 2.134200000000000319e+00 4.543420000000000414e+01 1.481130000000000109e+03
4.599999999999999922e-02 4.433325000000000182e-01 2.349236499999999950e+00 4.492929999999999779e+01 1.480924999999999955e+03
4.700000000000000011e-02 4.432960000000000234e-01 2.667874999999999996e+00 4.473829999999999529e+01 1.480804999999999836e+03
4.800000000000000100e-02 4.433165000000000022e-01 3.093430000000000124e+00 4.486260000000000048e+01 1.480769999999999982e+03
4.900000000000000189e-02 4.433939999999999548e-01 3.629419999999999646e+00 4.530004999999999882e+01 1.480835000000000036e+03
5.000000000000000278e-02 4.435284999999999922e-01 4.279320000000000235e+00 4.604599999999999937e+01 1.480985000000000127e+03
5.100000000000000366e-02 4.437189999999999745e-01 5.045844999999999914e+00 4.709390000000000498e+01 1.481230000000000018e+03
5.200000000000000455e-02 4.439639999999999698e-01 5.929970000000000852e+00 4.843444999999999823e+01 1.481549999999999955e+03
5.300000000000000544e-02 4.442610000000000170e-01 6.929965000000000153e+00 5.005519999999999925e+01 1.481964999999999918e+03
5.399999999999999939e-02 4.446075000000000443e-01 8.040704999999999103e+00 5.193954999999999700e+01 1.482454999999999927e+03
5.500000000000000028e-02 4.449989999999999779e-01 9.253379999999999939e+00 5.406654999999999944e+01 1.483019999999999982e+03
5.600000000000000117e-02 4.454299999999999926e-01 1.055562000000000111e+01 5.641055000000000064e+01 1.483655000000000200e+03
5.700000000000000205e-02 4.458940000000000126e-01 1.193214500000000022e+01 5.894205000000000183e+01 1.484344999999999800e+03
5.800000000000000294e-02 4.463854999999999906e-01 1.336550000000000082e+01 6.162839999999999918e+01 1.485090000000000146e+03
5.900000000000000383e-02 4.468969999999999887e-01 1.483725000000000094e+01 6.443534999999999968e+01 1.485884999999999991e+03
6.000000000000000472e-02 4.474225000000000008e-01 1.632899000000000100e+01 6.732840000000000202e+01 1.486704999999999927e+03
6.099999999999999867e-02 4.479560000000000208e-01 1.782310999999999979e+01 7.027460000000000662e+01 1.487554999999999836e+03
6.199999999999999956e-02 4.484924999999999606e-01 1.930389999999999873e+01 7.324379999999999313e+01 1.488414999999999964e+03
6.300000000000000044e-02 4.490275000000000238e-01 2.075789999999999935e+01 7.620985000000000298e+01 1.489295000000000073e+03
6.400000000000000133e-02 4.495580000000000132e-01 2.217425000000000068e+01 7.915125000000000455e+01 1.490170000000000073e+03
6.500000000000000222e-02 4.500815000000000232e-01 2.354464999999999719e+01 8.205180000000000007e+01 1.491039999999999964e+03
6.600000000000000311e-02 4.505965000000000109e-01 2.486319999999999908e+01 8.490029999999998722e+01 1.491900000000000091e+03
6.700000000000000400e-02 4.511025000000000174e-01 2.612635000000000218e+01 8.769024999999999181e+01 1.492755000000000109e+03
6.800000000000000488e-02 4.515989999999999727e-01 2.733225000000000193e+01 9.041949999999999932e+01 1.493595000000000027e+03
6.900000000000000577e-02 4.520870000000000166e-01 2.848035000000000139e+01 9.308844999999999459e+01 1.494420000000000073e+03
7.000000000000000666e-02 4.525669999999999971e-01 2.957115000000000293e+01 9.570095000000000596e+01 1.495235000000000127e+03
7.100000000000000755e-02 4.530399999999999983e-01 3.060569999999999879e+01 9.826150000000001228e+01 1.496034999999999854e+03
7.200000000000000844e-02 4.535069999999999935e-01 3.158520000000000039e+01 1.007755500000000097e+02 1.496824999999999818e+03
7.300000000000000933e-02 4.539674999999999683e-01 3.251064999999999827e+01 1.032478499999999997e+02 1.497599999999999909e+03
7.399999999999999634e-02 4.544240000000000501e-01 3.338269999999999982e+01 1.056825000000000045e+02 1.498365000000000009e+03
7.499999999999999722e-02 4.548740000000000006e-01 3.420149999999999579e+01 1.080805000000000007e+02 1.499125000000000000e+03
7.599999999999999811e-02 4.553194999999999881e-01 3.496644999999999470e+01 1.104435000000000002e+02 1.499875000000000000e+03
7.699999999999999900e-02 4.557584999999999553e-01 3.567634999999999934e+01 1.127684999999999889e+02 1.500610000000000127e+03
7.799999999999999989e-02 4.561895000000000255e-01 3.632920000000000016e+01 1.150509999999999877e+02 1.501335000000000036e+03
7.900000000000000078e-02 4.566120000000000179e-01 3.692279999999999518e+01 1.172860000000000014e+02 1.502050000000000182e+03
8.000000000000000167e-02 4.570250000000000146e-01 3.745435000000000514e+01 1.194634999999999962e+02 1.502750000000000000e+03
8.100000000000000255e-02 4.574245000000000116e-01 3.792099999999999937e+01 1.215759999999999934e+02 1.503425000000000182e+03
8.200000000000000344e-02 4.578100000000000502e-01 3.831990000000000407e+01 1.236115000000000066e+02 1.504079999999999927e+03
8.300000000000000433e-02 4.581794999999999618e-01 3.864860000000000184e+01 1.255614999999999952e+02 1.504719999999999800e+03
8.400000000000000522e-02 4.585314999999999808e-01 3.890500000000000114e+01 1.274155000000000086e+02 1.505325000000000045e+03
8.500000000000000611e-02 4.588634999999999797e-01 3.908745000000000402e+01 1.291639999999999873e+02 1.505904999999999973e+03
8.600000000000000699e-02 4.591749999999999998e-01 3.919490000000000407e+01 1.307994999999999948e+02 1.506450000000000045e+03
8.700000000000000788e-02 4.594639999999999835e-01 3.922724999999999795e+01 1.323139999999999930e+02 1.506960000000000036e+03
8.800000000000000877e-02 4.597305000000000419e-01 3.918479999999999563e+01 1.337040000000000077e+02 1.507434999999999945e+03
8.899999999999999578e-02 4.599729999999999652e-01 3.906875000000000142e+01 1.349644999999999868e+02 1.507869999999999891e+03
8.999999999999999667e-02 4.601919999999999900e-01 3.888105000000000189e+01 1.360939999999999941e+02 1.508269999999999982e+03
9.099999999999999756e-02 4.603869999999999907e-01 3.862430000000000518e+01 1.370930000000000177e+02 1.508625000000000000e+03
9.199999999999999845e-02 4.605595000000000105e-01 3.830174999999999841e+01 1.379630000000000223e+02 1.508945000000000164e+03
9.299999999999999933e-02 4.607080000000000064e-01 3.791755000000000564e+01 1.387069999999999936e+02 1.509224999999999909e+03
9.400000000000000022e-02 4.608355000000000090e-01 3.747615000000000407e+01 1.393305000000000007e+02 1.509460000000000036e+03
9.500000000000000111e-02 4.609415000000000040e-01 3.698290000000000077e+01 1.398389999999999986e+02 1.509664999999999964e+03
9.600000000000000200e-02 4.610290000000000221e-01 3.644350000000000023e+01 1.402404999999999973e+02 1.509835000000000036e+03
9.700000000000000289e-02 4.610980000000000079e-01 3.586419999999999675e+01 1.405434999999999945e+02 1.509974999999999909e+03
9.800000000000000377e-02 4.611509999999999776e-01 3.525155000000000172e+01 1.407574999999999932e+02 1.510085000000000036e+03
9.900000000000000466e-02 4.611905000000000587e-01 3.461234999999999928e+01 1.408934999999999889e+02 1.510160000000000082e+03
1.000000000000000056e-01 4.612165000000000292e-01 3.395329999999999870e+01 1.409610000000000127e+02 1.510220000000000027e+03
1.010000000000000064e-01 4.612330000000000041e-01 3.328105000000000047e+01 1.409714999999999918e+02 1.510255000000000109e+03
1.020000000000000073e-01 4.612404999999999422e-01 3.260205000000000553e+01 1.409360000000000070e+02 1.510275000000000091e+03
1.030000000000000082e-01 4.612419999999999853e-01 3.192200000000000060e+01 1.408634999999999877e+02 1.510275000000000091e+03
1.040000000000000091e-01 4.612380000000000368e-01 3.124615000000000009e+01 1.407640000000000100e+02 1.510269999999999982e+03
1.050000000000000100e-01 4.612295000000000145e-01 3.057880000000000109e+01 1.406444999999999936e+02 1.510250000000000000e+03
1.059999999999999970e-01 4.612180000000000168e-01 2.992329999999999757e+01 1.405124999999999886e+02 1.510220000000000027e+03
1.069999999999999979e-01 4.612049999999999761e-01 2.928214999999999790e+01 1.403720000000000141e+02 1.510190000000000055e+03
1.079999999999999988e-01 4.611905000000000587e-01 2.865664999999999907e+01 1.402274999999999920e+02 1.510150000000000091e+03
1.089999999999999997e-01 4.611745000000000427e-01 2.804735000000000156e+01 1.400805000000000007e+02 1.510115000000000009e+03
1.100000000000000006e-01 4.611560000000000104e-01 2.745359999999999800e+01 1.399310000000000116e+02 1.510070000000000164e+03
1.110000000000000014e-01 4.611364999999999492e-01 2.687429999999999808e+01 1.397780000000000200e+02 1.510029999999999973e+03
1.120000000000000023e-01 4.611144999999999827e-01 2.630729999999999791e+01 1.396189999999999998e+02 1.509980000000000018e+03
1.130000000000000032e-01 4.610895000000000410e-01 2.575019999999999953e+01 1.394505000000000052e+02 1.509929999999999836e+03
1.140000000000000041e-01 4.610609999999999986e-01 2.520015000000000072e+01 1.392690000000000055e+02 1.509875000000000000e+03
1.150000000000000050e-01 4.610275000000000345e-01 2.465415000000000134e+01 1.390699999999999932e+02 1.509815000000000055e+03
1.160000000000000059e-01 4.609889999999999821e-01 2.410914999999999964e+01 1.388495000000000061e+02 1.509744999999999891e+03
1.170000000000000068e-01 4.609440000000000204e-01 2.356219999999999715e+01 1.386024999999999920e+02 1.509670000000000073e+03
1.180000000000000077e-01 4.608934999999999560e-01 2.301064999999999827e+01 1.383255000000000052e+02 1.509590000000000146e+03
1.190000000000000085e-01 4.608360000000000234e-01 2.245220000000000127e+01 1.380160000000000196e+02 1.509500000000000000e+03
1.200000000000000094e-01 4.607704999999999718e-01 2.188515000000000299e+01 1.376725000000000136e+02 1.509400000000000091e+03
1.209999999999999964e-01 4.606990000000000252e-01 2.130805000000000149e+01 1.372924999999999898e+02 1.509285000000000082e+03
1.219999999999999973e-01 4.606199999999999739e-01 2.072039999999999793e+01 1.368764999999999930e+02 1.509164999999999964e+03
1.229999999999999982e-01 4.605344999999999578e-01 2.012209999999999965e+01 1.364259999999999877e+02 1.509029999999999973e+03
1.239999999999999991e-01 4.604425000000000323e-01 1.951379999999999981e+01 1.359429999999999836e+02 1.508889999999999873e+03
1.250000000000000000e-01 4.603454999999999631e-01 1.889675000000000082e+01 1.354314999999999998e+02 1.508740000000000009e+03
1.260000000000000009e-01 4.602439999999999864e-01 1.827285000000000181e+01 1.348949999999999818e+02 1.508585000000000036e+03
1.270000000000000018e-01 4.601390000000000202e-01 1.764444999999999908e+01 1.343394999999999868e+02 1.508420000000000073e+03
1.280000000000000027e-01 4.600319999999999965e-01 1.701440000000000197e+01 1.337699999999999818e+02 1.508250000000000000e+03
1.290000000000000036e-01 4.599245000000000139e-01 1.638595000000000113e+01 1.331939999999999884e+02 1.508075000000000045e+03
1.300000000000000044e-01 4.598170000000000313e-01 1.576264999999999894e+01 1.326189999999999998e+02 1.507904999999999973e+03
1.310000000000000053e-01 4.597114999999999396e-01 1.514819999999999922e+01 1.320504999999999995e+02 1.507735000000000127e+03
1.320000000000000062e-01 4.596095000000000041e-01 1.454635000000000034e+01 1.314970000000000141e+02 1.507565000000000055e+03
1.330000000000000071e-01 4.595115000000000172e-01 1.396076000000000050e+01 1.309644999999999868e+02 1.507400000000000091e+03
1.340000000000000080e-01 4.594195000000000362e-01 1.339501000000000097e+01 1.304600000000000080e+02 1.507240000000000009e+03
1.350000000000000089e-01 4.593340000000000201e-01 1.285227499999999878e+01 1.299884999999999877e+02 1.507090000000000146e+03
1.360000000000000098e-01 4.592554999999999832e-01 1.233542500000000075e+01 1.295554999999999950e+02 1.506949999999999818e+03
1.370000000000000107e-01 4.591855000000000242e-01 1.184680999999999962e+01 1.291650000000000205e+02 1.506824999999999818e+03
1.380000000000000115e-01 4.591235000000000177e-01 1.138825999999999894e+01 1.288199999999999932e+02 1.506704999999999927e+03
1.390000000000000124e-01 4.590710000000000068e-01 1.096101000000000170e+01 1.285215000000000032e+02 1.506605000000000018e+03
1.400000000000000133e-01 4.590269999999999628e-01 1.056580999999999904e+01 1.282709999999999866e+02 1.506514999999999873e+03
1.410000000000000142e-01 4.589914999999999967e-01 1.020274000000000036e+01 1.280679999999999836e+02 1.506440000000000055e+03
1.420000000000000151e-01 4.589644999999999975e-01 9.871280000000000499e+00 1.279104999999999990e+02 1.506380000000000109e+03
1.430000000000000160e-01 4.589449999999999363e-01 9.570570000000000022e+00 1.277959999999999923e+02 1.506329999999999927e+03
1.440000000000000169e-01 4.589334999999999942e-01 9.299039999999999750e+00 1.277220000000000084e+02 1.506289999999999964e+03
1.450000000000000178e-01 4.589274999999999882e-01 9.055070000000000618e+00 1.276839999999999975e+02 1.506264999999999873e+03
1.459999999999999909e-01 4.589269999999999738e-01 8.836539999999999395e+00 1.276779999999999973e+02 1.506250000000000000e+03
1.469999999999999918e-01 4.589320000000000066e-01 8.641204999999999359e+00 1.276989999999999981e+02 1.506244999999999891e+03
1.479999999999999927e-01 4.589400000000000146e-01 8.466739999999999711e+00 1.277425000000000068e+02 1.506239999999999782e+03
1.489999999999999936e-01 4.589515000000000122e-01 8.310764999999999958e+00 1.278035000000000139e+02 1.506255000000000109e+03
1.499999999999999944e-01 4.589650000000000118e-01 8.170959999999999113e+00 1.278785000000000025e+02 1.506264999999999873e+03
1.509999999999999953e-01 4.589799999999999991e-01 8.045094999999999885e+00 1.279625000000000057e+02 1.506279999999999973e+03
1.519999999999999962e-01 4.589960000000000151e-01 7.931090000000000195e+00 1.280519999999999925e+02 1.506299999999999955e+03
1.529999999999999971e-01 4.590125000000000455e-01 7.827030000000000598e+00 1.281435000000000173e+02 1.506320000000000164e+03
1.539999999999999980e-01 4.590285000000000060e-01 7.731200000000000294e+00 1.282350000000000136e+02 1.506345000000000027e+03
1.549999999999999989e-01 4.590445000000000220e-01 7.642084999999999795e+00 1.283240000000000123e+02 1.506365000000000009e+03
1.559999999999999998e-01 4.590595000000000092e-01 7.558360000000000412e+00 1.284085000000000036e+02 1.506389999999999873e+03
1.570000000000000007e-01 4.590735000000000232e-01 7.478889999999999816e+00 1.284875000000000114e+02 1.506409999999999854e+03
1.580000000000000016e-01 4.590865000000000085e-01 7.402709999999999013e+00 1.285604999999999905e+02 1.506429999999999836e+03
1.590000000000000024e-01 4.590980000000000061e-01 7.329019999999999868e+00 1.286264999999999930e+02 1.506444999999999936e+03
