# t [s], A [cm^2], U [cm/s], P [cPa], c [cm/s]
1.000000000000000021e-03 5.826814999999999634e-01 2.431750000000003353e-03 9.995330000000001291e+01 1.438829999999999927e+03
2.000000000000000042e-03 5.826744999999999841e-01 1.750250000000000070e-03 9.993659999999999854e+01 1.438819999999999936e+03
3.000000000000000062e-03 5.827234999999999498e-01 8.464640000000001052e-02 1.000122499999999945e+02 1.438845000000000027e+03
4.000000000000000083e-03 5.827740000000000142e-01 1.711737000000000120e-01 1.001134500000000003e+02 1.438880000000000109e+03
5.000000000000000104e-03 5.827645000000000186e-01 1.608888499999999999e-01 1.000965999999999951e+02 1.438880000000000109e+03
6.000000000000000125e-03 5.827154999999999418e-01 8.054699999999997972e-02 9.994929999999999382e+01 1.438845000000000027e+03
7.000000000000000146e-03 5.826639999999999597e-01 -9.838000000000013401e-03 9.972759999999999536e+01 1.438789999999999964e+03
8.000000000000000167e-03 5.825919999999999987e-01 -1.411064999999999681e-01 9.940840000000000032e+01 1.438710000000000036e+03
9.000000000000001055e-03 5.824679999999999858e-01 -3.697249999999999703e-01 9.891745000000000232e+01 1.438585000000000036e+03
1.000000000000000194e-02 5.822844999999999827e-01 -7.059699999999998754e-01 9.821125000000000682e+01 1.438400000000000091e+03
1.099999999999999936e-02 5.820345000000000102e-01 -1.151289999999999925e+00 9.725655000000000427e+01 1.438144999999999982e+03
1.200000000000000025e-02 5.817039999999999988e-01 -1.714780000000000193e+00 9.601229999999999620e+01 1.437799999999999955e+03
1.300000000000000114e-02 5.812945000000000473e-01 -2.377835000000000143e+00 9.446694999999999709e+01 1.437365000000000009e+03
1.400000000000000203e-02 5.808345000000000313e-01 -3.066520000000000135e+00 9.268055000000001087e+01 1.436849999999999909e+03
1.499999999999999944e-02 5.803739999999999455e-01 -3.667620000000000324e+00 9.078325000000000955e+01 1.436289999999999964e+03
1.600000000000000033e-02 5.799600000000000311e-01 -4.072748000000000701e+00 8.892974999999999852e+01 1.435710000000000036e+03
1.700000000000000122e-02 5.796185000000000365e-01 -4.216407000000000238e+00 8.724604999999999677e+01 1.435160000000000082e+03
1.800000000000000211e-02 5.793490000000000029e-01 -4.090422665000000180e+00 8.579495000000000005e+01 1.434654999999999973e+03
1.900000000000000300e-02 5.791304999999999925e-01 -3.736274499999999943e+00 8.456925000000001091e+01 1.434194999999999936e+03
2.000000000000000042e-02 5.789299999999999446e-01 -3.224777800000000028e+00 8.350614999999999100e+01 1.433779999999999973e+03
2.100000000000000130e-02 5.787165000000000781e-01 -2.631988999999999912e+00 8.251470000000000482e+01 1.433380000000000109e+03
2.200000000000000219e-02 5.784669999999999535e-01 -2.018295000000000172e+00 8.150579999999999359e+01 1.432985000000000127e+03
2.299999999999999961e-02 5.781735000000000069e-01 -1.416060000000000096e+00 8.041710000000000491e+01 1.432570000000000164e+03
2.400000000000000050e-02 5.778410000000000490e-01 -8.287500000000000977e-01 7.922470000000001278e+01 1.432125000000000000e+03
2.500000000000000139e-02 5.774835000000000385e-01 -2.404150000000000453e-01 7.793995000000001028e+01 1.431660000000000082e+03
2.600000000000000228e-02 5.771165000000000322e-01 3.693749999999997868e-01 7.659504999999998631e+01 1.431179999999999836e+03
2.700000000000000316e-02 5.767489999999999561e-01 1.011344999999999938e+00 7.522339999999999804e+01 1.430684999999999945e+03
2.800000000000000058e-02 5.763835000000000486e-01 1.677540000000000031e+00 7.384389999999999077e+01 1.430184999999999945e+03
2.900000000000000147e-02 5.760115000000000096e-01 2.339309999999999778e+00 7.245144999999999413e+01 1.429679999999999836e+03
3.000000000000000236e-02 5.756194999999999506e-01 2.951475000000000293e+00 7.101560000000000628e+01 1.429164999999999964e+03
3.099999999999999978e-02 5.751880000000000326e-01 3.460884999999999323e+00 6.948770000000000380e+01 1.428619999999999891e+03
3.200000000000000067e-02 5.747025000000000050e-01 3.817184999999999384e+00 6.781189999999999429e+01 1.428039999999999964e+03
3.300000000000000155e-02 5.741499999999999382e-01 3.982734999999999914e+00 6.594004999999999939e+01 1.427404999999999973e+03
3.400000000000000244e-02 5.735289999999999555e-01 3.941079999999999472e+00 6.384490000000000265e+01 1.426715000000000146e+03
3.500000000000000333e-02 5.728474999999999540e-01 3.700350000000000250e+00 6.153000000000000114e+01 1.425960000000000036e+03
3.600000000000000422e-02 5.721230000000000482e-01 3.292525000000000368e+00 5.903345000000000198e+01 1.425159999999999854e+03
3.700000000000000511e-02 5.713809999999999167e-01 2.768579999999999597e+00 5.642555000000000121e+01 1.424325000000000045e+03
3.799999999999999906e-02 5.706495000000000317e-01 2.190655000000000463e+00 5.380095000000000027e+01 1.423474999999999909e+03
3.899999999999999994e-02 5.699604999999999810e-01 1.623660000000000103e+00 5.126740000000000208e+01 1.422644999999999982e+03
4.000000000000000083e-02 5.693394999999999984e-01 1.128094999999999626e+00 4.893410000000000082e+01 1.421865000000000009e+03
4.100000000000000172e-02 5.688109999999999555e-01 7.547850000000000392e-01 4.690090000000000003e+01 1.421159999999999854e+03
4.200000000000000261e-02 5.683914999999999385e-01 5.420850000000001501e-01 4.525109999999999388e+01 1.420559999999999945e+03
4.300000000000000350e-02 5.680925000000000002e-01 5.155650000000000510e-01 4.404625000000000057e+01 1.420089999999999918e+03
4.400000000000000439e-02 5.679189999999999516e-01 6.894000000000000128e-01 4.332545000000000357e+01 1.419759999999999991e+03
4.499999999999999833e-02 5.678729999999999611e-01 1.068761000000000072e+00 4.310630000000000450e+01 1.419579999999999927e+03
4.599999999999999922e-02 5.679525000000000823e-01 1.652590000000000003e+00 4.338870000000000005e+01 1.419559999999999945e+03
4.700000000000000011e-02 5.681530000000000191e-01 2.435995500000000202e+00 4.415879999999999939e+01 1.419699999999999818e+03
4.800000000000000100e-02 5.684679999999999733e-01 3.411846500000000226e+00 4.539284999999999570e+01 1.419980000000000018e+03
4.900000000000000189e-02 5.688910000000000355e-01 4.571474999999999511e+00 4.706085000000000207e+01 1.420414999999999964e+03
5.000000000000000278e-02 5.694135000000000169e-01 5.904465000000000074e+00 4.912829999999999586e+01 1.420985000000000127e+03
5.100000000000000366e-02 5.700275000000000203e-01 7.398004525000000164e+00 5.155740000000000123e+01 1.421674999999999955e+03
5.200000000000000455e-02 5.707225000000000215e-01 9.036111500000000518e+00 5.430720000000000169e+01 1.422480000000000018e+03
5.300000000000000544e-02 5.714870000000000783e-01 1.079885999999999946e+01 5.733355000000000246e+01 1.423389999999999873e+03
5.399999999999999939e-02 5.723084999999999978e-01 1.266258499999999998e+01 6.058905000000000030e+01 1.424384999999999991e+03
5.500000000000000028e-02 5.731749999999999901e-01 1.460025499999999887e+01 6.402379999999999427e+01 1.425450000000000045e+03
5.600000000000000117e-02 5.740714999999999568e-01 1.658257000000000048e+01 6.758599999999999852e+01 1.426575000000000045e+03
5.700000000000000205e-02 5.749855000000000382e-01 1.857936000000000121e+01 7.122390000000000043e+01 1.427735000000000127e+03
5.800000000000000294e-02 5.759035000000000126e-01 2.056109999999999971e+01 7.488755000000000450e+01 1.428920000000000073e+03
5.900000000000000383e-02 5.768145000000000078e-01 2.250045000000000073e+01 7.853110000000000923e+01 1.430115000000000009e+03
6.000000000000000472e-02 5.777090000000000281e-01 2.437364999999999782e+01 8.211430000000000007e+01 1.431305000000000064e+03
6.099999999999999867e-02 5.785799999999999832e-01 2.616120000000000090e+01 8.560450000000000159e+01 1.432480000000000018e+03
6.199999999999999956e-02 5.794215000000000337e-01 2.784870000000000090e+01 8.897769999999999868e+01 1.433634999999999991e+03
6.300000000000000044e-02 5.802319999999999700e-01 2.942665000000000219e+01 9.221790000000000020e+01 1.434750000000000000e+03
6.400000000000000133e-02 5.810100000000000264e-01 3.089039999999999964e+01 9.531954999999999245e+01 1.435835000000000036e+03
6.500000000000000222e-02 5.817569999999999686e-01 3.223964999999999748e+01 9.828305000000000291e+01 1.436884999999999991e+03
6.600000000000000311e-02 5.824759999999999938e-01 3.347780000000000200e+01 1.011175499999999943e+02 1.437894999999999982e+03
6.700000000000000400e-02 5.831705000000000361e-01 3.461095000000000255e+01 1.038362999999999943e+02 1.438869999999999891e+03
6.800000000000000488e-02 5.838455000000000172e-01 3.564759999999999707e+01 1.064575000000000102e+02 1.439815000000000055e+03
6.900000000000000577e-02 5.845050000000000523e-01 3.659744999999999493e+01 1.090004999999999882e+02 1.440735000000000127e+03
7.000000000000000666e-02 5.851555000000000506e-01 3.747100000000000364e+01 1.114869999999999948e+02 1.441634999999999991e+03
7.100000000000000755e-02 5.857999999999999874e-01 3.827864999999999895e+01 1.139360000000000070e+02 1.442525000000000091e+03
7.200000000000000844e-02 5.864435000000000064e-01 3.903034999999999854e+01 1.163669999999999902e+02 1.443400000000000091e+03
7.300000000000000933e-02 5.870889999999999720e-01 3.973475000000000534e+01 1.187939999999999969e+02 1.444269999999999982e+03
7.399999999999999634e-02 5.877384999999999415e-01 4.039889999999999759e+01 1.212284999999999968e+02 1.445144999999999982e+03
7.499999999999999722e-02 5.883935000000000137e-01 4.102790000000000248e+01 1.236760000000000019e+02 1.446019999999999982e+03
7.599999999999999811e-02 5.890524999999999789e-01 4.162440000000000140e+01 1.261380000000000052e+02 1.446894999999999982e+03
7.699999999999999900e-02 5.897140000000000715e-01 4.218874999999999886e+01 1.286094999999999970e+02 1.447775000000000091e+03
7.799999999999999989e-02 5.903755000000000530e-01 4.271869999999999834e+01 1.310805000000000007e+02 1.448655000000000200e+03
7.900000000000000078e-02 5.910320000000000018e-01 4.320999999999999375e+01 1.335360000000000014e+02 1.449534999999999854e+03
8.000000000000000167e-02 5.916784999999999961e-01 4.365630000000000166e+01 1.359585000000000150e+02 1.450394999999999982e+03
8.100000000000000255e-02 5.923089999999999744e-01 4.404994999999999550e+01 1.383249999999999886e+02 1.451244999999999891e+03
8.200000000000000344e-02 5.929180000000000561e-01 4.438240000000000407e+01 1.406120000000000232e+02 1.452070000000000164e+03
8.300000000000000433e-02 5.934989999999999988e-01 4.464470000000000027e+01 1.427959999999999923e+02 1.452865000000000009e+03
8.400000000000000522e-02 5.940455000000000041e-01 4.482835000000000036e+01 1.448514999999999873e+02 1.453619999999999891e+03
8.500000000000000611e-02 5.945519999999999694e-01 4.492539999999999623e+01 1.467574999999999932e+02 1.454329999999999927e+03
8.600000000000000699e-02 5.950145000000000017e-01 4.492950000000000443e+01 1.484945000000000164e+02 1.454985000000000127e+03
8.700000000000000788e-02 5.954289999999999861e-01 4.483565000000000111e+01 1.500464999999999804e+02 1.455579999999999927e+03
8.800000000000000877e-02 5.957924999999999471e-01 4.464099999999999824e+01 1.514024999999999750e+02 1.456115000000000009e+03
8.899999999999999578e-02 5.961045000000000371e-01 4.434470000000000312e+01 1.525545000000000186e+02 1.456585000000000036e+03
8.999999999999999667e-02 5.963644999999999641e-01 4.394819999999999993e+01 1.535014999999999930e+02 1.456985000000000127e+03
9.099999999999999756e-02 5.965724999999999500e-01 4.345494999999999663e+01 1.542454999999999927e+02 1.457315000000000055e+03
9.199999999999999845e-02 5.967310000000000114e-01 4.287055000000000149e+01 1.547944999999999993e+02 1.457579999999999927e+03
9.299999999999999933e-02 5.968430000000000124e-01 4.220265000000000555e+01 1.551585000000000036e+02 1.457775000000000091e+03
9.400000000000000022e-02 5.969134999999999858e-01 4.146020000000000039e+01 1.553534999999999968e+02 1.457914999999999964e+03
9.500000000000000111e-02 5.969455000000000178e-01 4.065375000000000227e+01 1.553969999999999914e+02 1.458000000000000000e+03
9.600000000000000200e-02 5.969444999999999890e-01 3.979465000000000430e+01 1.553089999999999975e+02 1.458034999999999854e+03
9.700000000000000289e-02 5.969155000000000433e-01 3.889504999999999768e+01 1.551109999999999900e+02 1.458025000000000091e+03
9.800000000000000377e-02 5.968649999999999789e-01 3.796724999999999994e+01 1.548249999999999886e+02 1.457974999999999909e+03
9.900000000000000466e-02 5.967985000000000095e-01 3.702340000000000231e+01 1.544735000000000014e+02 1.457904999999999973e+03
1.000000000000000056e-01 5.967195000000000693e-01 3.607529999999999859e+01 1.540774999999999864e+02 1.457805000000000064e+03
1.010000000000000064e-01 5.966350000000000264e-01 3.513380000000000081e+01 1.536564999999999941e+02 1.457690000000000055e+03
1.020000000000000073e-01 5.965470000000000494e-01 3.420844999999999914e+01 1.532284999999999968e+02 1.457565000000000055e+03
1.030000000000000082e-01 5.964614999999999778e-01 3.330750000000000455e+01 1.528095000000000141e+02 1.457440000000000055e+03
1.040000000000000091e-01 5.963800000000000212e-01 3.243750000000000000e+01 1.524110000000000014e+02 1.457315000000000055e+03
1.050000000000000100e-01 5.963045000000000151e-01 3.160300000000000153e+01 1.520420000000000016e+02 1.457194999999999936e+03
1.059999999999999970e-01 5.962359999999999882e-01 3.080675000000000097e+01 1.517085000000000150e+02 1.457079999999999927e+03
1.069999999999999979e-01 5.961760000000000392e-01 3.004945000000000022e+01 1.514119999999999777e+02 1.456974999999999909e+03
1.079999999999999988e-01 5.961235000000000284e-01 2.933014999999999972e+01 1.511519999999999868e+02 1.456880000000000109e+03
1.089999999999999997e-01 5.960765000000000091e-01 2.864600000000000080e+01 1.509250000000000114e+02 1.456789999999999964e+03
1.100000000000000006e-01 5.960334999999999939e-01 2.799295000000000044e+01 1.507230000000000132e+02 1.456710000000000036e+03
1.110000000000000014e-01 5.959934999999999539e-01 2.736549999999999727e+01 1.505374999999999943e+02 1.456634999999999991e+03
1.120000000000000023e-01 5.959524999999999961e-01 2.675744999999999862e+01 1.503595000000000255e+02 1.456565000000000055e+03
1.130000000000000032e-01 5.959079999999999933e-01 2.616205000000000069e+01 1.501764999999999759e+02 1.456490000000000009e+03
1.140000000000000041e-01 5.958574999999999289e-01 2.557235000000000014e+01 1.499770000000000039e+02 1.456414999999999964e+03
1.150000000000000050e-01 5.957985000000000086e-01 2.498140000000000072e+01 1.497500000000000000e+02 1.456340000000000146e+03
1.160000000000000059e-01 5.957280000000000353e-01 2.438299999999999912e+01 1.494844999999999970e+02 1.456240000000000009e+03
1.170000000000000068e-01 5.956434999999999924e-01 2.377139999999999986e+01 1.491719999999999970e+02 1.456134999999999991e+03
1.180000000000000077e-01 5.955444999999999212e-01 2.314179999999999993e+01 1.488045000000000186e+02 1.456014999999999873e+03
1.190000000000000085e-01 5.954289999999999861e-01 2.249065000000000225e+01 1.483764999999999930e+02 1.455869999999999891e+03
1.200000000000000094e-01 5.952969999999999651e-01 2.181569999999999965e+01 1.478849999999999909e+02 1.455710000000000036e+03
1.209999999999999964e-01 5.951484999999999692e-01 2.111605000000000132e+01 1.473294999999999959e+02 1.455535000000000082e+03
1.219999999999999973e-01 5.949839999999999574e-01 2.039209999999999923e+01 1.467110000000000127e+02 1.455329999999999927e+03
1.229999999999999982e-01 5.948054999999999870e-01 1.964555000000000007e+01 1.460344999999999800e+02 1.455110000000000127e+03
1.239999999999999991e-01 5.946135000000000170e-01 1.887975000000000136e+01 1.453054999999999950e+02 1.454875000000000000e+03
1.250000000000000000e-01 5.944114999999999815e-01 1.809880000000000067e+01 1.445330000000000155e+02 1.454619999999999891e+03
1.260000000000000009e-01 5.942015000000000491e-01 1.730799999999999983e+01 1.437264999999999873e+02 1.454359999999999900e+03
1.270000000000000018e-01 5.939875000000000016e-01 1.651360000000000028e+01 1.428974999999999795e+02 1.454085000000000036e+03
1.280000000000000027e-01 5.937704999999999789e-01 1.572230000000000061e+01 1.420579999999999927e+02 1.453804999999999836e+03
1.290000000000000036e-01 5.935559999999999725e-01 1.494116000000000000e+01 1.412199999999999989e+02 1.453525000000000091e+03
1.300000000000000044e-01 5.933464999999999989e-01 1.417745500000000014e+01 1.403969999999999914e+02 1.453240000000000009e+03
1.310000000000000053e-01 5.931444999999999634e-01 1.343832499999999897e+01 1.396014999999999873e+02 1.452970000000000027e+03
1.320000000000000062e-01 5.929530000000000634e-01 1.273049999999999926e+01 1.388444999999999823e+02 1.452699999999999818e+03
1.330000000000000071e-01 5.927750000000000519e-01 1.206011499999999970e+01 1.381360000000000241e+02 1.452454999999999927e+03
1.340000000000000080e-01 5.926130000000000564e-01 1.143255500000000069e+01 1.374844999999999970e+02 1.452220000000000027e+03
1.350000000000000089e-01 5.924669999999999659e-01 1.085225999999999935e+01 1.368990000000000009e+02 1.452005000000000109e+03
1.360000000000000098e-01 5.923395000000000188e-01 1.032264999999999944e+01 1.363824999999999932e+02 1.451809999999999945e+03
1.370000000000000107e-01 5.922300000000000342e-01 9.845805000000000362e+00 1.359384999999999764e+02 1.451639999999999873e+03
1.380000000000000115e-01 5.921399999999999997e-01 9.422744999999999038e+00 1.355690000000000168e+02 1.451485000000000127e+03
1.390000000000000124e-01 5.920680000000000387e-01 9.053264999999999674e+00 1.352719999999999914e+02 1.451364999999999782e+03
1.400000000000000133e-01 5.920130000000000114e-01 8.735990000000001032e+00 1.350444999999999993e+02 1.451259999999999991e+03
1.410000000000000142e-01 5.919744999999999591e-01 8.468605000000000160e+00 1.348815000000000168e+02 1.451180000000000064e+03
1.420000000000000151e-01 5.919494999999999063e-01 8.247730000000000672e+00 1.347775000000000034e+02 1.451115000000000009e+03
1.430000000000000160e-01 5.919370000000000465e-01 8.069275000000001086e+00 1.347250000000000227e+02 1.451079999999999927e+03
1.440000000000000169e-01 5.919349999999999890e-01 7.928535000000000110e+00 1.347149999999999750e+02 1.451049999999999955e+03
1.450000000000000178e-01 5.919410000000000505e-01 7.820384999999999920e+00 1.347390000000000043e+02 1.451034999999999854e+03
1.459999999999999909e-01 5.919514999999999638e-01 7.739430000000000476e+00 1.347880000000000109e+02 1.451030000000000200e+03
1.469999999999999918e-01 5.919659999999999922e-01 7.680215000000000458e+00 1.348525000000000205e+02 1.451034999999999854e+03
1.479999999999999927e-01 5.919815000000000493e-01 7.637369999999999770e+00 1.349240000000000066e+02 1.451045000000000073e+03
1.489999999999999936e-01 5.919969999999999954e-01 7.605750000000000455e+00 1.349954999999999927e+02 1.451055000000000064e+03
1.499999999999999944e-01 5.920090000000000074e-01 7.580594999999999750e+00 1.350584999999999809e+02 1.451070000000000164e+03
1.509999999999999953e-01 5.920174999999999743e-01 7.557600000000000762e+00 1.351080000000000041e+02 1.451079999999999927e+03
1.519999999999999962e-01 5.920205000000000606e-01 7.533009999999999984e+00 1.351380000000000052e+02 1.451079999999999927e+03
1.529999999999999971e-01 5.920179999999999332e-01 7.503674999999999429e+00 1.351454999999999984e+02 1.451079999999999927e+03
1.539999999999999980e-01 5.920090000000000074e-01 7.467109999999999914e+00 1.351264999999999930e+02 1.451075000000000045e+03
1.549999999999999989e-01 5.919929999999999914e-01 7.421445000000000292e+00 1.350815000000000055e+02 1.451054999999999836e+03
1.559999999999999998e-01 5.919704999999999551e-01 7.365484999999999616e+00 1.350090000000000146e+02 1.451034999999999854e+03
1.570000000000000007e-01 5.919419999999999682e-01 7.298619999999999663e+00 1.349094999999999800e+02 1.451005000000000109e+03
1.580000000000000016e-01 5.919069999999999609e-01 7.220824999999999605e+00 1.347855000000000132e+02 1.450965000000000146e+03
1.590000000000000024e-01 5.918665000000000731e-01 7.132579999999999920e+00 1.346374999999999886e+02 1.450920000000000073e+03
