# t [s], A [cm^2], U [cm/s], P [cPa], c [cm/s]
1.000000000000000021e-03 5.460214999999999375e-01 4.390199999999996883e-03 1.079989999999999952e+02 1.510880000000000109e+03
2.000000000000000042e-03 5.460139999999999993e-01 -7.422037999999999292e-04 1.079799999999999898e+02 1.510869999999999891e+03
3.000000000000000062e-03 5.460424999999999862e-01 4.977680000000000299e-02 1.080310000000000059e+02 1.510889999999999873e+03
4.000000000000000083e-03 5.460899999999999643e-01 1.356554999999999844e-01 1.081380000000000052e+02 1.510924999999999955e+03
5.000000000000000104e-03 5.460985000000000422e-01 1.579464999999999897e-01 1.081674999999999898e+02 1.510934999999999945e+03
6.000000000000000125e-03 5.460635000000000350e-01 1.032245000000000107e-01 1.080699999999999932e+02 1.510914999999999964e+03
7.000000000000000146e-03 5.460245000000000237e-01 3.498200000000001308e-02 1.079044999999999987e+02 1.510875000000000000e+03
8.000000000000000167e-03 5.459850000000000536e-01 -3.681000000000000938e-02 1.076935000000000002e+02 1.510820000000000164e+03
9.000000000000001055e-03 5.459195000000000020e-01 -1.654710000000000347e-01 1.073799999999999955e+02 1.510735000000000127e+03
1.000000000000000194e-02 5.458144999999999802e-01 -3.786800000000000166e-01 1.069149999999999920e+02 1.510615000000000009e+03
1.099999999999999936e-02 5.456644999999999968e-01 -6.838000000000000744e-01 1.062630000000000052e+02 1.510445000000000164e+03
1.200000000000000025e-02 5.454579999999999984e-01 -1.095060000000000144e+00 1.053799999999999955e+02 1.510210000000000036e+03
1.300000000000000114e-02 5.451880000000000059e-01 -1.612495000000000012e+00 1.042325000000000017e+02 1.509894999999999982e+03
1.400000000000000203e-02 5.448690000000000477e-01 -2.191095000000000237e+00 1.028437500000000000e+02 1.509505000000000109e+03
1.499999999999999944e-02 5.445349999999999913e-01 -2.744044999999999845e+00 1.013004499999999979e+02 1.509065000000000055e+03
1.600000000000000033e-02 5.442219999999999835e-01 -3.176855000000000206e+00 9.972114999999999441e+01 1.508589999999999918e+03
1.700000000000000122e-02 5.439519999999999911e-01 -3.422536000000000023e+00 9.821269999999999811e+01 1.508125000000000000e+03
1.800000000000000211e-02 5.437284999999999480e-01 -3.458115999999999968e+00 9.683474999999999966e+01 1.507670000000000073e+03
1.900000000000000300e-02 5.435385000000000355e-01 -3.301517500000000105e+00 9.559555000000000291e+01 1.507250000000000000e+03
2.000000000000000042e-02 5.433600000000000652e-01 -2.996744500000000144e+00 9.445884999999999820e+01 1.506835000000000036e+03
2.100000000000000130e-02 5.431719999999999882e-01 -2.595693500000000320e+00 9.336599999999999966e+01 1.506440000000000055e+03
2.200000000000000219e-02 5.429579999999999407e-01 -2.142300000000000093e+00 9.225730000000000075e+01 1.506030000000000200e+03
2.299999999999999961e-02 5.427119999999999722e-01 -1.662480000000000180e+00 9.109045000000000414e+01 1.505605000000000018e+03
2.400000000000000050e-02 5.424379999999999757e-01 -1.161600000000000188e+00 8.985050000000001091e+01 1.505159999999999854e+03
2.500000000000000139e-02 5.421464999999999756e-01 -6.293150000000002908e-01 8.854929999999998813e+01 1.504695000000000164e+03
2.600000000000000228e-02 5.418494999999999839e-01 -4.935000000000000497e-02 8.721614999999999895e+01 1.504220000000000027e+03
2.700000000000000316e-02 5.415555000000000785e-01 5.896900000000000475e-01 8.588410000000000366e+01 1.503744999999999891e+03
2.800000000000000058e-02 5.412704999999999878e-01 1.286109999999999864e+00 8.457634999999999081e+01 1.503269999999999982e+03
2.900000000000000147e-02 5.409895000000000120e-01 2.021554999999999769e+00 8.329769999999999186e+01 1.502800000000000182e+03
3.000000000000000236e-02 5.407049999999999912e-01 2.762420000000000542e+00 8.203125000000000000e+01 1.502340000000000146e+03
3.099999999999999978e-02 5.404035000000000366e-01 3.465139999999999887e+00 8.074190000000000111e+01 1.501875000000000000e+03
3.200000000000000067e-02 5.400719999999999965e-01 4.084055000000000213e+00 7.938435000000001196e+01 1.501384999999999991e+03
3.300000000000000155e-02 5.397005000000000274e-01 4.579805000000000348e+00 7.791424999999999557e+01 1.500875000000000000e+03
3.400000000000000244e-02 5.392839999999999856e-01 4.926895000000000024e+00 7.629949999999999477e+01 1.500329999999999927e+03
3.500000000000000333e-02 5.388254999999999573e-01 5.118190000000000239e+00 7.452969999999999118e+01 1.499744999999999891e+03
3.600000000000000422e-02 5.383344999999999381e-01 5.166069999999999496e+00 7.262090000000000600e+01 1.499125000000000000e+03
3.700000000000000511e-02 5.378270000000000550e-01 5.099625000000000519e+00 7.061570000000000391e+01 1.498474999999999909e+03
3.799999999999999906e-02 5.373220000000000773e-01 4.958849999999999980e+00 6.857744999999999891e+01 1.497815000000000055e+03
3.899999999999999994e-02 5.368394999999999140e-01 4.788240000000000052e+00 6.658230000000000359e+01 1.497164999999999964e+03
4.000000000000000083e-02 5.363985000000000003e-01 4.630459999999999354e+00 6.470964999999999634e+01 1.496549999999999955e+03
4.100000000000000172e-02 5.360134999999999206e-01 4.521910000000000096e+00 6.303395000000000437e+01 1.495980000000000018e+03
4.200000000000000261e-02 5.356954999999999911e-01 4.490535000000000387e+00 6.161849999999999739e+01 1.495490000000000009e+03
4.300000000000000350e-02 5.354529999999999568e-01 4.555497500000000421e+00 6.051205000000000211e+01 1.495085000000000036e+03
4.400000000000000439e-02 5.352894999999999737e-01 4.728412500000000129e+00 5.974840000000000373e+01 1.494775000000000091e+03
4.499999999999999833e-02 5.352065000000000294e-01 5.015554999999999986e+00 5.934725000000000250e+01 1.494579999999999927e+03
4.599999999999999922e-02 5.352044999999999719e-01 5.420115000000000016e+00 5.931730000000000302e+01 1.494500000000000000e+03
4.700000000000000011e-02 5.352820000000000356e-01 5.944225000000000314e+00 5.965914999999999679e+01 1.494534999999999854e+03
4.800000000000000100e-02 5.354389999999999983e-01 6.590164999999999829e+00 6.036814999999999998e+01 1.494690000000000055e+03
4.900000000000000189e-02 5.356739999999999835e-01 7.360704999999999387e+00 6.143684999999999974e+01 1.494960000000000036e+03
5.000000000000000278e-02 5.359855000000000036e-01 8.258565000000000822e+00 6.285550000000000637e+01 1.495345000000000027e+03
5.100000000000000366e-02 5.363719999999999599e-01 9.285315000000000651e+00 6.461220000000000141e+01 1.495845000000000027e+03
5.200000000000000455e-02 5.368300000000000294e-01 1.044003000000000014e+01 6.669219999999999970e+01 1.496450000000000045e+03
5.300000000000000544e-02 5.373565000000000147e-01 1.171815000000000140e+01 6.907649999999999579e+01 1.497154999999999973e+03
5.399999999999999939e-02 5.379435000000000189e-01 1.311069499999999977e+01 7.174115000000000464e+01 1.497965000000000146e+03
5.500000000000000028e-02 5.385855000000000503e-01 1.460417999999999950e+01 7.465655000000000996e+01 1.498855000000000018e+03
5.600000000000000117e-02 5.392725000000000435e-01 1.618093000000000004e+01 7.778790000000000759e+01 1.499820000000000164e+03
5.700000000000000205e-02 5.399964999999999904e-01 1.782022999999999868e+01 8.109595000000000198e+01 1.500855000000000018e+03
5.800000000000000294e-02 5.407465000000000188e-01 1.949930000000000163e+01 8.453844999999999743e+01 1.501945000000000164e+03
5.900000000000000383e-02 5.415130000000000221e-01 2.119490000000000052e+01 8.807269999999999754e+01 1.503069999999999936e+03
6.000000000000000472e-02 5.422869999999999635e-01 2.288450000000000273e+01 9.165569999999999595e+01 1.504224999999999909e+03
6.099999999999999867e-02 5.430604999999999460e-01 2.454749999999999943e+01 9.524814999999999543e+01 1.505394999999999982e+03
6.199999999999999956e-02 5.438254999999999617e-01 2.616590000000000060e+01 9.881589999999999918e+01 1.506569999999999936e+03
6.300000000000000044e-02 5.445780000000000065e-01 2.772494999999999976e+01 1.023289000000000044e+02 1.507740000000000009e+03
6.400000000000000133e-02 5.453135000000000066e-01 2.921325000000000216e+01 1.057648999999999972e+02 1.508894999999999982e+03
6.500000000000000222e-02 5.460289999999999866e-01 3.062265000000000015e+01 1.091072499999999934e+02 1.510029999999999973e+03
6.600000000000000311e-02 5.467239999999999878e-01 3.194789999999999708e+01 1.123449999999999989e+02 1.511139999999999873e+03
6.700000000000000400e-02 5.473974999999999813e-01 3.318630000000000280e+01 1.154745000000000061e+02 1.512215000000000146e+03
6.800000000000000488e-02 5.480499999999999261e-01 3.433715000000000117e+01 1.184944999999999879e+02 1.513264999999999873e+03
6.900000000000000577e-02 5.486830000000000318e-01 3.540120000000000289e+01 1.214079999999999870e+02 1.514285000000000082e+03
7.000000000000000666e-02 5.492964999999999653e-01 3.638020000000000209e+01 1.242214999999999918e+02 1.515269999999999982e+03
7.100000000000000755e-02 5.498929999999999652e-01 3.727639999999999532e+01 1.269410000000000025e+02 1.516230000000000018e+03
7.200000000000000844e-02 5.504734999999999490e-01 3.809220000000000539e+01 1.295734999999999957e+02 1.517164999999999964e+03
7.300000000000000933e-02 5.510389999999999455e-01 3.882990000000000208e+01 1.321250000000000000e+02 1.518070000000000164e+03
7.399999999999999634e-02 5.515894999999999548e-01 3.949124999999999375e+01 1.346000000000000227e+02 1.518954999999999927e+03
7.499999999999999722e-02 5.521260000000000057e-01 4.007744999999999891e+01 1.370020000000000095e+02 1.519809999999999945e+03
7.599999999999999811e-02 5.526469999999999994e-01 4.058905000000000030e+01 1.393305000000000007e+02 1.520639999999999873e+03
7.699999999999999900e-02 5.531519999999999770e-01 4.102579999999999671e+01 1.415829999999999984e+02 1.521450000000000045e+03
7.799999999999999989e-02 5.536400000000000210e-01 4.138715000000000543e+01 1.437560000000000002e+02 1.522235000000000127e+03
7.900000000000000078e-02 5.541085000000000038e-01 4.167184999999999917e+01 1.458414999999999964e+02 1.522990000000000009e+03
8.000000000000000167e-02 5.545569999999999666e-01 4.187855000000000416e+01 1.478335000000000150e+02 1.523710000000000036e+03
8.100000000000000255e-02 5.549815000000000165e-01 4.200600000000000023e+01 1.497210000000000036e+02 1.524405000000000200e+03
8.200000000000000344e-02 5.553814999999999724e-01 4.205304999999999893e+01 1.514964999999999975e+02 1.525054999999999836e+03
8.300000000000000433e-02 5.557545000000000401e-01 4.201905000000000001e+01 1.531494999999999891e+02 1.525670000000000073e+03
8.400000000000000522e-02 5.560985000000000511e-01 4.190380000000000393e+01 1.546734999999999900e+02 1.526240000000000009e+03
8.500000000000000611e-02 5.564124999999999766e-01 4.170799999999999841e+01 1.560604999999999905e+02 1.526764999999999873e+03
8.600000000000000699e-02 5.566955000000000098e-01 4.143280000000000030e+01 1.573044999999999902e+02 1.527244999999999891e+03
8.700000000000000788e-02 5.569465000000000110e-01 4.108019999999999783e+01 1.584025000000000034e+02 1.527675000000000182e+03
8.800000000000000877e-02 5.571654999999999802e-01 4.065309999999999491e+01 1.593524999999999920e+02 1.528054999999999836e+03
8.899999999999999578e-02 5.573525000000000285e-01 4.015494999999999948e+01 1.601555000000000177e+02 1.528389999999999873e+03
8.999999999999999667e-02 5.575084999999999624e-01 3.958995000000000175e+01 1.608125000000000000e+02 1.528670000000000073e+03
9.099999999999999756e-02 5.576339999999999630e-01 3.896314999999999884e+01 1.613280000000000030e+02 1.528900000000000091e+03
9.199999999999999845e-02 5.577300000000000590e-01 3.827994999999999948e+01 1.617079999999999984e+02 1.529085000000000036e+03
9.299999999999999933e-02 5.577985000000000859e-01 3.754659999999999798e+01 1.619584999999999866e+02 1.529220000000000027e+03
9.400000000000000022e-02 5.578419999999999490e-01 3.676959999999999695e+01 1.620905000000000200e+02 1.529320000000000164e+03
9.500000000000000111e-02 5.578615000000000101e-01 3.595609999999999928e+01 1.621125000000000114e+02 1.529375000000000000e+03
9.600000000000000200e-02 5.578600000000000225e-01 3.511355000000000359e+01 1.620360000000000014e+02 1.529394999999999982e+03
9.700000000000000289e-02 5.578400000000000025e-01 3.424944999999999595e+01 1.618734999999999786e+02 1.529380000000000109e+03
9.800000000000000377e-02 5.578045000000000364e-01 3.337144999999999584e+01 1.616379999999999768e+02 1.529329999999999927e+03
9.900000000000000466e-02 5.577554999999999596e-01 3.248695000000000022e+01 1.613404999999999916e+02 1.529264999999999873e+03
1.000000000000000056e-01 5.576965000000000394e-01 3.160309999999999775e+01 1.609954999999999927e+02 1.529170000000000073e+03
1.010000000000000064e-01 5.576295000000000002e-01 3.072625000000000028e+01 1.606134999999999877e+02 1.529065000000000055e+03
1.020000000000000073e-01 5.575565000000000104e-01 2.986214999999999975e+01 1.602060000000000173e+02 1.528950000000000045e+03
1.030000000000000082e-01 5.574799999999999756e-01 2.901545000000000130e+01 1.597835000000000036e+02 1.528815000000000055e+03
1.040000000000000091e-01 5.574010000000000353e-01 2.818965000000000032e+01 1.593530000000000086e+02 1.528680000000000064e+03
1.050000000000000100e-01 5.573209999999999553e-01 2.738705000000000211e+01 1.589209999999999923e+02 1.528539999999999964e+03
1.059999999999999970e-01 5.572399999999999576e-01 2.660864999999999725e+01 1.584925000000000068e+02 1.528400000000000091e+03
1.069999999999999979e-01 5.571595000000000297e-01 2.585425000000000040e+01 1.580685000000000002e+02 1.528255000000000109e+03
1.079999999999999988e-01 5.570779999999999621e-01 2.512234999999999729e+01 1.576494999999999891e+02 1.528110000000000127e+03
1.089999999999999997e-01 5.569960000000000466e-01 2.441060000000000230e+01 1.572334999999999923e+02 1.527965000000000146e+03
1.100000000000000006e-01 5.569119999999999626e-01 2.371569999999999823e+01 1.568179999999999836e+02 1.527819999999999936e+03
1.110000000000000014e-01 5.568245000000000555e-01 2.303365000000000151e+01 1.563979999999999961e+02 1.527674999999999955e+03
1.120000000000000023e-01 5.567330000000000334e-01 2.236014999999999731e+01 1.559680000000000177e+02 1.527519999999999982e+03
1.130000000000000032e-01 5.566364999999999785e-01 2.169069999999999965e+01 1.555215000000000032e+02 1.527365000000000009e+03
1.140000000000000041e-01 5.565335000000000143e-01 2.102084999999999937e+01 1.550540000000000020e+02 1.527200000000000045e+03
1.150000000000000050e-01 5.564225000000000421e-01 2.034635000000000105e+01 1.545595000000000141e+02 1.527034999999999854e+03
1.160000000000000059e-01 5.563035000000000618e-01 1.966355000000000075e+01 1.540320000000000107e+02 1.526855000000000018e+03
1.170000000000000068e-01 5.561749999999999750e-01 1.896914999999999907e+01 1.534685000000000059e+02 1.526664999999999964e+03
1.180000000000000077e-01 5.560374999999999623e-01 1.826079999999999970e+01 1.528659999999999854e+02 1.526465000000000146e+03
1.190000000000000085e-01 5.558899999999999952e-01 1.753679999999999950e+01 1.522220000000000084e+02 1.526250000000000000e+03
1.200000000000000094e-01 5.557334999999999914e-01 1.679640000000000200e+01 1.515380000000000109e+02 1.526025000000000091e+03
1.209999999999999964e-01 5.555685000000000207e-01 1.603969999999999985e+01 1.508149999999999977e+02 1.525784999999999854e+03
1.219999999999999973e-01 5.553955000000000419e-01 1.526769999999999960e+01 1.500554999999999950e+02 1.525529999999999973e+03
1.229999999999999982e-01 5.552155000000000840e-01 1.448236999999999952e+01 1.492640000000000100e+02 1.525269999999999982e+03
1.239999999999999991e-01 5.550304999999999822e-01 1.368616000000000099e+01 1.484459999999999980e+02 1.525000000000000000e+03
1.250000000000000000e-01 5.548414999999999875e-01 1.288248499999999908e+01 1.476084999999999923e+02 1.524720000000000027e+03
1.260000000000000009e-01 5.546515000000000750e-01 1.207532499999999942e+01 1.467584999999999980e+02 1.524440000000000055e+03
1.270000000000000018e-01 5.544609999999999816e-01 1.126898499999999892e+01 1.459050000000000011e+02 1.524155000000000200e+03
1.280000000000000027e-01 5.542719999999999869e-01 1.046825499999999920e+01 1.450550000000000068e+02 1.523869999999999891e+03
1.290000000000000036e-01 5.540874999999999551e-01 9.677989999999999426e+00 1.442180000000000177e+02 1.523589999999999918e+03
1.300000000000000044e-01 5.539089999999999847e-01 8.903154999999999930e+00 1.434030000000000200e+02 1.523309999999999945e+03
1.310000000000000053e-01 5.537374999999999936e-01 8.148550000000000182e+00 1.426175000000000068e+02 1.523039999999999964e+03
1.320000000000000062e-01 5.535744999999999694e-01 7.418714999999999726e+00 1.418679999999999950e+02 1.522784999999999854e+03
1.330000000000000071e-01 5.534225000000000394e-01 6.717875000000000263e+00 1.411625000000000227e+02 1.522534999999999854e+03
1.340000000000000080e-01 5.532814999999999817e-01 6.049579999999999735e+00 1.405049999999999955e+02 1.522305000000000064e+03
1.350000000000000089e-01 5.531519999999999770e-01 5.416914999999999480e+00 1.399010000000000105e+02 1.522085000000000036e+03
1.360000000000000098e-01 5.530364999999999309e-01 4.822224999999999540e+00 1.393530000000000086e+02 1.521889999999999873e+03
1.370000000000000107e-01 5.529330000000000078e-01 4.267115000000000435e+00 1.388629999999999995e+02 1.521704999999999927e+03
1.380000000000000115e-01 5.528425000000000145e-01 3.752454999999999874e+00 1.384304999999999950e+02 1.521545000000000073e+03
1.390000000000000124e-01 5.527644999999999920e-01 3.278344999999999843e+00 1.380540000000000020e+02 1.521400000000000091e+03
1.400000000000000133e-01 5.526974999999999527e-01 2.844184999999999963e+00 1.377319999999999993e+02 1.521275000000000091e+03
1.410000000000000142e-01 5.526420000000000776e-01 2.448714999999999975e+00 1.374600000000000080e+02 1.521164999999999964e+03
1.420000000000000151e-01 5.525955000000000172e-01 2.090094999999999814e+00 1.372344999999999970e+02 1.521070000000000164e+03
1.430000000000000160e-01 5.525579999999999936e-01 1.766021999999999981e+00 1.370494999999999948e+02 1.520990000000000009e+03
1.440000000000000169e-01 5.525275000000000603e-01 1.473818499999999920e+00 1.368990000000000009e+02 1.520920000000000073e+03
1.450000000000000178e-01 5.525025000000000075e-01 1.210551000000000155e+00 1.367775000000000034e+02 1.520865000000000009e+03
1.459999999999999909e-01 5.524820000000000286e-01 9.731564999999999799e-01 1.366789999999999736e+02 1.520815000000000055e+03
1.469999999999999918e-01 5.524645000000000250e-01 7.585184999999999844e-01 1.365964999999999918e+02 1.520775000000000091e+03
1.479999999999999927e-01 5.524485000000000090e-01 5.635995000000000310e-01 1.365244999999999891e+02 1.520740000000000009e+03
1.489999999999999936e-01 5.524335000000000218e-01 3.854894999999999849e-01 1.364579999999999984e+02 1.520704999999999927e+03
1.499999999999999944e-01 5.524189999999999934e-01 2.214975999999999889e-01 1.363915000000000077e+02 1.520675000000000182e+03
1.509999999999999953e-01 5.524025000000000185e-01 6.919150000000000300e-02 1.363220000000000027e+02 1.520639999999999873e+03
1.519999999999999962e-01 5.523845000000000560e-01 -7.356749999999999401e-02 1.362454999999999927e+02 1.520610000000000127e+03
1.529999999999999971e-01 5.523649999999999949e-01 -2.086060500000000151e-01 1.361594999999999800e+02 1.520575000000000045e+03
1.539999999999999980e-01 5.523424999999999585e-01 -3.374311999999999867e-01 1.360625000000000000e+02 1.520539999999999964e+03
1.549999999999999989e-01 5.523175000000000168e-01 -4.612439999999999873e-01 1.359524999999999864e+02 1.520500000000000000e+03
1.559999999999999998e-01 5.522894999999999888e-01 -5.809554999999999580e-01 1.358305000000000007e+02 1.520454999999999927e+03
1.570000000000000007e-01 5.522589999999999444e-01 -6.972135000000000415e-01 1.356949999999999932e+02 1.520409999999999854e+03
1.580000000000000016e-01 5.522265000000000645e-01 -8.104514999999999914e-01 1.355480000000000018e+02 1.520360000000000127e+03
1.590000000000000024e-01 5.521909999999999874e-01 -9.208975000000000355e-01 1.353885000000000218e+02 1.520309999999999945e+03
