# t [s], A [cm^2], U [cm/s], P [cPa], c [cm/s]
1.000000000000000021e-03 7.525390000000000690e-01 5.219550000000003354e-03 1.018495000000000061e+02 1.631465000000000146e+03
2.000000000000000042e-03 7.525269999999999460e-01 -3.044335000000000443e-03 1.018249999999999886e+02 1.631460000000000036e+03
3.000000000000000062e-03 7.525699999999999612e-01 5.842915000000000608e-02 1.018919999999999959e+02 1.631474999999999909e+03
4.000000000000000083e-03 7.526310000000000500e-01 1.508267000000000080e-01 1.020134999999999934e+02 1.631500000000000000e+03
5.000000000000000104e-03 7.526299999999999102e-01 1.638600000000000056e-01 1.020240000000000009e+02 1.631509999999999991e+03
6.000000000000000125e-03 7.525720000000000187e-01 9.522849999999999371e-02 1.018834999999999980e+02 1.631480000000000018e+03
7.000000000000000146e-03 7.525184999999999791e-01 2.862199999999998079e-02 1.016889999999999930e+02 1.631440000000000055e+03
8.000000000000000167e-03 7.524610000000000465e-01 -5.139450000000000962e-02 1.014399999999999977e+02 1.631389999999999873e+03
9.000000000000001055e-03 7.523585000000000411e-01 -2.104750000000000232e-01 1.010559999999999974e+02 1.631315000000000055e+03
1.000000000000000194e-02 7.521975000000000744e-01 -4.709350000000001035e-01 1.004860999999999933e+02 1.631204999999999927e+03
1.099999999999999936e-02 7.519659999999999123e-01 -8.474899999999999656e-01 9.968025000000000091e+01 1.631045000000000073e+03
1.200000000000000025e-02 7.516475000000000239e-01 -1.356169999999999654e+00 9.858289999999999509e+01 1.630820000000000164e+03
1.300000000000000114e-02 7.512494999999999035e-01 -1.970149999999999846e+00 9.718919999999999959e+01 1.630539999999999964e+03
1.400000000000000203e-02 7.508170000000000677e-01 -2.602015000000000189e+00 9.558275000000000432e+01 1.630204999999999927e+03
1.499999999999999944e-02 7.504059999999999064e-01 -3.139054999999999929e+00 9.390709999999999980e+01 1.629840000000000146e+03
1.600000000000000033e-02 7.500554999999999861e-01 -3.493703500000000073e+00 9.229829999999999757e+01 1.629474999999999909e+03
1.700000000000000122e-02 7.497724999999999529e-01 -3.631050299999999620e+00 9.083770000000001232e+01 1.629130000000000109e+03
1.800000000000000211e-02 7.495399999999999840e-01 -3.566982499999999945e+00 8.953605000000000302e+01 1.628804999999999836e+03
1.900000000000000300e-02 7.493239999999999901e-01 -3.348934000000000299e+00 8.834919999999999618e+01 1.628494999999999891e+03
2.000000000000000042e-02 7.490944999999999965e-01 -3.032554500000000264e+00 8.720695000000000618e+01 1.628190000000000055e+03
2.100000000000000130e-02 7.488295000000000368e-01 -2.662521499999999985e+00 8.604194999999999993e+01 1.627880000000000109e+03
2.200000000000000219e-02 7.485245000000000370e-01 -2.261558500000000027e+00 8.481245000000001255e+01 1.627555000000000064e+03
2.299999999999999961e-02 7.481880000000000752e-01 -1.829269999999999730e+00 8.351160000000000139e+01 1.627220000000000027e+03
2.400000000000000050e-02 7.478354999999999864e-01 -1.350124999999999797e+00 8.216280000000000427e+01 1.626869999999999891e+03
2.500000000000000139e-02 7.474855000000000249e-01 -8.067649999999997323e-01 8.080429999999999779e+01 1.626514999999999873e+03
2.600000000000000228e-02 7.471459999999999768e-01 -1.931449999999999001e-01 7.946934999999999150e+01 1.626164999999999964e+03
2.700000000000000316e-02 7.468170000000000641e-01 4.772199999999999775e-01 7.817019999999999413e+01 1.625820000000000164e+03
2.800000000000000058e-02 7.464865000000000528e-01 1.169965000000000144e+00 7.689015000000000555e+01 1.625480000000000018e+03
2.900000000000000147e-02 7.461335000000000051e-01 1.835075000000000012e+00 7.558554999999999779e+01 1.625134999999999991e+03
3.000000000000000236e-02 7.457369999999999832e-01 2.416490000000000027e+00 7.419559999999999889e+01 1.624769999999999982e+03
3.099999999999999978e-02 7.452790000000000248e-01 2.863550000000000040e+00 7.265784999999999627e+01 1.624384999999999991e+03
3.200000000000000067e-02 7.447489999999999943e-01 3.141500000000000625e+00 7.092454999999999643e+01 1.623960000000000036e+03
3.300000000000000155e-02 7.441499999999999782e-01 3.238375000000000004e+00 6.897674999999999557e+01 1.623494999999999891e+03
3.400000000000000244e-02 7.434970000000000745e-01 3.166810000000000347e+00 6.683140000000000214e+01 1.622990000000000009e+03
3.500000000000000333e-02 7.428135000000000154e-01 2.959884999999999877e+00 6.454035000000000366e+01 1.622454999999999927e+03
3.600000000000000422e-02 7.421275000000000510e-01 2.663534999999999986e+00 6.218224999999999625e+01 1.621904999999999973e+03
3.700000000000000511e-02 7.414684999999999748e-01 2.327255000000000074e+00 5.984955000000000069e+01 1.621355000000000018e+03
3.799999999999999906e-02 7.408604999999999219e-01 1.996239999999999792e+00 5.763504999999999967e+01 1.620819999999999936e+03
3.899999999999999994e-02 7.403235000000000232e-01 1.706159999999999677e+00 5.562109999999999843e+01 1.620335000000000036e+03
4.000000000000000083e-02 7.398685000000000400e-01 1.481635000000000257e+00 5.387255000000000393e+01 1.619894999999999982e+03
4.100000000000000172e-02 7.395024999999999515e-01 1.337094999999999922e+00 5.243475000000000108e+01 1.619525000000000091e+03
4.200000000000000261e-02 7.392259999999999387e-01 1.279699999999999838e+00 5.133449999999999847e+01 1.619224999999999909e+03
4.300000000000000350e-02 7.390404999999999891e-01 1.312855000000000105e+00 5.058445000000000391e+01 1.619005000000000109e+03
4.400000000000000439e-02 7.389440000000000452e-01 1.439436999999999856e+00 5.018769999999999953e+01 1.618865000000000009e+03
4.499999999999999833e-02 7.389364999999999961e-01 1.663964999999999916e+00 5.014274999999999949e+01 1.618809999999999945e+03
4.599999999999999922e-02 7.390189999999999815e-01 1.993365000000000054e+00 5.044660000000000366e+01 1.618835000000000036e+03
4.700000000000000011e-02 7.391909999999999314e-01 2.436274000000000051e+00 5.109645000000000437e+01 1.618945000000000164e+03
4.800000000000000100e-02 7.394549999999999734e-01 3.001309500000000074e+00 5.208899999999999864e+01 1.619134999999999991e+03
4.900000000000000189e-02 7.398089999999999389e-01 3.694897000000000098e+00 5.341875000000000284e+01 1.619404999999999973e+03
5.000000000000000278e-02 7.402499999999999636e-01 4.519214500000000356e+00 5.507554999999999978e+01 1.619750000000000000e+03
5.100000000000000366e-02 7.407734999999999737e-01 5.470824999999999605e+00 5.704279999999999973e+01 1.620174999999999955e+03
5.200000000000000455e-02 7.413719999999999200e-01 6.540155000000000385e+00 5.929574999999999818e+01 1.620664999999999964e+03
5.300000000000000544e-02 7.420329999999999426e-01 7.711903500000000022e+00 6.180169999999999675e+01 1.621220000000000027e+03
5.399999999999999939e-02 7.427464999999999762e-01 8.966229999999999478e+00 6.452105000000000246e+01 1.621835000000000036e+03
5.500000000000000028e-02 7.434984999999999511e-01 1.028045499999999990e+01 6.740900000000000603e+01 1.622490000000000009e+03
5.600000000000000117e-02 7.442759999999999376e-01 1.163085500000000039e+01 7.041864999999999952e+01 1.623184999999999945e+03
5.700000000000000205e-02 7.450674999999999937e-01 1.299442000000000164e+01 7.350355000000000416e+01 1.623905000000000200e+03
5.800000000000000294e-02 7.458614999999999551e-01 1.435037499999999966e+01 7.662055000000000859e+01 1.624640000000000100e+03
5.900000000000000383e-02 7.466504999999999947e-01 1.568093999999999966e+01 7.973199999999999932e+01 1.625380000000000109e+03
6.000000000000000472e-02 7.474279999999999813e-01 1.697222000000000008e+01 8.280729999999999791e+01 1.626119999999999891e+03
6.099999999999999867e-02 7.481884999999999231e-01 1.821395000000000053e+01 8.582319999999999993e+01 1.626855000000000018e+03
6.199999999999999956e-02 7.489310000000000134e-01 1.939935000000000187e+01 8.876425000000000409e+01 1.627574999999999818e+03
6.300000000000000044e-02 7.496540000000000425e-01 2.052439999999999998e+01 9.162215000000000487e+01 1.628279999999999973e+03
6.400000000000000133e-02 7.503575000000000106e-01 2.158749999999999858e+01 9.439449999999999363e+01 1.628965000000000146e+03
6.500000000000000222e-02 7.510430000000000161e-01 2.258859999999999957e+01 9.708269999999998845e+01 1.629639999999999873e+03
6.600000000000000311e-02 7.517125000000000057e-01 2.352864999999999895e+01 9.969134999999999991e+01 1.630295000000000073e+03
6.700000000000000400e-02 7.523664999999999381e-01 2.440890000000000271e+01 1.022273500000000013e+02 1.630934999999999945e+03
6.800000000000000488e-02 7.530075000000000518e-01 2.523055000000000092e+01 1.046971000000000060e+02 1.631565000000000055e+03
6.900000000000000577e-02 7.536354999999999027e-01 2.599445000000000050e+01 1.071059999999999945e+02 1.632170000000000073e+03
7.000000000000000666e-02 7.542515000000000747e-01 2.670064999999999955e+01 1.094579999999999984e+02 1.632769999999999982e+03
7.100000000000000755e-02 7.548544999999999838e-01 2.734850000000000136e+01 1.117535000000000025e+02 1.633355000000000018e+03
7.200000000000000844e-02 7.554434999999999345e-01 2.793650000000000233e+01 1.139915000000000020e+02 1.633924999999999955e+03
7.300000000000000933e-02 7.560165000000000912e-01 2.846229999999999905e+01 1.161670000000000016e+02 1.634480000000000018e+03
7.399999999999999634e-02 7.565709999999999935e-01 2.892329999999999757e+01 1.182725000000000080e+02 1.635019999999999982e+03
7.499999999999999722e-02 7.571049999999999169e-01 2.931674999999999898e+01 1.203000000000000114e+02 1.635545000000000073e+03
7.599999999999999811e-02 7.576149999999999274e-01 2.963989999999999725e+01 1.222384999999999877e+02 1.636045000000000073e+03
7.699999999999999900e-02 7.580994999999999262e-01 2.989049999999999940e+01 1.240790000000000077e+02 1.636525000000000091e+03
7.799999999999999989e-02 7.585539999999999505e-01 3.006689999999999685e+01 1.258104999999999905e+02 1.636974999999999909e+03
7.900000000000000078e-02 7.589785000000000004e-01 3.016819999999999879e+01 1.274240000000000066e+02 1.637404999999999973e+03
8.000000000000000167e-02 7.593699999999999894e-01 3.019440000000000168e+01 1.289120000000000061e+02 1.637800000000000182e+03
8.100000000000000255e-02 7.597279999999999589e-01 3.014625000000000199e+01 1.302680000000000007e+02 1.638164999999999964e+03
8.200000000000000344e-02 7.600510000000000321e-01 3.002510000000000190e+01 1.314879999999999995e+02 1.638500000000000000e+03
8.300000000000000433e-02 7.603385000000000282e-01 2.983319999999999794e+01 1.325695000000000050e+02 1.638800000000000182e+03
8.400000000000000522e-02 7.605904999999999472e-01 2.957319999999999993e+01 1.335115000000000123e+02 1.639065000000000055e+03
8.500000000000000611e-02 7.608070000000000110e-01 2.924820000000000064e+01 1.343145000000000095e+02 1.639299999999999955e+03
8.600000000000000699e-02 7.609890000000000265e-01 2.886225000000000307e+01 1.349805000000000064e+02 1.639494999999999891e+03
8.700000000000000788e-02 7.611369999999999525e-01 2.841949999999999932e+01 1.355140000000000100e+02 1.639660000000000082e+03
8.800000000000000877e-02 7.612524999999999986e-01 2.792495000000000260e+01 1.359200000000000159e+02 1.639789999999999964e+03
8.899999999999999578e-02 7.613380000000000702e-01 2.738435000000000130e+01 1.362044999999999959e+02 1.639894999999999982e+03
8.999999999999999667e-02 7.613944999999999741e-01 2.680384999999999707e+01 1.363774999999999977e+02 1.639965000000000146e+03
9.099999999999999756e-02 7.614255000000000884e-01 2.619024999999999892e+01 1.364474999999999909e+02 1.640009999999999991e+03
9.199999999999999845e-02 7.614339999999999442e-01 2.555089999999999861e+01 1.364265000000000043e+02 1.640029999999999973e+03
9.299999999999999933e-02 7.614225000000000021e-01 2.489339999999999975e+01 1.363265000000000100e+02 1.640029999999999973e+03
9.400000000000000022e-02 7.613950000000000440e-01 2.422524999999999906e+01 1.361599999999999966e+02 1.640009999999999991e+03
9.500000000000000111e-02 7.613540000000000862e-01 2.355379999999999896e+01 1.359404999999999859e+02 1.639974999999999909e+03
9.600000000000000200e-02 7.613035000000000219e-01 2.288604999999999734e+01 1.356804999999999950e+02 1.639924999999999955e+03
9.700000000000000289e-02 7.612459999999999782e-01 2.222780000000000200e+01 1.353915000000000077e+02 1.639869999999999891e+03
9.800000000000000377e-02 7.611839999999999717e-01 2.158415000000000106e+01 1.350849999999999795e+02 1.639799999999999955e+03
9.900000000000000466e-02 7.611189999999999900e-01 2.095904999999999774e+01 1.347694999999999936e+02 1.639730000000000018e+03
1.000000000000000056e-01 7.610525000000000206e-01 2.035495000000000232e+01 1.344515000000000100e+02 1.639654999999999973e+03
1.010000000000000064e-01 7.609865000000000101e-01 1.977304999999999779e+01 1.341370000000000005e+02 1.639585000000000036e+03
1.020000000000000073e-01 7.609200000000000408e-01 1.921334999999999837e+01 1.338285000000000196e+02 1.639505000000000109e+03
1.030000000000000082e-01 7.608534999999999604e-01 1.867480000000000118e+01 1.335260000000000105e+02 1.639429999999999836e+03
1.040000000000000091e-01 7.607869999999999910e-01 1.815514999999999901e+01 1.332289999999999850e+02 1.639349999999999909e+03
1.050000000000000100e-01 7.607184999999999642e-01 1.765165000000000006e+01 1.329350000000000023e+02 1.639279999999999973e+03
1.059999999999999970e-01 7.606475000000000319e-01 1.716080000000000183e+01 1.326404999999999745e+02 1.639200000000000045e+03
1.069999999999999979e-01 7.605729999999999436e-01 1.667879999999999896e+01 1.323404999999999916e+02 1.639125000000000000e+03
1.079999999999999988e-01 7.604934999999999334e-01 1.620175000000000054e+01 1.320310000000000059e+02 1.639045000000000073e+03
1.089999999999999997e-01 7.604079999999999728e-01 1.572579999999999956e+01 1.317074999999999818e+02 1.638960000000000036e+03
1.100000000000000006e-01 7.603159999999999918e-01 1.524740000000000073e+01 1.313650000000000091e+02 1.638875000000000000e+03
1.110000000000000014e-01 7.602174999999999905e-01 1.476330000000000098e+01 1.310010000000000048e+02 1.638789999999999964e+03
1.120000000000000023e-01 7.601104999999999112e-01 1.427094999999999914e+01 1.306120000000000232e+02 1.638690000000000055e+03
1.130000000000000032e-01 7.599955000000000460e-01 1.376824999999999832e+01 1.301974999999999909e+02 1.638590000000000146e+03
1.140000000000000041e-01 7.598734999999999795e-01 1.325422000000000011e+01 1.297574999999999932e+02 1.638480000000000018e+03
1.150000000000000050e-01 7.597445000000000448e-01 1.272837499999999977e+01 1.292930000000000064e+02 1.638375000000000000e+03
1.160000000000000059e-01 7.596100000000000074e-01 1.219127999999999901e+01 1.288069999999999879e+02 1.638250000000000000e+03
1.170000000000000068e-01 7.594710000000000072e-01 1.164440000000000097e+01 1.283044999999999902e+02 1.638134999999999991e+03
1.180000000000000077e-01 7.593305000000000193e-01 1.108989000000000047e+01 1.277899999999999920e+02 1.638005000000000109e+03
1.190000000000000085e-01 7.591890000000000027e-01 1.053077500000000022e+01 1.272720000000000056e+02 1.637880000000000109e+03
1.200000000000000094e-01 7.590494999999999326e-01 9.970690000000001163e+00 1.267570000000000050e+02 1.637760000000000218e+03
1.209999999999999964e-01 7.589150000000000063e-01 9.413820000000001187e+00 1.262554999999999978e+02 1.637630000000000109e+03
1.219999999999999973e-01 7.587870000000001003e-01 8.864670000000000272e+00 1.257750000000000057e+02 1.637515000000000100e+03
1.229999999999999982e-01 7.586690000000000378e-01 8.327919999999998879e+00 1.253255000000000052e+02 1.637404999999999973e+03
1.239999999999999991e-01 7.585625000000000284e-01 7.808245000000000324e+00 1.249155000000000086e+02 1.637300000000000182e+03
1.250000000000000000e-01 7.584695000000000187e-01 7.310130000000000017e+00 1.245535000000000139e+02 1.637204999999999927e+03
1.260000000000000009e-01 7.583925000000000249e-01 6.837669999999999249e+00 1.242469999999999857e+02 1.637125000000000000e+03
1.270000000000000018e-01 7.583325000000000760e-01 6.394384999999999764e+00 1.240030000000000001e+02 1.637054999999999836e+03
1.280000000000000027e-01 7.582910000000000483e-01 5.983109999999999928e+00 1.238245000000000005e+02 1.637005000000000109e+03
1.290000000000000036e-01 7.582685000000000120e-01 5.605875000000000163e+00 1.237155000000000058e+02 1.636970000000000027e+03
1.300000000000000044e-01 7.582645000000000080e-01 5.263849999999999696e+00 1.236765000000000043e+02 1.636950000000000045e+03
1.310000000000000053e-01 7.582780000000000076e-01 4.957309999999999661e+00 1.237065000000000055e+02 1.636944999999999936e+03
1.320000000000000062e-01 7.583094999999999697e-01 4.685649999999999871e+00 1.238034999999999997e+02 1.636960000000000036e+03
1.330000000000000071e-01 7.583569999999999478e-01 4.447479999999999656e+00 1.239629999999999939e+02 1.636985000000000127e+03
1.340000000000000080e-01 7.584180000000000366e-01 4.240695000000000547e+00 1.241784999999999997e+02 1.637030000000000200e+03
1.350000000000000089e-01 7.584919999999999440e-01 4.062594999999999956e+00 1.244439999999999884e+02 1.637079999999999927e+03
1.360000000000000098e-01 7.585760000000000280e-01 3.910065000000000346e+00 1.247514999999999930e+02 1.637144999999999982e+03
1.370000000000000107e-01 7.586675000000000502e-01 3.779670000000000307e+00 1.250919999999999987e+02 1.637220000000000027e+03
1.380000000000000115e-01 7.587654999999999816e-01 3.667860000000000120e+00 1.254569999999999936e+02 1.637300000000000182e+03
1.390000000000000124e-01 7.588660000000000405e-01 3.571054999999999868e+00 1.258389999999999986e+02 1.637389999999999873e+03
1.400000000000000133e-01 7.589685000000000459e-01 3.485800000000000232e+00 1.262284999999999968e+02 1.637474999999999909e+03
1.410000000000000142e-01 7.590710000000000512e-01 3.408840000000000092e+00 1.266184999999999974e+02 1.637570000000000164e+03
1.420000000000000151e-01 7.591704999999999703e-01 3.337190000000000101e+00 1.270024999999999977e+02 1.637659999999999854e+03
1.430000000000000160e-01 7.592674999999999841e-01 3.268225000000000158e+00 1.273750000000000000e+02 1.637750000000000000e+03
1.440000000000000169e-01 7.593594999999999651e-01 3.199670000000000236e+00 1.277300000000000040e+02 1.637835000000000036e+03
1.450000000000000178e-01 7.594464999999999133e-01 3.129640000000000200e+00 1.280645000000000095e+02 1.637920000000000073e+03
1.459999999999999909e-01 7.595270000000000632e-01 3.056624999999999925e+00 1.283754999999999882e+02 1.637994999999999891e+03
1.469999999999999918e-01 7.596015000000000406e-01 2.979515000000000136e+00 1.286605000000000132e+02 1.638065000000000055e+03
1.479999999999999927e-01 7.596689999999999277e-01 2.897520000000000095e+00 1.289184999999999945e+02 1.638134999999999991e+03
1.489999999999999936e-01 7.597294999999999465e-01 2.810210000000000097e+00 1.291490000000000009e+02 1.638194999999999936e+03
1.499999999999999944e-01 7.597834999999999450e-01 2.717424999999999979e+00 1.293530000000000086e+02 1.638250000000000000e+03
1.509999999999999953e-01 7.598314999999999930e-01 2.619270000000000209e+00 1.295295000000000130e+02 1.638299999999999955e+03
1.519999999999999962e-01 7.598730000000000206e-01 2.516049999999999898e+00 1.296804999999999950e+02 1.638339999999999918e+03
1.529999999999999971e-01 7.599080000000000279e-01 2.408220000000000027e+00 1.298075000000000045e+02 1.638375000000000000e+03
1.539999999999999980e-01 7.599380000000000024e-01 2.296370000000000022e+00 1.299110000000000014e+02 1.638405000000000200e+03
1.549999999999999989e-01 7.599624999999999853e-01 2.181110000000000326e+00 1.299934999999999832e+02 1.638430000000000064e+03
1.559999999999999998e-01 7.599825000000000053e-01 2.063080000000000247e+00 1.300554999999999950e+02 1.638450000000000045e+03
1.570000000000000007e-01 7.599974999999999925e-01 1.942899999999999849e+00 1.300985000000000014e+02 1.638465000000000146e+03
1.580000000000000016e-01 7.600074999999999470e-01 1.821089999999999876e+00 1.301235000000000070e+02 1.638480000000000018e+03
1.590000000000000024e-01 7.600135000000000085e-01 1.698115000000000041e+00 1.301310000000000002e+02 1.638480000000000018e+03
