# t [s], A [cm^2], U [cm/s], P [cPa], c [cm/s]
1.000000000000000021e-03 1.998925000000000007e-01 1.700780000000000070e-01 9.781749999999999545e+01 2.053890000000000327e+03
2.000000000000000042e-03 1.998594999999999955e-01 1.460838499999999929e+00 9.511404999999999177e+01 2.053654999999999745e+03
3.000000000000000062e-03 1.997450000000000059e-01 3.108724999999999739e+00 9.135444999999999993e+01 2.052900000000000091e+03
4.000000000000000083e-03 1.995754999999999890e-01 4.970368999999999815e+00 8.699445000000000050e+01 2.051795000000000073e+03
5.000000000000000104e-03 1.993824999999999903e-01 6.991964999999999542e+00 8.277630000000000621e+01 2.050554999999999836e+03
6.000000000000000125e-03 1.991879999999999762e-01 9.068189999999999529e+00 7.913525000000001342e+01 2.049309999999999945e+03
7.000000000000000146e-03 1.990029999999999855e-01 1.103059999999999974e+01 7.606954999999999245e+01 2.048150000000000091e+03
8.000000000000000167e-03 1.988294999999999924e-01 1.274704999999999977e+01 7.337094999999999345e+01 2.047079999999999927e+03
9.000000000000001055e-03 1.986720000000000153e-01 1.419552499999999995e+01 7.096540000000000248e+01 2.046120000000000118e+03
1.000000000000000194e-02 1.985339999999999883e-01 1.540590000000000082e+01 6.891679999999999495e+01 2.045295000000000073e+03
1.099999999999999936e-02 1.984184999999999977e-01 1.640040000000000120e+01 6.726494999999999891e+01 2.044605000000000018e+03
1.200000000000000025e-02 1.983250000000000013e-01 1.719099999999999895e+01 6.598690000000000566e+01 2.044055000000000064e+03
1.300000000000000114e-02 1.982499999999999818e-01 1.778350000000000009e+01 6.501834999999999809e+01 2.043625000000000000e+03
1.400000000000000203e-02 1.981910000000000061e-01 1.817804999999999893e+01 6.426024999999999920e+01 2.043284999999999854e+03
1.499999999999999944e-02 1.981430000000000136e-01 1.838875000000000171e+01 6.362189999999999657e+01 2.043025000000000091e+03
1.600000000000000033e-02 1.981050000000000033e-01 1.847090000000000032e+01 6.310839999999999606e+01 2.042825000000000045e+03
1.700000000000000122e-02 1.980794999999999917e-01 1.852324999999999733e+01 6.286825000000000330e+01 2.042695000000000164e+03
1.800000000000000211e-02 1.980750000000000011e-01 1.865480000000000160e+01 6.313690000000000424e+01 2.042680000000000064e+03
1.900000000000000300e-02 1.980954999999999799e-01 1.893795000000000073e+01 6.410720000000000596e+01 2.042809999999999945e+03
2.000000000000000042e-02 1.981445000000000012e-01 1.937794999999999845e+01 6.581080000000000041e+01 2.043110000000000127e+03
2.100000000000000130e-02 1.982185000000000197e-01 1.991315000000000168e+01 6.807739999999999725e+01 2.043549999999999727e+03
2.200000000000000219e-02 1.983084999999999987e-01 2.044154999999999944e+01 7.058314999999998918e+01 2.044095000000000027e+03
2.299999999999999961e-02 1.984025000000000094e-01 2.085780000000000101e+01 7.295429999999998927e+01 2.044670000000000073e+03
2.400000000000000050e-02 1.984889999999999988e-01 2.108605000000000018e+01 7.487780000000000769e+01 2.045210000000000036e+03
2.500000000000000139e-02 1.985600000000000143e-01 2.109709999999999752e+01 7.617904999999998950e+01 2.045655000000000200e+03
2.600000000000000228e-02 1.986114999999999964e-01 2.090879999999999939e+01 7.684610000000000696e+01 2.045984999999999900e+03
2.700000000000000316e-02 1.986430000000000140e-01 2.057069999999999865e+01 7.700045000000000073e+01 2.046190000000000055e+03
2.800000000000000058e-02 1.986594999999999889e-01 2.014204999999999757e+01 7.683254999999999768e+01 2.046304999999999836e+03
2.900000000000000147e-02 1.986654999999999949e-01 1.967050000000000054e+01 7.652774999999999750e+01 2.046355000000000018e+03
3.000000000000000236e-02 1.986660000000000093e-01 1.917914999999999992e+01 7.620875000000000909e+01 2.046360000000000127e+03
3.099999999999999978e-02 1.986634999999999929e-01 1.866425000000000267e+01 7.590989999999999327e+01 2.046345000000000027e+03
3.200000000000000067e-02 1.986570000000000003e-01 1.810314999999999941e+01 7.558700000000000330e+01 2.046305000000000064e+03
3.300000000000000155e-02 1.986455000000000026e-01 1.746819999999999951e+01 7.515295000000000414e+01 2.046245000000000118e+03
3.400000000000000244e-02 1.986269999999999980e-01 1.674135000000000062e+01 7.452500000000000568e+01 2.046140000000000100e+03
3.500000000000000333e-02 1.985994999999999844e-01 1.592600000000000016e+01 7.366825000000000045e+01 2.045974999999999909e+03
3.600000000000000422e-02 1.985640000000000183e-01 1.505135000000000112e+01 7.262155000000001337e+01 2.045769999999999982e+03
3.700000000000000511e-02 1.985230000000000050e-01 1.416949999999999932e+01 7.149979999999999336e+01 2.045529999999999973e+03
3.799999999999999906e-02 1.984825000000000061e-01 1.334505000000000052e+01 7.047095000000000198e+01 2.045289999999999964e+03
3.899999999999999994e-02 1.984474999999999989e-01 1.264100000000000001e+01 6.971750000000000114e+01 2.045075000000000045e+03
4.000000000000000083e-02 1.984250000000000180e-01 1.210535000000000139e+01 6.939164999999999850e+01 2.044924999999999955e+03
4.100000000000000172e-02 1.984179999999999833e-01 1.176060000000000016e+01 6.957849999999999113e+01 2.044879999999999882e+03
4.200000000000000261e-02 1.984299999999999953e-01 1.160050000000000026e+01 7.027664999999998940e+01 2.044940000000000055e+03
4.300000000000000350e-02 1.984589999999999965e-01 1.159174999999999933e+01 7.139860000000000184e+01 2.045099999999999909e+03
4.400000000000000439e-02 1.985020000000000118e-01 1.168210000000000015e+01 7.278964999999999463e+01 2.045349999999999909e+03
4.499999999999999833e-02 1.985529999999999795e-01 1.181000000000000050e+01 7.425820000000000221e+01 2.045650000000000091e+03
4.599999999999999922e-02 1.986054999999999904e-01 1.191450000000000031e+01 7.560954999999999870e+01 2.045964999999999918e+03
4.700000000000000011e-02 1.986535000000000106e-01 1.194399999999999906e+01 7.667544999999999789e+01 2.046255000000000109e+03
4.800000000000000100e-02 1.986904999999999921e-01 1.186059999999999981e+01 7.733464999999999634e+01 2.046480000000000018e+03
4.900000000000000189e-02 1.987125000000000141e-01 1.164250000000000007e+01 7.752134999999999820e+01 2.046620000000000118e+03
5.000000000000000278e-02 1.987185000000000201e-01 1.128229999999999933e+01 7.722319999999999141e+01 2.046660000000000082e+03
5.100000000000000366e-02 1.987059999999999937e-01 1.078395000000000081e+01 7.647055000000000291e+01 2.046589999999999918e+03
5.200000000000000455e-02 1.986769999999999925e-01 1.015896000000000043e+01 7.532205000000000439e+01 2.046424999999999955e+03
5.300000000000000544e-02 1.986324999999999896e-01 9.422510000000000829e+00 7.384919999999999618e+01 2.046164999999999964e+03
5.399999999999999939e-02 1.985755000000000159e-01 8.591139999999999333e+00 7.212440000000000850e+01 2.045820000000000164e+03
5.500000000000000028e-02 1.985069999999999890e-01 7.681179999999999453e+00 7.021359999999999957e+01 2.045414999999999964e+03
5.600000000000000117e-02 1.984305000000000097e-01 6.708924999999999805e+00 6.817359999999999332e+01 2.044955000000000155e+03
5.700000000000000205e-02 1.983479999999999965e-01 5.691275000000000084e+00 6.605384999999999707e+01 2.044454999999999927e+03
5.800000000000000294e-02 1.982605000000000062e-01 4.647035000000000693e+00 6.390080000000000382e+01 2.043925000000000182e+03
5.900000000000000383e-02 1.981715000000000004e-01 3.597947500000000076e+00 6.176219999999999288e+01 2.043389999999999873e+03
6.000000000000000472e-02 1.980824999999999947e-01 2.569344749999999955e+00 5.969154999999999944e+01 2.042849999999999909e+03
6.099999999999999867e-02 1.979960000000000053e-01 1.589994000000000129e+00 5.774974999999999881e+01 2.042324999999999818e+03
6.199999999999999956e-02 1.979150000000000076e-01 6.913099999999998690e-01 5.600484999999999758e+01 2.041829999999999927e+03
6.300000000000000044e-02 1.978420000000000178e-01 -9.416499999999994319e-02 5.452935000000000088e+01 2.041384999999999764e+03
6.400000000000000133e-02 1.977800000000000114e-01 -7.346049999999999525e-01 5.339544999999999675e+01 2.041000000000000000e+03
6.500000000000000222e-02 1.977315000000000045e-01 -1.201000500000000137e+00 5.266984999999999673e+01 2.040704999999999927e+03
6.600000000000000311e-02 1.977009999999999879e-01 -1.469023999999999885e+00 5.240840000000000032e+01 2.040505000000000109e+03
6.700000000000000400e-02 1.976884999999999892e-01 -1.520645000000000024e+00 5.265124999999999744e+01 2.040414999999999964e+03
6.800000000000000488e-02 1.976964999999999972e-01 -1.345164000000000026e+00 5.342000000000000171e+01 2.040444999999999936e+03
6.900000000000000577e-02 1.977260000000000129e-01 -9.397444999999999826e-01 5.471609999999999729e+01 2.040610000000000127e+03
7.000000000000000666e-02 1.977770000000000084e-01 -3.093200000000000394e-01 5.652094999999999914e+01 2.040900000000000091e+03
7.100000000000000755e-02 1.978480000000000238e-01 5.339650000000000230e-01 5.879809999999999803e+01 2.041320000000000164e+03
7.200000000000000844e-02 1.979390000000000038e-01 1.571755000000000013e+00 6.149589999999999890e+01 2.041855000000000018e+03
7.300000000000000933e-02 1.980474999999999874e-01 2.780777000000000054e+00 6.455185000000000173e+01 2.042494999999999891e+03
7.399999999999999634e-02 1.981709999999999861e-01 4.134317499999999868e+00 6.789685000000000059e+01 2.043230000000000018e+03
7.499999999999999722e-02 1.983070000000000110e-01 5.603785000000000238e+00 7.145990000000000464e+01 2.044049999999999955e+03
7.599999999999999811e-02 1.984525000000000039e-01 7.160265000000000768e+00 7.517215000000000202e+01 2.044924999999999955e+03
7.699999999999999900e-02 1.986054999999999904e-01 8.775850000000000151e+00 7.897100000000000364e+01 2.045849999999999909e+03
7.799999999999999989e-02 1.987639999999999962e-01 1.042486500000000049e+01 8.280269999999998731e+01 2.046799999999999955e+03
7.900000000000000078e-02 1.989239999999999897e-01 1.208463499999999868e+01 8.662434999999999263e+01 2.047775000000000091e+03
8.000000000000000167e-02 1.990859999999999852e-01 1.373620000000000019e+01 9.040505000000000280e+01 2.048760000000000218e+03
8.100000000000000255e-02 1.992470000000000074e-01 1.536410000000000053e+01 9.412514999999999077e+01 2.049744999999999891e+03
8.200000000000000344e-02 1.994064999999999865e-01 1.695660000000000167e+01 9.777439999999999998e+01 2.050719999999999800e+03
8.300000000000000433e-02 1.995645000000000058e-01 1.850489999999999924e+01 1.013521000000000072e+02 2.051684999999999945e+03
8.400000000000000522e-02 1.997204999999999953e-01 2.000270000000000081e+01 1.048617999999999881e+02 2.052644999999999982e+03
8.500000000000000611e-02 1.998745000000000105e-01 2.144569999999999865e+01 1.083110000000000070e+02 2.053590000000000146e+03
8.600000000000000699e-02 2.000260000000000093e-01 2.283060000000000045e+01 1.117049999999999983e+02 2.054525000000000091e+03
8.700000000000000788e-02 2.001764999999999795e-01 2.415465000000000018e+01 1.150519999999999925e+02 2.055449999999999818e+03
8.800000000000000877e-02 2.003250000000000031e-01 2.541564999999999941e+01 1.183534999999999968e+02 2.056369999999999891e+03
8.899999999999999578e-02 2.004715000000000247e-01 2.661094999999999899e+01 1.216099999999999994e+02 2.057279999999999745e+03
8.999999999999999667e-02 2.006164999999999754e-01 2.773805000000000121e+01 1.248174999999999955e+02 2.058180000000000291e+03
9.099999999999999756e-02 2.007594999999999796e-01 2.879420000000000002e+01 1.279680000000000035e+02 2.059065000000000055e+03
9.199999999999999845e-02 2.008999999999999952e-01 2.977640000000000242e+01 1.310529999999999973e+02 2.059935000000000400e+03
9.299999999999999933e-02 2.010379999999999945e-01 3.068160000000000309e+01 1.340604999999999905e+02 2.060795000000000073e+03
9.400000000000000022e-02 2.011725000000000041e-01 3.150685000000000002e+01 1.369784999999999968e+02 2.061635000000000218e+03
9.500000000000000111e-02 2.013035000000000241e-01 3.224909999999999854e+01 1.397934999999999945e+02 2.062449999999999818e+03
9.600000000000000200e-02 2.014299999999999979e-01 3.290540000000000020e+01 1.424914999999999736e+02 2.063235000000000127e+03
9.700000000000000289e-02 2.015520000000000089e-01 3.347274999999999778e+01 1.450595000000000141e+02 2.063994999999999891e+03
9.800000000000000377e-02 2.016680000000000139e-01 3.394835000000000491e+01 1.474844999999999970e+02 2.064720000000000255e+03
9.900000000000000466e-02 2.017784999999999995e-01 3.432925000000000182e+01 1.497524999999999977e+02 2.065414999999999964e+03
1.000000000000000056e-01 2.018820000000000059e-01 3.461280000000000001e+01 1.518520000000000039e+02 2.066059999999999945e+03
1.010000000000000064e-01 2.019785000000000053e-01 3.479664999999999964e+01 1.537705000000000268e+02 2.066664999999999964e+03
1.020000000000000073e-01 2.020669999999999966e-01 3.487895000000000323e+01 1.554970000000000141e+02 2.067224999999999909e+03
1.030000000000000082e-01 2.021474999999999800e-01 3.485840000000000316e+01 1.570229999999999961e+02 2.067734999999999673e+03
1.040000000000000091e-01 2.022194999999999965e-01 3.473479999999999990e+01 1.583425000000000011e+02 2.068189999999999600e+03
1.050000000000000100e-01 2.022824999999999762e-01 3.450914999999999822e+01 1.594509999999999934e+02 2.068590000000000146e+03
1.059999999999999970e-01 2.023365000000000025e-01 3.418390000000000128e+01 1.603489999999999895e+02 2.068934999999999945e+03
1.069999999999999979e-01 2.023814999999999920e-01 3.376274999999999693e+01 1.610400000000000205e+02 2.069224999999999909e+03
1.079999999999999988e-01 2.024179999999999868e-01 3.325124999999999886e+01 1.615330000000000155e+02 2.069454999999999927e+03
1.089999999999999997e-01 2.024460000000000148e-01 3.265630000000000166e+01 1.618400000000000034e+02 2.069635000000000218e+03
1.100000000000000006e-01 2.024655000000000205e-01 3.198615000000000208e+01 1.619759999999999991e+02 2.069769999999999982e+03
1.110000000000000014e-01 2.024779999999999913e-01 3.125025000000000119e+01 1.619594999999999914e+02 2.069849999999999909e+03
1.120000000000000023e-01 2.024839999999999973e-01 3.045870000000000033e+01 1.618110000000000070e+02 2.069894999999999982e+03
1.130000000000000032e-01 2.024834999999999829e-01 2.962225000000000108e+01 1.615529999999999973e+02 2.069894999999999982e+03
1.140000000000000041e-01 2.024779999999999913e-01 2.875169999999999959e+01 1.612050000000000125e+02 2.069869999999999891e+03
1.150000000000000050e-01 2.024684999999999957e-01 2.785759999999999792e+01 1.607900000000000205e+02 2.069814999999999600e+03
1.160000000000000059e-01 2.024555000000000105e-01 2.695015000000000072e+01 1.603259999999999934e+02 2.069739999999999782e+03
1.170000000000000068e-01 2.024400000000000088e-01 2.603849999999999909e+01 1.598310000000000173e+02 2.069644999999999982e+03
1.180000000000000077e-01 2.024225000000000052e-01 2.513105000000000189e+01 1.593195000000000050e+02 2.069539999999999964e+03
1.190000000000000085e-01 2.024040000000000006e-01 2.423474999999999824e+01 1.588029999999999973e+02 2.069425000000000182e+03
1.200000000000000094e-01 2.023850000000000093e-01 2.335535000000000139e+01 1.582900000000000205e+02 2.069305000000000291e+03
1.209999999999999964e-01 2.023649999999999893e-01 2.249705000000000155e+01 1.577860000000000014e+02 2.069184999999999945e+03
1.219999999999999973e-01 2.023449999999999971e-01 2.166280000000000072e+01 1.572925000000000182e+02 2.069059999999999945e+03
1.229999999999999982e-01 2.023250000000000048e-01 2.085390000000000299e+01 1.568079999999999927e+02 2.068935000000000400e+03
1.239999999999999991e-01 2.023050000000000126e-01 2.007059999999999889e+01 1.563305000000000007e+02 2.068809999999999945e+03
1.250000000000000000e-01 2.022849999999999926e-01 1.931174999999999997e+01 1.558530000000000086e+02 2.068680000000000291e+03
1.260000000000000009e-01 2.022645000000000137e-01 1.857519999999999882e+01 1.553675000000000068e+02 2.068554999999999836e+03
1.270000000000000018e-01 2.022439999999999793e-01 1.785800000000000054e+01 1.548665000000000020e+02 2.068420000000000073e+03
1.280000000000000027e-01 2.022214999999999985e-01 1.715644999999999953e+01 1.543379999999999939e+02 2.068284999999999854e+03
1.290000000000000036e-01 2.021985000000000032e-01 1.646675000000000111e+01 1.537729999999999961e+02 2.068135000000000218e+03
1.300000000000000044e-01 2.021739999999999926e-01 1.578460000000000107e+01 1.531624999999999943e+02 2.067980000000000018e+03
1.310000000000000053e-01 2.021469999999999934e-01 1.510604999999999976e+01 1.524964999999999975e+02 2.067809999999999945e+03
1.320000000000000062e-01 2.021179999999999921e-01 1.442749999999999844e+01 1.517674999999999841e+02 2.067630000000000109e+03
1.330000000000000071e-01 2.020859999999999879e-01 1.374585000000000079e+01 1.509705000000000155e+02 2.067430000000000291e+03
1.340000000000000080e-01 2.020510000000000084e-01 1.305884999999999962e+01 1.501020000000000039e+02 2.067215000000000146e+03
1.350000000000000089e-01 2.020129999999999981e-01 1.236524999999999963e+01 1.491614999999999895e+02 2.066975000000000364e+03
1.360000000000000098e-01 2.019724999999999993e-01 1.166476000000000113e+01 1.481519999999999868e+02 2.066724999999999909e+03
1.370000000000000107e-01 2.019289999999999974e-01 1.095842000000000027e+01 1.470780000000000030e+02 2.066454999999999927e+03
1.380000000000000115e-01 2.018820000000000059e-01 1.024842500000000101e+01 1.459480000000000075e+02 2.066170000000000073e+03
1.390000000000000124e-01 2.018340000000000134e-01 9.537969999999999615e+00 1.447719999999999914e+02 2.065864999999999782e+03
1.400000000000000133e-01 2.017829999999999901e-01 8.831405000000000172e+00 1.435645000000000095e+02 2.065554999999999836e+03
1.410000000000000142e-01 2.017309999999999937e-01 8.133905000000000385e+00 1.423404999999999916e+02 2.065230000000000018e+03
1.420000000000000151e-01 2.016789999999999972e-01 7.451175000000000104e+00 1.411150000000000091e+02 2.064904999999999745e+03
1.430000000000000160e-01 2.016255000000000130e-01 6.789435000000000109e+00 1.399060000000000059e+02 2.064579999999999927e+03
1.440000000000000169e-01 2.015735000000000166e-01 6.154920000000000613e+00 1.387300000000000182e+02 2.064255000000000109e+03
1.450000000000000178e-01 2.015224999999999933e-01 5.553720000000000212e+00 1.376020000000000039e+02 2.063940000000000055e+03
1.459999999999999909e-01 2.014734999999999998e-01 4.991469999999999629e+00 1.365374999999999943e+02 2.063635000000000218e+03
1.469999999999999918e-01 2.014270000000000227e-01 4.473145000000000593e+00 1.355480000000000018e+02 2.063345000000000255e+03
1.479999999999999927e-01 2.013829999999999787e-01 4.002834999999999255e+00 1.346435000000000173e+02 2.063069999999999709e+03
1.489999999999999936e-01 2.013429999999999942e-01 3.583624999999999616e+00 1.338309999999999889e+02 2.062819999999999709e+03
1.499999999999999944e-01 2.013064999999999993e-01 3.217499999999999805e+00 1.331139999999999759e+02 2.062585000000000036e+03
1.509999999999999953e-01 2.012740000000000085e-01 2.905289999999999928e+00 1.324939999999999998e+02 2.062385000000000218e+03
1.519999999999999962e-01 2.012450000000000072e-01 2.646719999999999740e+00 1.319705000000000155e+02 2.062194999999999709e+03
1.529999999999999971e-01 2.012200000000000100e-01 2.440434999999999910e+00 1.315380000000000109e+02 2.062039999999999964e+03
1.539999999999999980e-01 2.011989999999999890e-01 2.284120000000000150e+00 1.311920000000000073e+02 2.061904999999999745e+03
1.549999999999999989e-01 2.011815000000000131e-01 2.174599999999999866e+00 1.309240000000000066e+02 2.061795000000000073e+03
1.559999999999999998e-01 2.011674999999999991e-01 2.108019999999999783e+00 1.307250000000000227e+02 2.061699999999999818e+03
1.570000000000000007e-01 2.011565000000000158e-01 2.079969999999999875e+00 1.305860000000000127e+02 2.061630000000000109e+03
1.580000000000000016e-01 2.011475000000000068e-01 2.085650000000000226e+00 1.304959999999999809e+02 2.061569999999999709e+03
1.590000000000000024e-01 2.011410000000000142e-01 2.120049999999999990e+00 1.304449999999999932e+02 2.061525000000000091e+03
