# t [s], A [cm^2], U [cm/s], P [cPa], c [cm/s]
1.000000000000000021e-03 1.944184999999999941e-01 4.069949500000000220e-01 9.468080000000000496e+01 2.166940000000000055e+03
2.000000000000000042e-03 1.943584999999999896e-01 2.005685999999999858e+00 9.094030000000000769e+01 2.166500000000000000e+03
3.000000000000000062e-03 1.942105000000000081e-01 3.945412000000000585e+00 8.588654999999999973e+01 2.165434999999999945e+03
4.000000000000000083e-03 1.940175000000000094e-01 6.127561000000000035e+00 8.071280000000000143e+01 2.164064999999999600e+03
5.000000000000000104e-03 1.938190000000000190e-01 8.445274999999998755e+00 7.637550000000000239e+01 2.162670000000000073e+03
6.000000000000000125e-03 1.936320000000000263e-01 1.064497000000000071e+01 7.291190000000000282e+01 2.161375000000000000e+03
7.000000000000000146e-03 1.934580000000000188e-01 1.251442999999999905e+01 6.987194999999999823e+01 2.160194999999999709e+03
8.000000000000000167e-03 1.933020000000000016e-01 1.405214499999999944e+01 6.714900000000000091e+01 2.159150000000000091e+03
9.000000000000001055e-03 1.931689999999999796e-01 1.531929999999999836e+01 6.488935000000000741e+01 2.158269999999999982e+03
1.000000000000000194e-02 1.930590000000000084e-01 1.633644999999999925e+01 6.310320000000000107e+01 2.157560000000000400e+03
1.099999999999999936e-02 1.929720000000000046e-01 1.711749999999999972e+01 6.171139999999999759e+01 2.156994999999999891e+03
1.200000000000000025e-02 1.929019999999999901e-01 1.767054999999999865e+01 6.060365000000000180e+01 2.156550000000000182e+03
1.300000000000000114e-02 1.928444999999999743e-01 1.800389999999999802e+01 5.963654999999999973e+01 2.156194999999999709e+03
1.400000000000000203e-02 1.927975000000000105e-01 1.818715000000000259e+01 5.879599999999999937e+01 2.155904999999999745e+03
1.499999999999999944e-02 1.927645000000000053e-01 1.838370000000000104e+01 5.837134999999999962e+01 2.155710000000000036e+03
1.600000000000000033e-02 1.927590000000000137e-01 1.878324999999999889e+01 5.885285000000000366e+01 2.155684999999999945e+03
1.700000000000000122e-02 1.927919999999999912e-01 1.948574999999999946e+01 6.058449999999999847e+01 2.155904999999999745e+03
1.800000000000000211e-02 1.928644999999999943e-01 2.043130000000000024e+01 6.346119999999999806e+01 2.156380000000000109e+03
1.900000000000000300e-02 1.929655000000000120e-01 2.142190000000000083e+01 6.689154999999999518e+01 2.157050000000000182e+03
2.000000000000000042e-02 1.930735000000000090e-01 2.221130000000000138e+01 7.002809999999999491e+01 2.157765000000000327e+03
2.100000000000000130e-02 1.931634999999999880e-01 2.260750000000000171e+01 7.211119999999999663e+01 2.158385000000000218e+03
2.200000000000000219e-02 1.932200000000000029e-01 2.254050000000000153e+01 7.274954999999999927e+01 2.158784999999999854e+03
2.299999999999999961e-02 1.932355000000000045e-01 2.207184999999999775e+01 7.202235000000000298e+01 2.158914999999999964e+03
2.400000000000000050e-02 1.932159999999999989e-01 2.135034999999999883e+01 7.038089999999999691e+01 2.158810000000000400e+03
2.500000000000000139e-02 1.931744999999999990e-01 2.054055000000000319e+01 6.841810000000000969e+01 2.158550000000000182e+03
2.600000000000000228e-02 1.931260000000000199e-01 1.975939999999999941e+01 6.662340000000000373e+01 2.158230000000000018e+03
2.700000000000000316e-02 1.930795000000000150e-01 1.904480000000000217e+01 6.522560000000000002e+01 2.157920000000000073e+03
2.800000000000000058e-02 1.930390000000000161e-01 1.836329999999999885e+01 6.417114999999999725e+01 2.157650000000000091e+03
2.900000000000000147e-02 1.930010000000000059e-01 1.764474999999999838e+01 6.321835000000000093e+01 2.157394999999999982e+03
3.000000000000000236e-02 1.929605000000000070e-01 1.682734999999999914e+01 6.209064999999999657e+01 2.157130000000000109e+03
3.099999999999999978e-02 1.929115000000000135e-01 1.589509999999999934e+01 6.062460000000000093e+01 2.156809999999999945e+03
3.200000000000000067e-02 1.928535000000000110e-01 1.489529999999999887e+01 5.886039999999999850e+01 2.156430000000000291e+03
3.300000000000000155e-02 1.927905000000000035e-01 1.393109999999999893e+01 5.704724999999999824e+01 2.156015000000000327e+03
3.400000000000000244e-02 1.927320000000000144e-01 1.313199999999999967e+01 5.556685000000000230e+01 2.155625000000000000e+03
3.500000000000000333e-02 1.926889999999999992e-01 1.261410000000000053e+01 5.480474999999999852e+01 2.155329999999999927e+03
3.600000000000000422e-02 1.926720000000000099e-01 1.244389999999999930e+01 5.501919999999999789e+01 2.155204999999999927e+03
3.700000000000000511e-02 1.926864999999999828e-01 1.261720000000000041e+01 5.625175000000000125e+01 2.155284999999999854e+03
3.799999999999999906e-02 1.927309999999999857e-01 1.305904999999999916e+01 5.830634999999999479e+01 2.155560000000000400e+03
3.899999999999999994e-02 1.927979999999999972e-01 1.364150000000000063e+01 6.079534999999999911e+01 2.155989999999999782e+03
4.000000000000000083e-02 1.928739999999999899e-01 1.421140000000000114e+01 6.323089999999999833e+01 2.156489999999999782e+03
4.100000000000000172e-02 1.929454999999999920e-01 1.462119999999999997e+01 6.513034999999999286e+01 2.156954999999999927e+03
4.200000000000000261e-02 1.929980000000000029e-01 1.475260000000000105e+01 6.610760000000000502e+01 2.157309999999999945e+03
4.300000000000000350e-02 1.930199999999999971e-01 1.453134999999999977e+01 6.593000000000000682e+01 2.157470000000000255e+03
4.400000000000000439e-02 1.930054999999999965e-01 1.393090000000000117e+01 6.453520000000000323e+01 2.157380000000000109e+03
4.499999999999999833e-02 1.929524999999999990e-01 1.296669999999999945e+01 6.201149999999999807e+01 2.157045000000000073e+03
4.599999999999999922e-02 1.928635000000000210e-01 1.168522499999999908e+01 5.855494999999999806e+01 2.156470000000000255e+03
4.700000000000000011e-02 1.927435000000000120e-01 1.015142999999999951e+01 5.441765000000000185e+01 2.155684999999999945e+03
4.800000000000000100e-02 1.926009999999999944e-01 8.437850000000000961e+00 4.986230000000000473e+01 2.154750000000000000e+03
4.900000000000000189e-02 1.924425000000000163e-01 6.617094999999999949e+00 4.513070000000000448e+01 2.153704999999999927e+03
5.000000000000000278e-02 1.922765000000000168e-01 4.758626500000000092e+00 4.042965000000000231e+01 2.152605000000000018e+03
5.100000000000000366e-02 1.921094999999999886e-01 2.928275000000000183e+00 3.593130000000000024e+01 2.151494999999999891e+03
5.200000000000000455e-02 1.919474999999999931e-01 1.189235000000000042e+00 3.178155000000000285e+01 2.150425000000000182e+03
5.300000000000000544e-02 1.917969999999999953e-01 -3.967500000000001581e-01 2.811119999999999663e+01 2.149420000000000073e+03
5.399999999999999939e-02 1.916619999999999990e-01 -1.769320000000000004e+00 2.504379999999999740e+01 2.148515000000000327e+03
5.500000000000000028e-02 1.915479999999999960e-01 -2.870940499999999673e+00 2.269754999999999967e+01 2.147750000000000000e+03
5.600000000000000117e-02 1.914595000000000047e-01 -3.649754999999999860e+00 2.118135000000000190e+01 2.147144999999999982e+03
5.700000000000000205e-02 1.914009999999999878e-01 -4.063274999999999970e+00 2.058574999999999733e+01 2.146744999999999891e+03
5.800000000000000294e-02 1.913750000000000173e-01 -4.082129999999999370e+00 2.097245000000000203e+01 2.146550000000000182e+03
5.900000000000000383e-02 1.913839999999999986e-01 -3.693025000000000446e+00 2.236449999999999960e+01 2.146585000000000036e+03
6.000000000000000472e-02 1.914290000000000158e-01 -2.900349999999999984e+00 2.474070000000000036e+01 2.146860000000000127e+03
6.099999999999999867e-02 1.915094999999999992e-01 -1.726141000000000147e+00 2.803415000000000035e+01 2.147364999999999782e+03
6.199999999999999956e-02 1.916225000000000012e-01 -2.084999999999999076e-01 3.213654999999999973e+01 2.148090000000000146e+03
6.300000000000000044e-02 1.917639999999999900e-01 1.601240000000000219e+00 3.690630000000000166e+01 2.149019999999999982e+03
6.400000000000000133e-02 1.919305000000000039e-01 3.642136499999999888e+00 4.217950000000000443e+01 2.150105000000000018e+03
6.500000000000000222e-02 1.921164999999999956e-01 5.847574999999999967e+00 4.778159999999999741e+01 2.151324999999999818e+03
6.600000000000000311e-02 1.923155000000000003e-01 8.149190000000000822e+00 5.353900000000000148e+01 2.152635000000000218e+03
6.700000000000000400e-02 1.925209999999999977e-01 1.048083499999999901e+01 5.928940000000000055e+01 2.154000000000000000e+03
6.800000000000000488e-02 1.927284999999999970e-01 1.278169499999999914e+01 6.489090000000000202e+01 2.155380000000000109e+03
6.900000000000000577e-02 1.929335000000000078e-01 1.499954999999999927e+01 7.022910000000000252e+01 2.156750000000000000e+03
7.000000000000000666e-02 1.931299999999999961e-01 1.709295000000000186e+01 7.522190000000000509e+01 2.158069999999999709e+03
7.100000000000000755e-02 1.933170000000000166e-01 1.903294999999999959e+01 7.982269999999999754e+01 2.159324999999999818e+03
7.200000000000000844e-02 1.934919999999999973e-01 2.080375000000000085e+01 8.402039999999999509e+01 2.160505000000000109e+03
7.300000000000000933e-02 1.936539999999999928e-01 2.240234999999999843e+01 8.783689999999999998e+01 2.161605000000000018e+03
7.399999999999999634e-02 1.938040000000000040e-01 2.383724999999999739e+01 9.132220000000000937e+01 2.162625000000000000e+03
7.499999999999999722e-02 1.939434999999999909e-01 2.512620000000000076e+01 9.454695000000000960e+01 2.163574999999999818e+03
7.599999999999999811e-02 1.940739999999999965e-01 2.629359999999999786e+01 9.759284999999999854e+01 2.164465000000000146e+03
7.699999999999999900e-02 1.941990000000000105e-01 2.736744999999999806e+01 1.005465000000000089e+02 2.165320000000000164e+03
7.799999999999999989e-02 1.943209999999999937e-01 2.837624999999999886e+01 1.034865000000000066e+02 2.166144999999999982e+03
7.900000000000000078e-02 1.944420000000000037e-01 2.934619999999999962e+01 1.064809999999999945e+02 2.166969999999999800e+03
8.000000000000000167e-02 1.945645000000000013e-01 3.029925000000000068e+01 1.095780000000000030e+02 2.167800000000000182e+03
8.100000000000000255e-02 1.946895000000000153e-01 3.125114999999999910e+01 1.128054999999999950e+02 2.168650000000000091e+03
8.200000000000000344e-02 1.948189999999999922e-01 3.221059999999999945e+01 1.161684999999999945e+02 2.169529999999999745e+03
8.300000000000000433e-02 1.949514999999999998e-01 3.317914999999999992e+01 1.196514999999999986e+02 2.170429999999999836e+03
8.400000000000000522e-02 1.950879999999999836e-01 3.415144999999999698e+01 1.232185000000000059e+02 2.171355000000000018e+03
8.500000000000000611e-02 1.952264999999999973e-01 3.511574999999999847e+01 1.268205000000000098e+02 2.172295000000000073e+03
8.600000000000000699e-02 1.953659999999999841e-01 3.605549999999999500e+01 1.303944999999999936e+02 2.173239999999999782e+03
8.700000000000000788e-02 1.955034999999999967e-01 3.695049999999999812e+01 1.338729999999999905e+02 2.174170000000000073e+03
8.800000000000000877e-02 1.956375000000000197e-01 3.777840000000000487e+01 1.371865000000000236e+02 2.175079999999999927e+03
8.899999999999999578e-02 1.957649999999999946e-01 3.851630000000000109e+01 1.402680000000000007e+02 2.175954999999999927e+03
8.999999999999999667e-02 1.958840000000000026e-01 3.914239999999999498e+01 1.430540000000000020e+02 2.176765000000000327e+03
9.099999999999999756e-02 1.959925000000000139e-01 3.963714999999999833e+01 1.454939999999999998e+02 2.177505000000000109e+03
9.199999999999999845e-02 1.960879999999999845e-01 3.998454999999999870e+01 1.475464999999999804e+02 2.178164999999999964e+03
9.299999999999999933e-02 1.961704999999999977e-01 4.017305000000000348e+01 1.491854999999999905e+02 2.178730000000000018e+03
9.400000000000000022e-02 1.962369999999999948e-01 4.019639999999999702e+01 1.503979999999999961e+02 2.179194999999999709e+03
9.500000000000000111e-02 1.962889999999999913e-01 4.005395000000000039e+01 1.511870000000000118e+02 2.179554999999999836e+03
9.600000000000000200e-02 1.963254999999999861e-01 3.975050000000000239e+01 1.515704999999999814e+02 2.179815000000000055e+03
9.700000000000000289e-02 1.963464999999999794e-01 3.929625000000000057e+01 1.515790000000000077e+02 2.179970000000000255e+03
9.800000000000000377e-02 1.963544999999999874e-01 3.870624999999999716e+01 1.512540000000000191e+02 2.180034999999999854e+03
9.900000000000000466e-02 1.963499999999999968e-01 3.799949999999999761e+01 1.506465000000000032e+02 2.180015000000000327e+03
1.000000000000000056e-01 1.963350000000000095e-01 3.719774999999999920e+01 1.498125000000000000e+02 2.179920000000000073e+03
1.010000000000000064e-01 1.963110000000000133e-01 3.632479999999999620e+01 1.488114999999999952e+02 2.179764999999999873e+03
1.020000000000000073e-01 1.962800000000000100e-01 3.540489999999999782e+01 1.477029999999999745e+02 2.179564999999999600e+03
1.030000000000000082e-01 1.962450000000000028e-01 3.446184999999999832e+01 1.465425000000000182e+02 2.179329999999999927e+03
1.040000000000000091e-01 1.962065000000000059e-01 3.351794999999999902e+01 1.453815000000000168e+02 2.179074999999999818e+03
1.050000000000000100e-01 1.961674999999999947e-01 3.259290000000000020e+01 1.442634999999999934e+02 2.178815000000000055e+03
1.059999999999999970e-01 1.961295000000000122e-01 3.170329999999999870e+01 1.432219999999999800e+02 2.178555000000000291e+03
1.069999999999999979e-01 1.960930000000000173e-01 3.086165000000000092e+01 1.422819999999999823e+02 2.178304999999999836e+03
1.079999999999999988e-01 1.960594999999999977e-01 3.007634999999999792e+01 1.414565000000000055e+02 2.178074999999999818e+03
1.089999999999999997e-01 1.960294999999999954e-01 2.935144999999999982e+01 1.407479999999999905e+02 2.177869999999999891e+03
1.100000000000000006e-01 1.960030000000000105e-01 2.868654999999999688e+01 1.401490000000000009e+02 2.177684999999999945e+03
1.110000000000000014e-01 1.959795000000000009e-01 2.807719999999999771e+01 1.396424999999999841e+02 2.177519999999999982e+03
1.120000000000000023e-01 1.959585000000000077e-01 2.751534999999999798e+01 1.392030000000000030e+02 2.177375000000000000e+03
1.130000000000000032e-01 1.959400000000000031e-01 2.699009999999999820e+01 1.387990000000000066e+02 2.177244999999999891e+03
1.140000000000000041e-01 1.959224999999999994e-01 2.648830000000000240e+01 1.383954999999999984e+02 2.177119999999999891e+03
1.150000000000000050e-01 1.959044999999999814e-01 2.599559999999999960e+01 1.379549999999999841e+02 2.177000000000000000e+03
1.160000000000000059e-01 1.958854999999999902e-01 2.549734999999999729e+01 1.374410000000000025e+02 2.176864999999999782e+03
1.170000000000000068e-01 1.958635000000000237e-01 2.497944999999999993e+01 1.368195000000000050e+02 2.176715000000000146e+03
1.180000000000000077e-01 1.958380000000000121e-01 2.442954999999999899e+01 1.360625000000000000e+02 2.176534999999999854e+03
1.190000000000000085e-01 1.958075000000000232e-01 2.383735000000000070e+01 1.351479999999999961e+02 2.176329999999999927e+03
1.200000000000000094e-01 1.957714999999999872e-01 2.319574999999999676e+01 1.340629999999999882e+02 2.176090000000000146e+03
1.209999999999999964e-01 1.957295000000000007e-01 2.250099999999999767e+01 1.328040000000000020e+02 2.175810000000000400e+03
1.219999999999999973e-01 1.956815000000000082e-01 2.175309999999999988e+01 1.313770000000000095e+02 2.175485000000000127e+03
1.229999999999999982e-01 1.956279999999999963e-01 2.095589999999999975e+01 1.297969999999999970e+02 2.175119999999999891e+03
1.239999999999999991e-01 1.955685000000000062e-01 2.011664999999999992e+01 1.280889999999999986e+02 2.174724999999999909e+03
1.250000000000000000e-01 1.955054999999999987e-01 1.924595000000000056e+01 1.262845000000000084e+02 2.174295000000000073e+03
1.260000000000000009e-01 1.954380000000000006e-01 1.835689999999999955e+01 1.244219999999999970e+02 2.173844999999999800e+03
1.270000000000000018e-01 1.953690000000000149e-01 1.746454999999999913e+01 1.225424999999999898e+02 2.173375000000000000e+03
1.280000000000000027e-01 1.952990000000000004e-01 1.658500000000000085e+01 1.206895000000000095e+02 2.172904999999999745e+03
1.290000000000000036e-01 1.952295000000000003e-01 1.573440000000000083e+01 1.189044999999999987e+02 2.172440000000000055e+03
1.300000000000000044e-01 1.951630000000000031e-01 1.492830000000000013e+01 1.172274999999999920e+02 2.171989999999999782e+03
1.310000000000000053e-01 1.950999999999999956e-01 1.418094999999999928e+01 1.156924999999999955e+02 2.171555000000000291e+03
1.320000000000000062e-01 1.950414999999999788e-01 1.350420000000000087e+01 1.143275000000000006e+02 2.171164999999999964e+03
1.330000000000000071e-01 1.949889999999999957e-01 1.290755000000000052e+01 1.131534999999999940e+02 2.170805000000000291e+03
1.340000000000000080e-01 1.949434999999999918e-01 1.239744999999999919e+01 1.121839999999999975e+02 2.170484999999999673e+03
1.350000000000000089e-01 1.949045000000000083e-01 1.197705000000000020e+01 1.114219999999999970e+02 2.170224999999999909e+03
1.360000000000000098e-01 1.948730000000000184e-01 1.164659999999999940e+01 1.108650000000000091e+02 2.170000000000000000e+03
1.370000000000000107e-01 1.948495000000000088e-01 1.140320000000000000e+01 1.105014999999999930e+02 2.169835000000000036e+03
1.380000000000000115e-01 1.948320000000000052e-01 1.124145000000000039e+01 1.103164999999999907e+02 2.169715000000000146e+03
1.390000000000000124e-01 1.948214999999999808e-01 1.115349999999999930e+01 1.102870000000000061e+02 2.169635000000000218e+03
1.400000000000000133e-01 1.948165000000000036e-01 1.112989999999999924e+01 1.103884999999999934e+02 2.169600000000000364e+03
1.410000000000000142e-01 1.948165000000000036e-01 1.115970000000000084e+01 1.105939999999999941e+02 2.169590000000000146e+03
1.420000000000000151e-01 1.948205000000000076e-01 1.123140000000000072e+01 1.108744999999999976e+02 2.169614999999999782e+03
1.430000000000000160e-01 1.948280000000000012e-01 1.133309999999999995e+01 1.112030000000000030e+02 2.169654999999999745e+03
1.440000000000000169e-01 1.948369999999999824e-01 1.145335000000000036e+01 1.115525000000000091e+02 2.169715000000000146e+03
1.450000000000000178e-01 1.948469999999999924e-01 1.158104999999999940e+01 1.118990000000000009e+02 2.169780000000000200e+03
1.459999999999999909e-01 1.948580000000000034e-01 1.170640000000000036e+01 1.122229999999999990e+02 2.169849999999999909e+03
1.469999999999999918e-01 1.948675000000000268e-01 1.182089999999999996e+01 1.125060000000000002e+02 2.169920000000000073e+03
1.479999999999999927e-01 1.948769999999999947e-01 1.191765000000000008e+01 1.127359999999999900e+02 2.169980000000000018e+03
1.489999999999999936e-01 1.948840000000000017e-01 1.199145000000000039e+01 1.129039999999999964e+02 2.170029999999999745e+03
1.499999999999999944e-01 1.948900000000000077e-01 1.203880000000000017e+01 1.130054999999999978e+02 2.170069999999999709e+03
1.509999999999999953e-01 1.948934999999999973e-01 1.205825000000000102e+01 1.130405000000000086e+02 2.170095000000000255e+03
1.519999999999999962e-01 1.948949999999999849e-01 1.204979999999999940e+01 1.130130000000000052e+02 2.170105000000000018e+03
1.529999999999999971e-01 1.948940000000000117e-01 1.201515000000000022e+01 1.129290000000000020e+02 2.170100000000000364e+03
1.539999999999999980e-01 1.948914999999999953e-01 1.195734999999999992e+01 1.127990000000000066e+02 2.170085000000000036e+03
1.549999999999999989e-01 1.948874999999999913e-01 1.188044999999999973e+01 1.126340000000000003e+02 2.170055000000000291e+03
1.559999999999999998e-01 1.948819999999999997e-01 1.178924999999999912e+01 1.124474999999999909e+02 2.170024999999999636e+03
1.570000000000000007e-01 1.948759999999999937e-01 1.168890000000000029e+01 1.122524999999999977e+02 2.169984999999999673e+03
1.580000000000000016e-01 1.948695000000000010e-01 1.158464999999999989e+01 1.120610000000000070e+02 2.169945000000000164e+03
1.590000000000000024e-01 1.948635000000000228e-01 1.148145000000000060e+01 1.118845000000000027e+02 2.169900000000000091e+03
