# t [s], A [cm^2], U [cm/s], P [cPa], c [cm/s]
1.000000000000000021e-03 7.319545000000000634e-01 4.691650000000005538e-03 9.955580000000000496e+01 1.721300000000000182e+03
2.000000000000000042e-03 7.319485000000000019e-01 8.608949999999998895e-03 9.953190000000000737e+01 1.721295000000000073e+03
3.000000000000000062e-03 7.320309999999999873e-01 1.479318000000000022e-01 9.969360000000000355e+01 1.721325000000000045e+03
4.000000000000000083e-03 7.320625000000000604e-01 2.210280000000000022e-01 9.978274999999999295e+01 1.721349999999999909e+03
5.000000000000000104e-03 7.319940000000000335e-01 1.343549999999999744e-01 9.959969999999999857e+01 1.721315000000000055e+03
6.000000000000000125e-03 7.319120000000000070e-01 1.404800000000000493e-02 9.926810000000000400e+01 1.721255000000000109e+03
7.000000000000000146e-03 7.318135000000000057e-01 -1.455700000000000882e-01 9.880944999999999823e+01 1.721164999999999964e+03
8.000000000000000167e-03 7.316344999999999654e-01 -4.586899999999999311e-01 9.806514999999998849e+01 1.721019999999999982e+03
9.000000000000001055e-03 7.313640000000000141e-01 -9.409999999999999476e-01 9.695824999999999250e+01 1.720809999999999945e+03
1.000000000000000194e-02 7.309849999999999959e-01 -1.607340000000000213e+00 9.541454999999999131e+01 1.720514999999999873e+03
1.099999999999999936e-02 7.304770000000000429e-01 -2.471199999999999619e+00 9.335569999999999879e+01 1.720105000000000018e+03
1.200000000000000025e-02 7.298780000000000268e-01 -3.439300000000000246e+00 9.085089999999999577e+01 1.719605000000000018e+03
1.300000000000000114e-02 7.292860000000001008e-01 -4.308005000000000528e+00 8.816604999999999848e+01 1.719045000000000073e+03
1.400000000000000203e-02 7.287950000000000816e-01 -4.874027650000000378e+00 8.563814999999999600e+01 1.718494999999999891e+03
1.499999999999999944e-02 7.284435000000000215e-01 -5.036432500000000090e+00 8.350675000000001091e+01 1.717994999999999891e+03
1.600000000000000033e-02 7.282049999999999912e-01 -4.821380000000000443e+00 8.182900000000000773e+01 1.717570000000000164e+03
1.700000000000000122e-02 7.280170000000000252e-01 -4.344500000000000028e+00 8.049415000000000475e+01 1.717204999999999927e+03
1.800000000000000211e-02 7.278090000000000392e-01 -3.748545000000000016e+00 7.929955000000001064e+01 1.716869999999999891e+03
1.900000000000000300e-02 7.275350000000000428e-01 -3.144611999999999963e+00 7.804640000000000555e+01 1.716529999999999973e+03
2.000000000000000042e-02 7.271859999999999991e-01 -2.577316000000000162e+00 7.661709999999999354e+01 1.716160000000000082e+03
2.100000000000000130e-02 7.267844999999999445e-01 -2.026040000000000063e+00 7.500315000000000509e+01 1.715764999999999873e+03
2.200000000000000219e-02 7.263690000000000424e-01 -1.438195000000000112e+00 7.327760000000000673e+01 1.715339999999999918e+03
2.299999999999999961e-02 7.259674999999999878e-01 -7.736549999999999816e-01 7.153249999999999886e+01 1.714914999999999964e+03
2.400000000000000050e-02 7.255829999999999780e-01 -3.747500000000014708e-02 6.981794999999999618e+01 1.714485000000000127e+03
2.500000000000000139e-02 7.251959999999999518e-01 7.103549999999998477e-01 6.810644999999999527e+01 1.714054999999999836e+03
2.600000000000000228e-02 7.247630000000000461e-01 1.367265000000000175e+00 6.629255000000000564e+01 1.713605000000000018e+03
2.700000000000000316e-02 7.242385000000000073e-01 1.815255000000000063e+00 6.422140000000000271e+01 1.713110000000000127e+03
2.800000000000000058e-02 7.235845000000000748e-01 1.953680000000000305e+00 6.173655000000000115e+01 1.712534999999999854e+03
2.900000000000000147e-02 7.227860000000000396e-01 1.728260000000000129e+00 5.873245000000000005e+01 1.711865000000000009e+03
3.000000000000000236e-02 7.218564999999999010e-01 1.147510000000000474e+00 5.519445000000000334e+01 1.711095000000000027e+03
3.099999999999999978e-02 7.208375000000000199e-01 2.808999999999999275e-01 5.121390000000000242e+01 1.710230000000000018e+03
3.200000000000000067e-02 7.197869999999999546e-01 -7.587500000000000355e-01 4.697400000000000375e+01 1.709304999999999836e+03
3.300000000000000155e-02 7.187700000000000200e-01 -1.841644999999999754e+00 4.271399999999999864e+01 1.708360000000000127e+03
3.400000000000000244e-02 7.178430000000000089e-01 -2.846264999999999823e+00 3.868580000000000041e+01 1.707449999999999818e+03
3.500000000000000333e-02 7.170514999999999528e-01 -3.676175000000000193e+00 3.511495000000000033e+01 1.706615000000000009e+03
3.600000000000000422e-02 7.164239999999999498e-01 -4.267960000000000420e+00 3.217470000000000141e+01 1.705905000000000200e+03
3.700000000000000511e-02 7.159720000000000528e-01 -4.589216000000000406e+00 2.997455000000000069e+01 1.705340000000000146e+03
3.799999999999999906e-02 7.156970000000000276e-01 -4.631834999999999702e+00 2.856264999999999787e+01 1.704934999999999945e+03
3.899999999999999994e-02 7.155925000000000757e-01 -4.402044999999999320e+00 2.793755000000000166e+01 1.704699999999999818e+03
4.000000000000000083e-02 7.156474999999999920e-01 -3.911579999999999835e+00 2.806504999999999939e+01 1.704630000000000109e+03
4.100000000000000172e-02 7.158510000000000151e-01 -3.171737000000000251e+00 2.889325000000000188e+01 1.704724999999999909e+03
4.200000000000000261e-02 7.161934999999999274e-01 -2.191590000000000149e+00 3.036455000000000126e+01 1.704964999999999918e+03
4.300000000000000350e-02 7.166635000000000089e-01 -9.798649999999997640e-01 3.242000000000000171e+01 1.705345000000000027e+03
4.400000000000000439e-02 7.172499999999999432e-01 4.510900000000002130e-01 3.499960000000000093e+01 1.705845000000000027e+03
4.499999999999999833e-02 7.179389999999999938e-01 2.081164999999999932e+00 3.803790000000000049e+01 1.706460000000000036e+03
4.599999999999999922e-02 7.187124999999999764e-01 3.880050000000000221e+00 4.146085000000000065e+01 1.707170000000000073e+03
4.700000000000000011e-02 7.195499999999999119e-01 5.807265000000000121e+00 4.518384999999999962e+01 1.707954999999999927e+03
4.800000000000000100e-02 7.204280000000000683e-01 7.814350000000000129e+00 4.911309999999999576e+01 1.708800000000000182e+03
4.900000000000000189e-02 7.213224999999999776e-01 9.848890000000000811e+00 5.315005000000000024e+01 1.709690000000000055e+03
5.000000000000000278e-02 7.222115000000000062e-01 1.185943500000000128e+01 5.719780000000000086e+01 1.710590000000000146e+03
5.100000000000000366e-02 7.230765000000000109e-01 1.379954999999999998e+01 6.116815000000000424e+01 1.711490000000000009e+03
5.200000000000000455e-02 7.239020000000000454e-01 1.563151000000000046e+01 6.498779999999999291e+01 1.712369999999999891e+03
5.300000000000000544e-02 7.246795000000000320e-01 1.732809999999999917e+01 6.860325000000000273e+01 1.713215000000000146e+03
5.399999999999999939e-02 7.254045000000000076e-01 1.887324999999999875e+01 7.198265000000000668e+01 1.714019999999999982e+03
5.500000000000000028e-02 7.260774999999999313e-01 2.026144999999999996e+01 7.511624999999999375e+01 1.714775000000000091e+03
5.600000000000000117e-02 7.267029999999999879e-01 2.149604999999999677e+01 7.801384999999999081e+01 1.715485000000000127e+03
5.700000000000000205e-02 7.272885000000000044e-01 2.258789999999999765e+01 8.070165000000000077e+01 1.716150000000000091e+03
5.800000000000000294e-02 7.278439999999999355e-01 2.355290000000000106e+01 8.321799999999998931e+01 1.716779999999999973e+03
5.900000000000000383e-02 7.283794999999999575e-01 2.441055000000000064e+01 8.560900000000000887e+01 1.717380000000000109e+03
6.000000000000000472e-02 7.289060000000000539e-01 2.518215000000000003e+01 8.792395000000000493e+01 1.717954999999999927e+03
6.099999999999999867e-02 7.294335000000000679e-01 2.588895000000000124e+01 9.021125000000000682e+01 1.718525000000000091e+03
6.199999999999999956e-02 7.299710000000000365e-01 2.655069999999999908e+01 9.251454999999999984e+01 1.719090000000000146e+03
6.300000000000000044e-02 7.305245000000000211e-01 2.718419999999999703e+01 9.486889999999999645e+01 1.719664999999999964e+03
6.400000000000000133e-02 7.310995000000000132e-01 2.780180000000000007e+01 9.729840000000000089e+01 1.720250000000000000e+03
6.500000000000000222e-02 7.316949999999999843e-01 2.841065000000000040e+01 9.981319999999999482e+01 1.720855000000000018e+03
6.600000000000000311e-02 7.323100000000000165e-01 2.901219999999999999e+01 1.024099999999999966e+02 1.721469999999999800e+03
6.700000000000000400e-02 7.329380000000000894e-01 2.960204999999999842e+01 1.050715000000000003e+02 1.722105000000000018e+03
6.800000000000000488e-02 7.335715000000000430e-01 3.017115000000000080e+01 1.077680000000000007e+02 1.722750000000000000e+03
6.900000000000000577e-02 7.341999999999999638e-01 3.070644999999999669e+01 1.104600000000000080e+02 1.723389999999999873e+03
7.000000000000000666e-02 7.348140000000000782e-01 3.119239999999999924e+01 1.131015000000000015e+02 1.724025000000000091e+03
7.100000000000000755e-02 7.354015000000000413e-01 3.161245000000000260e+01 1.156430000000000007e+02 1.724634999999999991e+03
7.200000000000000844e-02 7.359519999999999396e-01 3.195049999999999812e+01 1.180390000000000015e+02 1.725224999999999909e+03
7.300000000000000933e-02 7.364559999999999995e-01 3.219190000000000396e+01 1.202425000000000068e+02 1.725765000000000100e+03
7.399999999999999634e-02 7.369065000000000198e-01 3.232464999999999833e+01 1.222175000000000011e+02 1.726264999999999873e+03
7.499999999999999722e-02 7.372965000000000213e-01 3.234000000000000341e+01 1.239344999999999999e+02 1.726704999999999927e+03
7.599999999999999811e-02 7.376230000000000286e-01 3.223284999999999911e+01 1.253735000000000070e+02 1.727085000000000036e+03
7.699999999999999900e-02 7.378854999999999720e-01 3.200220000000000198e+01 1.265250000000000057e+02 1.727404999999999973e+03
7.799999999999999989e-02 7.380835000000000035e-01 3.165100000000000335e+01 1.273914999999999935e+02 1.727654999999999973e+03
7.900000000000000078e-02 7.382214999999999749e-01 3.118625000000000114e+01 1.279819999999999993e+02 1.727845000000000027e+03
8.000000000000000167e-02 7.383035000000000014e-01 3.061834999999999951e+01 1.283165000000000191e+02 1.727974999999999909e+03
8.100000000000000255e-02 7.383355000000000334e-01 2.996079999999999899e+01 1.284219999999999970e+02 1.728045000000000073e+03
8.200000000000000344e-02 7.383254999999999679e-01 2.922974999999999923e+01 1.283315000000000055e+02 1.728065000000000055e+03
8.300000000000000433e-02 7.382824999999999527e-01 2.844290000000000163e+01 1.280809999999999889e+02 1.728050000000000182e+03
8.400000000000000522e-02 7.382144999999999957e-01 2.761899999999999977e+01 1.277099999999999937e+02 1.728000000000000000e+03
8.500000000000000611e-02 7.381299999999999528e-01 2.677674999999999983e+01 1.272584999999999980e+02 1.727925000000000182e+03
8.600000000000000699e-02 7.380379999999999718e-01 2.593399999999999750e+01 1.267630000000000052e+02 1.727835000000000036e+03
8.700000000000000788e-02 7.379449999999999621e-01 2.510694999999999766e+01 1.262580000000000098e+02 1.727735000000000127e+03
8.800000000000000877e-02 7.378575000000000550e-01 2.430914999999999893e+01 1.257729999999999961e+02 1.727630000000000109e+03
8.899999999999999578e-02 7.377789999999999626e-01 2.355134999999999934e+01 1.253305000000000007e+02 1.727529999999999973e+03
8.999999999999999667e-02 7.377134999999999110e-01 2.284065000000000012e+01 1.249459999999999980e+02 1.727445000000000164e+03
9.099999999999999756e-02 7.376609999999999001e-01 2.218070000000000164e+01 1.246285000000000025e+02 1.727365000000000009e+03
9.199999999999999845e-02 7.376224999999999588e-01 2.157155000000000200e+01 1.243785000000000025e+02 1.727299999999999955e+03
9.299999999999999933e-02 7.375945000000000418e-01 2.100990000000000180e+01 1.241885000000000048e+02 1.727244999999999891e+03
9.400000000000000022e-02 7.375754999999999395e-01 2.048959999999999937e+01 1.240480000000000018e+02 1.727204999999999927e+03
9.500000000000000111e-02 7.375599999999999934e-01 2.000205000000000055e+01 1.239389999999999930e+02 1.727170000000000073e+03
9.600000000000000200e-02 7.375435000000000185e-01 1.953715000000000046e+01 1.238404999999999916e+02 1.727139999999999873e+03
9.700000000000000289e-02 7.375209999999999821e-01 1.908364999999999867e+01 1.237299999999999898e+02 1.727105000000000018e+03
9.800000000000000377e-02 7.374880000000000324e-01 1.863004999999999711e+01 1.235835000000000008e+02 1.727065000000000055e+03
9.900000000000000466e-02 7.374384999999999968e-01 1.816515000000000057e+01 1.233799999999999955e+02 1.727019999999999982e+03
1.000000000000000056e-01 7.373689999999999412e-01 1.767909999999999826e+01 1.230985000000000014e+02 1.726950000000000045e+03
1.010000000000000064e-01 7.372765000000000013e-01 1.716365000000000052e+01 1.227229999999999990e+02 1.726869999999999891e+03
1.020000000000000073e-01 7.371590000000000087e-01 1.661270000000000024e+01 1.222419999999999902e+02 1.726764999999999873e+03
1.030000000000000082e-01 7.370149999999999757e-01 1.602280000000000015e+01 1.216490000000000009e+02 1.726639999999999873e+03
1.040000000000000091e-01 7.368460000000000010e-01 1.539339999999999975e+01 1.209440000000000026e+02 1.726480000000000018e+03
1.050000000000000100e-01 7.366535000000000721e-01 1.472675000000000090e+01 1.201334999999999980e+02 1.726305000000000064e+03
1.059999999999999970e-01 7.364405000000000534e-01 1.402814000000000050e+01 1.192284999999999968e+02 1.726105000000000018e+03
1.069999999999999979e-01 7.362119999999999775e-01 1.330516000000000076e+01 1.182464999999999975e+02 1.725889999999999873e+03
1.079999999999999988e-01 7.359729999999999883e-01 1.256775000000000020e+01 1.172085000000000008e+02 1.725654999999999973e+03
1.089999999999999997e-01 7.357290000000000774e-01 1.182760500000000015e+01 1.161400000000000006e+02 1.725414999999999964e+03
1.100000000000000006e-01 7.354865000000000430e-01 1.109731500000000004e+01 1.150679999999999978e+02 1.725170000000000073e+03
1.110000000000000014e-01 7.352520000000000167e-01 1.038996000000000031e+01 1.140194999999999936e+02 1.724929999999999836e+03
1.120000000000000023e-01 7.350309999999999899e-01 9.718434999999999491e+00 1.130229999999999961e+02 1.724695000000000164e+03
1.130000000000000032e-01 7.348295000000000243e-01 9.094549999999999912e+00 1.121020000000000039e+02 1.724474999999999909e+03
1.140000000000000041e-01 7.346520000000000827e-01 8.528660000000000352e+00 1.112794999999999987e+02 1.724275000000000091e+03
1.150000000000000050e-01 7.345015000000000294e-01 8.029040000000000177e+00 1.105724999999999909e+02 1.724095000000000027e+03
1.160000000000000059e-01 7.343804999999999916e-01 7.601654999999999163e+00 1.099935000000000116e+02 1.723944999999999936e+03
1.170000000000000068e-01 7.342899999999999983e-01 7.249814999999999898e+00 1.095484999999999900e+02 1.723825000000000045e+03
1.180000000000000077e-01 7.342299999999999383e-01 6.974104999999999777e+00 1.092394999999999925e+02 1.723730000000000018e+03
1.190000000000000085e-01 7.341984999999999761e-01 6.772540000000000227e+00 1.090619999999999976e+02 1.723664999999999964e+03
1.200000000000000094e-01 7.341930000000000955e-01 6.640755000000000408e+00 1.090064999999999884e+02 1.723630000000000109e+03
1.209999999999999964e-01 7.342105000000000992e-01 6.572325000000000195e+00 1.090589999999999975e+02 1.723619999999999891e+03
1.219999999999999973e-01 7.342469999999999830e-01 6.559210000000000207e+00 1.092044999999999959e+02 1.723634999999999991e+03
1.229999999999999982e-01 7.342979999999998952e-01 6.592195000000000249e+00 1.094219999999999970e+02 1.723659999999999854e+03
1.239999999999999991e-01 7.343595000000000539e-01 6.661374999999999602e+00 1.096924999999999955e+02 1.723704999999999927e+03
1.250000000000000000e-01 7.344260000000000232e-01 6.756619999999999848e+00 1.099964999999999975e+02 1.723764999999999873e+03
1.260000000000000009e-01 7.344939999999999802e-01 6.868034999999999890e+00 1.103135000000000048e+02 1.723825000000000045e+03
1.270000000000000018e-01 7.345599999999999907e-01 6.986309999999999576e+00 1.106280000000000001e+02 1.723889999999999873e+03
1.280000000000000027e-01 7.346205000000000096e-01 7.103040000000000020e+00 1.109224999999999994e+02 1.723954999999999927e+03
1.290000000000000036e-01 7.346730000000000205e-01 7.210980000000000167e+00 1.111860000000000070e+02 1.724005000000000109e+03
1.300000000000000044e-01 7.347164999999999946e-01 7.304219999999999935e+00 1.114090000000000060e+02 1.724059999999999945e+03
1.310000000000000053e-01 7.347489999999999855e-01 7.378270000000000550e+00 1.115844999999999914e+02 1.724105000000000018e+03
1.320000000000000062e-01 7.347699999999999232e-01 7.430109999999999992e+00 1.117100000000000080e+02 1.724134999999999991e+03
1.330000000000000071e-01 7.347805000000000586e-01 7.458165000000001044e+00 1.117849999999999966e+02 1.724159999999999854e+03
1.340000000000000080e-01 7.347805000000000586e-01 7.462229999999999919e+00 1.118114999999999952e+02 1.724170000000000073e+03
1.350000000000000089e-01 7.347715000000000218e-01 7.443330000000000446e+00 1.117944999999999993e+02 1.724170000000000073e+03
1.360000000000000098e-01 7.347550000000000470e-01 7.403565000000000396e+00 1.117404999999999973e+02 1.724164999999999964e+03
1.370000000000000107e-01 7.347330000000000805e-01 7.345930000000000071e+00 1.116570000000000107e+02 1.724150000000000091e+03
1.380000000000000115e-01 7.347079999999999167e-01 7.274065000000000225e+00 1.115519999999999925e+02 1.724134999999999991e+03
1.390000000000000124e-01 7.346805000000000696e-01 7.192034999999999734e+00 1.114344999999999999e+02 1.724110000000000127e+03
1.400000000000000133e-01 7.346530000000000005e-01 7.104074999999999918e+00 1.113139999999999930e+02 1.724085000000000036e+03
1.410000000000000142e-01 7.346280000000000587e-01 7.014355000000000118e+00 1.111984999999999957e+02 1.724065000000000055e+03
1.420000000000000151e-01 7.346064999999999401e-01 6.926759999999999806e+00 1.110944999999999965e+02 1.724045000000000073e+03
1.430000000000000160e-01 7.345900000000000762e-01 6.844689999999999941e+00 1.110084999999999980e+02 1.724025000000000091e+03
1.440000000000000169e-01 7.345785000000000231e-01 6.770889999999999631e+00 1.109449999999999932e+02 1.724010000000000218e+03
1.450000000000000178e-01 7.345734999999999904e-01 6.707370000000000054e+00 1.109060000000000059e+02 1.723994999999999891e+03
1.459999999999999909e-01 7.345734999999999904e-01 6.655300000000000438e+00 1.108924999999999983e+02 1.723990000000000009e+03
1.469999999999999918e-01 7.345794999999999408e-01 6.615059999999999718e+00 1.109039999999999964e+02 1.723994999999999891e+03
1.479999999999999927e-01 7.345900000000000762e-01 6.586249999999999716e+00 1.109369999999999976e+02 1.724000000000000000e+03
1.489999999999999936e-01 7.346044999999999936e-01 6.567809999999999704e+00 1.109884999999999877e+02 1.724009999999999991e+03
1.499999999999999944e-01 7.346215000000000384e-01 6.558135000000000048e+00 1.110534999999999997e+02 1.724025000000000091e+03
1.509999999999999953e-01 7.346395000000000008e-01 6.555255000000000720e+00 1.111264999999999930e+02 1.724034999999999854e+03
1.519999999999999962e-01 7.346580000000000332e-01 6.556985000000000063e+00 1.112019999999999982e+02 1.724049999999999955e+03
1.529999999999999971e-01 7.346745000000000081e-01 6.561119999999999841e+00 1.112734999999999985e+02 1.724065000000000055e+03
1.539999999999999980e-01 7.346890000000000365e-01 6.565549999999999997e+00 1.113375000000000057e+02 1.724079999999999927e+03
1.549999999999999989e-01 7.347000000000000197e-01 6.568445000000000533e+00 1.113890000000000100e+02 1.724095000000000027e+03
1.559999999999999998e-01 7.347075000000000689e-01 6.568299999999999805e+00 1.114254999999999995e+02 1.724099999999999909e+03
1.570000000000000007e-01 7.347110000000000030e-01 6.564040000000000319e+00 1.114445000000000050e+02 1.724110000000000127e+03
1.580000000000000016e-01 7.347099999999999742e-01 6.555039999999999978e+00 1.114445000000000050e+02 1.724110000000000127e+03
1.590000000000000024e-01 7.347049999999999415e-01 6.541174999999999962e+00 1.114279999999999973e+02 1.724105000000000018e+03
