# t [s], A [cm^2], U [cm/s], P [cPa], c [cm/s]
1.000000000000000021e-03 6.964829999999999632e-01 4.816399999999998460e-03 1.006375000000000028e+02 1.619829999999999927e+03
2.000000000000000042e-03 6.964730000000000087e-01 -1.756769999999999946e-03 1.006129999999999995e+02 1.619824999999999818e+03
3.000000000000000062e-03 6.965240000000000320e-01 7.855165000000000064e-02 1.007000000000000028e+02 1.619845000000000027e+03
4.000000000000000083e-03 6.965784999999999894e-01 1.712257000000000084e-01 1.008194499999999891e+02 1.619875000000000000e+03
5.000000000000000104e-03 6.965639999999999610e-01 1.634754999999999958e-01 1.007965000000000089e+02 1.619869999999999891e+03
6.000000000000000125e-03 6.965034999999999421e-01 8.133850000000000802e-02 1.006225000000000023e+02 1.619840000000000146e+03
7.000000000000000146e-03 6.964490000000000958e-01 3.667499999999990212e-03 1.003915000000000077e+02 1.619795000000000073e+03
8.000000000000000167e-03 6.963755000000000361e-01 -1.145705000000000195e-01 1.000669000000000040e+02 1.619724999999999909e+03
9.000000000000001055e-03 6.962464999999999904e-01 -3.356550000000000367e-01 9.956100000000000705e+01 1.619625000000000000e+03
1.000000000000000194e-02 6.960534999999999917e-01 -6.729199999999999626e-01 9.882384999999999309e+01 1.619480000000000018e+03
1.099999999999999936e-02 6.957820000000000116e-01 -1.142374999999999918e+00 9.779984999999999218e+01 1.619269999999999982e+03
1.200000000000000025e-02 6.954179999999999806e-01 -1.752139999999999809e+00 9.643784999999999741e+01 1.618990000000000009e+03
1.300000000000000114e-02 6.949825000000000585e-01 -2.451115000000000155e+00 9.476200000000000045e+01 1.618630000000000109e+03
1.400000000000000203e-02 6.945284999999999931e-01 -3.125325000000000131e+00 9.289685000000000059e+01 1.618219999999999800e+03
1.499999999999999944e-02 6.941144999999999676e-01 -3.648573499999999470e+00 9.101845000000000141e+01 1.617800000000000182e+03
1.600000000000000033e-02 6.937744999999999607e-01 -3.936726999999999865e+00 8.927524999999999977e+01 1.617384999999999991e+03
1.700000000000000122e-02 6.935074999999999434e-01 -3.970239000000000296e+00 8.774080000000000723e+01 1.617005000000000109e+03
1.800000000000000211e-02 6.932869999999999866e-01 -3.785147500000000331e+00 8.640574999999999761e+01 1.616644999999999982e+03
1.900000000000000300e-02 6.930769999999999431e-01 -3.447633999999999865e+00 8.520074999999999932e+01 1.616315000000000055e+03
2.000000000000000042e-02 6.928449999999999331e-01 -3.026119499999999629e+00 8.403274999999999295e+01 1.615990000000000009e+03
2.100000000000000130e-02 6.925710000000000477e-01 -2.569428499999999893e+00 8.282124999999999204e+01 1.615650000000000091e+03
2.200000000000000219e-02 6.922550000000000647e-01 -2.096165000000000056e+00 8.152309999999999945e+01 1.615300000000000182e+03
2.299999999999999961e-02 6.919085000000000374e-01 -1.597480000000000233e+00 8.013965000000000316e+01 1.614929999999999836e+03
2.400000000000000050e-02 6.915514999999999857e-01 -1.050804999999999767e+00 7.870504999999999995e+01 1.614549999999999955e+03
2.500000000000000139e-02 6.911994999999999667e-01 -4.378200000000000980e-01 7.726345000000000596e+01 1.614164999999999964e+03
2.600000000000000228e-02 6.908590000000000009e-01 2.408399999999999430e-01 7.584454999999999814e+01 1.613785000000000082e+03
2.700000000000000316e-02 6.905219999999999692e-01 9.590250000000000163e-01 7.444729999999999848e+01 1.613400000000000091e+03
2.800000000000000058e-02 6.901699999999999502e-01 1.667475000000000263e+00 7.303565000000000396e+01 1.613014999999999873e+03
2.900000000000000147e-02 6.897805000000000186e-01 2.303345000000000198e+00 7.154534999999999911e+01 1.612619999999999891e+03
3.000000000000000236e-02 6.893294999999999284e-01 2.803650000000000198e+00 6.990030000000000143e+01 1.612190000000000055e+03
3.099999999999999978e-02 6.888024999999999842e-01 3.119254999999999889e+00 6.803329999999999700e+01 1.611720000000000027e+03
3.200000000000000067e-02 6.881950000000000012e-01 3.225875000000000270e+00 6.590494999999999948e+01 1.611199999999999818e+03
3.300000000000000155e-02 6.875175000000000036e-01 3.129289999999999683e+00 6.351794999999999902e+01 1.610625000000000000e+03
3.400000000000000244e-02 6.867935000000000567e-01 2.863235000000000419e+00 6.092029999999999745e+01 1.610005000000000109e+03
3.500000000000000333e-02 6.860539999999999417e-01 2.481789999999999718e+00 5.819899999999999807e+01 1.609355000000000018e+03
3.600000000000000422e-02 6.853325000000000111e-01 2.047859999999999570e+00 5.546589999999999776e+01 1.608695000000000164e+03
3.700000000000000511e-02 6.846600000000000463e-01 1.622724999999999973e+00 5.284089999999999776e+01 1.608059999999999945e+03
3.799999999999999906e-02 6.840619999999999479e-01 1.257905000000000495e+00 5.043595000000000539e+01 1.607454999999999927e+03
3.899999999999999994e-02 6.835560000000000525e-01 9.910499999999999865e-01 4.834400000000000119e+01 1.606924999999999955e+03
4.000000000000000083e-02 6.831525000000000514e-01 8.458000000000001073e-01 4.663309999999999889e+01 1.606464999999999918e+03
4.100000000000000172e-02 6.828555000000000597e-01 8.341899999999999871e-01 4.534570000000000078e+01 1.606105000000000018e+03
4.200000000000000261e-02 6.826659999999999950e-01 9.606000000000000094e-01 4.450190000000000623e+01 1.605840000000000146e+03
4.300000000000000350e-02 6.825820000000000221e-01 1.225916500000000076e+00 4.410529999999999973e+01 1.605684999999999945e+03
4.400000000000000439e-02 6.826010000000000133e-01 1.630824999999999969e+00 4.414920000000000044e+01 1.605634999999999991e+03
4.499999999999999833e-02 6.827214999999999812e-01 2.177575000000000038e+00 4.462180000000000035e+01 1.605684999999999945e+03
4.599999999999999922e-02 6.829410000000000203e-01 2.870027499999999954e+00 4.550939999999999941e+01 1.605835000000000036e+03
4.700000000000000011e-02 6.832570000000000032e-01 3.712260999999999811e+00 4.679760000000000275e+01 1.606085000000000036e+03
4.800000000000000100e-02 6.836685000000000123e-01 4.706380000000000230e+00 4.846994999999999720e+01 1.606434999999999945e+03
4.900000000000000189e-02 6.841684999999999572e-01 5.850306500000000298e+00 5.050610000000000355e+01 1.606875000000000000e+03
5.000000000000000278e-02 6.847520000000000273e-01 7.136155999999999722e+00 5.287975000000000136e+01 1.607394999999999982e+03
5.100000000000000366e-02 6.854084999999999761e-01 8.549525000000000929e+00 5.555684999999999718e+01 1.608000000000000000e+03
5.200000000000000455e-02 6.861265000000000835e-01 1.007011999999999929e+01 5.849600000000000222e+01 1.608670000000000073e+03
5.300000000000000544e-02 6.868929999999999758e-01 1.167289000000000065e+01 6.164894999999999925e+01 1.609394999999999982e+03
5.399999999999999939e-02 6.876929999999999987e-01 1.333008000000000060e+01 6.496349999999999625e+01 1.610174999999999955e+03
5.500000000000000028e-02 6.885149999999999881e-01 1.501344999999999885e+01 6.838609999999999900e+01 1.610990000000000009e+03
5.600000000000000117e-02 6.893449999999999855e-01 1.669622499999999832e+01 7.186525000000000318e+01 1.611820000000000164e+03
5.700000000000000205e-02 6.901734999999999953e-01 1.835484999999999900e+01 7.535479999999999734e+01 1.612664999999999964e+03
5.800000000000000294e-02 6.909920000000000506e-01 1.997005000000000052e+01 7.881589999999999918e+01 1.613519999999999982e+03
5.900000000000000383e-02 6.917955000000000076e-01 2.152740000000000009e+01 8.221895000000000664e+01 1.614360000000000127e+03
6.000000000000000472e-02 6.925799999999999734e-01 2.301725000000000065e+01 8.554399999999999693e+01 1.615195000000000164e+03
6.099999999999999867e-02 6.933460000000000178e-01 2.443440000000000012e+01 8.878045000000000186e+01 1.616014999999999873e+03
6.199999999999999956e-02 6.940925000000000011e-01 2.577730000000000032e+01 9.192654999999999177e+01 1.616815000000000055e+03
6.300000000000000044e-02 6.948229999999999684e-01 2.704715000000000202e+01 9.498624999999999829e+01 1.617605000000000018e+03
6.400000000000000133e-02 6.955400000000000471e-01 2.824729999999999919e+01 9.797029999999999461e+01 1.618375000000000000e+03
6.500000000000000222e-02 6.962470000000000603e-01 2.938220000000000098e+01 1.008915999999999968e+02 1.619125000000000000e+03
6.600000000000000311e-02 6.969465000000000243e-01 3.045660000000000167e+01 1.037634999999999934e+02 1.619869999999999891e+03
6.700000000000000400e-02 6.976415000000000255e-01 3.147500000000000142e+01 1.065998500000000035e+02 1.620605000000000018e+03
6.800000000000000488e-02 6.983344999999999692e-01 3.244109999999999872e+01 1.094124999999999943e+02 1.621335000000000036e+03
6.900000000000000577e-02 6.990259999999999252e-01 3.335714999999999719e+01 1.122085000000000008e+02 1.622059999999999945e+03
7.000000000000000666e-02 6.997160000000000046e-01 3.422399999999999665e+01 1.149909999999999997e+02 1.622780000000000200e+03
7.100000000000000755e-02 7.004044999999999854e-01 3.504070000000000107e+01 1.177595000000000027e+02 1.623500000000000000e+03
7.200000000000000844e-02 7.010874999999999746e-01 3.580464999999999520e+01 1.205070000000000050e+02 1.624210000000000036e+03
7.300000000000000933e-02 7.017625000000000668e-01 3.651179999999999382e+01 1.232220000000000084e+02 1.624920000000000073e+03
7.399999999999999634e-02 7.024250000000000771e-01 3.715739999999999554e+01 1.258905000000000030e+02 1.625615000000000009e+03
7.499999999999999722e-02 7.030710000000000015e-01 3.773570000000000135e+01 1.284954999999999927e+02 1.626299999999999955e+03
7.599999999999999811e-02 7.036960000000000992e-01 3.824099999999999966e+01 1.310175000000000125e+02 1.626960000000000036e+03
7.699999999999999900e-02 7.042945000000000455e-01 3.866799999999999926e+01 1.334384999999999764e+02 1.627599999999999909e+03
7.799999999999999989e-02 7.048630000000000173e-01 3.901194999999999879e+01 1.357389999999999759e+02 1.628215000000000146e+03
7.900000000000000078e-02 7.053975000000000106e-01 3.926905000000000001e+01 1.379029999999999916e+02 1.628795000000000073e+03
8.000000000000000167e-02 7.058949999999999392e-01 3.943659999999999854e+01 1.399164999999999850e+02 1.629340000000000146e+03
8.100000000000000255e-02 7.063530000000000086e-01 3.951324999999999932e+01 1.417680000000000007e+02 1.629849999999999909e+03
8.200000000000000344e-02 7.067700000000000093e-01 3.949885000000000446e+01 1.434495000000000005e+02 1.630315000000000055e+03
8.300000000000000433e-02 7.071450000000000236e-01 3.939450000000000074e+01 1.449565000000000055e+02 1.630735000000000127e+03
8.400000000000000522e-02 7.074780000000000513e-01 3.920270000000000010e+01 1.462869999999999777e+02 1.631119999999999891e+03
8.500000000000000611e-02 7.077690000000000925e-01 3.892730000000000246e+01 1.474435000000000002e+02 1.631454999999999927e+03
8.600000000000000699e-02 7.080199999999999827e-01 3.857314999999999827e+01 1.484304999999999950e+02 1.631750000000000000e+03
8.700000000000000788e-02 7.082325000000000426e-01 3.814659999999999940e+01 1.492560000000000002e+02 1.632000000000000000e+03
8.800000000000000877e-02 7.084099999999999842e-01 3.765500000000000114e+01 1.499304999999999950e+02 1.632210000000000036e+03
8.899999999999999578e-02 7.085550000000000459e-01 3.710654999999999859e+01 1.504664999999999964e+02 1.632384999999999991e+03
8.999999999999999667e-02 7.086710000000000509e-01 3.651035000000000252e+01 1.508795000000000073e+02 1.632529999999999973e+03
9.099999999999999756e-02 7.087615000000000443e-01 3.587610000000000099e+01 1.511845000000000141e+02 1.632644999999999982e+03
9.199999999999999845e-02 7.088315000000000587e-01 3.521354999999999791e+01 1.513990000000000009e+02 1.632730000000000018e+03
9.299999999999999933e-02 7.088849999999999874e-01 3.453224999999999767e+01 1.515389999999999873e+02 1.632789999999999964e+03
9.400000000000000022e-02 7.089244999999999575e-01 3.384154999999999802e+01 1.516220000000000141e+02 1.632839999999999918e+03
9.500000000000000111e-02 7.089550000000000018e-01 3.314965000000000117e+01 1.516624999999999943e+02 1.632869999999999891e+03
9.600000000000000200e-02 7.089784999999999560e-01 3.246379999999999910e+01 1.516754999999999995e+02 1.632885000000000218e+03
9.700000000000000289e-02 7.089980000000000171e-01 3.178974999999999795e+01 1.516709999999999923e+02 1.632900000000000091e+03
9.800000000000000377e-02 7.090144999999999920e-01 3.113165000000000049e+01 1.516580000000000155e+02 1.632909999999999854e+03
9.900000000000000466e-02 7.090294999999999792e-01 3.049204999999999899e+01 1.516424999999999841e+02 1.632909999999999854e+03
1.000000000000000056e-01 7.090434999999999377e-01 2.987174999999999869e+01 1.516270000000000095e+02 1.632914999999999964e+03
1.010000000000000064e-01 7.090549999999999908e-01 2.927020000000000266e+01 1.516109999999999900e+02 1.632910000000000082e+03
1.020000000000000073e-01 7.090644999999999865e-01 2.868534999999999968e+01 1.515930000000000177e+02 1.632909999999999854e+03
1.030000000000000082e-01 7.090699999999999781e-01 2.811415000000000219e+01 1.515665000000000191e+02 1.632904999999999973e+03
1.040000000000000091e-01 7.090695000000000192e-01 2.755279999999999774e+01 1.515264999999999986e+02 1.632894999999999982e+03
1.050000000000000100e-01 7.090615000000000112e-01 2.699664999999999893e+01 1.514650000000000034e+02 1.632880000000000109e+03
1.059999999999999970e-01 7.090445000000000775e-01 2.644125000000000014e+01 1.513735000000000070e+02 1.632855000000000018e+03
1.069999999999999979e-01 7.090155000000000207e-01 2.588190000000000168e+01 1.512450000000000045e+02 1.632829999999999927e+03
1.079999999999999988e-01 7.089745000000000630e-01 2.531425000000000125e+01 1.510720000000000027e+02 1.632784999999999854e+03
1.089999999999999997e-01 7.089189999999999658e-01 2.473454999999999870e+01 1.508480000000000132e+02 1.632735000000000127e+03
1.100000000000000006e-01 7.088495000000000212e-01 2.413985000000000269e+01 1.505690000000000168e+02 1.632670000000000073e+03
1.110000000000000014e-01 7.087639999999999496e-01 2.352785000000000082e+01 1.502314999999999827e+02 1.632590000000000146e+03
1.120000000000000023e-01 7.086635000000000018e-01 2.289755000000000251e+01 1.498340000000000032e+02 1.632500000000000000e+03
1.130000000000000032e-01 7.085479999999999556e-01 2.224889999999999901e+01 1.493789999999999907e+02 1.632389999999999873e+03
1.140000000000000041e-01 7.084200000000000497e-01 2.158295000000000030e+01 1.488689999999999998e+02 1.632269999999999982e+03
1.150000000000000050e-01 7.082800000000000207e-01 2.090204999999999913e+01 1.483100000000000023e+02 1.632134999999999991e+03
1.160000000000000059e-01 7.081299999999999262e-01 2.020950000000000202e+01 1.477090000000000032e+02 1.631994999999999891e+03
1.170000000000000068e-01 7.079729999999999634e-01 1.950959999999999894e+01 1.470749999999999886e+02 1.631840000000000146e+03
1.180000000000000077e-01 7.078119999999999967e-01 1.880745000000000289e+01 1.464200000000000159e+02 1.631679999999999836e+03
1.190000000000000085e-01 7.076500000000000012e-01 1.810879999999999868e+01 1.457554999999999836e+02 1.631519999999999982e+03
1.200000000000000094e-01 7.074890000000000345e-01 1.741995000000000005e+01 1.450929999999999893e+02 1.631355000000000018e+03
1.209999999999999964e-01 7.073335000000000594e-01 1.674705000000000155e+01 1.444465000000000146e+02 1.631194999999999936e+03
1.219999999999999973e-01 7.071864999999999402e-01 1.609665000000000035e+01 1.438274999999999864e+02 1.631034999999999854e+03
1.229999999999999982e-01 7.070499999999999563e-01 1.547460000000000058e+01 1.432490000000000236e+02 1.630884999999999991e+03
1.239999999999999991e-01 7.069269999999999721e-01 1.488644999999999996e+01 1.427199999999999989e+02 1.630744999999999891e+03
1.250000000000000000e-01 7.068190000000000861e-01 1.433689999999999998e+01 1.422510000000000048e+02 1.630625000000000000e+03
1.260000000000000009e-01 7.067280000000000229e-01 1.382985000000000042e+01 1.418489999999999895e+02 1.630509999999999991e+03
1.270000000000000018e-01 7.066550000000000331e-01 1.336795000000000044e+01 1.415194999999999936e+02 1.630414999999999964e+03
1.280000000000000027e-01 7.066004999999999647e-01 1.295295000000000130e+01 1.412640000000000100e+02 1.630340000000000146e+03
1.290000000000000036e-01 7.065639999999999699e-01 1.258525000000000027e+01 1.410844999999999914e+02 1.630279999999999973e+03
1.300000000000000044e-01 7.065455000000000485e-01 1.226425000000000054e+01 1.409789999999999850e+02 1.630240000000000009e+03
1.310000000000000053e-01 7.065429999999999211e-01 1.198819999999999908e+01 1.409429999999999836e+02 1.630215000000000146e+03
1.320000000000000062e-01 7.065555000000000030e-01 1.175450000000000017e+01 1.409714999999999918e+02 1.630204999999999927e+03
1.330000000000000071e-01 7.065814999999999735e-01 1.155975000000000108e+01 1.410575000000000045e+02 1.630215000000000146e+03
1.340000000000000080e-01 7.066179999999999684e-01 1.139985000000000070e+01 1.411929999999999836e+02 1.630235000000000127e+03
1.350000000000000089e-01 7.066635000000000000e-01 1.127045000000000030e+01 1.413689999999999998e+02 1.630265000000000100e+03
1.360000000000000098e-01 7.067149999999999821e-01 1.116675000000000040e+01 1.415755000000000052e+02 1.630304999999999836e+03
1.370000000000000107e-01 7.067719999999999558e-01 1.108419999999999916e+01 1.418040000000000020e+02 1.630355000000000018e+03
1.380000000000000115e-01 7.068300000000000693e-01 1.101804999999999879e+01 1.420455000000000041e+02 1.630404999999999973e+03
1.390000000000000124e-01 7.068894999999999484e-01 1.096407500000000113e+01 1.422925000000000182e+02 1.630460000000000036e+03
1.400000000000000133e-01 7.069475000000000620e-01 1.091824000000000083e+01 1.425374999999999943e+02 1.630514999999999873e+03
1.410000000000000142e-01 7.070035000000000069e-01 1.087694499999999920e+01 1.427740000000000009e+02 1.630570000000000164e+03
1.420000000000000151e-01 7.070554999999999479e-01 1.083716499999999883e+01 1.429979999999999905e+02 1.630625000000000000e+03
1.430000000000000160e-01 7.071034999999999959e-01 1.079634499999999875e+01 1.432049999999999841e+02 1.630674999999999955e+03
1.440000000000000169e-01 7.071469999999999700e-01 1.075244999999999962e+01 1.433935000000000173e+02 1.630720000000000027e+03
1.450000000000000178e-01 7.071855000000000224e-01 1.070406000000000013e+01 1.435604999999999905e+02 1.630759999999999991e+03
1.459999999999999909e-01 7.072190000000000420e-01 1.065010000000000012e+01 1.437069999999999936e+02 1.630799999999999955e+03
1.469999999999999918e-01 7.072479999999999878e-01 1.059018499999999996e+01 1.438329999999999984e+02 1.630835000000000036e+03
1.479999999999999927e-01 7.072730000000000405e-01 1.052407499999999985e+01 1.439390000000000214e+02 1.630865000000000009e+03
1.489999999999999936e-01 7.072935000000000194e-01 1.045219999999999949e+01 1.440280000000000200e+02 1.630889999999999873e+03
1.499999999999999944e-01 7.073110000000000230e-01 1.037506499999999932e+01 1.441014999999999873e+02 1.630914999999999964e+03
1.509999999999999953e-01 7.073260000000000103e-01 1.029359499999999983e+01 1.441624999999999943e+02 1.630934999999999945e+03
1.519999999999999962e-01 7.073389999999999400e-01 1.020880000000000010e+01 1.442130000000000223e+02 1.630949999999999818e+03
1.529999999999999971e-01 7.073504999999999932e-01 1.012187499999999929e+01 1.442565000000000168e+02 1.630960000000000036e+03
1.539999999999999980e-01 7.073614999999999764e-01 1.003403000000000134e+01 1.442955000000000041e+02 1.630974999999999909e+03
1.549999999999999989e-01 7.073720000000000008e-01 9.946400000000000574e+00 1.443315000000000055e+02 1.630984999999999900e+03
1.559999999999999998e-01 7.073830000000000950e-01 9.860125000000000028e+00 1.443675000000000068e+02 1.631000000000000000e+03
1.570000000000000007e-01 7.073945000000000372e-01 9.776144999999999641e+00 1.444050000000000011e+02 1.631005000000000109e+03
1.580000000000000016e-01 7.074065000000000492e-01 9.695335000000000036e+00 1.444449999999999932e+02 1.631019999999999982e+03
1.590000000000000024e-01 7.074199999999999378e-01 9.618249999999999744e+00 1.444875000000000114e+02 1.631029999999999973e+03
