# t [s], A [cm^2], U [cm/s], P [cPa], c [cm/s]
1.000000000000000021e-03 1.681400000000000117e-01 3.984819000000000000e-01 1.041589999999999918e+02 2.306024999999999636e+03
2.000000000000000042e-03 1.680845000000000256e-01 2.076927999999999663e+00 1.000386499999999899e+02 2.305409999999999854e+03
3.000000000000000062e-03 1.679515000000000036e-01 4.143798499999999940e+00 9.436265000000000214e+01 2.304000000000000000e+03
4.000000000000000083e-03 1.677810000000000135e-01 6.483092499999999703e+00 8.852344999999999686e+01 2.302210000000000036e+03
5.000000000000000104e-03 1.676080000000000070e-01 8.962460000000000093e+00 8.361930000000000973e+01 2.300414999999999964e+03
6.000000000000000125e-03 1.674459999999999837e-01 1.128563499999999920e+01 7.967009999999999081e+01 2.298760000000000218e+03
7.000000000000000146e-03 1.672965000000000146e-01 1.322596500000000042e+01 7.617805000000001314e+01 2.297269999999999982e+03
8.000000000000000167e-03 1.671644999999999937e-01 1.480025000000000013e+01 7.309714999999999918e+01 2.295975000000000364e+03
9.000000000000001055e-03 1.670544999999999947e-01 1.607215000000000060e+01 7.059649999999999181e+01 2.294904999999999745e+03
1.000000000000000194e-02 1.669654999999999889e-01 1.706670000000000087e+01 6.867149999999999466e+01 2.294064999999999600e+03
1.099999999999999936e-02 1.668975000000000042e-01 1.780375000000000085e+01 6.723229999999999507e+01 2.293420000000000073e+03
1.200000000000000025e-02 1.668439999999999923e-01 1.828320000000000078e+01 6.610935000000000628e+01 2.292925000000000182e+03
1.300000000000000114e-02 1.668005000000000182e-01 1.852074999999999960e+01 6.511079999999999757e+01 2.292534999999999854e+03
1.400000000000000203e-02 1.667659999999999976e-01 1.863855000000000217e+01 6.432054999999999723e+01 2.292230000000000018e+03
1.499999999999999944e-02 1.667494999999999949e-01 1.886370000000000147e+01 6.423940000000000339e+01 2.292090000000000146e+03
1.600000000000000033e-02 1.667639999999999956e-01 1.939735000000000298e+01 6.547539999999999338e+01 2.292239999999999782e+03
1.700000000000000122e-02 1.668160000000000198e-01 2.027355000000000018e+01 6.823609999999999332e+01 2.292739999999999782e+03
1.800000000000000211e-02 1.668999999999999928e-01 2.132479999999999976e+01 7.206385000000000218e+01 2.293550000000000182e+03
1.900000000000000300e-02 1.669980000000000075e-01 2.226614999999999966e+01 7.599160000000000537e+01 2.294519999999999982e+03
2.000000000000000042e-02 1.670874999999999999e-01 2.283295000000000030e+01 7.897825000000000273e+01 2.295404999999999745e+03
2.100000000000000130e-02 1.671479999999999910e-01 2.289195000000000135e+01 8.035210000000000719e+01 2.296034999999999854e+03
2.200000000000000219e-02 1.671719999999999873e-01 2.247935000000000016e+01 8.004325000000000045e+01 2.296305000000000291e+03
2.299999999999999961e-02 1.671630000000000060e-01 2.175840000000000174e+01 7.852465000000000828e+01 2.296250000000000000e+03
2.400000000000000050e-02 1.671325000000000172e-01 2.093045000000000044e+01 7.653069999999999595e+01 2.295975000000000364e+03
2.500000000000000139e-02 1.670959999999999945e-01 2.014620000000000033e+01 7.471334999999999127e+01 2.295619999999999891e+03
2.600000000000000228e-02 1.670629999999999893e-01 1.945649999999999835e+01 7.339830000000000609e+01 2.295289999999999964e+03
2.700000000000000316e-02 1.670355000000000034e-01 1.881544999999999845e+01 7.252559999999999718e+01 2.295025000000000091e+03
2.800000000000000058e-02 1.670119999999999938e-01 1.812449999999999761e+01 7.176304999999999268e+01 2.294784999999999854e+03
2.900000000000000147e-02 1.669840000000000213e-01 1.729319999999999879e+01 7.071680000000000632e+01 2.294515000000000327e+03
3.000000000000000236e-02 1.669454999999999967e-01 1.629169999999999874e+01 6.914435000000000286e+01 2.294149999999999636e+03
3.099999999999999978e-02 1.668954999999999744e-01 1.517660000000000053e+01 6.709009999999999252e+01 2.293675000000000182e+03
3.200000000000000067e-02 1.668390000000000151e-01 1.408079999999999998e+01 6.489605000000000246e+01 2.293125000000000000e+03
3.300000000000000155e-02 1.667859999999999898e-01 1.317164999999999964e+01 6.308814999999999884e+01 2.292605000000000018e+03
3.400000000000000244e-02 1.667484999999999939e-01 1.259554999999999936e+01 6.218779999999999575e+01 2.292220000000000255e+03
3.500000000000000333e-02 1.667370000000000241e-01 1.242985000000000007e+01 6.252469999999999573e+01 2.292090000000000146e+03
3.600000000000000422e-02 1.667560000000000153e-01 1.265850000000000009e+01 6.412219999999999231e+01 2.292250000000000000e+03
3.700000000000000511e-02 1.668029999999999791e-01 1.317800000000000082e+01 6.668530000000001223e+01 2.292684999999999945e+03
3.799999999999999906e-02 1.668689999999999896e-01 1.382560000000000144e+01 6.968424999999999159e+01 2.293304999999999836e+03
3.899999999999999994e-02 1.669394999999999907e-01 1.441905000000000037e+01 7.249295000000000755e+01 2.293994999999999891e+03
4.000000000000000083e-02 1.670014999999999972e-01 1.479485000000000028e+01 7.453409999999999513e+01 2.294605000000000018e+03
4.100000000000000172e-02 1.670420000000000238e-01 1.483555000000000135e+01 7.539195000000000846e+01 2.295010000000000218e+03
4.200000000000000261e-02 1.670534999999999937e-01 1.448240000000000016e+01 7.486979999999999791e+01 2.295135000000000218e+03
4.300000000000000350e-02 1.670300000000000118e-01 1.373269999999999946e+01 7.298834999999999695e+01 2.294934999999999945e+03
4.400000000000000439e-02 1.669744999999999979e-01 1.262782999999999944e+01 6.993805000000000405e+01 2.294405000000000200e+03
4.499999999999999833e-02 1.668900000000000106e-01 1.123528999999999911e+01 6.600755000000000905e+01 2.293599999999999909e+03
4.599999999999999922e-02 1.667845000000000022e-01 9.632735000000000269e+00 6.151290000000000191e+01 2.292574999999999818e+03
4.700000000000000011e-02 1.666639999999999788e-01 7.896645000000000358e+00 5.674455000000000382e+01 2.291400000000000091e+03
4.800000000000000100e-02 1.665355000000000030e-01 6.097260000000000346e+00 5.194140000000000157e+01 2.290144999999999982e+03
4.900000000000000189e-02 1.664045000000000107e-01 4.298414500000000693e+00 4.728950000000000387e+01 2.288869999999999891e+03
5.000000000000000278e-02 1.662770000000000081e-01 2.560459999999999958e+00 4.293645000000000067e+01 2.287614999999999782e+03
5.100000000000000366e-02 1.661560000000000259e-01 9.435199999999999143e-01 3.901139999999999475e+01 2.286430000000000291e+03
5.200000000000000455e-02 1.660470000000000002e-01 -4.908550000000000413e-01 3.564159999999999684e+01 2.285345000000000255e+03
5.300000000000000544e-02 1.659525000000000028e-01 -1.680472000000000188e+00 3.295884999999999820e+01 2.284414999999999964e+03
5.399999999999999939e-02 1.658779999999999977e-01 -2.565865500000000132e+00 3.109595000000000198e+01 2.283670000000000073e+03
5.500000000000000028e-02 1.658264999999999878e-01 -3.095225000000000115e+00 3.017389999999999972e+01 2.283144999999999982e+03
5.600000000000000117e-02 1.658014999999999906e-01 -3.229810000000000070e+00 3.028565000000000040e+01 2.282880000000000109e+03
5.700000000000000205e-02 1.658054999999999946e-01 -2.948475000000000179e+00 3.148029999999999973e+01 2.282885000000000218e+03
5.800000000000000294e-02 1.658384999999999998e-01 -2.250321000000000016e+00 3.375269999999999726e+01 2.283179999999999836e+03
5.900000000000000383e-02 1.659019999999999939e-01 -1.155170000000000030e+00 3.703995000000000459e+01 2.283760000000000218e+03
6.000000000000000472e-02 1.659920000000000007e-01 2.981799999999998896e-01 4.122615000000000407e+01 2.284619999999999891e+03
6.099999999999999867e-02 1.661064999999999903e-01 2.055309999999999970e+00 4.615229999999999677e+01 2.285715000000000146e+03
6.199999999999999956e-02 1.662420000000000009e-01 4.050610999999999962e+00 5.163100000000000023e+01 2.287015000000000327e+03
6.300000000000000044e-02 1.663919999999999844e-01 6.212180000000000035e+00 5.746184999999999832e+01 2.288470000000000255e+03
6.400000000000000133e-02 1.665519999999999778e-01 8.466675000000000395e+00 6.344669999999999987e+01 2.290029999999999745e+03
6.500000000000000222e-02 1.667174999999999907e-01 1.074406500000000086e+01 6.940394999999999470e+01 2.291650000000000091e+03
6.600000000000000311e-02 1.668824999999999892e-01 1.298179499999999997e+01 7.517984999999998763e+01 2.293274999999999636e+03
6.700000000000000400e-02 1.670444999999999847e-01 1.512814999999999976e+01 8.065735000000000809e+01 2.294875000000000000e+03
6.800000000000000488e-02 1.671995000000000009e-01 1.714495000000000147e+01 8.576220000000000709e+01 2.296414999999999964e+03
6.900000000000000577e-02 1.673450000000000215e-01 1.900870000000000104e+01 9.046424999999999272e+01 2.297864999999999782e+03
7.000000000000000666e-02 1.674815000000000054e-01 2.071054999999999779e+01 9.477529999999998722e+01 2.299234999999999673e+03
7.100000000000000755e-02 1.676084999999999936e-01 2.225475000000000136e+01 9.874264999999999759e+01 2.300505000000000109e+03
7.200000000000000844e-02 1.677275000000000016e-01 2.365654999999999930e+01 1.024407500000000084e+02 2.301699999999999818e+03
7.300000000000000933e-02 1.678399999999999892e-01 2.493840000000000146e+01 1.059569999999999936e+02 2.302835000000000036e+03
7.399999999999999634e-02 1.679479999999999862e-01 2.612669999999999959e+01 1.093845000000000027e+02 2.303930000000000291e+03
7.499999999999999722e-02 1.680540000000000089e-01 2.724800000000000111e+01 1.128050000000000068e+02 2.304994999999999891e+03
7.599999999999999811e-02 1.681600000000000039e-01 2.832625000000000171e+01 1.162870000000000061e+02 2.306065000000000055e+03
7.699999999999999900e-02 1.682675000000000143e-01 2.938020000000000209e+01 1.198735000000000070e+02 2.307139999999999873e+03
7.799999999999999989e-02 1.683779999999999999e-01 3.042199999999999704e+01 1.235840000000000032e+02 2.308250000000000000e+03
7.900000000000000078e-02 1.684904999999999875e-01 3.145629999999999882e+01 1.274120000000000061e+02 2.309375000000000000e+03
8.000000000000000167e-02 1.686050000000000049e-01 3.248069999999999879e+01 1.313275000000000148e+02 2.310529999999999745e+03
8.100000000000000255e-02 1.687220000000000109e-01 3.348600000000000421e+01 1.352820000000000107e+02 2.311710000000000036e+03
8.200000000000000344e-02 1.688395000000000035e-01 3.445744999999999436e+01 1.392115000000000009e+02 2.312885000000000218e+03
8.300000000000000433e-02 1.689550000000000218e-01 3.537624999999999886e+01 1.430459999999999923e+02 2.314050000000000182e+03
8.400000000000000522e-02 1.690675000000000094e-01 3.622100000000000364e+01 1.467090000000000032e+02 2.315184999999999945e+03
8.500000000000000611e-02 1.691745000000000054e-01 3.696959999999999980e+01 1.501274999999999977e+02 2.316269999999999982e+03
8.600000000000000699e-02 1.692744999999999944e-01 3.760020000000000095e+01 1.532334999999999923e+02 2.317279999999999745e+03
8.700000000000000788e-02 1.693660000000000165e-01 3.809344999999999715e+01 1.559694999999999823e+02 2.318210000000000036e+03
8.800000000000000877e-02 1.694464999999999999e-01 3.843335000000000434e+01 1.582889999999999873e+02 2.319034999999999854e+03
8.899999999999999578e-02 1.695154999999999856e-01 3.860835000000000150e+01 1.601634999999999991e+02 2.319739999999999782e+03
8.999999999999999667e-02 1.695725000000000149e-01 3.861260000000000048e+01 1.615774999999999864e+02 2.320319999999999709e+03
9.099999999999999756e-02 1.696159999999999890e-01 3.844590000000000174e+01 1.625349999999999966e+02 2.320779999999999745e+03
9.199999999999999845e-02 1.696469999999999922e-01 3.811419999999999675e+01 1.630554999999999950e+02 2.321105000000000018e+03
9.299999999999999933e-02 1.696659999999999835e-01 3.762930000000000064e+01 1.631745000000000232e+02 2.321315000000000055e+03
9.400000000000000022e-02 1.696739999999999915e-01 3.700795000000000101e+01 1.629404999999999859e+02 2.321409999999999854e+03
9.500000000000000111e-02 1.696719999999999895e-01 3.627114999999999867e+01 1.624110000000000014e+02 2.321399999999999636e+03
9.600000000000000200e-02 1.696615000000000206e-01 3.544275000000000375e+01 1.616510000000000105e+02 2.321305000000000291e+03
9.700000000000000289e-02 1.696445000000000036e-01 3.454829999999999757e+01 1.607264999999999873e+02 2.321144999999999982e+03
9.800000000000000377e-02 1.696229999999999960e-01 3.361350000000000193e+01 1.597044999999999959e+02 2.320930000000000291e+03
9.900000000000000466e-02 1.695975000000000121e-01 3.266310000000000002e+01 1.586444999999999936e+02 2.320684999999999945e+03
1.000000000000000056e-01 1.695709999999999995e-01 3.171970000000000312e+01 1.575999999999999943e+02 2.320425000000000182e+03
1.010000000000000064e-01 1.695450000000000013e-01 3.080270000000000152e+01 1.566159999999999854e+02 2.320154999999999745e+03
1.020000000000000073e-01 1.695194999999999896e-01 2.992755000000000365e+01 1.557239999999999895e+02 2.319900000000000091e+03
1.030000000000000082e-01 1.694954999999999934e-01 2.910515000000000185e+01 1.549445000000000050e+02 2.319659999999999854e+03
1.040000000000000091e-01 1.694749999999999868e-01 2.834165000000000134e+01 1.542839999999999918e+02 2.319444999999999709e+03
1.050000000000000100e-01 1.694565000000000099e-01 2.763819999999999766e+01 1.537384999999999877e+02 2.319255000000000109e+03
1.059999999999999970e-01 1.694410000000000083e-01 2.699135000000000062e+01 1.532905000000000086e+02 2.319094999999999800e+03
1.069999999999999979e-01 1.694269999999999943e-01 2.639329999999999998e+01 1.529130000000000109e+02 2.318954999999999927e+03
1.079999999999999988e-01 1.694154999999999966e-01 2.583285000000000053e+01 1.525699999999999932e+02 2.318829999999999927e+03
1.089999999999999997e-01 1.694045000000000134e-01 2.529594999999999771e+01 1.522220000000000084e+02 2.318710000000000036e+03
1.100000000000000006e-01 1.693919999999999870e-01 2.476735000000000042e+01 1.518245000000000005e+02 2.318585000000000036e+03
1.110000000000000014e-01 1.693790000000000018e-01 2.423104999999999976e+01 1.513360000000000127e+02 2.318444999999999709e+03
1.120000000000000023e-01 1.693624999999999992e-01 2.367190000000000083e+01 1.507169999999999845e+02 2.318284999999999854e+03
1.130000000000000032e-01 1.693430000000000213e-01 2.307669999999999888e+01 1.499350000000000023e+02 2.318085000000000036e+03
1.140000000000000041e-01 1.693184999999999829e-01 2.243505000000000038e+01 1.489664999999999964e+02 2.317840000000000146e+03
1.150000000000000050e-01 1.692889999999999950e-01 2.174005000000000010e+01 1.477995000000000232e+02 2.317545000000000073e+03
1.160000000000000059e-01 1.692545000000000022e-01 2.098920000000000030e+01 1.464320000000000164e+02 2.317199999999999818e+03
1.170000000000000068e-01 1.692139999999999755e-01 2.018419999999999703e+01 1.448774999999999977e+02 2.316800000000000182e+03
1.180000000000000077e-01 1.691690000000000138e-01 1.933129999999999882e+01 1.431594999999999800e+02 2.316350000000000364e+03
1.190000000000000085e-01 1.691199999999999926e-01 1.844084999999999752e+01 1.413114999999999952e+02 2.315859999999999673e+03
1.200000000000000094e-01 1.690669999999999951e-01 1.752649999999999864e+01 1.393770000000000095e+02 2.315324999999999818e+03
1.209999999999999964e-01 1.690119999999999956e-01 1.660460000000000136e+01 1.374055000000000177e+02 2.314779999999999745e+03
1.219999999999999973e-01 1.689559999999999951e-01 1.569294999999999973e+01 1.354484999999999957e+02 2.314215000000000146e+03
1.229999999999999982e-01 1.689005000000000090e-01 1.480995000000000061e+01 1.335569999999999879e+02 2.313664999999999964e+03
1.239999999999999991e-01 1.688469999999999971e-01 1.397339999999999982e+01 1.317800000000000011e+02 2.313125000000000000e+03
1.250000000000000000e-01 1.687965000000000160e-01 1.319945000000000057e+01 1.301595000000000084e+02 2.312614999999999782e+03
1.260000000000000009e-01 1.687505000000000255e-01 1.250175000000000125e+01 1.287300000000000182e+02 2.312144999999999982e+03
1.270000000000000018e-01 1.687089999999999979e-01 1.189085000000000036e+01 1.275165000000000077e+02 2.311730000000000018e+03
1.280000000000000027e-01 1.686735000000000040e-01 1.137391500000000022e+01 1.265335000000000036e+02 2.311364999999999782e+03
1.290000000000000036e-01 1.686445000000000027e-01 1.095433500000000038e+01 1.257860000000000014e+02 2.311065000000000055e+03
1.300000000000000044e-01 1.686219999999999941e-01 1.063192499999999896e+01 1.252684999999999889e+02 2.310829999999999927e+03
1.310000000000000053e-01 1.686055000000000192e-01 1.040315000000000012e+01 1.249680000000000035e+02 2.310659999999999854e+03
1.320000000000000062e-01 1.685949999999999949e-01 1.026141499999999951e+01 1.248635000000000019e+02 2.310545000000000073e+03
1.330000000000000071e-01 1.685895000000000032e-01 1.019794999999999874e+01 1.249290000000000020e+02 2.310485000000000127e+03
1.340000000000000080e-01 1.685889999999999889e-01 1.020195000000000007e+01 1.251359999999999957e+02 2.310474999999999909e+03
1.350000000000000089e-01 1.685925000000000062e-01 1.026144999999999996e+01 1.254519999999999982e+02 2.310500000000000000e+03
1.360000000000000098e-01 1.685995000000000132e-01 1.036382000000000048e+01 1.258465000000000060e+02 2.310564999999999600e+03
1.370000000000000107e-01 1.686084999999999945e-01 1.049644999999999939e+01 1.262884999999999991e+02 2.310649999999999636e+03
1.380000000000000115e-01 1.686195000000000055e-01 1.064710000000000001e+01 1.267494999999999976e+02 2.310750000000000000e+03
1.390000000000000124e-01 1.686300000000000021e-01 1.080444999999999922e+01 1.272040000000000077e+02 2.310864999999999782e+03
1.400000000000000133e-01 1.686420000000000141e-01 1.095850000000000080e+01 1.276320000000000050e+02 2.310970000000000255e+03
1.410000000000000142e-01 1.686524999999999830e-01 1.110075000000000145e+01 1.280149999999999864e+02 2.311079999999999927e+03
1.420000000000000151e-01 1.686630000000000074e-01 1.122475000000000023e+01 1.283425000000000011e+02 2.311180000000000291e+03
1.430000000000000160e-01 1.686710000000000154e-01 1.132580000000000098e+01 1.286065000000000111e+02 2.311264999999999873e+03
1.440000000000000169e-01 1.686779999999999946e-01 1.140125000000000099e+01 1.288050000000000068e+02 2.311340000000000146e+03
1.450000000000000178e-01 1.686840000000000006e-01 1.145049999999999990e+01 1.289410000000000025e+02 2.311394999999999982e+03
1.459999999999999909e-01 1.686874999999999902e-01 1.147459999999999880e+01 1.290210000000000150e+02 2.311440000000000055e+03
1.469999999999999918e-01 1.686904999999999932e-01 1.147609999999999886e+01 1.290540000000000020e+02 2.311465000000000146e+03
1.479999999999999927e-01 1.686920000000000086e-01 1.145870000000000033e+01 1.290529999999999973e+02 2.311480000000000018e+03
1.489999999999999936e-01 1.686924999999999952e-01 1.142684999999999995e+01 1.290314999999999941e+02 2.311484999999999673e+03
1.499999999999999944e-01 1.686924999999999952e-01 1.138550000000000040e+01 1.290004999999999882e+02 2.311494999999999891e+03
1.509999999999999953e-01 1.686920000000000086e-01 1.133924999999999983e+01 1.289739999999999895e+02 2.311489999999999782e+03
1.519999999999999962e-01 1.686920000000000086e-01 1.129260000000000019e+01 1.289615000000000009e+02 2.311494999999999891e+03
1.529999999999999971e-01 1.686920000000000086e-01 1.124910000000000032e+01 1.289714999999999918e+02 2.311494999999999891e+03
1.539999999999999980e-01 1.686930000000000096e-01 1.121154999999999902e+01 1.290080000000000098e+02 2.311505000000000109e+03
1.549999999999999989e-01 1.686949999999999839e-01 1.118175000000000097e+01 1.290729999999999791e+02 2.311515000000000327e+03
1.559999999999999998e-01 1.686964999999999992e-01 1.116034999999999933e+01 1.291659999999999968e+02 2.311539999999999964e+03
1.570000000000000007e-01 1.686995000000000022e-01 1.114710000000000001e+01 1.292825000000000273e+02 2.311565000000000055e+03
1.580000000000000016e-01 1.687029999999999919e-01 1.114089999999999847e+01 1.294170000000000016e+02 2.311599999999999909e+03
1.590000000000000024e-01 1.687069999999999959e-01 1.114004999999999868e+01 1.295625000000000000e+02 2.311640000000000327e+03
