# t [s], A [cm^2], U [cm/s], P [cPa], c [cm/s]
1.000000000000000021e-03 4.462804999999999689e-01 3.701050000000004336e-03 9.588054999999999950e+01 1.481465000000000146e+03
2.000000000000000042e-03 4.462739999999999485e-01 -1.485216999999999831e-03 9.586254999999999882e+01 1.481460000000000036e+03
3.000000000000000062e-03 4.462970000000000548e-01 4.931964999999999266e-02 9.590925000000000011e+01 1.481474999999999909e+03
4.000000000000000083e-03 4.463359999999999550e-01 1.375183500000000114e-01 9.601349999999999341e+01 1.481500000000000000e+03
5.000000000000000104e-03 4.463435000000000041e-01 1.626394499999999910e-01 9.604394999999999527e+01 1.481514999999999873e+03
6.000000000000000125e-03 4.463144999999999474e-01 1.071500000000000091e-01 9.594845000000000823e+01 1.481494999999999891e+03
7.000000000000000146e-03 4.462795000000000512e-01 3.464100000000003288e-02 9.578270000000000550e+01 1.481454999999999927e+03
8.000000000000000167e-03 4.462460000000000315e-01 -3.969849999999996992e-02 9.557415000000000305e+01 1.481409999999999854e+03
9.000000000000001055e-03 4.461915000000000187e-01 -1.694065000000000154e-01 9.526814999999999145e+01 1.481335000000000036e+03
1.000000000000000194e-02 4.461045000000000149e-01 -3.831800000000000761e-01 9.481569999999999254e+01 1.481230000000000018e+03
1.099999999999999936e-02 4.459815000000000307e-01 -6.855649999999999800e-01 9.418725000000000591e+01 1.481079999999999927e+03
1.200000000000000025e-02 4.458134999999999737e-01 -1.088989999999999903e+00 9.334335000000000093e+01 1.480880000000000109e+03
1.300000000000000114e-02 4.455950000000000188e-01 -1.597620000000000040e+00 9.225020000000000664e+01 1.480610000000000127e+03
1.400000000000000203e-02 4.453340000000000076e-01 -2.174815000000000165e+00 9.092134999999998968e+01 1.480280000000000200e+03
1.499999999999999944e-02 4.450574999999999948e-01 -2.740344999999999587e+00 8.943385000000000673e+01 1.479894999999999982e+03
1.600000000000000033e-02 4.447949999999999959e-01 -3.200285000000000046e+00 8.790234999999999843e+01 1.479490000000000009e+03
1.700000000000000122e-02 4.445685000000000331e-01 -3.482730999999999799e+00 8.643549999999999045e+01 1.479079999999999927e+03
1.800000000000000211e-02 4.443825000000000136e-01 -3.557628999999999930e+00 8.510179999999999723e+01 1.478694999999999936e+03
1.900000000000000300e-02 4.442289999999999850e-01 -3.436916295000000066e+00 8.391764999999999475e+01 1.478324999999999818e+03
2.000000000000000042e-02 4.440910000000000135e-01 -3.161654050000000105e+00 8.285360000000000014e+01 1.477980000000000018e+03
2.100000000000000130e-02 4.439489999999999825e-01 -2.784458999999999573e+00 8.185269999999999868e+01 1.477650000000000091e+03
2.200000000000000219e-02 4.437889999999999890e-01 -2.352897500000000086e+00 8.085204999999999131e+01 1.477315000000000055e+03
2.299999999999999961e-02 4.436035000000000394e-01 -1.897759999999999891e+00 7.980259999999999820e+01 1.476970000000000027e+03
2.400000000000000050e-02 4.433924999999999672e-01 -1.428449999999999998e+00 7.868094999999999573e+01 1.476605000000000018e+03
2.500000000000000139e-02 4.431644999999999612e-01 -9.361450000000002269e-01 7.749209999999999354e+01 1.476230000000000018e+03
2.600000000000000228e-02 4.429300000000000459e-01 -4.030750000000000721e-01 7.626169999999999050e+01 1.475835000000000036e+03
2.700000000000000316e-02 4.426980000000000359e-01 1.860199999999996301e-01 7.502259999999999707e+01 1.475440000000000055e+03
2.800000000000000058e-02 4.424724999999999908e-01 8.343200000000001726e-01 7.380060000000000286e+01 1.475045000000000073e+03
2.900000000000000147e-02 4.422519999999999785e-01 1.527854999999999741e+00 7.260360000000000014e+01 1.474660000000000082e+03
3.000000000000000236e-02 4.420295000000000196e-01 2.235714999999999897e+00 7.141750000000000398e+01 1.474269999999999982e+03
3.099999999999999978e-02 4.417929999999999913e-01 2.914749999999999730e+00 7.020779999999999177e+01 1.473875000000000000e+03
3.200000000000000067e-02 4.415320000000000356e-01 3.517300000000000537e+00 6.892685000000000173e+01 1.473465000000000146e+03
3.300000000000000155e-02 4.412350000000000438e-01 4.000054999999999694e+00 6.752514999999999645e+01 1.473030000000000200e+03
3.400000000000000244e-02 4.408954999999999957e-01 4.332324999999999093e+00 6.596299999999999386e+01 1.472565000000000055e+03
3.500000000000000333e-02 4.405149999999999899e-01 4.501985000000000348e+00 6.422109999999999275e+01 1.472050000000000182e+03
3.600000000000000422e-02 4.400990000000000180e-01 4.517470000000000319e+00 6.230734999999999957e+01 1.471494999999999891e+03
3.700000000000000511e-02 4.396609999999999685e-01 4.406094999999999651e+00 6.025809999999999889e+01 1.470909999999999854e+03
3.799999999999999906e-02 4.392165000000000097e-01 4.208404999999999951e+00 5.813379999999999370e+01 1.470295000000000073e+03
3.899999999999999994e-02 4.387840000000000074e-01 3.971589999999999954e+00 5.601104999999999734e+01 1.469690000000000055e+03
4.000000000000000083e-02 4.383795000000000330e-01 3.742255000000000553e+00 5.397285000000000110e+01 1.469095000000000027e+03
4.100000000000000172e-02 4.380169999999999897e-01 3.561189999999999856e+00 5.209909999999999997e+01 1.468530000000000200e+03
4.200000000000000261e-02 4.377085000000000004e-01 3.460329999999999906e+00 5.045955000000000013e+01 1.468029999999999973e+03
4.300000000000000350e-02 4.374599999999999600e-01 3.461629999999999985e+00 4.910899999999999466e+01 1.467599999999999909e+03
4.400000000000000439e-02 4.372765000000000124e-01 3.578215000000000590e+00 4.808619999999999806e+01 1.467250000000000000e+03
4.499999999999999833e-02 4.371589999999999643e-01 3.816482000000000152e+00 4.741420000000000101e+01 1.467000000000000000e+03
4.599999999999999922e-02 4.371079999999999965e-01 4.178679999999999950e+00 4.710330000000000439e+01 1.466840000000000146e+03
4.700000000000000011e-02 4.371220000000000105e-01 4.665384999999999671e+00 4.715444999999999709e+01 1.466789999999999964e+03
4.800000000000000100e-02 4.372004999999999919e-01 5.277319999999999567e+00 4.756255000000000166e+01 1.466840000000000146e+03
4.900000000000000189e-02 4.373425000000000229e-01 6.016215000000000757e+00 4.831950000000000500e+01 1.466990000000000009e+03
5.000000000000000278e-02 4.375464999999999494e-01 6.884640000000000093e+00 4.941584999999999894e+01 1.467240000000000009e+03
5.100000000000000366e-02 4.378119999999999790e-01 7.885099999999999554e+00 5.084125000000000227e+01 1.467585000000000036e+03
5.200000000000000455e-02 4.381374999999999575e-01 9.018670000000000186e+00 5.258384999999999820e+01 1.468030000000000200e+03
5.300000000000000544e-02 4.385189999999999921e-01 1.028345500000000001e+01 5.462909999999999400e+01 1.468559999999999945e+03
5.399999999999999939e-02 4.389549999999999841e-01 1.167370500000000000e+01 5.695860000000000412e+01 1.469175000000000182e+03
5.500000000000000028e-02 4.394389999999999685e-01 1.317892000000000152e+01 5.954905000000000115e+01 1.469875000000000000e+03
5.600000000000000117e-02 4.399659999999999682e-01 1.478430499999999981e+01 6.237194999999999823e+01 1.470644999999999982e+03
5.700000000000000205e-02 4.405275000000000163e-01 1.647131500000000059e+01 6.539404999999999291e+01 1.471480000000000018e+03
5.800000000000000294e-02 4.411180000000000101e-01 1.821863000000000099e+01 6.857835000000000036e+01 1.472369999999999891e+03
5.900000000000000383e-02 4.417280000000000095e-01 2.000375000000000014e+01 7.188580000000000325e+01 1.473304999999999836e+03
6.000000000000000472e-02 4.423509999999999942e-01 2.180420000000000158e+01 7.527719999999999345e+01 1.474275000000000091e+03
6.099999999999999867e-02 4.429799999999999849e-01 2.359880000000000067e+01 7.871505000000000507e+01 1.475264999999999873e+03
6.199999999999999956e-02 4.436089999999999756e-01 2.536874999999999858e+01 8.216530000000000200e+01 1.476269999999999982e+03
6.300000000000000044e-02 4.442340000000000177e-01 2.709835000000000349e+01 8.559879999999999711e+01 1.477279999999999973e+03
6.400000000000000133e-02 4.448509999999999964e-01 2.877495000000000047e+01 8.899235000000000184e+01 1.478289999999999964e+03
6.500000000000000222e-02 4.454575000000000617e-01 3.038939999999999841e+01 9.232865000000001032e+01 1.479295000000000073e+03
6.600000000000000311e-02 4.460520000000000040e-01 3.193544999999999945e+01 9.559600000000000364e+01 1.480280000000000200e+03
6.700000000000000400e-02 4.466355000000000186e-01 3.340964999999999918e+01 9.878954999999999131e+01 1.481255000000000109e+03
6.800000000000000488e-02 4.472070000000000212e-01 3.481060000000000088e+01 1.019072500000000048e+02 1.482210000000000036e+03
6.900000000000000577e-02 4.477674999999999850e-01 3.613850000000000051e+01 1.049521000000000015e+02 1.483150000000000091e+03
7.000000000000000666e-02 4.483179999999999943e-01 3.739489999999999981e+01 1.079294500000000028e+02 1.484075000000000045e+03
7.100000000000000755e-02 4.488604999999999956e-01 3.858174999999999955e+01 1.108460000000000036e+02 1.484980000000000018e+03
7.200000000000000844e-02 4.493960000000000177e-01 3.970135000000000502e+01 1.137095000000000056e+02 1.485875000000000000e+03
7.300000000000000933e-02 4.499245000000000050e-01 4.075579999999999359e+01 1.165254999999999939e+02 1.486750000000000000e+03
7.399999999999999634e-02 4.504480000000000151e-01 4.174680000000000035e+01 1.193004999999999995e+02 1.487619999999999891e+03
7.499999999999999722e-02 4.509655000000000191e-01 4.267530000000000001e+01 1.220374999999999943e+02 1.488480000000000018e+03
7.599999999999999811e-02 4.514769999999999617e-01 4.354124999999999801e+01 1.247365000000000066e+02 1.489325000000000045e+03
7.699999999999999900e-02 4.519824999999999537e-01 4.434385000000000332e+01 1.273960000000000008e+02 1.490159999999999854e+03
7.799999999999999989e-02 4.524794999999999789e-01 4.508115000000000094e+01 1.300115000000000123e+02 1.490985000000000127e+03
7.900000000000000078e-02 4.529664999999999941e-01 4.575054999999999694e+01 1.325739999999999839e+02 1.491799999999999955e+03
8.000000000000000167e-02 4.534424999999999706e-01 4.634870000000000090e+01 1.350749999999999886e+02 1.492590000000000146e+03
8.100000000000000255e-02 4.539044999999999885e-01 4.687194999999999823e+01 1.375024999999999977e+02 1.493365000000000009e+03
8.200000000000000344e-02 4.543495000000000172e-01 4.731654999999999944e+01 1.398429999999999893e+02 1.494110000000000127e+03
8.300000000000000433e-02 4.547754999999999992e-01 4.767905000000000371e+01 1.420844999999999914e+02 1.494835000000000036e+03
8.400000000000000522e-02 4.551800000000000290e-01 4.795635000000000048e+01 1.442135000000000105e+02 1.495519999999999982e+03
8.500000000000000611e-02 4.555609999999999937e-01 4.814615000000000578e+01 1.462189999999999941e+02 1.496175000000000182e+03
8.600000000000000699e-02 4.559180000000000454e-01 4.824685000000000201e+01 1.480910000000000082e+02 1.496795000000000073e+03
8.700000000000000788e-02 4.562475000000000280e-01 4.825799999999999557e+01 1.498199999999999932e+02 1.497365000000000009e+03
8.800000000000000877e-02 4.565494999999999970e-01 4.817990000000000350e+01 1.514010000000000105e+02 1.497900000000000091e+03
8.899999999999999578e-02 4.568234999999999935e-01 4.801399999999999579e+01 1.528294999999999959e+02 1.498389999999999873e+03
8.999999999999999667e-02 4.570695000000000174e-01 4.776279999999999859e+01 1.541039999999999850e+02 1.498829999999999927e+03
9.099999999999999756e-02 4.572874999999999579e-01 4.742954999999999899e+01 1.552250000000000227e+02 1.499224999999999909e+03
9.199999999999999845e-02 4.574779999999999958e-01 4.701864999999999384e+01 1.561949999999999932e+02 1.499575000000000045e+03
9.299999999999999933e-02 4.576415000000000344e-01 4.653524999999999778e+01 1.570200000000000102e+02 1.499875000000000000e+03
9.400000000000000022e-02 4.577805000000000346e-01 4.598525000000000063e+01 1.577059999999999889e+02 1.500139999999999873e+03
9.500000000000000111e-02 4.578955000000000108e-01 4.537534999999999741e+01 1.582609999999999957e+02 1.500360000000000127e+03
9.600000000000000200e-02 4.579889999999999795e-01 4.471280000000000143e+01 1.586959999999999980e+02 1.500539999999999964e+03
9.700000000000000289e-02 4.580629999999999979e-01 4.400540000000000163e+01 1.590210000000000150e+02 1.500690000000000055e+03
9.800000000000000377e-02 4.581184999999999841e-01 4.326130000000000564e+01 1.592485000000000070e+02 1.500795000000000073e+03
9.900000000000000466e-02 4.581589999999999829e-01 4.248874999999999602e+01 1.593915000000000077e+02 1.500884999999999991e+03
1.000000000000000056e-01 4.581870000000000109e-01 4.169610000000000127e+01 1.594625000000000057e+02 1.500940000000000055e+03
1.010000000000000064e-01 4.582040000000000002e-01 4.089124999999999943e+01 1.594735000000000014e+02 1.500974999999999909e+03
1.020000000000000073e-01 4.582124999999999670e-01 4.008180000000000121e+01 1.594375000000000000e+02 1.500990000000000009e+03
1.030000000000000082e-01 4.582144999999999690e-01 3.927455000000000496e+01 1.593650000000000091e+02 1.500994999999999891e+03
1.040000000000000091e-01 4.582114999999999938e-01 3.847554999999999836e+01 1.592674999999999841e+02 1.500980000000000018e+03
1.050000000000000100e-01 4.582045000000000146e-01 3.768965000000000032e+01 1.591514999999999986e+02 1.500965000000000146e+03
1.059999999999999970e-01 4.581955000000000333e-01 3.692060000000000031e+01 1.590254999999999939e+02 1.500940000000000055e+03
1.069999999999999979e-01 4.581850000000000089e-01 3.617090000000000316e+01 1.588930000000000007e+02 1.500904999999999973e+03
1.079999999999999988e-01 4.581729999999999969e-01 3.544185000000000230e+01 1.587574999999999932e+02 1.500869999999999891e+03
1.089999999999999997e-01 4.581594999999999418e-01 3.473345000000000482e+01 1.586200000000000045e+02 1.500835000000000036e+03
1.100000000000000006e-01 4.581439999999999957e-01 3.404465000000000430e+01 1.584780000000000086e+02 1.500795000000000073e+03
1.110000000000000014e-01 4.581254999999999633e-01 3.337355000000000160e+01 1.583305000000000007e+02 1.500750000000000000e+03
1.120000000000000023e-01 4.581049999999999844e-01 3.271730000000000160e+01 1.581725000000000136e+02 1.500704999999999927e+03
1.130000000000000032e-01 4.580790000000000139e-01 3.207260000000000133e+01 1.579989999999999952e+02 1.500650000000000091e+03
1.140000000000000041e-01 4.580485000000000251e-01 3.143574999999999875e+01 1.578045000000000186e+02 1.500594999999999800e+03
1.150000000000000050e-01 4.580104999999999871e-01 3.080279999999999774e+01 1.575824999999999818e+02 1.500529999999999973e+03
1.160000000000000059e-01 4.579659999999999842e-01 3.016989999999999839e+01 1.573274999999999864e+02 1.500454999999999927e+03
1.170000000000000068e-01 4.579125000000000001e-01 2.953345000000000198e+01 1.570330000000000155e+02 1.500365000000000009e+03
1.180000000000000077e-01 4.578504999999999936e-01 2.889005000000000223e+01 1.566949999999999932e+02 1.500264999999999873e+03
1.190000000000000085e-01 4.577780000000000182e-01 2.823689999999999856e+01 1.563090000000000259e+02 1.500159999999999854e+03
1.200000000000000094e-01 4.576954999999999774e-01 2.757189999999999941e+01 1.558720000000000141e+02 1.500029999999999973e+03
1.209999999999999964e-01 4.576029999999999820e-01 2.689349999999999596e+01 1.553824999999999932e+02 1.499890000000000100e+03
1.219999999999999973e-01 4.575000000000000178e-01 2.620100000000000051e+01 1.548400000000000034e+02 1.499730000000000018e+03
1.229999999999999982e-01 4.573869999999999880e-01 2.549455000000000027e+01 1.542464999999999975e+02 1.499565000000000055e+03
1.239999999999999991e-01 4.572649999999999770e-01 2.477499999999999858e+01 1.536034999999999968e+02 1.499375000000000000e+03
1.250000000000000000e-01 4.571344999999999992e-01 2.404420000000000002e+01 1.529155000000000086e+02 1.499174999999999955e+03
1.260000000000000009e-01 4.569975000000000009e-01 2.330460000000000065e+01 1.521879999999999882e+02 1.498965000000000146e+03
1.270000000000000018e-01 4.568544999999999967e-01 2.255944999999999823e+01 1.514275000000000091e+02 1.498740000000000009e+03
1.280000000000000027e-01 4.567075000000000440e-01 2.181255000000000166e+01 1.506415000000000077e+02 1.498505000000000109e+03
1.290000000000000036e-01 4.565575000000000050e-01 2.106824999999999903e+01 1.498375000000000057e+02 1.498269999999999982e+03
1.300000000000000044e-01 4.564059999999999784e-01 2.033109999999999928e+01 1.490250000000000057e+02 1.498029999999999973e+03
1.310000000000000053e-01 4.562559999999999949e-01 1.960609999999999786e+01 1.482129999999999939e+02 1.497789999999999964e+03
1.320000000000000062e-01 4.561080000000000134e-01 1.889815000000000111e+01 1.474099999999999966e+02 1.497545000000000073e+03
1.330000000000000071e-01 4.559635000000000216e-01 1.821204999999999785e+01 1.466245000000000118e+02 1.497300000000000182e+03
1.340000000000000080e-01 4.558250000000000357e-01 1.755245000000000033e+01 1.458659999999999854e+02 1.497070000000000164e+03
1.350000000000000089e-01 4.556930000000000147e-01 1.692354999999999876e+01 1.451410000000000196e+02 1.496845000000000027e+03
1.360000000000000098e-01 4.555695000000000161e-01 1.632890000000000086e+01 1.444565000000000055e+02 1.496630000000000109e+03
1.370000000000000107e-01 4.554540000000000255e-01 1.577170000000000094e+01 1.438170000000000073e+02 1.496424999999999955e+03
1.380000000000000115e-01 4.553479999999999750e-01 1.525415000000000099e+01 1.432270000000000039e+02 1.496235000000000127e+03
1.390000000000000124e-01 4.552519999999999900e-01 1.477785000000000082e+01 1.426889999999999930e+02 1.496059999999999945e+03
1.400000000000000133e-01 4.551660000000000150e-01 1.434355000000000047e+01 1.422044999999999959e+02 1.495900000000000091e+03
1.410000000000000142e-01 4.550889999999999658e-01 1.395115000000000016e+01 1.417725000000000080e+02 1.495755000000000109e+03
1.420000000000000151e-01 4.550215000000000232e-01 1.359984999999999999e+01 1.413919999999999959e+02 1.495619999999999891e+03
1.430000000000000160e-01 4.549630000000000063e-01 1.328814999999999813e+01 1.410604999999999905e+02 1.495505000000000109e+03
1.440000000000000169e-01 4.549119999999999830e-01 1.301398000000000010e+01 1.407740000000000009e+02 1.495400000000000091e+03
1.450000000000000178e-01 4.548674999999999802e-01 1.277480500000000063e+01 1.405269999999999868e+02 1.495305000000000064e+03
1.459999999999999909e-01 4.548294999999999977e-01 1.256760500000000036e+01 1.403160000000000025e+02 1.495224999999999909e+03
1.469999999999999918e-01 4.547965000000000479e-01 1.238919999999999888e+01 1.401345000000000027e+02 1.495160000000000082e+03
1.479999999999999927e-01 4.547670000000000323e-01 1.223631499999999939e+01 1.399764999999999873e+02 1.495090000000000146e+03
1.489999999999999936e-01 4.547404999999999919e-01 1.210559500000000099e+01 1.398369999999999891e+02 1.495034999999999854e+03
1.499999999999999944e-01 4.547160000000000091e-01 1.199388500000000057e+01 1.397119999999999891e+02 1.494985000000000127e+03
1.509999999999999953e-01 4.546924999999999994e-01 1.189811999999999870e+01 1.395949999999999989e+02 1.494940000000000055e+03
1.519999999999999962e-01 4.546700000000000186e-01 1.181551500000000132e+01 1.394834999999999923e+02 1.494900000000000091e+03
1.529999999999999971e-01 4.546474999999999822e-01 1.174361500000000014e+01 1.393729999999999905e+02 1.494855000000000018e+03
1.539999999999999980e-01 4.546244999999999870e-01 1.168028999999999940e+01 1.392615000000000123e+02 1.494815000000000055e+03
1.549999999999999989e-01 4.546004999999999630e-01 1.162368500000000004e+01 1.391480000000000246e+02 1.494775000000000091e+03
1.559999999999999998e-01 4.545759999999999801e-01 1.157228500000000082e+01 1.390300000000000011e+02 1.494734999999999900e+03
1.570000000000000007e-01 4.545504999999999685e-01 1.152493000000000123e+01 1.389080000000000155e+02 1.494690000000000055e+03
1.580000000000000016e-01 4.545250000000000123e-01 1.148060999999999865e+01 1.387810000000000059e+02 1.494650000000000091e+03
1.590000000000000024e-01 4.544984999999999720e-01 1.143878000000000128e+01 1.386499999999999773e+02 1.494605000000000018e+03
