# t [s], A [cm^2], U [cm/s], P [cPa], c [cm/s]
1.000000000000000021e-03 1.922180000000000000e-01 2.018415000000000070e-01 8.794304999999999950e+01 2.066375000000000000e+03
2.000000000000000042e-03 1.921804999999999763e-01 1.457611999999999908e+00 8.526654999999999518e+01 2.066045000000000073e+03
3.000000000000000062e-03 1.920665000000000011e-01 3.041082999999999981e+00 8.150565000000000282e+01 2.065099999999999909e+03
4.000000000000000083e-03 1.919039999999999913e-01 4.830782524999999161e+00 7.725469999999999970e+01 2.063774999999999636e+03
5.000000000000000104e-03 1.917249999999999788e-01 6.775325000000000486e+00 7.329314999999999714e+01 2.062329999999999927e+03
6.000000000000000125e-03 1.915499999999999980e-01 8.748005000000000919e+00 6.999394999999999811e+01 2.060934999999999945e+03
7.000000000000000146e-03 1.913860000000000006e-01 1.055716500000000124e+01 6.723380000000000223e+01 2.059640000000000327e+03
8.000000000000000167e-03 1.912340000000000151e-01 1.208909500000000037e+01 6.476765000000000327e+01 2.058470000000000255e+03
9.000000000000001055e-03 1.910985000000000045e-01 1.335653500000000093e+01 6.258445000000000391e+01 2.057444999999999709e+03
1.000000000000000194e-02 1.909830000000000139e-01 1.439824999999999910e+01 6.077469999999999573e+01 2.056574999999999818e+03
1.099999999999999936e-02 1.908874999999999877e-01 1.523310000000000031e+01 5.935370000000000346e+01 2.055869999999999891e+03
1.200000000000000025e-02 1.908124999999999960e-01 1.587349999999999994e+01 5.827944999999999709e+01 2.055320000000000164e+03
1.300000000000000114e-02 1.907535000000000203e-01 1.632394999999999996e+01 5.747274999999999778e+01 2.054899999999999636e+03
1.400000000000000203e-02 1.907070000000000154e-01 1.658295000000000030e+01 5.681510000000000105e+01 2.054574999999999818e+03
1.499999999999999944e-02 1.906685000000000185e-01 1.667900000000000205e+01 5.623239999999999839e+01 2.054309999999999945e+03
1.600000000000000033e-02 1.906394999999999895e-01 1.670345000000000013e+01 5.581680000000000064e+01 2.054119999999999891e+03
1.700000000000000122e-02 1.906269999999999909e-01 1.679225000000000279e+01 5.584045000000000414e+01 2.054045000000000073e+03
1.800000000000000211e-02 1.906400000000000039e-01 1.706385000000000218e+01 5.661254999999999882e+01 2.054150000000000091e+03
1.900000000000000300e-02 1.906840000000000201e-01 1.755764999999999887e+01 5.828125000000000000e+01 2.054480000000000018e+03
2.000000000000000042e-02 1.907574999999999965e-01 1.821255000000000024e+01 6.071314999999999884e+01 2.055034999999999854e+03
2.100000000000000130e-02 1.908519999999999939e-01 1.889289999999999736e+01 6.351435000000000031e+01 2.055744999999999891e+03
2.200000000000000219e-02 1.909514999999999962e-01 1.944225000000000136e+01 6.616655000000000086e+01 2.056505000000000109e+03
2.299999999999999961e-02 1.910394999999999732e-01 1.973850000000000193e+01 6.820445000000000846e+01 2.057194999999999709e+03
2.400000000000000050e-02 1.911059999999999981e-01 1.972974999999999923e+01 6.935654999999999859e+01 2.057720000000000255e+03
2.500000000000000139e-02 1.911444999999999950e-01 1.944010000000000105e+01 6.960399999999999920e+01 2.058039999999999964e+03
2.600000000000000228e-02 1.911565000000000070e-01 1.894944999999999879e+01 6.914715000000001055e+01 2.058159999999999854e+03
2.700000000000000316e-02 1.911495000000000000e-01 1.835754999999999981e+01 6.830469999999999686e+01 2.058119999999999891e+03
2.800000000000000058e-02 1.911325000000000107e-01 1.774804999999999922e+01 6.739074999999999704e+01 2.057994999999999891e+03
2.900000000000000147e-02 1.911120000000000041e-01 1.716460000000000008e+01 6.661560000000000059e+01 2.057850000000000364e+03
3.000000000000000236e-02 1.910930000000000129e-01 1.660525000000000162e+01 6.603894999999999982e+01 2.057704999999999927e+03
3.099999999999999978e-02 1.910764999999999825e-01 1.603314999999999912e+01 6.558235000000000525e+01 2.057574999999999818e+03
3.200000000000000067e-02 1.910580000000000056e-01 1.539845000000000041e+01 6.508635000000001014e+01 2.057440000000000055e+03
3.300000000000000155e-02 1.910339999999999816e-01 1.466250000000000142e+01 6.438864999999999839e+01 2.057260000000000218e+03
3.400000000000000244e-02 1.910014999999999907e-01 1.381725000000000136e+01 6.339700000000000557e+01 2.057019999999999982e+03
3.500000000000000333e-02 1.909585000000000032e-01 1.289444999999999908e+01 6.213530000000000086e+01 2.056704999999999927e+03
3.600000000000000422e-02 1.909095000000000097e-01 1.196219999999999928e+01 6.075005000000000166e+01 2.056340000000000146e+03
3.700000000000000511e-02 1.908600000000000019e-01 1.110901499999999942e+01 5.947570000000000334e+01 2.055970000000000255e+03
3.799999999999999906e-02 1.908190000000000164e-01 1.042235999999999940e+01 5.857235000000000014e+01 2.055655000000000200e+03
3.899999999999999994e-02 1.907935000000000048e-01 9.966605000000001269e+00 5.825414999999999566e+01 2.055444999999999709e+03
4.000000000000000083e-02 1.907895000000000008e-01 9.767820000000000391e+00 5.863210000000000122e+01 2.055404999999999745e+03
4.100000000000000172e-02 1.908099999999999796e-01 9.808540000000000703e+00 5.968479999999999563e+01 2.055534999999999854e+03
4.200000000000000261e-02 1.908515000000000073e-01 1.003243499999999955e+01 6.126345000000000596e+01 2.055829999999999927e+03
4.300000000000000350e-02 1.909079999999999944e-01 1.035690500000000114e+01 6.312489999999999668e+01 2.056244999999999891e+03
4.400000000000000439e-02 1.909724999999999895e-01 1.068871500000000019e+01 6.498109999999999786e+01 2.056724999999999909e+03
4.499999999999999833e-02 1.910339999999999816e-01 1.093984999999999985e+01 6.655214999999999748e+01 2.057190000000000055e+03
4.599999999999999922e-02 1.910850000000000048e-01 1.103960000000000008e+01 6.761070000000000846e+01 2.057579999999999927e+03
4.700000000000000011e-02 1.911169999999999813e-01 1.094115000000000038e+01 6.800985000000000014e+01 2.057829999999999927e+03
4.800000000000000100e-02 1.911260000000000181e-01 1.062389999999999901e+01 6.769239999999999213e+01 2.057909999999999854e+03
4.900000000000000189e-02 1.911105000000000165e-01 1.008994500000000016e+01 6.668309999999999604e+01 2.057809999999999945e+03
5.000000000000000278e-02 1.910715000000000052e-01 9.358560000000000656e+00 6.506850000000000023e+01 2.057519999999999982e+03
5.100000000000000366e-02 1.910104999999999997e-01 8.459445000000000547e+00 6.297100000000000364e+01 2.057065000000000055e+03
5.200000000000000455e-02 1.909315000000000040e-01 7.426940000000000097e+00 6.052500000000000568e+01 2.056480000000000018e+03
5.300000000000000544e-02 1.908394999999999953e-01 6.295614999999999739e+00 5.785819999999999652e+01 2.055789999999999964e+03
5.399999999999999939e-02 1.907375000000000043e-01 5.098434999999999384e+00 5.508145000000000380e+01 2.055019999999999982e+03
5.500000000000000028e-02 1.906309999999999949e-01 3.866697999999999968e+00 5.228650000000000375e+01 2.054215000000000146e+03
5.600000000000000117e-02 1.905224999999999835e-01 2.631070499999999868e+00 4.954994999999999550e+01 2.053389999999999873e+03
5.700000000000000205e-02 1.904144999999999865e-01 1.423094999999999999e+00 4.693965000000000032e+01 2.052570000000000164e+03
5.800000000000000294e-02 1.903104999999999936e-01 2.763550000000001283e-01 4.452230000000000132e+01 2.051784999999999854e+03
5.900000000000000383e-02 1.902145000000000086e-01 -7.731749999999999456e-01 4.236764999999999759e+01 2.051045000000000073e+03
6.000000000000000472e-02 1.901279999999999915e-01 -1.687814499999999995e+00 4.055070000000000618e+01 2.050385000000000218e+03
6.099999999999999867e-02 1.900550000000000017e-01 -2.429786000000000001e+00 3.914909999999999712e+01 2.049824999999999818e+03
6.199999999999999956e-02 1.899985000000000146e-01 -2.963524999999999743e+00 3.823870000000000147e+01 2.049380000000000109e+03
6.300000000000000044e-02 1.899620000000000197e-01 -3.258230000000000182e+00 3.788654999999999973e+01 2.049085000000000036e+03
6.400000000000000133e-02 1.899470000000000047e-01 -3.290289999999999715e+00 3.814444999999999908e+01 2.048954999999999927e+03
6.500000000000000222e-02 1.899560000000000137e-01 -3.045174999999999965e+00 3.904285000000000139e+01 2.049000000000000000e+03
6.600000000000000311e-02 1.899895000000000056e-01 -2.518590000000000106e+00 4.058724999999999739e+01 2.049239999999999782e+03
6.700000000000000400e-02 1.900489999999999957e-01 -1.716738500000000167e+00 4.275700000000000500e+01 2.049659999999999854e+03
6.800000000000000488e-02 1.901319999999999955e-01 -6.558500000000000441e-01 4.550629999999999598e+01 2.050269999999999982e+03
6.900000000000000577e-02 1.902385000000000048e-01 6.390350000000000197e-01 4.876805000000000234e+01 2.051050000000000182e+03
7.000000000000000666e-02 1.903644999999999921e-01 2.135730000000000128e+00 5.245830000000000126e+01 2.051990000000000236e+03
7.100000000000000755e-02 1.905074999999999963e-01 3.796965249999999958e+00 5.648264999999999958e+01 2.053059999999999945e+03
7.200000000000000844e-02 1.906640000000000001e-01 5.582580000000000098e+00 6.074219999999999686e+01 2.054239999999999782e+03
7.300000000000000933e-02 1.908314999999999872e-01 7.451719999999999899e+00 6.514000000000000057e+01 2.055505000000000109e+03
7.399999999999999634e-02 1.910044999999999937e-01 9.364955000000000140e+00 6.958655000000000257e+01 2.056815000000000055e+03
7.499999999999999722e-02 1.911805000000000032e-01 1.128614999999999924e+01 7.400454999999999472e+01 2.058154999999999745e+03
7.599999999999999811e-02 1.913569999999999993e-01 1.318412000000000006e+01 7.833275000000000432e+01 2.059505000000000109e+03
7.699999999999999900e-02 1.915315000000000212e-01 1.503350000000000009e+01 8.252764999999999418e+01 2.060840000000000146e+03
7.799999999999999989e-02 1.917014999999999969e-01 1.681540000000000035e+01 8.656470000000000198e+01 2.062154999999999745e+03
7.900000000000000078e-02 1.918674999999999964e-01 1.851740000000000208e+01 9.043659999999999854e+01 2.063430000000000291e+03
8.000000000000000167e-02 1.920280000000000042e-01 2.013315000000000055e+01 9.415164999999998940e+01 2.064675000000000182e+03
8.100000000000000255e-02 1.921835000000000071e-01 2.166110000000000113e+01 9.772894999999999754e+01 2.065880000000000109e+03
8.200000000000000344e-02 1.923344999999999916e-01 2.310395000000000110e+01 1.011957999999999913e+02 2.067054999999999836e+03
8.300000000000000433e-02 1.924819999999999864e-01 2.446665000000000134e+01 1.045827500000000043e+02 2.068199999999999818e+03
8.400000000000000522e-02 1.926260000000000194e-01 2.575554999999999950e+01 1.079180000000000064e+02 2.069329999999999927e+03
8.500000000000000611e-02 1.927689999999999959e-01 2.697690000000000055e+01 1.112270000000000039e+02 2.070440000000000055e+03
8.600000000000000699e-02 1.929104999999999848e-01 2.813640000000000185e+01 1.145264999999999986e+02 2.071545000000000073e+03
8.700000000000000788e-02 1.930520000000000014e-01 2.923789999999999978e+01 1.178264999999999958e+02 2.072655000000000200e+03
8.800000000000000877e-02 1.931930000000000036e-01 3.028349999999999653e+01 1.211270000000000095e+02 2.073755000000000109e+03
8.899999999999999578e-02 1.933334999999999915e-01 3.127320000000000277e+01 1.244209999999999923e+02 2.074849999999999909e+03
8.999999999999999667e-02 1.934734999999999927e-01 3.220479999999999876e+01 1.276929999999999978e+02 2.075949999999999818e+03
9.099999999999999756e-02 1.936120000000000063e-01 3.307439999999999714e+01 1.309219999999999970e+02 2.077039999999999964e+03
9.199999999999999845e-02 1.937490000000000046e-01 3.387640000000000384e+01 1.340824999999999818e+02 2.078114999999999782e+03
9.299999999999999933e-02 1.938829999999999998e-01 3.460415000000000418e+01 1.371465000000000032e+02 2.079164999999999964e+03
9.400000000000000022e-02 1.940125000000000044e-01 3.525005000000000166e+01 1.400840000000000032e+02 2.080184999999999945e+03
9.500000000000000111e-02 1.941375000000000184e-01 3.580620000000000402e+01 1.428675000000000068e+02 2.081164999999999964e+03
9.600000000000000200e-02 1.942554999999999976e-01 3.626465000000000316e+01 1.454669999999999845e+02 2.082099999999999909e+03
9.700000000000000289e-02 1.943664999999999976e-01 3.661789999999999878e+01 1.478580000000000041e+02 2.082974999999999909e+03
9.800000000000000377e-02 1.944690000000000030e-01 3.685944999999999538e+01 1.500174999999999841e+02 2.083784999999999854e+03
9.900000000000000466e-02 1.945620000000000127e-01 3.698389999999999844e+01 1.519279999999999973e+02 2.084529999999999745e+03
1.000000000000000056e-01 1.946454999999999991e-01 3.698754999999999882e+01 1.535755000000000052e+02 2.085189999999999600e+03
1.010000000000000064e-01 1.947180000000000022e-01 3.686880000000000024e+01 1.549524999999999864e+02 2.085775000000000091e+03
1.020000000000000073e-01 1.947794999999999943e-01 3.662824999999999420e+01 1.560575000000000045e+02 2.086270000000000437e+03
1.030000000000000082e-01 1.948310000000000042e-01 3.626905000000000001e+01 1.568944999999999936e+02 2.086680000000000291e+03
1.040000000000000091e-01 1.948710000000000164e-01 3.579675000000000296e+01 1.574750000000000227e+02 2.087010000000000218e+03
1.050000000000000100e-01 1.949009999999999909e-01 3.521954999999999814e+01 1.578154999999999859e+02 2.087255000000000109e+03
1.059999999999999970e-01 1.949210000000000109e-01 3.454775000000000063e+01 1.579384999999999764e+02 2.087425000000000182e+03
1.069999999999999979e-01 1.949325000000000085e-01 3.379350000000000165e+01 1.578710000000000093e+02 2.087525000000000091e+03
1.079999999999999988e-01 1.949354999999999838e-01 3.297035000000000338e+01 1.576419999999999959e+02 2.087564999999999600e+03
1.089999999999999997e-01 1.949325000000000085e-01 3.209274999999999523e+01 1.572839999999999918e+02 2.087545000000000073e+03
1.100000000000000006e-01 1.949234999999999995e-01 3.117569999999999908e+01 1.568269999999999982e+02 2.087485000000000127e+03
1.110000000000000014e-01 1.949110000000000009e-01 3.023365000000000080e+01 1.563029999999999973e+02 2.087385000000000218e+03
1.120000000000000023e-01 1.948944999999999983e-01 2.928049999999999997e+01 1.557395000000000209e+02 2.087265000000000327e+03
1.130000000000000032e-01 1.948754999999999793e-01 2.832894999999999897e+01 1.551610000000000014e+02 2.087119999999999891e+03
1.140000000000000041e-01 1.948560000000000014e-01 2.739014999999999844e+01 1.545894999999999868e+02 2.086969999999999800e+03
1.150000000000000050e-01 1.948360000000000092e-01 2.647334999999999994e+01 1.540394999999999754e+02 2.086815000000000055e+03
1.160000000000000059e-01 1.948165000000000036e-01 2.558575000000000088e+01 1.535224999999999795e+02 2.086654999999999745e+03
1.170000000000000068e-01 1.947975000000000123e-01 2.473239999999999839e+01 1.530450000000000159e+02 2.086505000000000109e+03
1.180000000000000077e-01 1.947794999999999943e-01 2.391590000000000060e+01 1.526075000000000159e+02 2.086360000000000127e+03
1.190000000000000085e-01 1.947625000000000051e-01 2.313700000000000045e+01 1.522060000000000173e+02 2.086224999999999909e+03
1.200000000000000094e-01 1.947464999999999891e-01 2.239430000000000121e+01 1.518325000000000102e+02 2.086099999999999909e+03
1.209999999999999964e-01 1.947309999999999874e-01 2.168460000000000321e+01 1.514764999999999873e+02 2.085970000000000255e+03
1.219999999999999973e-01 1.947165000000000146e-01 2.100309999999999988e+01 1.511220000000000141e+02 2.085849999999999909e+03
1.229999999999999982e-01 1.947010000000000129e-01 2.034414999999999907e+01 1.507554999999999836e+02 2.085730000000000018e+03
1.239999999999999991e-01 1.946855000000000113e-01 1.970120000000000005e+01 1.503594999999999970e+02 2.085600000000000364e+03
1.250000000000000000e-01 1.946680000000000077e-01 1.906719999999999970e+01 1.499159999999999968e+02 2.085460000000000036e+03
1.260000000000000009e-01 1.946489999999999887e-01 1.843544999999999945e+01 1.494114999999999895e+02 2.085309999999999945e+03
1.270000000000000018e-01 1.946269999999999945e-01 1.779945000000000022e+01 1.488305000000000007e+02 2.085139999999999873e+03
1.280000000000000027e-01 1.946025000000000116e-01 1.715370000000000061e+01 1.481634999999999991e+02 2.084945000000000164e+03
1.290000000000000036e-01 1.945744999999999836e-01 1.649380000000000024e+01 1.474019999999999868e+02 2.084725000000000364e+03
1.300000000000000044e-01 1.945425000000000071e-01 1.581675000000000075e+01 1.465420000000000016e+02 2.084475000000000364e+03
1.310000000000000053e-01 1.945074999999999998e-01 1.512124999999999986e+01 1.455850000000000080e+02 2.084194999999999709e+03
1.320000000000000062e-01 1.944675000000000153e-01 1.440765000000000029e+01 1.445349999999999966e+02 2.083889999999999873e+03
1.330000000000000071e-01 1.944250000000000145e-01 1.367815000000000047e+01 1.434019999999999868e+02 2.083550000000000182e+03
1.340000000000000080e-01 1.943785000000000096e-01 1.293649999999999878e+01 1.421984999999999957e+02 2.083190000000000055e+03
1.350000000000000089e-01 1.943294999999999884e-01 1.218805000000000049e+01 1.409409999999999741e+02 2.082809999999999945e+03
1.360000000000000098e-01 1.942790000000000072e-01 1.143956999999999979e+01 1.396490000000000009e+02 2.082409999999999854e+03
1.370000000000000107e-01 1.942260000000000097e-01 1.069858499999999957e+01 1.383439999999999941e+02 2.082005000000000109e+03
1.380000000000000115e-01 1.941729999999999845e-01 9.973269999999999413e+00 1.370469999999999970e+02 2.081590000000000146e+03
1.390000000000000124e-01 1.941209999999999880e-01 9.272155000000001479e+00 1.357810000000000059e+02 2.081175000000000182e+03
1.400000000000000133e-01 1.940689999999999915e-01 8.603389999999999205e+00 1.345659999999999741e+02 2.080774999999999636e+03
1.410000000000000142e-01 1.940189999999999970e-01 7.974655000000000271e+00 1.334214999999999804e+02 2.080380000000000109e+03
1.420000000000000151e-01 1.939720000000000055e-01 7.392675000000000551e+00 1.323625000000000114e+02 2.080010000000000218e+03
1.430000000000000160e-01 1.939285000000000037e-01 6.862985000000000113e+00 1.314024999999999750e+02 2.079664999999999964e+03
1.440000000000000169e-01 1.938885000000000192e-01 6.389734999999999943e+00 1.305494999999999948e+02 2.079350000000000364e+03
1.450000000000000178e-01 1.938524999999999832e-01 5.975564999999999571e+00 1.298089999999999975e+02 2.079065000000000055e+03
1.459999999999999909e-01 1.938205000000000067e-01 5.621559999999999668e+00 1.291809999999999832e+02 2.078810000000000400e+03
1.469999999999999918e-01 1.937929999999999930e-01 5.327304999999999957e+00 1.286640000000000157e+02 2.078585000000000036e+03
1.479999999999999927e-01 1.937699999999999978e-01 5.090954999999999231e+00 1.282514999999999930e+02 2.078404999999999745e+03
1.489999999999999936e-01 1.937510000000000066e-01 4.909444999999999837e+00 1.279355000000000047e+02 2.078250000000000000e+03
1.499999999999999944e-01 1.937355000000000049e-01 4.778634999999999522e+00 1.277055000000000007e+02 2.078119999999999891e+03
1.509999999999999953e-01 1.937240000000000073e-01 4.693545000000000300e+00 1.275500000000000114e+02 2.078025000000000091e+03
1.519999999999999962e-01 1.937149999999999983e-01 4.648585000000000633e+00 1.274555000000000007e+02 2.077949999999999818e+03
1.529999999999999971e-01 1.937085000000000057e-01 4.637750000000000483e+00 1.274105000000000132e+02 2.077894999999999982e+03
1.539999999999999980e-01 1.937045000000000017e-01 4.654854999999999521e+00 1.274004999999999939e+02 2.077855000000000018e+03
1.549999999999999989e-01 1.937019999999999853e-01 4.693699999999999761e+00 1.274145000000000039e+02 2.077835000000000036e+03
1.559999999999999998e-01 1.936999999999999833e-01 4.748269999999999769e+00 1.274399999999999977e+02 2.077819999999999709e+03
1.570000000000000007e-01 1.936994999999999967e-01 4.812839999999999563e+00 1.274675000000000011e+02 2.077805000000000291e+03
1.580000000000000016e-01 1.936990000000000101e-01 4.882150000000000212e+00 1.274874999999999972e+02 2.077800000000000182e+03
1.590000000000000024e-01 1.936974999999999947e-01 4.951449999999999463e+00 1.274919999999999902e+02 2.077789999999999964e+03
