# t [s], A [cm^2], U [cm/s], P [cPa], c [cm/s]
1.000000000000000021e-03 7.236719999999999819e-01 5.028499999999998249e-03 9.169065000000000509e+01 1.641365000000000009e+03
2.000000000000000042e-03 7.236595000000000111e-01 -4.024849999999999955e-03 9.166225000000000023e+01 1.641360000000000127e+03
3.000000000000000062e-03 7.237120000000000219e-01 7.879624999999999824e-02 9.175024999999999409e+01 1.641380000000000109e+03
4.000000000000000083e-03 7.237689999999999957e-01 1.783720500000000042e-01 9.187465000000000259e+01 1.641414999999999964e+03
5.000000000000000104e-03 7.237504999999999633e-01 1.706083499999999920e-01 9.184450000000001069e+01 1.641404999999999973e+03
6.000000000000000125e-03 7.236795000000000311e-01 8.039050000000000362e-02 9.164905000000000257e+01 1.641360000000000127e+03
7.000000000000000146e-03 7.236199999999999299e-01 -2.135000000000331077e-04 9.140315000000001078e+01 1.641300000000000182e+03
8.000000000000000167e-03 7.235380000000000145e-01 -1.257529999999999482e-01 9.106170000000000186e+01 1.641220000000000027e+03
9.000000000000001055e-03 7.233964999999999979e-01 -3.616149999999999087e-01 9.053090000000000259e+01 1.641095000000000027e+03
1.000000000000000194e-02 7.231899999999999995e-01 -7.156599999999999628e-01 8.976800000000000068e+01 1.640914999999999964e+03
1.099999999999999936e-02 7.229014999999999747e-01 -1.207545000000000091e+00 8.871394999999999698e+01 1.640659999999999854e+03
1.200000000000000025e-02 7.225135000000000307e-01 -1.851549999999999807e+00 8.730934999999999491e+01 1.640315000000000055e+03
1.300000000000000114e-02 7.220520000000000271e-01 -2.590175000000000338e+00 8.558615000000000350e+01 1.639884999999999991e+03
1.400000000000000203e-02 7.215825000000000156e-01 -3.290810000000000013e+00 8.369745000000000346e+01 1.639400000000000091e+03
1.499999999999999944e-02 7.211745000000000516e-01 -3.811014000000000568e+00 8.184855000000000302e+01 1.638909999999999854e+03
1.600000000000000033e-02 7.208630000000000315e-01 -4.064161999999999608e+00 8.020120000000000005e+01 1.638444999999999936e+03
1.700000000000000122e-02 7.206390000000000295e-01 -4.042810499999999863e+00 7.881850000000000023e+01 1.638029999999999973e+03
1.800000000000000211e-02 7.204645000000000632e-01 -3.803099999999999703e+00 7.766315000000000168e+01 1.637664999999999964e+03
1.900000000000000300e-02 7.202915000000000845e-01 -3.430804999999999882e+00 7.663294999999999391e+01 1.637324999999999818e+03
2.000000000000000042e-02 7.200800000000000534e-01 -3.006332500000000074e+00 7.560880000000000223e+01 1.636980000000000018e+03
2.100000000000000130e-02 7.198124999999999662e-01 -2.579489200000000260e+00 7.449965000000000259e+01 1.636625000000000000e+03
2.200000000000000219e-02 7.194935000000000080e-01 -2.159881500000000010e+00 7.326930000000000121e+01 1.636240000000000009e+03
2.299999999999999961e-02 7.191449999999999232e-01 -1.724449999999999816e+00 7.193869999999999720e+01 1.635835000000000036e+03
2.400000000000000050e-02 7.187945000000000029e-01 -1.237225000000000241e+00 7.056559999999998922e+01 1.635414999999999964e+03
2.500000000000000139e-02 7.184614999999999752e-01 -6.720499999999998142e-01 6.921274999999999977e+01 1.634994999999999891e+03
2.600000000000000228e-02 7.181524999999999714e-01 -2.919999999999989271e-02 6.791814999999999714e+01 1.634590000000000146e+03
2.700000000000000316e-02 7.178545000000000620e-01 6.586350000000000815e-01 6.667725000000000080e+01 1.634194999999999936e+03
2.800000000000000058e-02 7.175445000000000295e-01 1.331069999999999753e+00 6.543999999999999773e+01 1.633800000000000182e+03
2.900000000000000147e-02 7.171909999999999119e-01 1.912654999999999772e+00 6.412265000000000725e+01 1.633389999999999873e+03
3.000000000000000236e-02 7.167645000000000266e-01 2.329860000000000042e+00 6.262879999999999825e+01 1.632944999999999936e+03
3.099999999999999978e-02 7.162475000000000369e-01 2.528210000000000512e+00 6.087610000000000099e+01 1.632434999999999945e+03
3.200000000000000067e-02 7.156370000000000786e-01 2.485294999999999810e+00 5.882054999999999723e+01 1.631865000000000009e+03
3.300000000000000155e-02 7.149484999999999868e-01 2.215819999999999901e+00 5.647155000000000058e+01 1.631220000000000027e+03
3.400000000000000244e-02 7.142120000000000690e-01 1.767349999999999977e+00 5.389410000000000167e+01 1.630514999999999873e+03
3.500000000000000333e-02 7.134670000000000734e-01 1.208655000000000257e+00 5.119719999999999516e+01 1.629775000000000091e+03
3.600000000000000422e-02 7.127525000000000110e-01 6.152749999999995723e-01 4.851420000000000243e+01 1.629034999999999854e+03
3.700000000000000511e-02 7.121035000000000004e-01 5.650500000000002743e-02 4.598135000000000616e+01 1.628320000000000164e+03
3.799999999999999906e-02 7.115460000000000118e-01 -4.130899999999999572e-01 4.371989999999999554e+01 1.627664999999999964e+03
3.899999999999999994e-02 7.110965000000000202e-01 -7.570300000000003138e-01 4.182399999999999807e+01 1.627094999999999800e+03
4.000000000000000083e-02 7.107620000000000049e-01 -9.559449999999998226e-01 4.035620000000000118e+01 1.626634999999999991e+03
4.100000000000000172e-02 7.105440000000000644e-01 -1.003530000000000033e+00 3.934875000000000256e+01 1.626289999999999964e+03
4.200000000000000261e-02 7.104380000000000139e-01 -9.012309999999998933e-01 3.880910000000000082e+01 1.626075000000000045e+03
4.300000000000000350e-02 7.104399999999999604e-01 -6.529944999999999222e-01 3.872830000000000439e+01 1.625980000000000018e+03
4.400000000000000439e-02 7.105449999999999822e-01 -2.614135000000000209e-01 3.908835000000000548e+01 1.626014999999999873e+03
4.499999999999999833e-02 7.107490000000000752e-01 2.740399999999998393e-01 3.986910000000000309e+01 1.626164999999999964e+03
4.599999999999999922e-02 7.110509999999999886e-01 9.565550000000000441e-01 4.105120000000000147e+01 1.626429999999999836e+03
4.700000000000000011e-02 7.114469999999999406e-01 1.789819999999999967e+00 4.261634999999999707e+01 1.626804999999999836e+03
4.800000000000000100e-02 7.119340000000000668e-01 2.775039999999999729e+00 4.454505000000000337e+01 1.627295000000000073e+03
4.900000000000000189e-02 7.125065000000000426e-01 3.908155000000000712e+00 4.681385000000000218e+01 1.627875000000000000e+03
5.000000000000000278e-02 7.131559999999999011e-01 5.178144999999999776e+00 4.939204999999999757e+01 1.628550000000000182e+03
5.100000000000000366e-02 7.138700000000000045e-01 6.566559999999999953e+00 5.224049999999999727e+01 1.629304999999999836e+03
5.200000000000000455e-02 7.146360000000000490e-01 8.048440550000000471e+00 5.531165000000000020e+01 1.630134999999999991e+03
5.300000000000000544e-02 7.154374999999999485e-01 9.594500000000000028e+00 5.855114999999999981e+01 1.631014999999999873e+03
5.399999999999999939e-02 7.162595000000000489e-01 1.117334499999999942e+01 6.190135000000000076e+01 1.631934999999999945e+03
5.500000000000000028e-02 7.170874999999999888e-01 1.275423499999999954e+01 6.530490000000000350e+01 1.632884999999999991e+03
5.600000000000000117e-02 7.179100000000000481e-01 1.430941499999999955e+01 6.870865000000000578e+01 1.633840000000000146e+03
5.700000000000000205e-02 7.187155000000000626e-01 1.581585000000000107e+01 7.206680000000000064e+01 1.634805000000000064e+03
5.800000000000000294e-02 7.194985000000000408e-01 1.725585000000000235e+01 7.534359999999999502e+01 1.635750000000000000e+03
5.900000000000000383e-02 7.202539999999999498e-01 1.861759999999999948e+01 7.851415000000000077e+01 1.636674999999999955e+03
6.000000000000000472e-02 7.209809999999999830e-01 1.989464999999999861e+01 8.156459999999999866e+01 1.637575000000000045e+03
6.099999999999999867e-02 7.216804999999999470e-01 2.108510000000000062e+01 8.449115000000000464e+01 1.638450000000000045e+03
6.199999999999999956e-02 7.223549999999999693e-01 2.219075000000000131e+01 8.729865000000000919e+01 1.639289999999999964e+03
6.300000000000000044e-02 7.230079999999999840e-01 2.321585000000000321e+01 8.999814999999999543e+01 1.640099999999999909e+03
6.400000000000000133e-02 7.236430000000000362e-01 2.416624999999999801e+01 9.260515000000000896e+01 1.640889999999999873e+03
6.500000000000000222e-02 7.242655000000000065e-01 2.504865000000000208e+01 9.513739999999999952e+01 1.641654999999999973e+03
6.600000000000000311e-02 7.248784999999999812e-01 2.586945000000000050e+01 9.761129999999999995e+01 1.642409999999999854e+03
6.700000000000000400e-02 7.254849999999999355e-01 2.663439999999999941e+01 1.000437500000000028e+02 1.643144999999999982e+03
6.800000000000000488e-02 7.260874999999999968e-01 2.734774999999999778e+01 1.024451500000000124e+02 1.643875000000000000e+03
6.900000000000000577e-02 7.266865000000000130e-01 2.801210000000000022e+01 1.048234500000000082e+02 1.644595000000000027e+03
7.000000000000000666e-02 7.272810000000000663e-01 2.862805000000000177e+01 1.071795000000000044e+02 1.645305000000000064e+03
7.100000000000000755e-02 7.278705000000000869e-01 2.919420000000000215e+01 1.095105000000000075e+02 1.646009999999999991e+03
7.200000000000000844e-02 7.284500000000000419e-01 2.970749999999999957e+01 1.118059999999999974e+02 1.646704999999999927e+03
7.300000000000000933e-02 7.290164999999999562e-01 3.016344999999999743e+01 1.140524999999999949e+02 1.647389999999999873e+03
7.399999999999999634e-02 7.295644999999999492e-01 3.055660000000000309e+01 1.162325000000000017e+02 1.648055000000000064e+03
7.499999999999999722e-02 7.300904999999999756e-01 3.088139999999999930e+01 1.183269999999999982e+02 1.648694999999999936e+03
7.599999999999999811e-02 7.305874999999999453e-01 3.113240000000000052e+01 1.203160000000000025e+02 1.649304999999999836e+03
7.699999999999999900e-02 7.310529999999999529e-01 3.130489999999999995e+01 1.221800000000000068e+02 1.649884999999999991e+03
7.799999999999999989e-02 7.314819999999999656e-01 3.139519999999999911e+01 1.239025000000000034e+02 1.650429999999999836e+03
7.900000000000000078e-02 7.318715000000000082e-01 3.140080000000000027e+01 1.254680000000000035e+02 1.650929999999999836e+03
8.000000000000000167e-02 7.322195000000000231e-01 3.132079999999999842e+01 1.268665000000000020e+02 1.651380000000000109e+03
8.100000000000000255e-02 7.325239999999999529e-01 3.115549999999999997e+01 1.280889999999999986e+02 1.651780000000000200e+03
8.200000000000000344e-02 7.327855000000000896e-01 3.090700000000000358e+01 1.291324999999999932e+02 1.652130000000000109e+03
8.300000000000000433e-02 7.330030000000000712e-01 3.057849999999999824e+01 1.299964999999999975e+02 1.652429999999999836e+03
8.400000000000000522e-02 7.331784999999999553e-01 3.017480000000000118e+01 1.306864999999999952e+02 1.652674999999999955e+03
8.500000000000000611e-02 7.333145000000000913e-01 2.970195000000000007e+01 1.312074999999999818e+02 1.652875000000000000e+03
8.600000000000000699e-02 7.334119999999999528e-01 2.916720000000000113e+01 1.315720000000000027e+02 1.653025000000000091e+03
8.700000000000000788e-02 7.334764999999999757e-01 2.857900000000000063e+01 1.317914999999999850e+02 1.653130000000000109e+03
8.800000000000000877e-02 7.335095000000000365e-01 2.794655000000000200e+01 1.318830000000000098e+02 1.653195000000000164e+03
8.899999999999999578e-02 7.335175000000000445e-01 2.727980000000000160e+01 1.318625000000000114e+02 1.653224999999999909e+03
8.999999999999999667e-02 7.335039999999999338e-01 2.658915000000000006e+01 1.317495000000000118e+02 1.653224999999999909e+03
9.099999999999999756e-02 7.334739999999999593e-01 2.588490000000000180e+01 1.315634999999999764e+02 1.653195000000000164e+03
9.199999999999999845e-02 7.334315000000000140e-01 2.517715000000000103e+01 1.313234999999999957e+02 1.653150000000000091e+03
9.299999999999999933e-02 7.333814999999999085e-01 2.447509999999999764e+01 1.310480000000000018e+02 1.653085000000000036e+03
9.400000000000000022e-02 7.333275000000000210e-01 2.378705000000000069e+01 1.307539999999999907e+02 1.653014999999999873e+03
9.500000000000000111e-02 7.332724999999999937e-01 2.311974999999999980e+01 1.304559999999999889e+02 1.652940000000000055e+03
9.600000000000000200e-02 7.332190000000000651e-01 2.247830000000000084e+01 1.301655000000000086e+02 1.652855000000000018e+03
9.700000000000000289e-02 7.331689999999999596e-01 2.186585000000000178e+01 1.298925000000000125e+02 1.652785000000000082e+03
9.800000000000000377e-02 7.331235000000000390e-01 2.128385000000000105e+01 1.296419999999999959e+02 1.652704999999999927e+03
9.900000000000000466e-02 7.330825000000000813e-01 2.073174999999999812e+01 1.294159999999999968e+02 1.652639999999999873e+03
1.000000000000000056e-01 7.330455000000000165e-01 2.020750000000000313e+01 1.292135000000000105e+02 1.652570000000000164e+03
1.010000000000000064e-01 7.330099999999999394e-01 1.970759999999999934e+01 1.290305000000000177e+02 1.652514999999999873e+03
1.020000000000000073e-01 7.329759999999999609e-01 1.922735000000000127e+01 1.288619999999999948e+02 1.652454999999999927e+03
1.030000000000000082e-01 7.329410000000000647e-01 1.876140000000000185e+01 1.286995000000000005e+02 1.652404999999999973e+03
1.040000000000000091e-01 7.329025000000000123e-01 1.830369999999999919e+01 1.285345000000000084e+02 1.652349999999999909e+03
1.050000000000000100e-01 7.328584999999999683e-01 1.784849999999999781e+01 1.283584999999999923e+02 1.652289999999999964e+03
1.059999999999999970e-01 7.328075000000000561e-01 1.738974999999999937e+01 1.281624999999999943e+02 1.652230000000000018e+03
1.069999999999999979e-01 7.327474999999999961e-01 1.692220000000000013e+01 1.279380000000000024e+02 1.652164999999999964e+03
1.079999999999999988e-01 7.326770000000000227e-01 1.644125000000000014e+01 1.276779999999999973e+02 1.652085000000000036e+03
1.089999999999999997e-01 7.325960000000000250e-01 1.594324999999999903e+01 1.273790000000000049e+02 1.652000000000000000e+03
1.100000000000000006e-01 7.325030000000000152e-01 1.542569999999999908e+01 1.270360000000000014e+02 1.651904999999999973e+03
1.110000000000000014e-01 7.323979999999999935e-01 1.488724999999999810e+01 1.266495000000000033e+02 1.651795000000000073e+03
1.120000000000000023e-01 7.322834999999999761e-01 1.432809999999999917e+01 1.262210000000000036e+02 1.651675000000000182e+03
1.130000000000000032e-01 7.321595000000000741e-01 1.374954999999999927e+01 1.257545000000000073e+02 1.651539999999999964e+03
1.140000000000000041e-01 7.320284999999999709e-01 1.315428999999999959e+01 1.252554999999999836e+02 1.651404999999999973e+03
1.150000000000000050e-01 7.318930000000000158e-01 1.254624500000000076e+01 1.247335000000000065e+02 1.651259999999999991e+03
1.160000000000000059e-01 7.317555000000000032e-01 1.193027999999999977e+01 1.241980000000000075e+02 1.651105000000000018e+03
1.170000000000000068e-01 7.316184999999999494e-01 1.131205500000000086e+01 1.236604999999999990e+02 1.650954999999999927e+03
1.180000000000000077e-01 7.314864999999999284e-01 1.069786999999999999e+01 1.231334999999999980e+02 1.650804999999999836e+03
1.190000000000000085e-01 7.313614999999999977e-01 1.009419000000000111e+01 1.226295000000000073e+02 1.650654999999999973e+03
1.200000000000000094e-01 7.312475000000000502e-01 9.507574999999999221e+00 1.221599999999999966e+02 1.650519999999999982e+03
1.209999999999999964e-01 7.311465000000000325e-01 8.944330000000000780e+00 1.217379999999999995e+02 1.650389999999999873e+03
1.219999999999999973e-01 7.310609999999999609e-01 8.410069999999999268e+00 1.213729999999999905e+02 1.650275000000000091e+03
1.229999999999999982e-01 7.309924999999999340e-01 7.909749999999999837e+00 1.210739999999999981e+02 1.650184999999999945e+03
1.239999999999999991e-01 7.309434999999999683e-01 7.447280000000000122e+00 1.208474999999999966e+02 1.650105000000000018e+03
1.250000000000000000e-01 7.309140000000000637e-01 7.025479999999999947e+00 1.206965000000000003e+02 1.650050000000000182e+03
1.260000000000000009e-01 7.309044999999999570e-01 6.645940000000000403e+00 1.206250000000000000e+02 1.650014999999999873e+03
1.270000000000000018e-01 7.309140000000000637e-01 6.309009999999999785e+00 1.206299999999999955e+02 1.650005000000000109e+03
1.280000000000000027e-01 7.309415000000000218e-01 6.013854999999999507e+00 1.207085000000000008e+02 1.650014999999999873e+03
1.290000000000000036e-01 7.309849999999999959e-01 5.758544999999999803e+00 1.208569999999999993e+02 1.650039999999999964e+03
1.300000000000000044e-01 7.310429999999999984e-01 5.540214999999999890e+00 1.210655000000000001e+02 1.650085000000000036e+03
1.310000000000000053e-01 7.311129999999999018e-01 5.355215000000000281e+00 1.213259999999999934e+02 1.650150000000000091e+03
1.320000000000000062e-01 7.311924999999999120e-01 5.199355000000000615e+00 1.216289999999999907e+02 1.650224999999999909e+03
1.330000000000000071e-01 7.312779999999999836e-01 5.068080000000000140e+00 1.219639999999999986e+02 1.650309999999999945e+03
1.340000000000000080e-01 7.313684999999999770e-01 4.956690000000000040e+00 1.223195000000000050e+02 1.650405000000000200e+03
1.350000000000000089e-01 7.314605000000000690e-01 4.860524999999999984e+00 1.226864999999999952e+02 1.650505000000000109e+03
1.360000000000000098e-01 7.315519999999999801e-01 4.775090000000000501e+00 1.230540000000000020e+02 1.650605000000000018e+03
1.370000000000000107e-01 7.316405000000000269e-01 4.696234999999999715e+00 1.234134999999999991e+02 1.650704999999999927e+03
1.380000000000000115e-01 7.317249999999999588e-01 4.620190000000000019e+00 1.237579999999999956e+02 1.650805000000000064e+03
1.390000000000000124e-01 7.318040000000000100e-01 4.543675000000000352e+00 1.240810000000000031e+02 1.650900000000000091e+03
1.400000000000000133e-01 7.318759999999999710e-01 4.463894999999999946e+00 1.243764999999999930e+02 1.650990000000000009e+03
1.410000000000000142e-01 7.319400000000000350e-01 4.378589999999999982e+00 1.246405000000000030e+02 1.651065000000000055e+03
1.420000000000000151e-01 7.319959999999999800e-01 4.286010000000000097e+00 1.248719999999999999e+02 1.651134999999999991e+03
1.430000000000000160e-01 7.320435000000000692e-01 4.184895000000000032e+00 1.250670000000000073e+02 1.651200000000000045e+03
1.440000000000000169e-01 7.320824999999999694e-01 4.074479999999999436e+00 1.252270000000000039e+02 1.651250000000000000e+03
1.450000000000000178e-01 7.321130000000000138e-01 3.954425000000000079e+00 1.253509999999999991e+02 1.651295000000000073e+03
1.459999999999999909e-01 7.321355000000000501e-01 3.824790000000000134e+00 1.254410000000000025e+02 1.651325000000000045e+03
1.469999999999999918e-01 7.321500000000000785e-01 3.685999999999999943e+00 1.254975000000000023e+02 1.651345000000000027e+03
1.479999999999999927e-01 7.321569999999999467e-01 3.538780000000000037e+00 1.255234999999999985e+02 1.651365000000000009e+03
1.489999999999999936e-01 7.321579999999999755e-01 3.384090000000000042e+00 1.255210000000000008e+02 1.651369999999999891e+03
1.499999999999999944e-01 7.321530000000000538e-01 3.223100000000000076e+00 1.254919999999999902e+02 1.651369999999999891e+03
1.509999999999999953e-01 7.321420000000000705e-01 3.057075000000000209e+00 1.254399999999999977e+02 1.651359999999999900e+03
1.519999999999999962e-01 7.321269999999999722e-01 2.887364999999999959e+00 1.253665000000000020e+02 1.651344999999999800e+03
1.529999999999999971e-01 7.321070000000000633e-01 2.715300000000000047e+00 1.252750000000000057e+02 1.651319999999999936e+03
1.539999999999999980e-01 7.320839999999999570e-01 2.542149999999999910e+00 1.251674999999999898e+02 1.651295000000000073e+03
1.549999999999999989e-01 7.320575000000000276e-01 2.369104999999999794e+00 1.250444999999999993e+02 1.651264999999999873e+03
1.559999999999999998e-01 7.320275000000000531e-01 2.197175000000000100e+00 1.249095000000000084e+02 1.651230000000000018e+03
1.570000000000000007e-01 7.319949999999999513e-01 2.027229999999999865e+00 1.247624999999999886e+02 1.651190000000000055e+03
1.580000000000000016e-01 7.319590000000000263e-01 1.859960000000000058e+00 1.246040000000000134e+02 1.651144999999999982e+03
1.590000000000000024e-01 7.319210000000000438e-01 1.695874499999999951e+00 1.244344999999999999e+02 1.651099999999999909e+03
