# t [s], A [cm^2], U [cm/s], P [cPa], c [cm/s]
1.000000000000000021e-03 5.793945000000000345e-01 1.803699999999998360e-03 9.044200000000000728e+01 1.419529999999999973e+03
2.000000000000000042e-03 5.793874999999999442e-01 1.084820000000000229e-03 9.042504999999999882e+01 1.419519999999999982e+03
3.000000000000000062e-03 5.794360000000000621e-01 8.478664999999999119e-02 9.049799999999999045e+01 1.419545000000000073e+03
4.000000000000000083e-03 5.794865000000000155e-01 1.734104499999999938e-01 9.059784999999999400e+01 1.419574999999999818e+03
5.000000000000000104e-03 5.794775000000000897e-01 1.648213500000000054e-01 9.058230000000000359e+01 1.419569999999999936e+03
6.000000000000000125e-03 5.794270000000000254e-01 8.393750000000002598e-02 9.043694999999999595e+01 1.419539999999999964e+03
7.000000000000000146e-03 5.793734999999999857e-01 -8.357499999999962181e-03 9.021805000000000518e+01 1.419485000000000127e+03
8.000000000000000167e-03 5.793009999999999549e-01 -1.406304999999999361e-01 8.990514999999999191e+01 1.419409999999999854e+03
9.000000000000001055e-03 5.791760000000000241e-01 -3.702550000000000008e-01 8.942544999999999789e+01 1.419284999999999854e+03
1.000000000000000194e-02 5.789919999999999511e-01 -7.078999999999999737e-01 8.873675000000000068e+01 1.419105000000000018e+03
1.099999999999999936e-02 5.787430000000000074e-01 -1.153434999999999988e+00 8.780965000000000487e+01 1.418860000000000127e+03
1.200000000000000025e-02 5.784154999999999713e-01 -1.716219999999999857e+00 8.660609999999999786e+01 1.418529999999999973e+03
1.300000000000000114e-02 5.780085000000000361e-01 -2.382119999999999571e+00 8.511214999999999975e+01 1.418115000000000009e+03
1.400000000000000203e-02 5.775494999999999379e-01 -3.083365000000000133e+00 8.338145000000000095e+01 1.417619999999999891e+03
1.499999999999999944e-02 5.770865000000000578e-01 -3.710190000000000321e+00 8.153810000000000002e+01 1.417079999999999927e+03
1.600000000000000033e-02 5.766695000000000570e-01 -4.152876000000000012e+00 7.973550000000000182e+01 1.416525000000000091e+03
1.700000000000000122e-02 5.763274999999999926e-01 -4.341045499999999890e+00 7.810405000000000086e+01 1.416000000000000000e+03
1.800000000000000211e-02 5.760639999999999095e-01 -4.260668500000000414e+00 7.671405000000000030e+01 1.415519999999999982e+03
1.900000000000000300e-02 5.758575000000000221e-01 -3.948776499999999690e+00 7.556634999999999991e+01 1.415095000000000027e+03
2.000000000000000042e-02 5.756784999999999819e-01 -3.474574999999999747e+00 7.460339999999999350e+01 1.414710000000000036e+03
2.100000000000000130e-02 5.754924999999999624e-01 -2.915709999999999802e+00 7.373539999999999850e+01 1.414355000000000018e+03
2.200000000000000219e-02 5.752755000000000507e-01 -2.336695999999999884e+00 7.286969999999999459e+01 1.414009999999999991e+03
2.299999999999999961e-02 5.750159999999999716e-01 -1.775069999999999926e+00 7.193694999999999595e+01 1.413639999999999873e+03
2.400000000000000050e-02 5.747164999999999635e-01 -1.238654999999999839e+00 7.090485000000001037e+01 1.413259999999999991e+03
2.500000000000000139e-02 5.743900000000000672e-01 -7.136299999999999866e-01 6.977760000000000673e+01 1.412849999999999909e+03
2.600000000000000228e-02 5.740505000000000191e-01 -1.789850000000003938e-01 6.858280000000000598e+01 1.412434999999999945e+03
2.700000000000000316e-02 5.737105000000000121e-01 3.788099999999996470e-01 6.735285000000000366e+01 1.411994999999999891e+03
2.800000000000000058e-02 5.733714999999999229e-01 9.557700000000002305e-01 6.610820000000001073e+01 1.411550000000000182e+03
2.900000000000000147e-02 5.730269999999999531e-01 1.527124999999999844e+00 6.484669999999999845e+01 1.411099999999999909e+03
3.000000000000000236e-02 5.726634999999999920e-01 2.050480000000000302e+00 6.354099999999999682e+01 1.410634999999999991e+03
3.099999999999999978e-02 5.722620000000000484e-01 2.473595000000000432e+00 6.214374999999999716e+01 1.410144999999999982e+03
3.200000000000000067e-02 5.718054999999999666e-01 2.744720000000000493e+00 6.059830000000000183e+01 1.409619999999999891e+03
3.300000000000000155e-02 5.712800000000000100e-01 2.822979999999999823e+00 5.885229999999999961e+01 1.409034999999999854e+03
3.400000000000000244e-02 5.706805000000000350e-01 2.686905000000000321e+00 5.687149999999999750e+01 1.408400000000000091e+03
3.500000000000000333e-02 5.700125000000000330e-01 2.339164999999999939e+00 5.465019999999999811e+01 1.407684999999999945e+03
3.600000000000000422e-02 5.692909999999999915e-01 1.807045000000000456e+00 5.221699999999999875e+01 1.406920000000000073e+03
3.700000000000000511e-02 5.685394999999999754e-01 1.138135000000000119e+00 4.963369999999999749e+01 1.406110000000000127e+03
3.799999999999999906e-02 5.677875000000000005e-01 3.933299999999997354e-01 4.698839999999999861e+01 1.405275000000000091e+03
3.899999999999999994e-02 5.670640000000000125e-01 -3.615699999999995029e-01 4.438575000000000159e+01 1.404444999999999936e+03
4.000000000000000083e-02 5.663994999999999447e-01 -1.063364999999999672e+00 4.193489999999999895e+01 1.403644999999999982e+03
4.100000000000000172e-02 5.658165000000000555e-01 -1.657494999999999941e+00 3.973875000000000313e+01 1.402904999999999973e+03
4.200000000000000261e-02 5.653365000000000196e-01 -2.101420000000000066e+00 3.788514999999999588e+01 1.402259999999999991e+03
4.300000000000000350e-02 5.649705000000000421e-01 -2.365669999999999717e+00 3.644180000000000064e+01 1.401724999999999909e+03
4.400000000000000439e-02 5.647275000000000489e-01 -2.433009500000000269e+00 3.545349999999999824e+01 1.401324999999999818e+03
4.499999999999999833e-02 5.646084999999999576e-01 -2.296261999999999581e+00 3.494304999999999950e+01 1.401059999999999945e+03
4.599999999999999922e-02 5.646120000000000028e-01 -1.955629999999999979e+00 3.491410000000000480e+01 1.400945000000000164e+03
4.700000000000000011e-02 5.647345000000000281e-01 -1.416100499999999984e+00 3.535479999999999734e+01 1.400974999999999909e+03
4.800000000000000100e-02 5.649690000000000545e-01 -6.854800000000000892e-01 3.624230000000000018e+01 1.401150000000000091e+03
4.900000000000000189e-02 5.653080000000000327e-01 2.267050000000003784e-01 3.754619999999999891e+01 1.401460000000000036e+03
5.000000000000000278e-02 5.657434999999999548e-01 1.309404999999999930e+00 3.923140000000000072e+01 1.401900000000000091e+03
5.100000000000000366e-02 5.662670000000000758e-01 2.549630000000000063e+00 4.125959999999999894e+01 1.402454999999999927e+03
5.200000000000000455e-02 5.668675000000000797e-01 3.931734999999999758e+00 4.358974999999999511e+01 1.403119999999999891e+03
5.300000000000000544e-02 5.675339999999999829e-01 5.436814999999999287e+00 4.617844999999999800e+01 1.403875000000000000e+03
5.399999999999999939e-02 5.682549999999999546e-01 7.042390000000000150e+00 4.897970000000000113e+01 1.404710000000000036e+03
5.500000000000000028e-02 5.690175000000000649e-01 8.722885499999998515e+00 5.194530000000000314e+01 1.405610000000000127e+03
5.600000000000000117e-02 5.698079999999999812e-01 1.045011000000000045e+01 5.502570000000000050e+01 1.406565000000000055e+03
5.700000000000000205e-02 5.706130000000000368e-01 1.219488000000000127e+01 5.817109999999999559e+01 1.407545000000000073e+03
5.800000000000000294e-02 5.714194999999999691e-01 1.392822999999999922e+01 6.133330000000000126e+01 1.408550000000000182e+03
5.900000000000000383e-02 5.722175000000000455e-01 1.562292000000000058e+01 6.446744999999999948e+01 1.409559999999999945e+03
6.000000000000000472e-02 5.729960000000000608e-01 1.725497500000000173e+01 6.753409999999999513e+01 1.410559999999999945e+03
6.099999999999999867e-02 5.737480000000000357e-01 1.880450000000000088e+01 7.050060000000000571e+01 1.411550000000000182e+03
6.199999999999999956e-02 5.744684999999999375e-01 2.025639999999999930e+01 7.334244999999999948e+01 1.412509999999999991e+03
6.300000000000000044e-02 5.751539999999999431e-01 2.160064999999999813e+01 7.604380000000000450e+01 1.413434999999999945e+03
6.400000000000000133e-02 5.758035000000000236e-01 2.283225000000000193e+01 7.859754999999999825e+01 1.414315000000000055e+03
6.500000000000000222e-02 5.764184999999999448e-01 2.395089999999999719e+01 8.100475000000000136e+01 1.415164999999999964e+03
6.600000000000000311e-02 5.770024999999999737e-01 2.496005000000000251e+01 8.327385000000001014e+01 1.415970000000000027e+03
6.700000000000000400e-02 5.775589999999999336e-01 2.586655000000000015e+01 8.541915000000000191e+01 1.416735000000000127e+03
6.800000000000000488e-02 5.780929999999999680e-01 2.667970000000000041e+01 8.745959999999999468e+01 1.417469999999999800e+03
6.900000000000000577e-02 5.786105000000000276e-01 2.741055000000000064e+01 8.941700000000000159e+01 1.418184999999999945e+03
7.000000000000000666e-02 5.791174999999999518e-01 2.807104999999999961e+01 9.131459999999999866e+01 1.418869999999999891e+03
7.100000000000000755e-02 5.796194999999999542e-01 2.867354999999999876e+01 9.317564999999999031e+01 1.419545000000000073e+03
7.200000000000000844e-02 5.801205000000000389e-01 2.923015000000000185e+01 9.502205000000000723e+01 1.420204999999999927e+03
7.300000000000000933e-02 5.806270000000000042e-01 2.975180000000000291e+01 9.687290000000000134e+01 1.420869999999999891e+03
7.399999999999999634e-02 5.811405000000000598e-01 3.024814999999999898e+01 9.874379999999999313e+01 1.421535000000000082e+03
7.499999999999999722e-02 5.816649999999999876e-01 3.072704999999999842e+01 1.006465500000000048e+02 1.422210000000000036e+03
7.599999999999999811e-02 5.821994999999999809e-01 3.119375000000000142e+01 1.025863999999999976e+02 1.422889999999999873e+03
7.699999999999999900e-02 5.827449999999999575e-01 3.165129999999999910e+01 1.045645000000000095e+02 1.423579999999999927e+03
7.799999999999999989e-02 5.833000000000000407e-01 3.209975000000000023e+01 1.065764999999999958e+02 1.424275000000000091e+03
7.900000000000000078e-02 5.838594999999999757e-01 3.253679999999999950e+01 1.086109999999999900e+02 1.424985000000000127e+03
8.000000000000000167e-02 5.844205000000000094e-01 3.295749999999999602e+01 1.106539999999999964e+02 1.425690000000000055e+03
8.100000000000000255e-02 5.849769999999999692e-01 3.335500000000000398e+01 1.126869999999999976e+02 1.426400000000000091e+03
8.200000000000000344e-02 5.855235000000000856e-01 3.372079999999999700e+01 1.146864999999999952e+02 1.427099999999999909e+03
8.300000000000000433e-02 5.860530000000000461e-01 3.404534999999999911e+01 1.166295000000000073e+02 1.427784999999999854e+03
8.400000000000000522e-02 5.865584999999999827e-01 3.431864999999999810e+01 1.184904999999999973e+02 1.428445000000000164e+03
8.500000000000000611e-02 5.870355000000000434e-01 3.453099999999999881e+01 1.202460000000000093e+02 1.429070000000000164e+03
8.600000000000000699e-02 5.874764999999999571e-01 3.467320000000000135e+01 1.218719999999999999e+02 1.429664999999999964e+03
8.700000000000000788e-02 5.878775000000000528e-01 3.473744999999999550e+01 1.233489999999999895e+02 1.430210000000000036e+03
8.800000000000000877e-02 5.882344999999999935e-01 3.471744999999999948e+01 1.246610000000000014e+02 1.430700000000000045e+03
8.899999999999999578e-02 5.885434999999999972e-01 3.460885000000000389e+01 1.257944999999999993e+02 1.431144999999999982e+03
8.999999999999999667e-02 5.888044999999999529e-01 3.440944999999999965e+01 1.267425000000000068e+02 1.431519999999999982e+03
9.099999999999999756e-02 5.890159999999999840e-01 3.411925000000000097e+01 1.275015000000000072e+02 1.431839999999999918e+03
9.199999999999999845e-02 5.891790000000000083e-01 3.374040000000000106e+01 1.280734999999999957e+02 1.432099999999999909e+03
9.299999999999999933e-02 5.892954999999999721e-01 3.327720000000000056e+01 1.284650000000000034e+02 1.432289999999999964e+03
9.400000000000000022e-02 5.893675000000000441e-01 3.273599999999999710e+01 1.286854999999999905e+02 1.432434999999999945e+03
9.500000000000000111e-02 5.893995000000000761e-01 3.212460000000000093e+01 1.287494999999999834e+02 1.432514999999999873e+03
9.600000000000000200e-02 5.893964999999999899e-01 3.145250000000000057e+01 1.286750000000000114e+02 1.432555000000000064e+03
9.700000000000000289e-02 5.893625000000000114e-01 3.073014999999999830e+01 1.284789999999999850e+02 1.432539999999999964e+03
9.800000000000000377e-02 5.893030000000000213e-01 2.996884999999999977e+01 1.281845000000000141e+02 1.432490000000000009e+03
9.900000000000000466e-02 5.892239999999999700e-01 2.918019999999999925e+01 1.278125000000000000e+02 1.432409999999999854e+03
1.000000000000000056e-01 5.891305000000000014e-01 2.837579999999999814e+01 1.273845000000000027e+02 1.432305000000000064e+03
1.010000000000000064e-01 5.890284999999999549e-01 2.756700000000000017e+01 1.269219999999999970e+02 1.432184999999999945e+03
1.020000000000000073e-01 5.889219999999999455e-01 2.676430000000000220e+01 1.264445000000000050e+02 1.432045000000000073e+03
1.030000000000000082e-01 5.888165000000000759e-01 2.597739999999999938e+01 1.259710000000000036e+02 1.431909999999999854e+03
1.040000000000000091e-01 5.887149999999999883e-01 2.521439999999999770e+01 1.255160000000000053e+02 1.431764999999999873e+03
1.050000000000000100e-01 5.886209999999999498e-01 2.448199999999999932e+01 1.250929999999999893e+02 1.431630000000000109e+03
1.059999999999999970e-01 5.885369999999999768e-01 2.378519999999999968e+01 1.247119999999999891e+02 1.431500000000000000e+03
1.069999999999999979e-01 5.884639999999999871e-01 2.312709999999999866e+01 1.243790000000000049e+02 1.431389999999999873e+03
1.079999999999999988e-01 5.884034999999999682e-01 2.250909999999999656e+01 1.240974999999999966e+02 1.431285000000000082e+03
1.089999999999999997e-01 5.883534999999999737e-01 2.193055000000000021e+01 1.238675000000000068e+02 1.431195000000000164e+03
1.100000000000000006e-01 5.883149999999999213e-01 2.138935000000000031e+01 1.236860000000000070e+02 1.431119999999999891e+03
1.110000000000000014e-01 5.882859999999999756e-01 2.088185000000000002e+01 1.235474999999999994e+02 1.431059999999999945e+03
1.120000000000000023e-01 5.882640000000000091e-01 2.040299999999999869e+01 1.234440000000000026e+02 1.431009999999999991e+03
1.130000000000000032e-01 5.882460000000000466e-01 1.994684999999999775e+01 1.233659999999999997e+02 1.430970000000000027e+03
1.140000000000000041e-01 5.882300000000000306e-01 1.950685000000000002e+01 1.233019999999999925e+02 1.430934999999999945e+03
1.150000000000000050e-01 5.882135000000000558e-01 1.907590000000000074e+01 1.232409999999999997e+02 1.430900000000000091e+03
1.160000000000000059e-01 5.881920000000000481e-01 1.864699999999999847e+01 1.231709999999999923e+02 1.430865000000000009e+03
1.170000000000000068e-01 5.881640000000000201e-01 1.821330000000000027e+01 1.230809999999999889e+02 1.430829999999999927e+03
1.180000000000000077e-01 5.881269999999999554e-01 1.776859999999999928e+01 1.229609999999999985e+02 1.430789999999999964e+03
1.190000000000000085e-01 5.880784999999999485e-01 1.730730000000000146e+01 1.228015000000000043e+02 1.430730000000000018e+03
1.200000000000000094e-01 5.880175000000000818e-01 1.682500000000000284e+01 1.225955000000000013e+02 1.430664999999999964e+03
1.209999999999999964e-01 5.879419999999999646e-01 1.631850000000000023e+01 1.223389999999999986e+02 1.430579999999999927e+03
1.219999999999999973e-01 5.878525000000000000e-01 1.578575000000000017e+01 1.220279999999999916e+02 1.430485000000000127e+03
1.229999999999999982e-01 5.877494999999999248e-01 1.522630000000000017e+01 1.216630000000000109e+02 1.430369999999999891e+03
1.239999999999999991e-01 5.876325000000000021e-01 1.464095000000000013e+01 1.212454999999999927e+02 1.430235000000000127e+03
1.250000000000000000e-01 5.875044999999999851e-01 1.403185000000000038e+01 1.207804999999999893e+02 1.430090000000000146e+03
1.260000000000000009e-01 5.873660000000000547e-01 1.340257000000000076e+01 1.202750000000000057e+02 1.429934999999999945e+03
1.270000000000000018e-01 5.872200000000000752e-01 1.275770500000000141e+01 1.197365000000000066e+02 1.429764999999999873e+03
1.280000000000000027e-01 5.870695000000000219e-01 1.210297999999999874e+01 1.191754999999999995e+02 1.429585000000000036e+03
1.290000000000000036e-01 5.869174999999999809e-01 1.144477000000000011e+01 1.186034999999999968e+02 1.429400000000000091e+03
1.300000000000000044e-01 5.867670000000000385e-01 1.079005000000000081e+01 1.180324999999999989e+02 1.429214999999999918e+03
1.310000000000000053e-01 5.866210000000000591e-01 1.014606000000000030e+01 1.174740000000000038e+02 1.429030000000000200e+03
1.320000000000000062e-01 5.864829999999999766e-01 9.520110000000000738e+00 1.169420000000000073e+02 1.428849999999999909e+03
1.330000000000000071e-01 5.863559999999999883e-01 8.919240000000000279e+00 1.164465000000000003e+02 1.428680000000000064e+03
1.340000000000000080e-01 5.862420000000000408e-01 8.349990000000000023e+00 1.159994999999999976e+02 1.428525000000000091e+03
1.350000000000000089e-01 5.861444999999999572e-01 7.818179999999999907e+00 1.156094999999999970e+02 1.428389999999999873e+03
1.360000000000000098e-01 5.860644999999999882e-01 7.328664999999999097e+00 1.152845000000000084e+02 1.428264999999999873e+03
1.370000000000000107e-01 5.860030000000000516e-01 6.885234999999999772e+00 1.150294999999999987e+02 1.428164999999999964e+03
1.380000000000000115e-01 5.859615000000000240e-01 6.490459999999999674e+00 1.148495000000000061e+02 1.428085000000000036e+03
1.390000000000000124e-01 5.859394999999999465e-01 6.145635000000000403e+00 1.147429999999999950e+02 1.428035000000000082e+03
1.400000000000000133e-01 5.859364999999999712e-01 5.850764999999999993e+00 1.147115000000000009e+02 1.427994999999999891e+03
1.410000000000000142e-01 5.859520000000000284e-01 5.604625000000000412e+00 1.147504999999999882e+02 1.427989999999999782e+03
1.420000000000000151e-01 5.859834999999999905e-01 5.404830000000000467e+00 1.148549999999999898e+02 1.428005000000000109e+03
1.430000000000000160e-01 5.860300000000000509e-01 5.247970000000000468e+00 1.150174999999999983e+02 1.428035000000000082e+03
1.440000000000000169e-01 5.860889999999999711e-01 5.129780000000000229e+00 1.152309999999999945e+02 1.428085000000000036e+03
1.450000000000000178e-01 5.861574999999999980e-01 5.045304999999999929e+00 1.154844999999999970e+02 1.428150000000000091e+03
1.459999999999999909e-01 5.862334999999999630e-01 4.989119999999999777e+00 1.157690000000000055e+02 1.428230000000000018e+03
1.469999999999999918e-01 5.863134999999999319e-01 4.955524999999999736e+00 1.160734999999999957e+02 1.428319999999999936e+03
1.479999999999999927e-01 5.863959999999999173e-01 4.938729999999999620e+00 1.163889999999999958e+02 1.428409999999999854e+03
1.489999999999999936e-01 5.864774999999999849e-01 4.933080000000000354e+00 1.167034999999999911e+02 1.428500000000000000e+03
1.499999999999999944e-01 5.865565000000000362e-01 4.933170000000000499e+00 1.170095000000000027e+02 1.428599999999999909e+03
1.509999999999999953e-01 5.866299999999999848e-01 4.934020000000000294e+00 1.172985000000000042e+02 1.428690000000000055e+03
1.519999999999999962e-01 5.866970000000000240e-01 4.931219999999999715e+00 1.175629999999999882e+02 1.428775000000000091e+03
1.529999999999999971e-01 5.867565000000000142e-01 4.920970000000000510e+00 1.177974999999999994e+02 1.428855000000000018e+03
1.539999999999999980e-01 5.868065000000000087e-01 4.900159999999999627e+00 1.179979999999999905e+02 1.428924999999999955e+03
1.549999999999999989e-01 5.868470000000000075e-01 4.866419999999999746e+00 1.181614999999999895e+02 1.428985000000000127e+03
1.559999999999999998e-01 5.868780000000000108e-01 4.818110000000000781e+00 1.182854999999999990e+02 1.429034999999999854e+03
1.570000000000000007e-01 5.868989999999999485e-01 4.754299999999999748e+00 1.183714999999999975e+02 1.429069999999999936e+03
1.580000000000000016e-01 5.869100000000000428e-01 4.674744999999999706e+00 1.184189999999999969e+02 1.429095000000000027e+03
1.590000000000000024e-01 5.869130000000000180e-01 4.579799999999999649e+00 1.184304999999999950e+02 1.429105000000000018e+03
