# t [s], A [cm^2], U [cm/s], P [cPa], c [cm/s]
1.000000000000000021e-03 1.539059999999999873e-01 3.836709999999999843e-01 8.559964999999999691e+01 1.787210000000000036e+03
2.000000000000000042e-03 1.538734999999999964e-01 1.882567499999999949e+00 8.266615000000000180e+01 1.786904999999999973e+03
3.000000000000000062e-03 1.537699999999999900e-01 3.661075999999999997e+00 7.890510000000000446e+01 1.785954999999999927e+03
4.000000000000000083e-03 1.536199999999999788e-01 5.611711999999999811e+00 7.492529999999999291e+01 1.784605000000000018e+03
5.000000000000000104e-03 1.534520000000000051e-01 7.684535000000000338e+00 7.140085000000000548e+01 1.783105000000000018e+03
6.000000000000000125e-03 1.532855000000000190e-01 9.754450000000000287e+00 6.856504999999999939e+01 1.781625000000000000e+03
7.000000000000000146e-03 1.531259999999999843e-01 1.165847499999999926e+01 6.624644999999999584e+01 1.780240000000000009e+03
8.000000000000000167e-03 1.529774999999999885e-01 1.330636499999999955e+01 6.420900000000000318e+01 1.778954999999999927e+03
9.000000000000001055e-03 1.528424999999999923e-01 1.470964999999999989e+01 6.240784999999999627e+01 1.777804999999999836e+03
1.000000000000000194e-02 1.527239999999999986e-01 1.590319999999999823e+01 6.089634999999999820e+01 1.776809999999999945e+03
1.099999999999999936e-02 1.526220000000000077e-01 1.690030000000000143e+01 5.967150000000000176e+01 1.775965000000000146e+03
1.200000000000000025e-02 1.525360000000000049e-01 1.770834999999999937e+01 5.868424999999999869e+01 1.775259999999999991e+03
1.300000000000000114e-02 1.524650000000000172e-01 1.833879999999999910e+01 5.788694999999999879e+01 1.774684999999999945e+03
1.400000000000000203e-02 1.524065000000000003e-01 1.880105000000000004e+01 5.722874999999999801e+01 1.774220000000000027e+03
1.499999999999999944e-02 1.523579999999999934e-01 1.911025000000000063e+01 5.666084999999999638e+01 1.773835000000000036e+03
1.600000000000000033e-02 1.523180000000000089e-01 1.931050000000000111e+01 5.619335000000000235e+01 1.773525000000000091e+03
1.700000000000000122e-02 1.522875000000000201e-01 1.948489999999999966e+01 5.594519999999999982e+01 1.773295000000000073e+03
1.800000000000000211e-02 1.522719999999999907e-01 1.973340000000000316e+01 5.611889999999999645e+01 1.773190000000000055e+03
1.900000000000000300e-02 1.522779999999999967e-01 2.013100000000000023e+01 5.689924999999999500e+01 1.773250000000000000e+03
2.000000000000000042e-02 1.523079999999999989e-01 2.069180000000000064e+01 5.834090000000000487e+01 1.773509999999999991e+03
2.100000000000000130e-02 1.523614999999999831e-01 2.135974999999999824e+01 6.031074999999999875e+01 1.773960000000000036e+03
2.200000000000000219e-02 1.524324999999999986e-01 2.202689999999999770e+01 6.251200000000000045e+01 1.774554999999999836e+03
2.299999999999999961e-02 1.525110000000000077e-01 2.256879999999999953e+01 6.457085000000000719e+01 1.775220000000000027e+03
2.400000000000000050e-02 1.525845000000000118e-01 2.288230000000000075e+01 6.614615000000000578e+01 1.775849999999999909e+03
2.500000000000000139e-02 1.526440000000000019e-01 2.291205000000000069e+01 6.702074999999999250e+01 1.776360000000000127e+03
2.600000000000000228e-02 1.526814999999999978e-01 2.266004999999999825e+01 6.714705000000000723e+01 1.776700000000000045e+03
2.700000000000000316e-02 1.526969999999999994e-01 2.217725000000000080e+01 6.663859999999999673e+01 1.776849999999999909e+03
2.800000000000000058e-02 1.526930000000000232e-01 2.154295000000000115e+01 6.571699999999999875e+01 1.776840000000000146e+03
2.900000000000000147e-02 1.526750000000000052e-01 2.083940000000000126e+01 6.463615000000000066e+01 1.776700000000000045e+03
3.000000000000000236e-02 1.526500000000000079e-01 2.013094999999999857e+01 6.361129999999999995e+01 1.776505000000000109e+03
3.099999999999999978e-02 1.526230000000000087e-01 1.945230000000000103e+01 6.277134999999999820e+01 1.776284999999999854e+03
3.200000000000000067e-02 1.525990000000000124e-01 1.880785000000000196e+01 6.214574999999999960e+01 1.776090000000000146e+03
3.300000000000000155e-02 1.525775000000000048e-01 1.817980000000000018e+01 6.168124999999999858e+01 1.775914999999999964e+03
3.400000000000000244e-02 1.525590000000000002e-01 1.754129999999999967e+01 6.127949999999999875e+01 1.775755000000000109e+03
3.500000000000000333e-02 1.525404999999999955e-01 1.687020000000000053e+01 6.084000000000000341e+01 1.775605000000000018e+03
3.600000000000000422e-02 1.525194999999999745e-01 1.615950000000000131e+01 6.029834999999999923e+01 1.775434999999999945e+03
3.700000000000000511e-02 1.524960000000000204e-01 1.542299999999999827e+01 5.964910000000000423e+01 1.775244999999999891e+03
3.799999999999999906e-02 1.524695000000000078e-01 1.469469999999999921e+01 5.895029999999999859e+01 1.775025000000000091e+03
3.899999999999999994e-02 1.524429999999999952e-01 1.402185000000000059e+01 5.830995000000000061e+01 1.774799999999999955e+03
4.000000000000000083e-02 1.524194999999999856e-01 1.345520000000000138e+01 5.785864999999999725e+01 1.774605000000000018e+03
4.100000000000000172e-02 1.524035000000000251e-01 1.303725000000000023e+01 5.771630000000000393e+01 1.774470000000000027e+03
4.200000000000000261e-02 1.523979999999999779e-01 1.279265000000000008e+01 5.796150000000000091e+01 1.774414999999999964e+03
4.300000000000000350e-02 1.524069999999999869e-01 1.272189999999999976e+01 5.861020000000000607e+01 1.774480000000000018e+03
4.400000000000000439e-02 1.524289999999999812e-01 1.280010000000000048e+01 5.960819999999999652e+01 1.774654999999999973e+03
4.499999999999999833e-02 1.524630000000000152e-01 1.298049999999999926e+01 6.083854999999999791e+01 1.774924999999999955e+03
4.599999999999999922e-02 1.525055000000000160e-01 1.320110000000000028e+01 6.213944999999999652e+01 1.775275000000000091e+03
4.700000000000000011e-02 1.525509999999999922e-01 1.339375000000000071e+01 6.332994999999999663e+01 1.775650000000000091e+03
4.800000000000000100e-02 1.525934999999999930e-01 1.349269999999999925e+01 6.423560000000000514e+01 1.776000000000000000e+03
4.900000000000000189e-02 1.526264999999999983e-01 1.344224999999999959e+01 6.471170000000000755e+01 1.776275000000000091e+03
5.000000000000000278e-02 1.526449999999999751e-01 1.320165000000000077e+01 6.465860000000000696e+01 1.776434999999999945e+03
5.100000000000000366e-02 1.526460000000000039e-01 1.274794999999999945e+01 6.402879999999998972e+01 1.776444999999999936e+03
5.200000000000000455e-02 1.526259999999999839e-01 1.207574999999999932e+01 6.282665000000000077e+01 1.776279999999999973e+03
5.300000000000000544e-02 1.525849999999999984e-01 1.119524499999999989e+01 6.110049999999999670e+01 1.775949999999999818e+03
5.399999999999999939e-02 1.525239999999999929e-01 1.012941999999999965e+01 5.893169999999999931e+01 1.775450000000000045e+03
5.500000000000000028e-02 1.524449999999999972e-01 8.910225000000000506e+00 5.642199999999999704e+01 1.774795000000000073e+03
5.600000000000000117e-02 1.523515000000000008e-01 7.575364999999999682e+00 5.368200000000000216e+01 1.774019999999999982e+03
5.700000000000000205e-02 1.522465000000000068e-01 6.165634999999999977e+00 5.082209999999999894e+01 1.773144999999999982e+03
5.800000000000000294e-02 1.521345000000000058e-01 4.722929999999999851e+00 4.794674999999999443e+01 1.772220000000000027e+03
5.900000000000000383e-02 1.520190000000000152e-01 3.289024500000000018e+00 4.515115000000000123e+01 1.771259999999999991e+03
6.000000000000000472e-02 1.519039999999999835e-01 1.904880000000000129e+00 4.252120000000000033e+01 1.770300000000000182e+03
6.099999999999999867e-02 1.517934999999999979e-01 6.102350000000000829e-01 4.013405000000000200e+01 1.769369999999999891e+03
6.199999999999999956e-02 1.516899999999999915e-01 -5.567550000000001109e-01 3.805925000000000580e+01 1.768505000000000109e+03
6.300000000000000044e-02 1.515969999999999818e-01 -1.560065999999999953e+00 3.635984999999999445e+01 1.767724999999999909e+03
6.400000000000000133e-02 1.515174999999999994e-01 -2.366512999999999867e+00 3.509219999999999828e+01 1.767059999999999945e+03
6.500000000000000222e-02 1.514544999999999919e-01 -2.946759999999999824e+00 3.430504999999999427e+01 1.766519999999999982e+03
6.600000000000000311e-02 1.514099999999999890e-01 -3.276470000000000216e+00 3.403780000000000427e+01 1.766134999999999991e+03
6.700000000000000400e-02 1.513855000000000062e-01 -3.337495000000000100e+00 3.431810000000000116e+01 1.765914999999999964e+03
6.800000000000000488e-02 1.513829999999999898e-01 -3.118889999999999940e+00 3.515964999999999918e+01 1.765880000000000109e+03
6.900000000000000577e-02 1.514030000000000098e-01 -2.617734999999999701e+00 3.656015000000000015e+01 1.766025000000000091e+03
7.000000000000000666e-02 1.514459999999999973e-01 -1.839420499999999903e+00 3.850074999999999648e+01 1.766365000000000009e+03
7.100000000000000755e-02 1.515120000000000078e-01 -7.975699999999998902e-01 4.094570000000000221e+01 1.766894999999999982e+03
7.200000000000000844e-02 1.515984999999999971e-01 4.866150000000000198e-01 4.384425000000000239e+01 1.767605000000000018e+03
7.300000000000000933e-02 1.517060000000000075e-01 1.985370000000000079e+00 4.713289999999999935e+01 1.768474999999999909e+03
7.399999999999999634e-02 1.518300000000000205e-01 3.665757999999999850e+00 5.073879999999999768e+01 1.769494999999999891e+03
7.499999999999999722e-02 1.519694999999999796e-01 5.491245000000000154e+00 5.458355000000000246e+01 1.770650000000000091e+03
7.599999999999999811e-02 1.521214999999999928e-01 7.423300000000000232e+00 5.858724999999999739e+01 1.771905000000000200e+03
7.699999999999999900e-02 1.522820000000000007e-01 9.423135000000000261e+00 6.267220000000000368e+01 1.773240000000000009e+03
7.799999999999999989e-02 1.524484999999999868e-01 1.145302500000000023e+01 6.676630000000000109e+01 1.774630000000000109e+03
7.900000000000000078e-02 1.526184999999999903e-01 1.347775500000000015e+01 7.080549999999999500e+01 1.776054999999999836e+03
8.000000000000000167e-02 1.527884999999999938e-01 1.546565000000000012e+01 7.473605000000000587e+01 1.777480000000000018e+03
8.100000000000000255e-02 1.529570000000000096e-01 1.738949999999999818e+01 7.851595000000000368e+01 1.778900000000000091e+03
8.200000000000000344e-02 1.531210000000000071e-01 1.922735000000000127e+01 8.211554999999999893e+01 1.780289999999999964e+03
8.300000000000000433e-02 1.532799999999999996e-01 2.096265000000000001e+01 8.551775000000000659e+01 1.781639999999999873e+03
8.400000000000000522e-02 1.534324999999999994e-01 2.258464999999999989e+01 8.871784999999999854e+01 1.782940000000000055e+03
8.500000000000000611e-02 1.535785000000000067e-01 2.408825000000000216e+01 9.172229999999998995e+01 1.784184999999999945e+03
8.600000000000000699e-02 1.537169999999999925e-01 2.547360000000000113e+01 9.454765000000000441e+01 1.785369999999999891e+03
8.700000000000000788e-02 1.538495000000000001e-01 2.674555000000000149e+01 9.721835000000000093e+01 1.786509999999999991e+03
8.800000000000000877e-02 1.539750000000000008e-01 2.791284999999999883e+01 9.976484999999999559e+01 1.787590000000000146e+03
8.899999999999999578e-02 1.540960000000000107e-01 2.898740000000000094e+01 1.022215500000000077e+02 1.788639999999999873e+03
8.999999999999999667e-02 1.542129999999999890e-01 2.998279999999999745e+01 1.046239999999999952e+02 1.789650000000000091e+03
9.099999999999999756e-02 1.543279999999999930e-01 3.091365000000000052e+01 1.070060000000000002e+02 1.790640000000000100e+03
9.199999999999999845e-02 1.544405000000000083e-01 3.179424999999999812e+01 1.093984999999999985e+02 1.791619999999999891e+03
9.299999999999999933e-02 1.545539999999999969e-01 3.263770000000000238e+01 1.118255000000000052e+02 1.792594999999999800e+03
9.400000000000000022e-02 1.546669999999999989e-01 3.345504999999999995e+01 1.143059999999999974e+02 1.793575000000000045e+03
9.500000000000000111e-02 1.547820000000000029e-01 3.425464999999999804e+01 1.168499999999999943e+02 1.794565000000000055e+03
9.600000000000000200e-02 1.548990000000000089e-01 3.504155000000000086e+01 1.194590000000000032e+02 1.795579999999999927e+03
9.700000000000000289e-02 1.550179999999999891e-01 3.581765000000000043e+01 1.221260000000000048e+02 1.796610000000000127e+03
9.800000000000000377e-02 1.551389999999999991e-01 3.658135000000000048e+01 1.248375000000000057e+02 1.797650000000000091e+03
9.900000000000000466e-02 1.552614999999999967e-01 3.732779999999999632e+01 1.275700000000000074e+02 1.798710000000000036e+03
1.000000000000000056e-01 1.553845000000000087e-01 3.804954999999999643e+01 1.302984999999999900e+02 1.799779999999999973e+03
1.010000000000000064e-01 1.555070000000000063e-01 3.873659999999999570e+01 1.329900000000000091e+02 1.800845000000000027e+03
1.020000000000000073e-01 1.556285000000000029e-01 3.937749999999999773e+01 1.356119999999999948e+02 1.801900000000000091e+03
1.030000000000000082e-01 1.557479999999999976e-01 3.995969999999999800e+01 1.381304999999999836e+02 1.802934999999999945e+03
1.040000000000000091e-01 1.558625000000000149e-01 4.047055000000000291e+01 1.405115000000000123e+02 1.803934999999999945e+03
1.050000000000000100e-01 1.559725000000000139e-01 4.089744999999999919e+01 1.427245000000000061e+02 1.804894999999999982e+03
1.059999999999999970e-01 1.560759999999999925e-01 4.122889999999999588e+01 1.447420000000000186e+02 1.805795000000000073e+03
1.069999999999999979e-01 1.561714999999999909e-01 4.145494999999999663e+01 1.465409999999999968e+02 1.806634999999999991e+03
1.079999999999999988e-01 1.562584999999999946e-01 4.156739999999999924e+01 1.481034999999999968e+02 1.807400000000000091e+03
1.089999999999999997e-01 1.563364999999999894e-01 4.156045000000000300e+01 1.494180000000000064e+02 1.808079999999999927e+03
1.100000000000000006e-01 1.564039999999999875e-01 4.143084999999999951e+01 1.504789999999999850e+02 1.808679999999999836e+03
1.110000000000000014e-01 1.564615000000000034e-01 4.117794999999999561e+01 1.512860000000000014e+02 1.809190000000000055e+03
1.120000000000000023e-01 1.565080000000000082e-01 4.080375000000000085e+01 1.518439999999999941e+02 1.809605000000000018e+03
1.130000000000000032e-01 1.565445000000000031e-01 4.031284999999999741e+01 1.521645000000000039e+02 1.809934999999999945e+03
1.140000000000000041e-01 1.565705000000000013e-01 3.971259999999999479e+01 1.522640000000000100e+02 1.810174999999999955e+03
1.150000000000000050e-01 1.565874999999999906e-01 3.901229999999999620e+01 1.521620000000000061e+02 1.810325000000000045e+03
1.160000000000000059e-01 1.565945000000000253e-01 3.822325000000000017e+01 1.518820000000000050e+02 1.810404999999999973e+03
1.170000000000000068e-01 1.565940000000000110e-01 3.735840000000000316e+01 1.514499999999999886e+02 1.810404999999999973e+03
1.180000000000000077e-01 1.565865000000000173e-01 3.643165000000000475e+01 1.508935000000000173e+02 1.810349999999999909e+03
1.190000000000000085e-01 1.565725000000000033e-01 3.545770000000000266e+01 1.502415000000000020e+02 1.810235000000000127e+03
1.200000000000000094e-01 1.565529999999999977e-01 3.445134999999999792e+01 1.495210000000000150e+02 1.810075000000000045e+03
1.209999999999999964e-01 1.565300000000000025e-01 3.342725000000000080e+01 1.487590000000000146e+02 1.809880000000000109e+03
1.219999999999999973e-01 1.565039999999999765e-01 3.239925000000000210e+01 1.479805000000000064e+02 1.809660000000000082e+03
1.229999999999999982e-01 1.564770000000000050e-01 3.138025000000000020e+01 1.472069999999999936e+02 1.809420000000000073e+03
1.239999999999999991e-01 1.564480000000000037e-01 3.038139999999999930e+01 1.464585000000000150e+02 1.809174999999999955e+03
1.250000000000000000e-01 1.564194999999999891e-01 2.941244999999999976e+01 1.457489999999999952e+02 1.808929999999999836e+03
1.260000000000000009e-01 1.563915000000000166e-01 2.848104999999999976e+01 1.450889999999999986e+02 1.808684999999999945e+03
1.270000000000000018e-01 1.563645000000000174e-01 2.759274999999999878e+01 1.444864999999999782e+02 1.808444999999999936e+03
1.280000000000000027e-01 1.563390000000000057e-01 2.675104999999999933e+01 1.439424999999999955e+02 1.808224999999999909e+03
1.290000000000000036e-01 1.563154999999999961e-01 2.595725000000000193e+01 1.434565000000000055e+02 1.808014999999999873e+03
1.300000000000000044e-01 1.562935000000000019e-01 2.521065000000000111e+01 1.430230000000000246e+02 1.807824999999999818e+03
1.310000000000000053e-01 1.562739999999999962e-01 2.450869999999999749e+01 1.426334999999999980e+02 1.807650000000000091e+03
1.320000000000000062e-01 1.562554999999999916e-01 2.384720000000000084e+01 1.422760000000000105e+02 1.807485000000000127e+03
1.330000000000000071e-01 1.562385000000000024e-01 2.322060000000000102e+01 1.419375000000000000e+02 1.807329999999999927e+03
1.340000000000000080e-01 1.562219999999999998e-01 2.262229999999999919e+01 1.416030000000000086e+02 1.807184999999999945e+03
1.350000000000000089e-01 1.562050000000000105e-01 2.204509999999999792e+01 1.412570000000000050e+02 1.807034999999999854e+03
1.360000000000000098e-01 1.561885000000000079e-01 2.148120000000000118e+01 1.408835000000000264e+02 1.806884999999999991e+03
1.370000000000000107e-01 1.561710000000000043e-01 2.092295000000000016e+01 1.404680000000000177e+02 1.806730000000000018e+03
1.380000000000000115e-01 1.561520000000000130e-01 2.036310000000000286e+01 1.399970000000000141e+02 1.806559999999999945e+03
1.390000000000000124e-01 1.561310000000000198e-01 1.979484999999999673e+01 1.394585000000000150e+02 1.806375000000000000e+03
1.400000000000000133e-01 1.561069999999999958e-01 1.921255000000000024e+01 1.388425000000000011e+02 1.806164999999999964e+03
1.410000000000000142e-01 1.560805000000000109e-01 1.861149999999999949e+01 1.381444999999999936e+02 1.805930000000000064e+03
1.420000000000000151e-01 1.560505000000000086e-01 1.798855000000000004e+01 1.373590000000000089e+02 1.805674999999999955e+03
1.430000000000000160e-01 1.560175000000000034e-01 1.734205000000000041e+01 1.364879999999999995e+02 1.805384999999999991e+03
1.440000000000000169e-01 1.559804999999999942e-01 1.667184999999999917e+01 1.355335000000000036e+02 1.805065000000000055e+03
1.450000000000000178e-01 1.559409999999999963e-01 1.597960000000000136e+01 1.345035000000000025e+02 1.804720000000000027e+03
1.459999999999999909e-01 1.558975000000000222e-01 1.526829999999999998e+01 1.334074999999999989e+02 1.804345000000000027e+03
1.469999999999999918e-01 1.558514999999999762e-01 1.454244999999999877e+01 1.322570000000000050e+02 1.803950000000000045e+03
1.479999999999999927e-01 1.558029999999999970e-01 1.380790000000000006e+01 1.310685000000000002e+02 1.803529999999999973e+03
1.489999999999999936e-01 1.557529999999999748e-01 1.307145000000000046e+01 1.298580000000000041e+02 1.803095000000000027e+03
1.499999999999999944e-01 1.557014999999999927e-01 1.234074999999999989e+01 1.286435000000000173e+02 1.802650000000000091e+03
1.509999999999999953e-01 1.556489999999999818e-01 1.162374499999999955e+01 1.274424999999999955e+02 1.802200000000000045e+03
1.519999999999999962e-01 1.555974999999999997e-01 1.092873499999999964e+01 1.262740000000000009e+02 1.801750000000000000e+03
1.529999999999999971e-01 1.555459999999999898e-01 1.026375999999999955e+01 1.251544999999999987e+02 1.801304999999999836e+03
1.539999999999999980e-01 1.554964999999999820e-01 9.636469999999999203e+00 1.240999999999999943e+02 1.800875000000000000e+03
1.549999999999999989e-01 1.554495000000000182e-01 9.053644999999999499e+00 1.231244999999999976e+02 1.800464999999999918e+03
1.559999999999999998e-01 1.554045000000000010e-01 8.521169999999999689e+00 1.222374999999999972e+02 1.800075000000000045e+03
1.570000000000000007e-01 1.553634999999999877e-01 8.043760000000000687e+00 1.214495000000000005e+02 1.799720000000000027e+03
1.580000000000000016e-01 1.553264999999999785e-01 7.624779999999999447e+00 1.207655000000000030e+02 1.799390000000000100e+03
1.590000000000000024e-01 1.552925000000000000e-01 7.266175000000000495e+00 1.201875000000000000e+02 1.799099999999999909e+03
