# t [s], A [cm^2], U [cm/s], P [cPa], c [cm/s]
1.000000000000000021e-03 7.694574999999999054e-01 4.671500000000002040e-03 9.155770000000001119e+01 1.648345000000000027e+03
2.000000000000000042e-03 7.694484999999999797e-01 4.762699999999999920e-03 9.152770000000001005e+01 1.648335000000000036e+03
3.000000000000000062e-03 7.695389999999999731e-01 1.492508499999999905e-01 9.168139999999999645e+01 1.648369999999999891e+03
4.000000000000000083e-03 7.695769999999999555e-01 2.336079999999999823e-01 9.177174999999999727e+01 1.648384999999999991e+03
5.000000000000000104e-03 7.694929999999999826e-01 1.408705000000000096e-01 9.157855000000000700e+01 1.648355000000000018e+03
6.000000000000000125e-03 7.693875000000000020e-01 3.216500000000011017e-03 9.122249999999999659e+01 1.648285000000000082e+03
7.000000000000000146e-03 7.692695000000000505e-01 -1.669449999999998990e-01 9.075090000000000146e+01 1.648190000000000055e+03
8.000000000000000167e-03 7.690565000000000317e-01 -5.035000000000000586e-01 8.999250000000000682e+01 1.648039999999999964e+03
9.000000000000001055e-03 7.687429999999999541e-01 -1.010950000000000015e+00 8.888485000000000014e+01 1.647824999999999818e+03
1.000000000000000194e-02 7.683249999999999247e-01 -1.684124999999999872e+00 8.738609999999999900e+01 1.647530000000000200e+03
1.099999999999999936e-02 7.677665000000000184e-01 -2.553885000000000183e+00 8.540659999999999741e+01 1.647130000000000109e+03
1.200000000000000025e-02 7.670865000000000045e-01 -3.562885000000000080e+00 8.296240000000000236e+01 1.646630000000000109e+03
1.300000000000000114e-02 7.663919999999999622e-01 -4.511756499999999726e+00 8.028909999999999059e+01 1.646059999999999945e+03
1.400000000000000203e-02 7.658104999999999496e-01 -5.159387599999999630e+00 7.775045000000000073e+01 1.645505000000000109e+03
1.499999999999999944e-02 7.654114999999999114e-01 -5.356155000000000221e+00 7.564785000000000537e+01 1.645005000000000109e+03
1.600000000000000033e-02 7.651820000000000288e-01 -5.100185000000000635e+00 7.409225000000000705e+01 1.644599999999999909e+03
1.700000000000000122e-02 7.650449999999999751e-01 -4.513390000000000235e+00 7.298859999999999104e+01 1.644279999999999973e+03
1.800000000000000211e-02 7.649019999999999708e-01 -3.775745000000000129e+00 7.210280000000000200e+01 1.644005000000000109e+03
1.900000000000000300e-02 7.646714999999999485e-01 -3.050690000000000346e+00 7.116995000000000005e+01 1.643724999999999909e+03
2.000000000000000042e-02 7.643229999999999746e-01 -2.426601049999999926e+00 7.000084999999999980e+01 1.643414999999999964e+03
2.100000000000000130e-02 7.638759999999999994e-01 -1.898175000000000168e+00 6.854380000000000450e+01 1.643054999999999836e+03
2.200000000000000219e-02 7.633855000000000501e-01 -1.395430000000000170e+00 6.687484999999999502e+01 1.642654999999999973e+03
2.299999999999999961e-02 7.629055000000000142e-01 -8.402950000000000141e-01 6.512969999999999970e+01 1.642235000000000127e+03
2.400000000000000050e-02 7.624630000000000019e-01 -1.980100000000000193e-01 6.342045000000000243e+01 1.641815000000000055e+03
2.500000000000000139e-02 7.620480000000000587e-01 4.975800000000001333e-01 6.177594999999999459e+01 1.641400000000000091e+03
2.600000000000000228e-02 7.616144999999999721e-01 1.147984999999999811e+00 6.012190000000000367e+01 1.640980000000000018e+03
2.700000000000000316e-02 7.611004999999999576e-01 1.615709999999999980e+00 5.829919999999999902e+01 1.640534999999999854e+03
2.800000000000000058e-02 7.604429999999999801e-01 1.761919999999999931e+00 5.611064999999999969e+01 1.640019999999999982e+03
2.900000000000000147e-02 7.596015000000000406e-01 1.485970000000000457e+00 5.338299999999999557e+01 1.639410000000000082e+03
3.000000000000000236e-02 7.585694999999998966e-01 7.560750000000000526e-01 5.002599999999999625e+01 1.638670000000000073e+03
3.099999999999999978e-02 7.573814999999999298e-01 -3.792999999999997485e-01 4.607005000000000194e+01 1.637815000000000055e+03
3.200000000000000067e-02 7.561050000000000271e-01 -1.802970000000000184e+00 4.166955000000000098e+01 1.636860000000000127e+03
3.300000000000000155e-02 7.548235000000000916e-01 -3.357825000000000060e+00 3.707269999999999754e+01 1.635849999999999909e+03
3.400000000000000244e-02 7.536214999999999442e-01 -4.880514999999999937e+00 3.257269999999999754e+01 1.634845000000000027e+03
3.500000000000000333e-02 7.525695000000000023e-01 -6.229085000000000427e+00 2.845690000000000097e+01 1.633894999999999982e+03
3.600000000000000422e-02 7.517179999999999973e-01 -7.299267500000000020e+00 2.496604999999999919e+01 1.633059999999999945e+03
3.700000000000000511e-02 7.510949999999999571e-01 -8.029104999999999492e+00 2.227040000000000219e+01 1.632384999999999991e+03
3.799999999999999906e-02 7.507074999999999720e-01 -8.394104999999999706e+00 2.046240000000000236e+01 1.631884999999999991e+03
3.899999999999999994e-02 7.505494999999999806e-01 -8.397349999999999426e+00 1.956419999999999959e+01 1.631579999999999927e+03
4.000000000000000083e-02 7.506045000000000078e-01 -8.057455000000000922e+00 1.954390000000000072e+01 1.631470000000000027e+03
4.100000000000000172e-02 7.508539999999999104e-01 -7.398149999999999338e+00 2.033605000000000018e+01 1.631545000000000073e+03
4.200000000000000261e-02 7.512790000000000301e-01 -6.441774999999999807e+00 2.186035000000000039e+01 1.631789999999999964e+03
4.300000000000000350e-02 7.518614999999999604e-01 -5.208014999999999617e+00 2.403359999999999985e+01 1.632190000000000055e+03
4.400000000000000439e-02 7.525844999999999896e-01 -3.716515000000000235e+00 2.677425000000000210e+01 1.632730000000000018e+03
4.499999999999999833e-02 7.534289999999999043e-01 -1.991754999999999942e+00 3.000130000000000052e+01 1.633389999999999873e+03
4.599999999999999922e-02 7.543740000000001000e-01 -6.791000000000035897e-02 3.362895000000000323e+01 1.634150000000000091e+03
4.700000000000000011e-02 7.553929999999999811e-01 2.009375000000000355e+00 3.756309999999999860e+01 1.634994999999999891e+03
4.800000000000000100e-02 7.564565000000000872e-01 4.183474999999999611e+00 4.169969999999999999e+01 1.635900000000000091e+03
4.900000000000000189e-02 7.575344999999999995e-01 6.390814999999999912e+00 4.592735000000000412e+01 1.636835000000000036e+03
5.000000000000000278e-02 7.585949999999999083e-01 8.566039999999999210e+00 5.013344999999999629e+01 1.637784999999999854e+03
5.100000000000000366e-02 7.596114999999999950e-01 1.064808999999999983e+01 5.421189999999999998e+01 1.638714999999999918e+03
5.200000000000000455e-02 7.605625000000000302e-01 1.258514999999999873e+01 5.807135000000000247e+01 1.639619999999999891e+03
5.300000000000000544e-02 7.614339999999999442e-01 1.433827000000000140e+01 6.164180000000000348e+01 1.640465000000000146e+03
5.399999999999999939e-02 7.622169999999999224e-01 1.588304999999999900e+01 6.487850000000000250e+01 1.641255000000000109e+03
5.500000000000000028e-02 7.629120000000000346e-01 1.720899999999999963e+01 6.776339999999999009e+01 1.641970000000000027e+03
5.600000000000000117e-02 7.635240000000000915e-01 1.831855000000000189e+01 7.030299999999999727e+01 1.642615000000000009e+03
5.700000000000000205e-02 7.640629999999999367e-01 1.922409999999999997e+01 7.252514999999999645e+01 1.643195000000000164e+03
5.800000000000000294e-02 7.645420000000000549e-01 1.994610000000000127e+01 7.447409999999999286e+01 1.643710000000000036e+03
5.900000000000000383e-02 7.649755000000000305e-01 2.051050000000000040e+01 7.620555000000000234e+01 1.644170000000000073e+03
6.000000000000000472e-02 7.653805000000000192e-01 2.094720000000000226e+01 7.778239999999999554e+01 1.644594999999999800e+03
6.099999999999999867e-02 7.657724999999999671e-01 2.128849999999999909e+01 7.927044999999999675e+01 1.644990000000000009e+03
6.199999999999999956e-02 7.661679999999999602e-01 2.156745000000000090e+01 8.073475000000000534e+01 1.645369999999999891e+03
6.300000000000000044e-02 7.665824999999999445e-01 2.181664999999999921e+01 8.223650000000000659e+01 1.645759999999999991e+03
6.400000000000000133e-02 7.670270000000000143e-01 2.206579999999999941e+01 8.382909999999999684e+01 1.646160000000000082e+03
6.500000000000000222e-02 7.675115000000000132e-01 2.234019999999999939e+01 8.555474999999999852e+01 1.646579999999999927e+03
6.600000000000000311e-02 7.680424999999999613e-01 2.265845000000000198e+01 8.744129999999999825e+01 1.647035000000000082e+03
6.700000000000000400e-02 7.686195000000000110e-01 2.303079999999999927e+01 8.949970000000000425e+01 1.647525000000000091e+03
6.800000000000000488e-02 7.692384999999999362e-01 2.345884999999999820e+01 9.172244999999999493e+01 1.648045000000000073e+03
6.900000000000000577e-02 7.698909999999999920e-01 2.393515000000000015e+01 9.408430000000001314e+01 1.648595000000000027e+03
7.000000000000000666e-02 7.705645000000000966e-01 2.444440000000000168e+01 9.654349999999999454e+01 1.649170000000000073e+03
7.100000000000000755e-02 7.712425000000000530e-01 2.496499999999999986e+01 9.904585000000000150e+01 1.649759999999999991e+03
7.200000000000000844e-02 7.719080000000000386e-01 2.547129999999999939e+01 1.015272500000000093e+02 1.650345000000000027e+03
7.300000000000000933e-02 7.725435000000000496e-01 2.593565000000000254e+01 1.039210999999999956e+02 1.650914999999999964e+03
7.399999999999999634e-02 7.731315000000000826e-01 2.633089999999999975e+01 1.061614999999999895e+02 1.651460000000000036e+03
7.499999999999999722e-02 7.736585000000000267e-01 2.663194999999999979e+01 1.081875000000000000e+02 1.651965000000000146e+03
7.599999999999999811e-02 7.741109999999999935e-01 2.681770000000000209e+01 1.099470000000000027e+02 1.652404999999999973e+03
7.699999999999999900e-02 7.744809999999999750e-01 2.687185000000000201e+01 1.114004999999999939e+02 1.652784999999999854e+03
7.799999999999999989e-02 7.747625000000000206e-01 2.678395000000000081e+01 1.125225000000000080e+02 1.653089999999999918e+03
7.900000000000000078e-02 7.749550000000000605e-01 2.654959999999999809e+01 1.133000000000000114e+02 1.653319999999999936e+03
8.000000000000000167e-02 7.750595000000000123e-01 2.617050000000000054e+01 1.137359999999999900e+02 1.653474999999999909e+03
8.100000000000000255e-02 7.750814999999999788e-01 2.565424999999999756e+01 1.138470000000000084e+02 1.653555000000000064e+03
8.200000000000000344e-02 7.750295000000000378e-01 2.501375000000000171e+01 1.136604999999999990e+02 1.653555000000000064e+03
8.300000000000000433e-02 7.749139999999999917e-01 2.426650000000000063e+01 1.132150000000000034e+02 1.653500000000000000e+03
8.400000000000000522e-02 7.747470000000000745e-01 2.343345000000000056e+01 1.125564999999999998e+02 1.653389999999999873e+03
8.500000000000000611e-02 7.745425000000000226e-01 2.253835000000000122e+01 1.117355000000000018e+02 1.653235000000000127e+03
8.600000000000000699e-02 7.743134999999999879e-01 2.160590000000000188e+01 1.108064999999999998e+02 1.653049999999999955e+03
8.700000000000000788e-02 7.740739999999999288e-01 2.066120000000000090e+01 1.098220000000000027e+02 1.652845000000000027e+03
8.800000000000000877e-02 7.738365000000000382e-01 1.972809999999999775e+01 1.088340000000000032e+02 1.652630000000000109e+03
8.899999999999999578e-02 7.736125000000000362e-01 1.882809999999999917e+01 1.078864999999999981e+02 1.652414999999999964e+03
8.999999999999999667e-02 7.734099999999999309e-01 1.797970000000000113e+01 1.070199999999999960e+02 1.652215000000000146e+03
9.099999999999999756e-02 7.732379999999999809e-01 1.719740000000000180e+01 1.062639999999999958e+02 1.652029999999999973e+03
9.199999999999999845e-02 7.730989999999999807e-01 1.649115000000000109e+01 1.056405000000000030e+02 1.651875000000000000e+03
9.299999999999999933e-02 7.729964999999999753e-01 1.586655000000000015e+01 1.051610000000000014e+02 1.651750000000000000e+03
9.400000000000000022e-02 7.729300000000000059e-01 1.532424999999999926e+01 1.048275000000000006e+02 1.651655000000000200e+03
9.500000000000000111e-02 7.728969999999999452e-01 1.486064999999999969e+01 1.046330000000000098e+02 1.651585000000000036e+03
9.600000000000000200e-02 7.728920000000000234e-01 1.446799999999999997e+01 1.045630000000000024e+02 1.651550000000000182e+03
9.700000000000000289e-02 7.729099999999999859e-01 1.413524999999999920e+01 1.045939999999999941e+02 1.651534999999999854e+03
9.800000000000000377e-02 7.729435000000000056e-01 1.384839999999999982e+01 1.047005000000000052e+02 1.651539999999999964e+03
9.900000000000000466e-02 7.729835000000000456e-01 1.359185000000000088e+01 1.048509999999999991e+02 1.651559999999999945e+03
1.000000000000000056e-01 7.730224999999999458e-01 1.334859999999999935e+01 1.050125000000000028e+02 1.651585000000000036e+03
1.010000000000000064e-01 7.730520000000000724e-01 1.310174999999999912e+01 1.051514999999999986e+02 1.651610000000000127e+03
1.020000000000000073e-01 7.730635000000000145e-01 1.283520000000000039e+01 1.052384999999999877e+02 1.651625000000000000e+03
1.030000000000000082e-01 7.730515000000000025e-01 1.253460000000000107e+01 1.052445000000000022e+02 1.651625000000000000e+03
1.040000000000000091e-01 7.730105000000000448e-01 1.218804499999999891e+01 1.051479999999999961e+02 1.651605000000000018e+03
1.050000000000000100e-01 7.729375000000000551e-01 1.178707499999999975e+01 1.049329999999999927e+02 1.651559999999999945e+03
1.059999999999999970e-01 7.728304999999999758e-01 1.132662499999999994e+01 1.045900000000000034e+02 1.651489999999999782e+03
1.069999999999999979e-01 7.726904999999999468e-01 1.080581499999999906e+01 1.041184999999999974e+02 1.651394999999999982e+03
1.079999999999999988e-01 7.725210000000000132e-01 1.022761000000000031e+01 1.035253999999999905e+02 1.651269999999999982e+03
1.089999999999999997e-01 7.723245000000000804e-01 9.598919999999999675e+00 1.028242999999999938e+02 1.651119999999999891e+03
1.100000000000000006e-01 7.721095000000000041e-01 8.930030000000000356e+00 1.020370499999999936e+02 1.650949999999999818e+03
1.110000000000000014e-01 7.718814999999999982e-01 8.234064999999999301e+00 1.011895499999999970e+02 1.650764999999999873e+03
1.120000000000000023e-01 7.716499999999999471e-01 7.526370000000000005e+00 1.003123999999999967e+02 1.650569999999999936e+03
1.130000000000000032e-01 7.714235000000000397e-01 6.823529999999999873e+00 9.943829999999999814e+01 1.650369999999999891e+03
1.140000000000000041e-01 7.712099999999999511e-01 6.142609999999999459e+00 9.860165000000000646e+01 1.650180000000000064e+03
1.150000000000000050e-01 7.710185000000000510e-01 5.500239999999999796e+00 9.783395000000000152e+01 1.649994999999999891e+03
1.160000000000000059e-01 7.708555000000000268e-01 4.911694999999999922e+00 9.716554999999999609e+01 1.649829999999999927e+03
1.170000000000000068e-01 7.707275000000000098e-01 4.390120000000000466e+00 9.662045000000000528e+01 1.649695000000000164e+03
1.180000000000000077e-01 7.706385000000000041e-01 3.945954999999999657e+00 9.621859999999999502e+01 1.649585000000000036e+03
1.190000000000000085e-01 7.705904999999999561e-01 3.586409999999999876e+00 9.597259999999999991e+01 1.649514999999999873e+03
1.200000000000000094e-01 7.705849999999999644e-01 3.315224999999999866e+00 9.588830000000000098e+01 1.649470000000000027e+03
1.209999999999999964e-01 7.706204999999999306e-01 3.132600000000000051e+00 9.596415000000000362e+01 1.649469999999999800e+03
1.219999999999999973e-01 7.706945000000000601e-01 3.035309999999999953e+00 9.619194999999999141e+01 1.649500000000000000e+03
1.229999999999999982e-01 7.708019999999999872e-01 3.017014999999999780e+00 9.655745000000000289e+01 1.649565000000000055e+03
1.239999999999999991e-01 7.709384999999999710e-01 3.068674999999999820e+00 9.704099999999999682e+01 1.649654999999999973e+03
1.250000000000000000e-01 7.710960000000000036e-01 3.179084999999999717e+00 9.761939999999999884e+01 1.649764999999999873e+03
1.260000000000000009e-01 7.712695000000000523e-01 3.335504999999999942e+00 9.826650000000000773e+01 1.649900000000000091e+03
1.270000000000000018e-01 7.714499999999999691e-01 3.524224999999999941e+00 9.895435000000000514e+01 1.650049999999999955e+03
1.280000000000000027e-01 7.716309999999999558e-01 3.731234999999999857e+00 9.965604999999999336e+01 1.650200000000000045e+03
1.290000000000000036e-01 7.718070000000000208e-01 3.942770000000000330e+00 1.003449499999999972e+02 1.650355000000000018e+03
1.300000000000000044e-01 7.719705000000000039e-01 4.145875000000000199e+00 1.009971000000000032e+02 1.650505000000000109e+03
1.310000000000000053e-01 7.721180000000000820e-01 4.328854999999999897e+00 1.015904500000000041e+02 1.650644999999999982e+03
1.320000000000000062e-01 7.722434999999999716e-01 4.481654999999999944e+00 1.021084999999999923e+02 1.650764999999999873e+03
1.330000000000000071e-01 7.723459999999999770e-01 4.596164999999999168e+00 1.025374999999999943e+02 1.650875000000000000e+03
1.340000000000000080e-01 7.724219999999999420e-01 4.666399999999999437e+00 1.028679999999999950e+02 1.650960000000000036e+03
1.350000000000000089e-01 7.724720000000000475e-01 4.688615000000000421e+00 1.030955000000000013e+02 1.651025000000000091e+03
1.360000000000000098e-01 7.724955000000000016e-01 4.661319999999999908e+00 1.032205000000000013e+02 1.651069999999999936e+03
1.370000000000000107e-01 7.724945000000000839e-01 4.585185000000000066e+00 1.032450000000000045e+02 1.651090000000000146e+03
1.380000000000000115e-01 7.724705000000000599e-01 4.462909999999999933e+00 1.031779999999999973e+02 1.651085000000000036e+03
1.390000000000000124e-01 7.724269999999999747e-01 4.298960000000000115e+00 1.030285000000000082e+02 1.651069999999999936e+03
1.400000000000000133e-01 7.723670000000000258e-01 4.099314999999999820e+00 1.028100000000000023e+02 1.651030000000000200e+03
1.410000000000000142e-01 7.722944999999999949e-01 3.871084999999999887e+00 1.025354999999999990e+02 1.650980000000000018e+03
1.420000000000000151e-01 7.722139999999999560e-01 3.622175000000000367e+00 1.022220000000000084e+02 1.650920000000000073e+03
1.430000000000000160e-01 7.721290000000000653e-01 3.360845000000000304e+00 1.018834999999999980e+02 1.650849999999999909e+03
1.440000000000000169e-01 7.720424999999999649e-01 3.095345000000000013e+00 1.015351500000000016e+02 1.650775000000000091e+03
1.450000000000000178e-01 7.719595000000000207e-01 2.833490000000000286e+00 1.011912499999999966e+02 1.650700000000000045e+03
1.459999999999999909e-01 7.718810000000000393e-01 2.582345000000000113e+00 1.008633499999999970e+02 1.650625000000000000e+03
1.469999999999999918e-01 7.718104999999999549e-01 2.347900000000000098e+00 1.005609000000000037e+02 1.650554999999999836e+03
1.479999999999999927e-01 7.717484999999999484e-01 2.134875000000000078e+00 1.002903500000000037e+02 1.650490000000000009e+03
1.489999999999999936e-01 7.716965000000000074e-01 1.946544999999999970e+00 1.000566000000000031e+02 1.650434999999999945e+03
1.499999999999999944e-01 7.716540000000000621e-01 1.784699999999999953e+00 9.986060000000000514e+01 1.650384999999999991e+03
1.509999999999999953e-01 7.716205000000000425e-01 1.649675000000000225e+00 9.970060000000000855e+01 1.650344999999999800e+03
1.519999999999999962e-01 7.715944999999999609e-01 1.540459999999999940e+00 9.957239999999998759e+01 1.650304999999999836e+03
1.529999999999999971e-01 7.715739999999999821e-01 1.454874999999999918e+00 9.947075000000000955e+01 1.650280000000000200e+03
1.539999999999999980e-01 7.715570000000000483e-01 1.389784999999999826e+00 9.938745000000000118e+01 1.650255000000000109e+03
1.549999999999999989e-01 7.715414999999999912e-01 1.341370500000000021e+00 9.931404999999999461e+01 1.650235000000000127e+03
1.559999999999999998e-01 7.715250000000000163e-01 1.305385000000000018e+00 9.924174999999999613e+01 1.650210000000000036e+03
1.570000000000000007e-01 7.715049999999999963e-01 1.277408499999999947e+00 9.916179999999999950e+01 1.650190000000000055e+03
1.580000000000000016e-01 7.714799999999999436e-01 1.253112999999999921e+00 9.906600000000000250e+01 1.650164999999999964e+03
1.590000000000000024e-01 7.714475000000000637e-01 1.228474000000000066e+00 9.894740000000000180e+01 1.650134999999999991e+03
