# t [s], A [cm^2], U [cm/s], P [cPa], c [cm/s]
1.000000000000000021e-03 2.043789999999999774e-01 3.749993000000000354e-01 8.725690000000000168e+01 2.075079999999999927e+03
2.000000000000000042e-03 2.043115000000000070e-01 1.919046500000000099e+00 8.382314999999999827e+01 2.074644999999999982e+03
3.000000000000000062e-03 2.041479999999999961e-01 3.794428000000000356e+00 7.910390000000001010e+01 2.073614999999999782e+03
4.000000000000000083e-03 2.039365000000000205e-01 5.905485999999999791e+00 7.424275000000000091e+01 2.072300000000000182e+03
5.000000000000000104e-03 2.037220000000000142e-01 8.154659999999999798e+00 7.019374999999999432e+01 2.070980000000000018e+03
6.000000000000000125e-03 2.035230000000000095e-01 1.028723499999999902e+01 6.702639999999999532e+01 2.069774999999999636e+03
7.000000000000000146e-03 2.033405000000000074e-01 1.206937499999999908e+01 6.427819999999999823e+01 2.068695000000000164e+03
8.000000000000000167e-03 2.031779999999999975e-01 1.349587500000000162e+01 6.181515000000000271e+01 2.067744999999999891e+03
9.000000000000001055e-03 2.030420000000000003e-01 1.464149999999999885e+01 5.980065000000000452e+01 2.066965000000000146e+03
1.000000000000000194e-02 2.029324999999999879e-01 1.553214999999999968e+01 5.825565000000000282e+01 2.066345000000000255e+03
1.099999999999999936e-02 2.028480000000000005e-01 1.619245000000000090e+01 5.711610000000000298e+01 2.065869999999999891e+03
1.200000000000000025e-02 2.027855000000000074e-01 1.664789999999999992e+01 5.631719999999999970e+01 2.065529999999999745e+03
1.300000000000000114e-02 2.027384999999999882e-01 1.690174999999999983e+01 5.572499999999999432e+01 2.065274999999999636e+03
1.400000000000000203e-02 2.027019999999999933e-01 1.699155000000000015e+01 5.523900000000000432e+01 2.065085000000000036e+03
1.499999999999999944e-02 2.026789999999999980e-01 1.705655000000000143e+01 5.503125000000000000e+01 2.064975000000000364e+03
1.600000000000000033e-02 2.026819999999999733e-01 1.730355000000000132e+01 5.556470000000000198e+01 2.065005000000000109e+03
1.700000000000000122e-02 2.027265000000000039e-01 1.788054999999999950e+01 5.728279999999999461e+01 2.065260000000000218e+03
1.800000000000000211e-02 2.028174999999999839e-01 1.876919999999999789e+01 6.022955000000000325e+01 2.065784999999999854e+03
1.900000000000000300e-02 2.029444999999999999e-01 1.977414999999999878e+01 6.390044999999999931e+01 2.066514999999999873e+03
2.000000000000000042e-02 2.030819999999999848e-01 2.060685000000000144e+01 6.740855000000000530e+01 2.067320000000000164e+03
2.100000000000000130e-02 2.031999999999999917e-01 2.100769999999999982e+01 6.984454999999999814e+01 2.068019999999999982e+03
2.200000000000000219e-02 2.032720000000000082e-01 2.084774999999999778e+01 7.063819999999999766e+01 2.068470000000000255e+03
2.299999999999999961e-02 2.032875000000000099e-01 2.016805000000000092e+01 6.975860000000000127e+01 2.068595000000000255e+03
2.400000000000000050e-02 2.032519999999999882e-01 1.914580000000000126e+01 6.767974999999999852e+01 2.068409999999999854e+03
2.500000000000000139e-02 2.031844999999999901e-01 1.801044999999999874e+01 6.514490000000000691e+01 2.068039999999999964e+03
2.600000000000000228e-02 2.031084999999999974e-01 1.695154999999999745e+01 6.285594999999999999e+01 2.067600000000000364e+03
2.700000000000000316e-02 2.030410000000000270e-01 1.605955000000000155e+01 6.122755000000000791e+01 2.067204999999999927e+03
2.800000000000000058e-02 2.029910000000000048e-01 1.531574999999999953e+01 6.029585000000000150e+01 2.066909999999999854e+03
2.900000000000000147e-02 2.029564999999999841e-01 1.462645000000000017e+01 5.978674999999999784e+01 2.066699999999999818e+03
3.000000000000000236e-02 2.029269999999999963e-01 1.387845000000000084e+01 5.928725000000000023e+01 2.066524999999999636e+03
3.099999999999999978e-02 2.028920000000000168e-01 1.299555000000000149e+01 5.844225000000000136e+01 2.066319999999999709e+03
3.200000000000000067e-02 2.028429999999999955e-01 1.197630000000000017e+01 5.710949999999999704e+01 2.066045000000000073e+03
3.300000000000000155e-02 2.027815000000000034e-01 1.090296500000000002e+01 5.542399999999999949e+01 2.065694999999999709e+03
3.400000000000000244e-02 2.027150000000000063e-01 9.918680000000000163e+00 5.375820000000000221e+01 2.065309999999999945e+03
3.500000000000000333e-02 2.026585000000000192e-01 9.182600000000000762e+00 5.259345000000000425e+01 2.064970000000000255e+03
3.600000000000000422e-02 2.026275000000000159e-01 8.817994999999999806e+00 5.235285000000000366e+01 2.064779999999999745e+03
3.700000000000000511e-02 2.026334999999999942e-01 8.872859999999999303e+00 5.325579999999999359e+01 2.064795000000000073e+03
3.799999999999999906e-02 2.026799999999999990e-01 9.303729999999999833e+00 5.524065000000000225e+01 2.065045000000000073e+03
3.899999999999999994e-02 2.027619999999999978e-01 9.985665000000000902e+00 5.797454999999999359e+01 2.065500000000000000e+03
4.000000000000000083e-02 2.028650000000000175e-01 1.074122999999999983e+01 6.093545000000000300e+01 2.066085000000000036e+03
4.100000000000000172e-02 2.029690000000000105e-01 1.137829999999999941e+01 6.353325000000000244e+01 2.066684999999999945e+03
4.200000000000000261e-02 2.030540000000000123e-01 1.172554999999999836e+01 6.523314999999999486e+01 2.067184999999999945e+03
4.300000000000000350e-02 2.031030000000000058e-01 1.165864999999999974e+01 6.565045000000000641e+01 2.067479999999999563e+03
4.400000000000000439e-02 2.031030000000000058e-01 1.111290999999999940e+01 6.460079999999999245e+01 2.067494999999999891e+03
4.499999999999999833e-02 2.030485000000000206e-01 1.008353999999999928e+01 6.210249999999999915e+01 2.067199999999999818e+03
4.599999999999999922e-02 2.029404999999999959e-01 8.615175000000000693e+00 5.834044999999999703e+01 2.066595000000000255e+03
4.700000000000000011e-02 2.027864999999999807e-01 6.786500000000000199e+00 5.360725000000000051e+01 2.065715000000000146e+03
4.800000000000000100e-02 2.025954999999999839e-01 4.693828605000000209e+00 4.824009999999999820e+01 2.064614999999999782e+03
4.900000000000000189e-02 2.023800000000000043e-01 2.438045000000000240e+00 4.256864999999999810e+01 2.063369999999999891e+03
5.000000000000000278e-02 2.021514999999999840e-01 1.161250000000002558e-01 3.688199999999999790e+01 2.062045000000000073e+03
5.100000000000000366e-02 2.019205000000000028e-01 -2.182215000000000238e+00 3.141700000000000159e+01 2.060699999999999818e+03
5.200000000000000455e-02 2.016965000000000008e-01 -4.374418499999999987e+00 2.636280000000000001e+01 2.059394999999999982e+03
5.300000000000000544e-02 2.014869999999999994e-01 -6.383419999999999206e+00 2.187369999999999948e+01 2.058175000000000182e+03
5.399999999999999939e-02 2.013000000000000067e-01 -8.136205000000000354e+00 1.808360000000000056e+01 2.057070000000000164e+03
5.500000000000000028e-02 2.011404999999999998e-01 -9.564019999999999300e+00 1.511479500000000087e+01 2.056135000000000218e+03
5.600000000000000117e-02 2.010144999999999849e-01 -1.060434500000000035e+01 1.307965000000000089e+01 2.055385000000000218e+03
5.700000000000000205e-02 2.009275000000000089e-01 -1.120500000000000007e+01 1.207461500000000143e+01 2.054855000000000018e+03
5.800000000000000294e-02 2.008834999999999926e-01 -1.132850000000000001e+01 1.216859999999999964e+01 2.054574999999999818e+03
5.900000000000000383e-02 2.008844999999999936e-01 -1.095641499999999979e+01 1.339085000000000036e+01 2.054550000000000182e+03
6.000000000000000472e-02 2.009319999999999995e-01 -1.009235500000000130e+01 1.572115000000000151e+01 2.054800000000000182e+03
6.099999999999999867e-02 2.010250000000000092e-01 -8.762589999999999435e+00 1.908539999999999992e+01 2.055305000000000291e+03
6.199999999999999956e-02 2.011600000000000055e-01 -7.014280000000000292e+00 2.335900000000000176e+01 2.056065000000000055e+03
6.300000000000000044e-02 2.013320000000000110e-01 -4.911747000000000085e+00 2.837614999999999910e+01 2.057039999999999964e+03
6.400000000000000133e-02 2.015349999999999919e-01 -2.531794999999999796e+00 3.394344999999999857e+01 2.058199999999999818e+03
6.500000000000000222e-02 2.017610000000000237e-01 4.190000000000004832e-02 3.985559999999999548e+01 2.059500000000000000e+03
6.600000000000000311e-02 2.020020000000000149e-01 2.723650000000000126e+00 4.590975000000000250e+01 2.060890000000000327e+03
6.700000000000000400e-02 2.022504999999999997e-01 5.430087999999999582e+00 5.191675000000000040e+01 2.062335000000000036e+03
6.800000000000000488e-02 2.024984999999999979e-01 8.083684999999999121e+00 5.771009999999999707e+01 2.063784999999999854e+03
6.900000000000000577e-02 2.027394999999999892e-01 1.061536500000000061e+01 6.315120000000000289e+01 2.065189999999999600e+03
7.000000000000000666e-02 2.029684999999999961e-01 1.296721499999999949e+01 6.813325000000000387e+01 2.066539999999999964e+03
7.100000000000000755e-02 2.031795000000000129e-01 1.509440000000000026e+01 7.258384999999999820e+01 2.067789999999999964e+03
7.200000000000000844e-02 2.033714999999999828e-01 1.696675000000000111e+01 7.646684999999999377e+01 2.068929999999999836e+03
7.300000000000000933e-02 2.035409999999999997e-01 1.857005000000000194e+01 7.978289999999999793e+01 2.069939999999999600e+03
7.399999999999999634e-02 2.036890000000000089e-01 1.990595000000000070e+01 8.256905000000000427e+01 2.070829999999999927e+03
7.499999999999999722e-02 2.038169999999999982e-01 2.099159999999999826e+01 8.489485000000000525e+01 2.071599999999999909e+03
7.599999999999999811e-02 2.039269999999999972e-01 2.185719999999999885e+01 8.685715000000000430e+01 2.072265000000000327e+03
7.699999999999999900e-02 2.040230000000000099e-01 2.254329999999999856e+01 8.857155000000000200e+01 2.072850000000000364e+03
7.799999999999999989e-02 2.041100000000000136e-01 2.309700000000000131e+01 9.016270000000000095e+01 2.073375000000000000e+03
7.900000000000000078e-02 2.041914999999999980e-01 2.356775000000000020e+01 9.175405000000000655e+01 2.073875000000000000e+03
8.000000000000000167e-02 2.042734999999999967e-01 2.400365000000000038e+01 9.345744999999999436e+01 2.074369999999999891e+03
8.100000000000000255e-02 2.043594999999999995e-01 2.444740000000000180e+01 9.536459999999999582e+01 2.074885000000000218e+03
8.200000000000000344e-02 2.044535000000000102e-01 2.493350000000000222e+01 9.754079999999999018e+01 2.075444999999999709e+03
8.300000000000000433e-02 2.045565000000000022e-01 2.548600000000000065e+01 1.000206499999999892e+02 2.076059999999999945e+03
8.400000000000000522e-02 2.046720000000000206e-01 2.611735000000000184e+01 1.028070000000000022e+02 2.076739999999999782e+03
8.500000000000000611e-02 2.047980000000000078e-01 2.682825000000000060e+01 1.058735000000000070e+02 2.077489999999999782e+03
8.600000000000000699e-02 2.049344999999999917e-01 2.760835000000000150e+01 1.091659999999999968e+02 2.078289999999999964e+03
8.700000000000000788e-02 2.050794999999999979e-01 2.843744999999999834e+01 1.126080000000000041e+02 2.079144999999999982e+03
8.800000000000000877e-02 2.052289999999999948e-01 2.928774999999999906e+01 1.161094999999999970e+02 2.080029999999999745e+03
8.899999999999999578e-02 2.053804999999999936e-01 3.012590000000000146e+01 1.195709999999999980e+02 2.080930000000000291e+03
8.999999999999999667e-02 2.055299999999999905e-01 3.091564999999999941e+01 1.228915000000000077e+02 2.081809999999999945e+03
9.099999999999999756e-02 2.056729999999999947e-01 3.162040000000000362e+01 1.259740000000000038e+02 2.082664999999999964e+03
9.199999999999999845e-02 2.058054999999999746e-01 3.220550000000000068e+01 1.287319999999999993e+02 2.083454999999999927e+03
9.299999999999999933e-02 2.059245000000000103e-01 3.264029999999999632e+01 1.310939999999999941e+02 2.084170000000000073e+03
9.400000000000000022e-02 2.060279999999999889e-01 3.290009999999999479e+01 1.330060000000000002e+02 2.084789999999999964e+03
9.500000000000000111e-02 2.061124999999999763e-01 3.296715000000000373e+01 1.344329999999999927e+02 2.085300000000000182e+03
9.600000000000000200e-02 2.061775000000000135e-01 3.283180000000000121e+01 1.353619999999999948e+02 2.085695000000000164e+03
9.700000000000000289e-02 2.062220000000000164e-01 3.249255000000000138e+01 1.358009999999999877e+02 2.085975000000000364e+03
9.800000000000000377e-02 2.062459999999999849e-01 3.195604999999999762e+01 1.357750000000000057e+02 2.086130000000000109e+03
9.900000000000000466e-02 2.062510000000000177e-01 3.123634999999999806e+01 1.353269999999999982e+02 2.086175000000000182e+03
1.000000000000000056e-01 2.062384999999999913e-01 3.035414999999999708e+01 1.345134999999999934e+02 2.086114999999999782e+03
1.010000000000000064e-01 2.062109999999999776e-01 2.933520000000000039e+01 1.333990000000000009e+02 2.085960000000000036e+03
1.020000000000000073e-01 2.061705000000000065e-01 2.820925000000000082e+01 1.320559999999999832e+02 2.085735000000000127e+03
1.030000000000000082e-01 2.061199999999999977e-01 2.700840000000000174e+01 1.305600000000000023e+02 2.085439999999999600e+03
1.040000000000000091e-01 2.060629999999999962e-01 2.576565000000000083e+01 1.289834999999999923e+02 2.085110000000000127e+03
1.050000000000000100e-01 2.060020000000000184e-01 2.451335000000000264e+01 1.273959999999999866e+02 2.084750000000000000e+03
1.059999999999999970e-01 2.059394999999999976e-01 2.328215000000000146e+01 1.258619999999999948e+02 2.084385000000000218e+03
1.069999999999999979e-01 2.058790000000000064e-01 2.209945000000000093e+01 1.244364999999999952e+02 2.084025000000000091e+03
1.079999999999999988e-01 2.058214999999999906e-01 2.098864999999999981e+01 1.231640000000000015e+02 2.083679999999999836e+03
1.089999999999999997e-01 2.057700000000000085e-01 1.996819999999999951e+01 1.220775000000000006e+02 2.083375000000000000e+03
1.100000000000000006e-01 2.057249999999999912e-01 1.905079999999999885e+01 1.211955000000000098e+02 2.083105000000000018e+03
1.110000000000000014e-01 2.056879999999999820e-01 1.824344999999999928e+01 1.205250000000000057e+02 2.082875000000000000e+03
1.120000000000000023e-01 2.056590000000000085e-01 1.754680000000000106e+01 1.200589999999999975e+02 2.082695000000000164e+03
1.130000000000000032e-01 2.056375000000000008e-01 1.695594999999999786e+01 1.197775000000000034e+02 2.082564999999999600e+03
1.140000000000000041e-01 2.056230000000000002e-01 1.646045000000000158e+01 1.196490000000000009e+02 2.082469999999999800e+03
1.150000000000000050e-01 2.056149999999999922e-01 1.604524999999999935e+01 1.196340000000000003e+02 2.082414999999999964e+03
1.160000000000000059e-01 2.056109999999999882e-01 1.569179999999999886e+01 1.196844999999999999e+02 2.082380000000000109e+03
1.170000000000000068e-01 2.056089999999999862e-01 1.537900000000000134e+01 1.197505000000000024e+02 2.082364999999999782e+03
1.180000000000000077e-01 2.056074999999999986e-01 1.508450000000000202e+01 1.197779999999999916e+02 2.082355000000000018e+03
1.190000000000000085e-01 2.056045000000000234e-01 1.478624999999999901e+01 1.197185000000000059e+02 2.082329999999999927e+03
1.200000000000000094e-01 2.055985000000000174e-01 1.446340000000000003e+01 1.195260000000000105e+02 2.082289999999999964e+03
1.209999999999999964e-01 2.055865000000000054e-01 1.409785000000000110e+01 1.191629999999999967e+02 2.082220000000000255e+03
1.219999999999999973e-01 2.055680000000000007e-01 1.367500000000000071e+01 1.186020000000000039e+02 2.082109999999999673e+03
1.229999999999999982e-01 2.055410000000000015e-01 1.318459999999999965e+01 1.178275000000000006e+02 2.081954999999999927e+03
1.239999999999999991e-01 2.055065000000000086e-01 1.262164999999999893e+01 1.168350000000000080e+02 2.081750000000000000e+03
1.250000000000000000e-01 2.054624999999999924e-01 1.198610000000000042e+01 1.156345000000000027e+02 2.081489999999999782e+03
1.260000000000000009e-01 2.054104999999999959e-01 1.128326000000000029e+01 1.142464999999999975e+02 2.081189999999999600e+03
1.270000000000000018e-01 2.053514999999999924e-01 1.052323499999999967e+01 1.127034999999999911e+02 2.080840000000000146e+03
1.280000000000000027e-01 2.052855000000000096e-01 9.720340000000000202e+00 1.110465000000000089e+02 2.080454999999999927e+03
1.290000000000000036e-01 2.052154999999999951e-01 8.892109999999998848e+00 1.093230000000000075e+02 2.080045000000000073e+03
1.300000000000000044e-01 2.051429999999999920e-01 8.058575000000001154e+00 1.075850000000000080e+02 2.079614999999999782e+03
1.310000000000000053e-01 2.050695000000000157e-01 7.240840000000000387e+00 1.058840000000000003e+02 2.079179999999999836e+03
1.320000000000000062e-01 2.049980000000000135e-01 6.460050000000000736e+00 1.042725000000000080e+02 2.078760000000000218e+03
1.330000000000000071e-01 2.049294999999999867e-01 5.736304999999999765e+00 1.027954499999999882e+02 2.078355000000000018e+03
1.340000000000000080e-01 2.048670000000000213e-01 5.087654999999999816e+00 1.014944999999999879e+02 2.077980000000000018e+03
1.350000000000000089e-01 2.048115000000000074e-01 4.529200000000000337e+00 1.004010499999999979e+02 2.077649999999999636e+03
1.360000000000000098e-01 2.047640000000000016e-01 4.072470000000000034e+00 9.953754999999999598e+01 2.077364999999999782e+03
1.370000000000000107e-01 2.047259999999999913e-01 3.724975000000000147e+00 9.891675000000000750e+01 2.077130000000000109e+03
1.380000000000000115e-01 2.046979999999999911e-01 3.489964999999999762e+00 9.854140000000001010e+01 2.076954999999999927e+03
1.390000000000000124e-01 2.046800000000000008e-01 3.366435000000000066e+00 9.840349999999999397e+01 2.076845000000000255e+03
1.400000000000000133e-01 2.046715000000000062e-01 3.349320000000000075e+00 9.848669999999999902e+01 2.076784999999999854e+03
1.410000000000000142e-01 2.046720000000000206e-01 3.429879999999999818e+00 9.876679999999998927e+01 2.076779999999999745e+03
1.420000000000000151e-01 2.046804999999999874e-01 3.596225000000000005e+00 9.921320000000000050e+01 2.076829999999999927e+03
1.430000000000000160e-01 2.046965000000000034e-01 3.833940000000000126e+00 9.979050000000000864e+01 2.076914999999999964e+03
1.440000000000000169e-01 2.047174999999999967e-01 4.126809999999999867e+00 1.004609999999999985e+02 2.077029999999999745e+03
1.450000000000000178e-01 2.047424999999999939e-01 4.457539999999999836e+00 1.011850000000000023e+02 2.077175000000000182e+03
1.459999999999999909e-01 2.047700000000000076e-01 4.808524999999999494e+00 1.019244999999999948e+02 2.077335000000000036e+03
1.469999999999999918e-01 2.047984999999999944e-01 5.162525000000000475e+00 1.026419999999999959e+02 2.077500000000000000e+03
1.479999999999999927e-01 2.048264999999999947e-01 5.503344999999999487e+00 1.033044999999999902e+02 2.077664999999999964e+03
1.489999999999999936e-01 2.048530000000000073e-01 5.816380000000000550e+00 1.038834999999999980e+02 2.077815000000000055e+03
1.499999999999999944e-01 2.048754999999999882e-01 6.089154999999999873e+00 1.043550000000000040e+02 2.077949999999999818e+03
1.509999999999999953e-01 2.048940000000000206e-01 6.311640000000000583e+00 1.047019999999999982e+02 2.078065000000000055e+03
1.519999999999999962e-01 2.049080000000000068e-01 6.476585000000000036e+00 1.049134999999999991e+02 2.078149999999999636e+03
1.529999999999999971e-01 2.049169999999999880e-01 6.579600000000000115e+00 1.049844999999999970e+02 2.078204999999999927e+03
1.539999999999999980e-01 2.049199999999999910e-01 6.619244999999999379e+00 1.049175000000000040e+02 2.078225000000000364e+03
1.549999999999999989e-01 2.049175000000000024e-01 6.596865000000000201e+00 1.047189999999999941e+02 2.078215000000000146e+03
1.559999999999999998e-01 2.049100000000000088e-01 6.516399999999999970e+00 1.044025000000000034e+02 2.078175000000000182e+03
1.570000000000000007e-01 2.048975000000000102e-01 6.384035000000000792e+00 1.039855000000000018e+02 2.078105000000000018e+03
1.580000000000000016e-01 2.048809999999999798e-01 6.207760000000000389e+00 1.034874999999999972e+02 2.078015000000000327e+03
1.590000000000000024e-01 2.048619999999999886e-01 5.996875000000000178e+00 1.029320000000000022e+02 2.077899999999999636e+03
