# t [s], A [cm^2], U [cm/s], P [cPa], c [cm/s]
1.000000000000000021e-03 1.765220000000000122e-01 2.287540000000000129e-01 1.022400000000000091e+02 2.053349999999999909e+03
2.000000000000000042e-03 1.764894999999999936e-01 1.646244000000000041e+00 9.923345000000000482e+01 2.053079999999999927e+03
3.000000000000000062e-03 1.763810000000000100e-01 3.431548000000000265e+00 9.510954999999999870e+01 2.052210000000000036e+03
4.000000000000000083e-03 1.762215000000000031e-01 5.442249724999999927e+00 9.041720000000000823e+01 2.050965000000000146e+03
5.000000000000000104e-03 1.760400000000000020e-01 7.619544999999999568e+00 8.595015000000000782e+01 2.049565000000000055e+03
6.000000000000000125e-03 1.758585000000000009e-01 9.841979999999999507e+00 8.212149999999999750e+01 2.048164999999999964e+03
7.000000000000000146e-03 1.756840000000000068e-01 1.192999000000000009e+01 7.887340000000000373e+01 2.046850000000000136e+03
8.000000000000000167e-03 1.755209999999999826e-01 1.376000499999999960e+01 7.598009999999999309e+01 2.045630000000000109e+03
9.000000000000001055e-03 1.753715000000000135e-01 1.532264999999999944e+01 7.338819999999999766e+01 2.044535000000000082e+03
1.000000000000000194e-02 1.752404999999999935e-01 1.664979999999999905e+01 7.116894999999999527e+01 2.043590000000000146e+03
1.099999999999999936e-02 1.751290000000000069e-01 1.776060000000000016e+01 6.934995000000000687e+01 2.042789999999999964e+03
1.200000000000000025e-02 1.750369999999999981e-01 1.866469999999999985e+01 6.789565000000000339e+01 2.042134999999999991e+03
1.300000000000000114e-02 1.749614999999999920e-01 1.936580000000000013e+01 6.673220000000000596e+01 2.041605000000000018e+03
1.400000000000000203e-02 1.748989999999999989e-01 1.986469999999999914e+01 6.575669999999999504e+01 2.041174999999999955e+03
1.499999999999999944e-02 1.748465000000000158e-01 2.018305000000000149e+01 6.489334999999999809e+01 2.040824999999999818e+03
1.600000000000000033e-02 1.748040000000000149e-01 2.038860000000000028e+01 6.418395000000001005e+01 2.040539999999999964e+03
1.700000000000000122e-02 1.747744999999999993e-01 2.058955000000000268e+01 6.381714999999999804e+01 2.040349999999999909e+03
1.800000000000000211e-02 1.747644999999999893e-01 2.089329999999999998e+01 6.404464999999999009e+01 2.040289999999999964e+03
1.900000000000000300e-02 1.747789999999999899e-01 2.135900000000000176e+01 6.503674999999999784e+01 2.040400000000000091e+03
2.000000000000000042e-02 1.748200000000000032e-01 2.197225000000000250e+01 6.677179999999999893e+01 2.040699999999999818e+03
2.100000000000000130e-02 1.748819999999999819e-01 2.265330000000000155e+01 6.901734999999999332e+01 2.041150000000000091e+03
2.200000000000000219e-02 1.749565000000000148e-01 2.328979999999999961e+01 7.140319999999999823e+01 2.041695000000000164e+03
2.299999999999999961e-02 1.750329999999999941e-01 2.377645000000000053e+01 7.354030000000000200e+01 2.042259999999999764e+03
2.400000000000000050e-02 1.750999999999999779e-01 2.404634999999999678e+01 7.513435000000001196e+01 2.042760000000000218e+03
2.500000000000000139e-02 1.751514999999999878e-01 2.408464999999999989e+01 7.605424999999999613e+01 2.043160000000000082e+03
2.600000000000000228e-02 1.751849999999999796e-01 2.392334999999999923e+01 7.633994999999998754e+01 2.043414999999999964e+03
2.700000000000000316e-02 1.752015000000000100e-01 2.362185000000000201e+01 7.615635000000000332e+01 2.043559999999999945e+03
2.800000000000000058e-02 1.752060000000000006e-01 2.324255000000000138e+01 7.571600000000000819e+01 2.043599999999999909e+03
2.900000000000000147e-02 1.752024999999999832e-01 2.283039999999999736e+01 7.520244999999999891e+01 2.043590000000000146e+03
3.000000000000000236e-02 1.751955000000000040e-01 2.240220000000000056e+01 7.471805000000000518e+01 2.043539999999999964e+03
3.099999999999999978e-02 1.751860000000000084e-01 2.194819999999999993e+01 7.426985000000000525e+01 2.043475000000000136e+03
3.200000000000000067e-02 1.751739999999999964e-01 2.144270000000000209e+01 7.379110000000000014e+01 2.043385000000000218e+03
3.300000000000000155e-02 1.751575000000000215e-01 2.085970000000000013e+01 7.318590000000000373e+01 2.043274999999999864e+03
3.400000000000000244e-02 1.751340000000000119e-01 2.018740000000000023e+01 7.237989999999999213e+01 2.043110000000000127e+03
3.500000000000000333e-02 1.751039999999999819e-01 1.943805000000000049e+01 7.136064999999999259e+01 2.042900000000000091e+03
3.600000000000000422e-02 1.750674999999999870e-01 1.865024999999999977e+01 7.019620000000000459e+01 2.042640000000000100e+03
3.700000000000000511e-02 1.750285000000000035e-01 1.788190000000000168e+01 6.902665000000000362e+01 2.042359999999999900e+03
3.799999999999999906e-02 1.749910000000000077e-01 1.719875000000000043e+01 6.803300000000000125e+01 2.042090000000000146e+03
3.899999999999999994e-02 1.749614999999999920e-01 1.665899999999999892e+01 6.739240000000000919e+01 2.041869999999999891e+03
4.000000000000000083e-02 1.749435000000000018e-01 1.630049999999999955e+01 6.723364999999999725e+01 2.041730000000000018e+03
4.100000000000000172e-02 1.749414999999999998e-01 1.613295000000000101e+01 6.760580000000000211e+01 2.041704999999999927e+03
4.200000000000000261e-02 1.749560000000000004e-01 1.613644999999999996e+01 6.846639999999999304e+01 2.041794999999999845e+03
4.300000000000000350e-02 1.749844999999999873e-01 1.626670000000000016e+01 6.969079999999999586e+01 2.041994999999999891e+03
4.400000000000000439e-02 1.750240000000000129e-01 1.646370000000000289e+01 7.109825000000000728e+01 2.042269999999999982e+03
4.499999999999999833e-02 1.750674999999999870e-01 1.666290000000000049e+01 7.248590000000000089e+01 2.042579999999999927e+03
4.599999999999999922e-02 1.751099999999999879e-01 1.680465000000000231e+01 7.366294999999999504e+01 2.042884999999999991e+03
4.700000000000000011e-02 1.751455000000000095e-01 1.684149999999999991e+01 7.447745000000000459e+01 2.043144999999999982e+03
4.800000000000000100e-02 1.751699999999999924e-01 1.674220000000000041e+01 7.483189999999999031e+01 2.043329999999999927e+03
4.900000000000000189e-02 1.751800000000000024e-01 1.649174999999999969e+01 7.468699999999999761e+01 2.043404999999999745e+03
5.000000000000000278e-02 1.751745000000000108e-01 1.608915000000000006e+01 7.405474999999999852e+01 2.043375000000000000e+03
5.100000000000000366e-02 1.751535000000000175e-01 1.554390000000000072e+01 7.298470000000000368e+01 2.043224999999999909e+03
5.200000000000000455e-02 1.751174999999999815e-01 1.487190000000000012e+01 7.154850000000000421e+01 2.042974999999999909e+03
5.300000000000000544e-02 1.750689999999999746e-01 1.409184999999999910e+01 6.982519999999999527e+01 2.042625000000000000e+03
5.399999999999999939e-02 1.750099999999999989e-01 1.322349999999999959e+01 6.789124999999999943e+01 2.042204999999999927e+03
5.500000000000000028e-02 1.749425000000000008e-01 1.228659500000000016e+01 6.581530000000000769e+01 2.041719999999999800e+03
5.600000000000000117e-02 1.748695000000000110e-01 1.130127500000000040e+01 6.365804999999999580e+01 2.041190000000000055e+03
5.700000000000000205e-02 1.747920000000000029e-01 1.028904499999999977e+01 6.147520000000000095e+01 2.040630000000000109e+03
5.800000000000000294e-02 1.747130000000000072e-01 9.273930000000000007e+00 5.932219999999999516e+01 2.040054999999999836e+03
5.900000000000000383e-02 1.746340000000000114e-01 8.282935000000000159e+00 5.725825000000000387e+01 2.039480000000000018e+03
6.000000000000000472e-02 1.745579999999999909e-01 7.346479999999999677e+00 5.534924999999999784e+01 2.038930000000000064e+03
6.099999999999999867e-02 1.744875000000000176e-01 6.497510000000000119e+00 5.366785000000000139e+01 2.038414999999999964e+03
6.199999999999999956e-02 1.744244999999999823e-01 5.770345000000000724e+00 5.229160000000000252e+01 2.037950000000000045e+03
6.300000000000000044e-02 1.743730000000000002e-01 5.198764999999999858e+00 5.129829999999999757e+01 2.037565000000000055e+03
6.400000000000000133e-02 1.743349999999999900e-01 4.813940000000000552e+00 5.076089999999999947e+01 2.037279999999999973e+03
6.500000000000000222e-02 1.743129999999999957e-01 4.642375000000000362e+00 5.074164999999999992e+01 2.037110000000000127e+03
6.600000000000000311e-02 1.743100000000000205e-01 4.704175000000000217e+00 5.128699999999999903e+01 2.037069999999999936e+03
6.700000000000000400e-02 1.743264999999999953e-01 5.011754999999999960e+00 5.242390000000000327e+01 2.037184999999999945e+03
6.800000000000000488e-02 1.743649999999999922e-01 5.569174999999999542e+00 5.415755000000000052e+01 2.037440000000000055e+03
6.900000000000000577e-02 1.744239999999999957e-01 6.372054999999999580e+00 5.647124999999999773e+01 2.037855000000000018e+03
7.000000000000000666e-02 1.745045000000000068e-01 7.408075000000000188e+00 5.932809999999999917e+01 2.038420000000000073e+03
7.100000000000000755e-02 1.746050000000000102e-01 8.657994999999999663e+00 6.267369999999999663e+01 2.039134999999999991e+03
7.200000000000000844e-02 1.747230000000000172e-01 1.009685499999999969e+01 6.644055000000000177e+01 2.039980000000000018e+03
7.300000000000000933e-02 1.748569999999999847e-01 1.169574000000000069e+01 7.055254999999999654e+01 2.040945000000000164e+03
7.399999999999999634e-02 1.750050000000000217e-01 1.342332500000000195e+01 7.492994999999999095e+01 2.042014999999999873e+03
7.499999999999999722e-02 1.751630000000000131e-01 1.524770000000000181e+01 7.949399999999999977e+01 2.043154999999999973e+03
7.599999999999999811e-02 1.753294999999999992e-01 1.713770000000000238e+01 8.417154999999999632e+01 2.044369999999999891e+03
7.699999999999999900e-02 1.755015000000000047e-01 1.906449999999999889e+01 8.889815000000000111e+01 2.045625000000000000e+03
7.799999999999999989e-02 1.756769999999999998e-01 2.100240000000000151e+01 9.362069999999999936e+01 2.046904999999999745e+03
7.900000000000000078e-02 1.758534999999999959e-01 2.292989999999999995e+01 9.829894999999999072e+01 2.048199999999999818e+03
8.000000000000000167e-02 1.760300000000000198e-01 2.482945000000000135e+01 1.029049500000000137e+02 2.049500000000000000e+03
8.100000000000000255e-02 1.762060000000000015e-01 2.668755000000000166e+01 1.074226500000000044e+02 2.050789999999999964e+03
8.200000000000000344e-02 1.763790000000000080e-01 2.849454999999999671e+01 1.118455000000000013e+02 2.052069999999999709e+03
8.300000000000000433e-02 1.765499999999999847e-01 3.024390000000000001e+01 1.161744999999999948e+02 2.053340000000000146e+03
8.400000000000000522e-02 1.767190000000000150e-01 3.193115000000000236e+01 1.204145000000000039e+02 2.054590000000000146e+03
8.500000000000000611e-02 1.768850000000000144e-01 3.355364999999999753e+01 1.245730000000000075e+02 2.055819999999999709e+03
8.600000000000000699e-02 1.770484999999999975e-01 3.510940000000000083e+01 1.286550000000000011e+02 2.057034999999999854e+03
8.700000000000000788e-02 1.772090000000000054e-01 3.659680000000000177e+01 1.326655000000000086e+02 2.058234999999999673e+03
8.800000000000000877e-02 1.773675000000000113e-01 3.801415000000000077e+01 1.366039999999999850e+02 2.059414999999999964e+03
8.899999999999999578e-02 1.775235000000000007e-01 3.935940000000000083e+01 1.404669999999999845e+02 2.060579999999999927e+03
8.999999999999999667e-02 1.776765000000000150e-01 4.062990000000000634e+01 1.442470000000000141e+02 2.061724999999999909e+03
9.099999999999999756e-02 1.778264999999999985e-01 4.182260000000000133e+01 1.479320000000000164e+02 2.062849999999999909e+03
9.199999999999999845e-02 1.779735000000000067e-01 4.293394999999999584e+01 1.515095000000000027e+02 2.063944999999999709e+03
9.299999999999999933e-02 1.781154999999999822e-01 4.396009999999999707e+01 1.549639999999999986e+02 2.065015000000000327e+03
9.400000000000000022e-02 1.782535000000000092e-01 4.489699999999999847e+01 1.582775000000000034e+02 2.066050000000000182e+03
9.500000000000000111e-02 1.783859999999999890e-01 4.574025000000000318e+01 1.614339999999999975e+02 2.067050000000000182e+03
9.600000000000000200e-02 1.785125000000000184e-01 4.648570000000000135e+01 1.644149999999999920e+02 2.068005000000000109e+03
9.700000000000000289e-02 1.786329999999999862e-01 4.712895000000000323e+01 1.672044999999999959e+02 2.068909999999999854e+03
9.800000000000000377e-02 1.787460000000000160e-01 4.766599999999999682e+01 1.697860000000000014e+02 2.069765000000000327e+03
9.900000000000000466e-02 1.788509999999999822e-01 4.809309999999999974e+01 1.721444999999999936e+02 2.070564999999999600e+03
1.000000000000000056e-01 1.789479999999999960e-01 4.840724999999999767e+01 1.742665000000000077e+02 2.071295000000000073e+03
1.010000000000000064e-01 1.790360000000000007e-01 4.860600000000000165e+01 1.761415000000000077e+02 2.071965000000000146e+03
1.020000000000000073e-01 1.791145000000000098e-01 4.868815000000000026e+01 1.777609999999999957e+02 2.072565000000000055e+03
1.030000000000000082e-01 1.791834999999999956e-01 4.865364999999999895e+01 1.791204999999999927e+02 2.073095000000000255e+03
1.040000000000000091e-01 1.792429999999999857e-01 4.850410000000000110e+01 1.802189999999999941e+02 2.073545000000000073e+03
1.050000000000000100e-01 1.792924999999999935e-01 4.824275000000000091e+01 1.810600000000000023e+02 2.073930000000000291e+03
1.059999999999999970e-01 1.793319999999999914e-01 4.787460000000000093e+01 1.816529999999999916e+02 2.074235000000000127e+03
1.069999999999999979e-01 1.793620000000000214e-01 4.740644999999999953e+01 1.820099999999999909e+02 2.074475000000000364e+03
1.079999999999999988e-01 1.793830000000000147e-01 4.684664999999999679e+01 1.821485000000000127e+02 2.074640000000000327e+03
1.089999999999999997e-01 1.793965000000000143e-01 4.620510000000000161e+01 1.820905000000000200e+02 2.074750000000000000e+03
1.100000000000000006e-01 1.794010000000000049e-01 4.549269999999999925e+01 1.818590000000000089e+02 2.074795000000000073e+03
1.110000000000000014e-01 1.793994999999999895e-01 4.472105000000000530e+01 1.814789999999999850e+02 2.074784999999999854e+03
1.120000000000000023e-01 1.793914999999999815e-01 4.390214999999999890e+01 1.809774999999999920e+02 2.074734999999999673e+03
1.130000000000000032e-01 1.793784999999999963e-01 4.304775000000000063e+01 1.803799999999999955e+02 2.074644999999999982e+03
1.140000000000000041e-01 1.793609999999999927e-01 4.216929999999999978e+01 1.797104999999999961e+02 2.074519999999999982e+03
1.150000000000000050e-01 1.793410000000000004e-01 4.127720000000000056e+01 1.789909999999999854e+02 2.074369999999999891e+03
1.160000000000000059e-01 1.793180000000000052e-01 4.038094999999999857e+01 1.782400000000000091e+02 2.074199999999999818e+03
1.170000000000000068e-01 1.792930000000000079e-01 3.948845000000000027e+01 1.774730000000000132e+02 2.074015000000000327e+03
1.180000000000000077e-01 1.792670000000000097e-01 3.860625000000000284e+01 1.767019999999999982e+02 2.073819999999999709e+03
1.190000000000000085e-01 1.792394999999999960e-01 3.773930000000000007e+01 1.759339999999999975e+02 2.073619999999999891e+03
1.200000000000000094e-01 1.792124999999999968e-01 3.689090000000000202e+01 1.751744999999999948e+02 2.073414999999999964e+03
1.209999999999999964e-01 1.791849999999999832e-01 3.606275000000000119e+01 1.744225000000000136e+02 2.073210000000000036e+03
1.219999999999999973e-01 1.791570000000000107e-01 3.525515000000000043e+01 1.736764999999999759e+02 2.073000000000000000e+03
1.229999999999999982e-01 1.791289999999999827e-01 3.446705000000000041e+01 1.729309999999999832e+02 2.072784999999999854e+03
1.239999999999999991e-01 1.791010000000000102e-01 3.369635000000000247e+01 1.721790000000000020e+02 2.072569999999999709e+03
1.250000000000000000e-01 1.790714999999999946e-01 3.293984999999999985e+01 1.714114999999999895e+02 2.072349999999999909e+03
1.260000000000000009e-01 1.790424999999999933e-01 3.219384999999999764e+01 1.706175000000000068e+02 2.072125000000000000e+03
1.270000000000000018e-01 1.790114999999999901e-01 3.145400000000000063e+01 1.697870000000000061e+02 2.071890000000000327e+03
1.280000000000000027e-01 1.789784999999999848e-01 3.071590000000000131e+01 1.689105000000000132e+02 2.071649999999999636e+03
1.290000000000000036e-01 1.789445000000000063e-01 2.997514999999999930e+01 1.679770000000000039e+02 2.071390000000000327e+03
1.300000000000000044e-01 1.789084999999999981e-01 2.922764999999999702e+01 1.669789999999999850e+02 2.071119999999999891e+03
1.310000000000000053e-01 1.788695000000000146e-01 2.846999999999999886e+01 1.659085000000000036e+02 2.070829999999999927e+03
1.320000000000000062e-01 1.788279999999999870e-01 2.769924999999999926e+01 1.647624999999999886e+02 2.070519999999999982e+03
1.330000000000000071e-01 1.787839999999999985e-01 2.691355000000000075e+01 1.635364999999999895e+02 2.070184999999999945e+03
1.340000000000000080e-01 1.787369999999999792e-01 2.611204999999999998e+01 1.622325000000000159e+02 2.069835000000000036e+03
1.350000000000000089e-01 1.786874999999999991e-01 2.529495000000000005e+01 1.608530000000000086e+02 2.069460000000000036e+03
1.360000000000000098e-01 1.786344999999999739e-01 2.446395000000000053e+01 1.594049999999999727e+02 2.069074999999999818e+03
1.370000000000000107e-01 1.785795000000000021e-01 2.362154999999999916e+01 1.578965000000000032e+02 2.068659999999999854e+03
1.380000000000000115e-01 1.785214999999999996e-01 2.277159999999999940e+01 1.563389999999999986e+02 2.068229999999999563e+03
1.390000000000000124e-01 1.784620000000000095e-01 2.191895000000000238e+01 1.547470000000000141e+02 2.067784999999999854e+03
1.400000000000000133e-01 1.784014999999999906e-01 2.106909999999999883e+01 1.531354999999999791e+02 2.067335000000000036e+03
1.410000000000000142e-01 1.783399999999999985e-01 2.022840000000000060e+01 1.515219999999999914e+02 2.066875000000000000e+03
1.420000000000000151e-01 1.782785000000000064e-01 1.940339999999999776e+01 1.499230000000000018e+02 2.066414999999999964e+03
1.430000000000000160e-01 1.782175000000000009e-01 1.860079999999999956e+01 1.483555000000000064e+02 2.065954999999999927e+03
1.440000000000000169e-01 1.781570000000000098e-01 1.782710000000000150e+01 1.468369999999999891e+02 2.065505000000000109e+03
1.450000000000000178e-01 1.780980000000000063e-01 1.708840000000000003e+01 1.453820000000000050e+02 2.065065000000000055e+03
1.459999999999999909e-01 1.780415000000000192e-01 1.639010000000000034e+01 1.440035000000000025e+02 2.064639999999999873e+03
1.469999999999999918e-01 1.779875000000000207e-01 1.573679999999999879e+01 1.427119999999999891e+02 2.064239999999999782e+03
1.479999999999999927e-01 1.779364999999999974e-01 1.513204999999999956e+01 1.415155000000000030e+02 2.063855000000000018e+03
1.489999999999999936e-01 1.778889999999999916e-01 1.457835000000000036e+01 1.404200000000000159e+02 2.063494999999999891e+03
1.499999999999999944e-01 1.778450000000000031e-01 1.407710000000000150e+01 1.394259999999999877e+02 2.063164999999999964e+03
1.509999999999999953e-01 1.778045000000000042e-01 1.362850000000000072e+01 1.385349999999999966e+02 2.062855000000000018e+03
1.519999999999999962e-01 1.777679999999999816e-01 1.323164999999999836e+01 1.377425000000000068e+02 2.062585000000000036e+03
1.529999999999999971e-01 1.777345000000000175e-01 1.288490000000000002e+01 1.370450000000000159e+02 2.062329999999999927e+03
1.539999999999999980e-01 1.777050000000000018e-01 1.258555000000000135e+01 1.364339999999999975e+02 2.062099999999999909e+03
1.549999999999999989e-01 1.776785000000000170e-01 1.233030000000000115e+01 1.359025000000000034e+02 2.061900000000000091e+03
1.559999999999999998e-01 1.776550000000000074e-01 1.211530000000000129e+01 1.354420000000000073e+02 2.061720000000000255e+03
1.570000000000000007e-01 1.776345000000000007e-01 1.193619999999999948e+01 1.350420000000000016e+02 2.061565000000000055e+03
1.580000000000000016e-01 1.776159999999999961e-01 1.178865000000000052e+01 1.346924999999999955e+02 2.061425000000000182e+03
1.590000000000000024e-01 1.776000000000000079e-01 1.166794999999999938e+01 1.343845000000000027e+02 2.061304999999999836e+03
