# t [s], A [cm^2], U [cm/s], P [cPa], c [cm/s]
1.000000000000000021e-03 6.645425000000000360e-01 5.295849999999997781e-03 1.067789999999999964e+02 1.631000000000000000e+03
2.000000000000000042e-03 6.645324999999999704e-01 -1.972206499999999956e-03 1.067555000000000121e+02 1.630990000000000009e+03
3.000000000000000062e-03 6.645750000000000268e-01 6.686585000000000445e-02 1.068315000000000055e+02 1.631014999999999873e+03
4.000000000000000083e-03 6.646279999999999966e-01 1.578152500000000180e-01 1.069525000000000006e+02 1.631039999999999964e+03
5.000000000000000104e-03 6.646220000000000461e-01 1.611230000000000162e-01 1.069500000000000028e+02 1.631045000000000073e+03
6.000000000000000125e-03 6.645699999999999941e-01 8.798299999999997789e-02 1.067984999999999900e+02 1.631015000000000100e+03
7.000000000000000146e-03 6.645229999999999748e-01 1.834700000000000220e-02 1.065909999999999940e+02 1.630970000000000027e+03
8.000000000000000167e-03 6.644654999999999312e-01 -7.580699999999995775e-02 1.063130000000000024e+02 1.630914999999999964e+03
9.000000000000001055e-03 6.643634999999999957e-01 -2.577249999999999819e-01 1.058799999999999955e+02 1.630825000000000045e+03
1.000000000000000194e-02 6.642060000000000741e-01 -5.463400000000000478e-01 1.052394999999999925e+02 1.630695000000000164e+03
1.099999999999999936e-02 6.639809999999999324e-01 -9.573749999999999760e-01 1.043395000000000010e+02 1.630509999999999991e+03
1.200000000000000025e-02 6.636739999999999862e-01 -1.502790000000000070e+00 1.031236999999999995e+02 1.630255000000000109e+03
1.300000000000000114e-02 6.632975000000000954e-01 -2.144595000000000251e+00 1.016004000000000076e+02 1.629930000000000064e+03
1.400000000000000203e-02 6.628955000000000819e-01 -2.784475000000000033e+00 9.987004999999999200e+01 1.629545000000000073e+03
1.499999999999999944e-02 6.625185000000000102e-01 -3.305565000000000087e+00 9.808559999999999945e+01 1.629134999999999991e+03
1.600000000000000033e-02 6.621985000000000232e-01 -3.623130499999999810e+00 9.638694999999999879e+01 1.628730000000000018e+03
1.700000000000000122e-02 6.619394999999999030e-01 -3.708925000000000249e+00 9.485054999999999836e+01 1.628339999999999918e+03
1.800000000000000211e-02 6.617215000000000735e-01 -3.586160999999999710e+00 9.347960000000000491e+01 1.627980000000000018e+03
1.900000000000000300e-02 6.615154999999999230e-01 -3.308202000000000087e+00 9.222180000000000177e+01 1.627634999999999991e+03
2.000000000000000042e-02 6.612919999999999909e-01 -2.934054999999999858e+00 9.100030000000000996e+01 1.627289999999999964e+03
2.100000000000000130e-02 6.610344999999999693e-01 -2.508786999999999878e+00 8.974465000000000714e+01 1.626940000000000055e+03
2.200000000000000219e-02 6.607384999999998954e-01 -2.052999999999999936e+00 8.841355000000000075e+01 1.626569999999999936e+03
2.299999999999999961e-02 6.604145000000000154e-01 -1.563239999999999963e+00 8.700344999999998663e+01 1.626190000000000055e+03
2.400000000000000050e-02 6.600775000000000947e-01 -1.021909999999999874e+00 8.554144999999999754e+01 1.625789999999999964e+03
2.500000000000000139e-02 6.597414999999999807e-01 -4.120200000000000529e-01 8.406725000000000136e+01 1.625389999999999873e+03
2.600000000000000228e-02 6.594149999999999734e-01 2.694800000000001639e-01 8.261240000000000805e+01 1.624985000000000127e+03
2.700000000000000316e-02 6.590934999999999988e-01 1.004360000000000142e+00 8.118465000000000487e+01 1.624585000000000036e+03
2.800000000000000058e-02 6.587655000000000038e-01 1.753309999999999924e+00 7.976144999999999641e+01 1.624194999999999936e+03
2.900000000000000147e-02 6.584114999999999274e-01 2.462690000000000268e+00 7.829384999999999195e+01 1.623784999999999854e+03
3.000000000000000236e-02 6.580129999999999590e-01 3.075365000000000570e+00 7.671850000000000591e+01 1.623360000000000127e+03
3.099999999999999978e-02 6.575554999999999595e-01 3.542739999999999778e+00 7.497440000000000282e+01 1.622900000000000091e+03
3.200000000000000067e-02 6.570325000000000193e-01 3.835014999999999841e+00 7.302029999999999177e+01 1.622400000000000091e+03
3.300000000000000155e-02 6.564499999999999780e-01 3.947410000000000085e+00 7.084735000000000582e+01 1.621855000000000018e+03
3.400000000000000244e-02 6.558239999999999625e-01 3.899915000000000020e+00 6.848539999999999850e+01 1.621269999999999982e+03
3.500000000000000333e-02 6.551789999999999559e-01 3.732490000000000308e+00 6.599950000000001182e+01 1.620654999999999973e+03
3.600000000000000422e-02 6.545410000000000394e-01 3.495719999999999938e+00 6.347994999999999521e+01 1.620029999999999973e+03
3.700000000000000511e-02 6.539374999999999494e-01 3.241789999999999949e+00 6.102790000000000248e+01 1.619420000000000073e+03
3.799999999999999906e-02 6.533895000000000675e-01 3.016654999999999642e+00 5.874200000000000443e+01 1.618840000000000146e+03
3.899999999999999994e-02 6.529145000000000643e-01 2.855814999999999770e+00 5.670779999999999887e+01 1.618309999999999945e+03
4.000000000000000083e-02 6.525225000000000053e-01 2.783055000000000057e+00 5.499145000000000039e+01 1.617849999999999909e+03
4.100000000000000172e-02 6.522190000000001042e-01 2.812199999999999811e+00 5.363790000000000191e+01 1.617469999999999800e+03
4.200000000000000261e-02 6.520060000000000855e-01 2.950209000000000081e+00 5.267369999999999663e+01 1.617179999999999836e+03
4.300000000000000350e-02 6.518835000000000601e-01 3.200797999999999810e+00 5.211050000000000182e+01 1.616985000000000127e+03
4.400000000000000439e-02 6.518515000000000281e-01 3.567425000000000068e+00 5.195094999999999885e+01 1.616884999999999991e+03
4.499999999999999833e-02 6.519094999999999196e-01 4.055120000000000502e+00 5.219279999999999831e+01 1.616889999999999873e+03
4.599999999999999922e-02 6.520574999999999566e-01 4.670759999999999579e+00 5.283194999999999908e+01 1.616990000000000009e+03
4.700000000000000011e-02 6.522959999999999869e-01 5.421950000000000713e+00 5.386339999999999861e+01 1.617184999999999945e+03
4.800000000000000100e-02 6.526250000000000107e-01 6.315134999999999721e+00 5.528025000000000233e+01 1.617485000000000127e+03
4.900000000000000189e-02 6.530415000000000525e-01 7.353315000000000268e+00 5.707215000000000060e+01 1.617875000000000000e+03
5.000000000000000278e-02 6.535420000000000673e-01 8.534404999999999575e+00 5.922235000000000582e+01 1.618355000000000018e+03
5.100000000000000366e-02 6.541194999999999649e-01 9.849890000000000256e+00 6.170674999999999955e+01 1.618920000000000073e+03
5.200000000000000455e-02 6.547650000000000414e-01 1.128523000000000032e+01 6.449235000000000184e+01 1.619570000000000164e+03
5.300000000000000544e-02 6.554680000000000506e-01 1.282020500000000141e+01 6.753849999999999909e+01 1.620284999999999854e+03
5.399999999999999939e-02 6.562149999999999928e-01 1.443080999999999925e+01 7.079805000000000348e+01 1.621059999999999945e+03
5.500000000000000028e-02 6.569949999999999957e-01 1.609105500000000077e+01 7.422020000000000550e+01 1.621884999999999991e+03
5.600000000000000117e-02 6.577950000000000186e-01 1.777474999999999739e+01 7.775315000000000509e+01 1.622744999999999891e+03
5.700000000000000205e-02 6.586045000000000371e-01 1.945734999999999815e+01 8.134754999999999825e+01 1.623630000000000109e+03
5.800000000000000294e-02 6.594139999999999446e-01 2.111735000000000184e+01 8.495895000000000152e+01 1.624534999999999854e+03
5.900000000000000383e-02 6.602160000000000251e-01 2.273689999999999856e+01 8.854954999999999643e+01 1.625440000000000055e+03
6.000000000000000472e-02 6.610054999999999126e-01 2.430225000000000080e+01 9.208944999999999936e+01 1.626335000000000036e+03
6.099999999999999867e-02 6.617794999999999650e-01 2.580344999999999800e+01 9.555785000000000196e+01 1.627230000000000018e+03
6.199999999999999956e-02 6.625350000000000961e-01 2.723424999999999940e+01 9.894174999999999898e+01 1.628105000000000018e+03
6.300000000000000044e-02 6.632724999999999316e-01 2.859114999999999895e+01 1.022342500000000030e+02 1.628965000000000146e+03
6.400000000000000133e-02 6.639930000000000554e-01 2.987295000000000300e+01 1.054354500000000030e+02 1.629805000000000064e+03
6.500000000000000222e-02 6.646969999999999823e-01 3.107995000000000019e+01 1.085484000000000009e+02 1.630630000000000109e+03
6.600000000000000311e-02 6.653869999999999507e-01 3.221320000000000050e+01 1.115794999999999959e+02 1.631429999999999836e+03
6.700000000000000400e-02 6.660630000000000717e-01 3.327414999999999878e+01 1.145365000000000038e+02 1.632214999999999918e+03
6.800000000000000488e-02 6.667270000000000696e-01 3.426389999999999958e+01 1.174249999999999972e+02 1.632985000000000127e+03
6.900000000000000577e-02 6.673784999999999856e-01 3.518314999999999770e+01 1.202510000000000048e+02 1.633740000000000009e+03
7.000000000000000666e-02 6.680194999999999883e-01 3.603170000000000073e+01 1.230155000000000030e+02 1.634480000000000018e+03
7.100000000000000755e-02 6.686469999999999914e-01 3.680835000000000434e+01 1.257189999999999941e+02 1.635210000000000036e+03
7.200000000000000844e-02 6.692599999999999660e-01 3.751115000000000066e+01 1.283564999999999827e+02 1.635914999999999964e+03
7.300000000000000933e-02 6.698569999999999247e-01 3.813739999999999952e+01 1.309209999999999923e+02 1.636610000000000127e+03
7.399999999999999634e-02 6.704345000000000443e-01 3.868379999999999797e+01 1.334025000000000034e+02 1.637285000000000082e+03
7.499999999999999722e-02 6.709899999999999753e-01 3.914719999999999800e+01 1.357895000000000039e+02 1.637934999999999945e+03
7.599999999999999811e-02 6.715204999999999647e-01 3.952429999999999666e+01 1.380695000000000050e+02 1.638554999999999836e+03
7.699999999999999900e-02 6.720224999999999671e-01 3.981260000000000332e+01 1.402289999999999850e+02 1.639155000000000200e+03
7.799999999999999989e-02 6.724939999999999252e-01 4.001010000000000133e+01 1.422560000000000002e+02 1.639715000000000146e+03
7.900000000000000078e-02 6.729324999999999335e-01 4.011570000000000391e+01 1.441399999999999864e+02 1.640244999999999891e+03
8.000000000000000167e-02 6.733355000000000867e-01 4.012945000000000562e+01 1.458710000000000093e+02 1.640735000000000127e+03
8.100000000000000255e-02 6.737029999999999408e-01 4.005219999999999914e+01 1.474424999999999955e+02 1.641184999999999945e+03
8.200000000000000344e-02 6.740325000000000344e-01 3.988569999999999993e+01 1.488500000000000227e+02 1.641595000000000027e+03
8.300000000000000433e-02 6.743249999999999522e-01 3.963275000000000148e+01 1.500910000000000082e+02 1.641960000000000036e+03
8.400000000000000522e-02 6.745805000000000273e-01 3.929695000000000249e+01 1.511659999999999968e+02 1.642279999999999973e+03
8.500000000000000611e-02 6.747985000000000788e-01 3.888264999999999816e+01 1.520765000000000100e+02 1.642559999999999945e+03
8.600000000000000699e-02 6.749810000000000532e-01 3.839520000000000266e+01 1.528274999999999864e+02 1.642799999999999955e+03
8.700000000000000788e-02 6.751294999999999380e-01 3.784060000000000201e+01 1.534250000000000114e+02 1.643000000000000000e+03
8.800000000000000877e-02 6.752454999999999430e-01 3.722575000000000500e+01 1.538784999999999741e+02 1.643160000000000082e+03
8.899999999999999578e-02 6.753320000000000434e-01 3.655830000000000268e+01 1.541974999999999909e+02 1.643279999999999973e+03
8.999999999999999667e-02 6.753905000000000047e-01 3.584635000000000105e+01 1.543940000000000055e+02 1.643375000000000000e+03
9.099999999999999756e-02 6.754260000000000819e-01 3.509875000000000256e+01 1.544820000000000277e+02 1.643429999999999836e+03
9.199999999999999845e-02 6.754404999999999992e-01 3.432434999999999548e+01 1.544755000000000109e+02 1.643454999999999927e+03
9.299999999999999933e-02 6.754375000000000240e-01 3.353220000000000312e+01 1.543894999999999982e+02 1.643465000000000146e+03
9.400000000000000022e-02 6.754200000000000204e-01 3.273094999999999999e+01 1.542379999999999995e+02 1.643450000000000045e+03
9.500000000000000111e-02 6.753919999999999924e-01 3.192855000000000132e+01 1.540360000000000014e+02 1.643420000000000073e+03
9.600000000000000200e-02 6.753549999999999276e-01 3.113230000000000075e+01 1.537964999999999804e+02 1.643375000000000000e+03
9.700000000000000289e-02 6.753130000000000521e-01 3.034799999999999898e+01 1.535310000000000059e+02 1.643324999999999818e+03
9.800000000000000377e-02 6.752664999999999917e-01 2.958034999999999926e+01 1.532479999999999905e+02 1.643259999999999991e+03
9.900000000000000466e-02 6.752164999999999973e-01 2.883254999999999768e+01 1.529560000000000173e+02 1.643190000000000055e+03
1.000000000000000056e-01 6.751650000000000151e-01 2.810614999999999952e+01 1.526585000000000036e+02 1.643119999999999891e+03
1.010000000000000064e-01 6.751110000000000166e-01 2.740149999999999864e+01 1.523575000000000159e+02 1.643045000000000073e+03
1.020000000000000073e-01 6.750545000000000018e-01 2.671739999999999782e+01 1.520525000000000091e+02 1.642964999999999918e+03
1.030000000000000082e-01 6.749944999999999418e-01 2.605189999999999984e+01 1.517415000000000020e+02 1.642884999999999991e+03
1.040000000000000091e-01 6.749305000000000998e-01 2.540185000000000315e+01 1.514200000000000159e+02 1.642799999999999955e+03
1.050000000000000100e-01 6.748600000000000154e-01 2.476370000000000005e+01 1.510835000000000150e+02 1.642715000000000146e+03
1.059999999999999970e-01 6.747834999999999805e-01 2.413354999999999961e+01 1.507249999999999943e+02 1.642625000000000000e+03
1.069999999999999979e-01 6.746974999999999500e-01 2.350714999999999932e+01 1.503385000000000105e+02 1.642519999999999982e+03
1.079999999999999988e-01 6.746024999999999938e-01 2.288065000000000282e+01 1.499184999999999945e+02 1.642414999999999964e+03
1.089999999999999997e-01 6.744970000000000132e-01 2.225029999999999930e+01 1.494590000000000032e+02 1.642295000000000073e+03
1.100000000000000006e-01 6.743794999999999096e-01 2.161294999999999789e+01 1.489565000000000055e+02 1.642164999999999964e+03
1.110000000000000014e-01 6.742505000000000859e-01 2.096604999999999919e+01 1.484069999999999823e+02 1.642030000000000200e+03
1.120000000000000023e-01 6.741095000000000281e-01 2.030770000000000053e+01 1.478090000000000259e+02 1.641880000000000109e+03
1.130000000000000032e-01 6.739569999999999173e-01 1.963694999999999879e+01 1.471619999999999777e+02 1.641720000000000027e+03
1.140000000000000041e-01 6.737930000000000863e-01 1.895380000000000109e+01 1.464689999999999941e+02 1.641545000000000073e+03
1.150000000000000050e-01 6.736185000000000089e-01 1.825890000000000057e+01 1.457309999999999945e+02 1.641359999999999900e+03
1.160000000000000059e-01 6.734360000000000346e-01 1.755405000000000015e+01 1.449549999999999841e+02 1.641164999999999964e+03
1.170000000000000068e-01 6.732460000000000111e-01 1.684175000000000111e+01 1.441460000000000150e+02 1.640954999999999927e+03
1.180000000000000077e-01 6.730510000000000659e-01 1.612549999999999883e+01 1.433120000000000118e+02 1.640744999999999891e+03
1.190000000000000085e-01 6.728534999999999933e-01 1.540930000000000177e+01 1.424625000000000057e+02 1.640530000000000200e+03
1.200000000000000094e-01 6.726544999999999330e-01 1.469776500000000041e+01 1.416059999999999945e+02 1.640309999999999945e+03
1.209999999999999964e-01 6.724585000000000701e-01 1.399581500000000034e+01 1.407535000000000025e+02 1.640095000000000027e+03
1.219999999999999973e-01 6.722660000000000302e-01 1.330874999999999986e+01 1.399159999999999968e+02 1.639875000000000000e+03
1.229999999999999982e-01 6.720805000000000806e-01 1.264175000000000004e+01 1.391025000000000205e+02 1.639664999999999964e+03
1.239999999999999991e-01 6.719040000000000568e-01 1.199983499999999914e+01 1.383235000000000241e+02 1.639460000000000036e+03
1.250000000000000000e-01 6.717389999999999750e-01 1.138770500000000041e+01 1.375889999999999986e+02 1.639264999999999873e+03
1.260000000000000009e-01 6.715854999999999464e-01 1.080949500000000008e+01 1.369044999999999845e+02 1.639079999999999927e+03
1.270000000000000018e-01 6.714465000000000572e-01 1.026866000000000057e+01 1.362779999999999916e+02 1.638910000000000082e+03
1.280000000000000027e-01 6.713219999999999743e-01 9.767825000000000202e+00 1.357139999999999986e+02 1.638755000000000109e+03
1.290000000000000036e-01 6.712130000000000596e-01 9.308735000000000426e+00 1.352150000000000034e+02 1.638610000000000127e+03
1.300000000000000044e-01 6.711194999999999800e-01 8.892250000000000654e+00 1.347824999999999989e+02 1.638485000000000127e+03
1.310000000000000053e-01 6.710400000000000809e-01 8.518264999999999532e+00 1.344155000000000086e+02 1.638375000000000000e+03
1.320000000000000062e-01 6.709749999999999881e-01 8.185719999999999885e+00 1.341115000000000066e+02 1.638284999999999854e+03
1.330000000000000071e-01 6.709235000000000060e-01 7.892884999999999707e+00 1.338665000000000020e+02 1.638210000000000036e+03
1.340000000000000080e-01 6.708830000000000071e-01 7.637259999999999494e+00 1.336754999999999995e+02 1.638139999999999873e+03
1.350000000000000089e-01 6.708524999999999627e-01 7.415824999999999889e+00 1.335310000000000059e+02 1.638090000000000146e+03
1.360000000000000098e-01 6.708300000000000374e-01 7.225150000000000183e+00 1.334265000000000043e+02 1.638050000000000182e+03
1.370000000000000107e-01 6.708149999999999391e-01 7.061575000000000379e+00 1.333545000000000016e+02 1.638019999999999982e+03
1.380000000000000115e-01 6.708045000000000258e-01 6.921329999999999316e+00 1.333079999999999927e+02 1.637994999999999891e+03
1.390000000000000124e-01 6.707974999999999355e-01 6.800660000000000593e+00 1.332789999999999964e+02 1.637980000000000018e+03
1.400000000000000133e-01 6.707920000000000549e-01 6.695974999999999788e+00 1.332609999999999957e+02 1.637960000000000036e+03
1.410000000000000142e-01 6.707874999999999810e-01 6.603899999999999437e+00 1.332475000000000023e+02 1.637949999999999818e+03
1.420000000000000151e-01 6.707819999999999894e-01 6.521379999999999733e+00 1.332330000000000041e+02 1.637944999999999936e+03
1.430000000000000160e-01 6.707750000000000101e-01 6.445689999999999920e+00 1.332139999999999986e+02 1.637934999999999945e+03
1.440000000000000169e-01 6.707665000000000433e-01 6.374499999999999389e+00 1.331864999999999952e+02 1.637920000000000073e+03
1.450000000000000178e-01 6.707545000000000313e-01 6.305860000000000021e+00 1.331475000000000080e+02 1.637904999999999973e+03
1.459999999999999909e-01 6.707400000000000029e-01 6.238210000000000477e+00 1.330960000000000036e+02 1.637889999999999873e+03
1.469999999999999918e-01 6.707224999999999993e-01 6.170360000000000511e+00 1.330305000000000177e+02 1.637875000000000000e+03
1.479999999999999927e-01 6.707019999999999094e-01 6.101469999999999949e+00 1.329510000000000218e+02 1.637855000000000018e+03
1.489999999999999936e-01 6.706779999999999964e-01 6.031024999999999636e+00 1.328580000000000041e+02 1.637829999999999927e+03
1.499999999999999944e-01 6.706520000000000259e-01 5.958779999999999966e+00 1.327524999999999977e+02 1.637805000000000064e+03
1.509999999999999953e-01 6.706239999999999979e-01 5.884735000000000049e+00 1.326355000000000075e+02 1.637775000000000091e+03
1.519999999999999962e-01 6.705934999999999535e-01 5.809084999999999610e+00 1.325085000000000264e+02 1.637740000000000009e+03
1.529999999999999971e-01 6.705620000000001024e-01 5.732165000000000177e+00 1.323734999999999786e+02 1.637710000000000036e+03
1.539999999999999980e-01 6.705285000000000828e-01 5.654415000000000191e+00 1.322314999999999827e+02 1.637674999999999955e+03
1.549999999999999989e-01 6.704939999999999234e-01 5.576324999999999754e+00 1.320850000000000080e+02 1.637634999999999991e+03
1.559999999999999998e-01 6.704594999999999860e-01 5.498400000000000176e+00 1.319354999999999905e+02 1.637599999999999909e+03
1.570000000000000007e-01 6.704250000000000487e-01 5.421115000000000350e+00 1.317824999999999989e+02 1.637559999999999945e+03
1.580000000000000016e-01 6.703900000000000414e-01 5.344920000000000115e+00 1.316285000000000025e+02 1.637525000000000091e+03
1.590000000000000024e-01 6.703550000000000342e-01 5.270165000000000433e+00 1.314739999999999895e+02 1.637480000000000018e+03
