# t [s], A [cm^2], U [cm/s], P [cPa], c [cm/s]
1.000000000000000021e-03 7.225334999999999397e-01 3.855300000000005944e-03 9.050730000000000075e+01 1.590575000000000045e+03
2.000000000000000042e-03 7.225234999999999852e-01 3.330200000000002776e-04 9.048144999999999527e+01 1.590565000000000055e+03
3.000000000000000062e-03 7.225924999999999709e-01 1.097291999999999851e-01 9.059350000000000591e+01 1.590595000000000027e+03
4.000000000000000083e-03 7.226444999999999119e-01 2.028233499999999856e-01 9.070420000000000016e+01 1.590619999999999891e+03
5.000000000000000104e-03 7.226040000000000241e-01 1.631707000000000019e-01 9.062260000000000559e+01 1.590605000000000018e+03
6.000000000000000125e-03 7.225234999999999852e-01 5.524449999999997418e-02 9.038100000000000023e+01 1.590550000000000182e+03
7.000000000000000146e-03 7.224470000000000613e-01 -5.559250000000004466e-02 9.006669999999999732e+01 1.590484999999999900e+03
8.000000000000000167e-03 7.223209999999999908e-01 -2.555900000000000949e-01 8.959004999999999086e+01 1.590375000000000000e+03
9.000000000000001055e-03 7.221169999999998979e-01 -5.935549999999999438e-01 8.886190000000000566e+01 1.590220000000000027e+03
1.000000000000000194e-02 7.218314999999999593e-01 -1.067250000000000032e+00 8.784364999999999668e+01 1.589990000000000009e+03
1.099999999999999936e-02 7.214434999999999043e-01 -1.695954999999999879e+00 8.647284999999999400e+01 1.589680000000000064e+03
1.200000000000000025e-02 7.209434999999999594e-01 -2.477594999999999992e+00 8.470725000000000193e+01 1.589269999999999982e+03
1.300000000000000114e-02 7.203730000000000411e-01 -3.321885000000000421e+00 8.262145000000001005e+01 1.588779999999999973e+03
1.400000000000000203e-02 7.198154999999999415e-01 -4.065767000000000131e+00 8.041800000000000637e+01 1.588240000000000009e+03
1.499999999999999944e-02 7.193484999999999463e-01 -4.553308999999999607e+00 7.833850000000001046e+01 1.587714999999999918e+03
1.600000000000000033e-02 7.190054999999999641e-01 -4.703551499999999663e+00 7.655850000000000932e+01 1.587230000000000018e+03
1.700000000000000122e-02 7.187685000000000324e-01 -4.528699999999999726e+00 7.513249999999999318e+01 1.586815000000000055e+03
1.800000000000000211e-02 7.185889999999999223e-01 -4.111720000000000041e+00 7.399694999999999823e+01 1.586454999999999927e+03
1.900000000000000300e-02 7.184059999999999890e-01 -3.565344999999999764e+00 7.301310000000000855e+01 1.586130000000000109e+03
2.000000000000000042e-02 7.181735000000000202e-01 -2.990073500000000273e+00 7.202679999999999438e+01 1.585809999999999945e+03
2.100000000000000130e-02 7.178700000000000081e-01 -2.443729499999999888e+00 7.092340000000000089e+01 1.585469999999999800e+03
2.200000000000000219e-02 7.175040000000000306e-01 -1.932104999999999961e+00 6.965985000000000582e+01 1.585099999999999909e+03
2.299999999999999961e-02 7.171030000000000459e-01 -1.422699999999999854e+00 6.826314999999999600e+01 1.584700000000000045e+03
2.400000000000000050e-02 7.166989999999999750e-01 -8.730749999999998234e-01 6.679994999999999550e+01 1.584279999999999973e+03
2.500000000000000139e-02 7.163105000000000722e-01 -2.593550000000002242e-01 6.533525000000000205e+01 1.583860000000000127e+03
2.600000000000000228e-02 7.159370000000000456e-01 4.061650000000001093e-01 6.389759999999999707e+01 1.583440000000000055e+03
2.700000000000000316e-02 7.155590000000000561e-01 1.072314999999999907e+00 6.246235000000000070e+01 1.583019999999999982e+03
2.800000000000000058e-02 7.151419999999999444e-01 1.659164999999999779e+00 6.095360000000000156e+01 1.582579999999999927e+03
2.900000000000000147e-02 7.146485000000000198e-01 2.076494999999999536e+00 5.926319999999999766e+01 1.582105000000000018e+03
3.000000000000000236e-02 7.140465000000000284e-01 2.245480000000000143e+00 5.727974999999999994e+01 1.581570000000000164e+03
3.099999999999999978e-02 7.133210000000000939e-01 2.118250000000000188e+00 5.492114999999999725e+01 1.580950000000000045e+03
3.200000000000000067e-02 7.124770000000000270e-01 1.690290000000000514e+00 5.216065000000000396e+01 1.580240000000000009e+03
3.300000000000000155e-02 7.115424999999999667e-01 1.002094999999999736e+00 4.904030000000000200e+01 1.579449999999999818e+03
3.400000000000000244e-02 7.105600000000000804e-01 1.303699999999992087e-01 4.566759999999999309e+01 1.578595000000000027e+03
3.500000000000000333e-02 7.095819999999999350e-01 -8.282650000000000290e-01 4.219790000000000418e+01 1.577704999999999927e+03
3.600000000000000422e-02 7.086589999999999279e-01 -1.774660000000000792e+00 3.880894999999999584e+01 1.576820000000000164e+03
3.700000000000000511e-02 7.078345000000000331e-01 -2.621429999999999705e+00 3.567464999999999975e+01 1.575984999999999900e+03
3.799999999999999906e-02 7.071415000000000894e-01 -3.302189999999999959e+00 3.294449999999999790e+01 1.575230000000000018e+03
3.899999999999999994e-02 7.065995000000000470e-01 -3.773970000000000269e+00 3.073019999999999996e+01 1.574599999999999909e+03
4.000000000000000083e-02 7.062159999999999549e-01 -4.015661999999999843e+00 2.910079999999999956e+01 1.574095000000000027e+03
4.100000000000000172e-02 7.059914999999999941e-01 -4.022700000000000387e+00 2.808514999999999873e+01 1.573744999999999891e+03
4.200000000000000261e-02 7.059200000000001030e-01 -3.800850000000000062e+00 2.767934999999999945e+01 1.573545000000000073e+03
4.300000000000000350e-02 7.059919999999999529e-01 -3.360269999999999868e+00 2.785695000000000121e+01 1.573500000000000000e+03
4.400000000000000439e-02 7.061969999999999636e-01 -2.711487270000000116e+00 2.857874999999999943e+01 1.573595000000000027e+03
4.499999999999999833e-02 7.065259999999999874e-01 -1.863744999999999985e+00 2.980014999999999858e+01 1.573829999999999927e+03
4.599999999999999922e-02 7.069689999999999586e-01 -8.257300000000000750e-01 3.147520000000000095e+01 1.574190000000000055e+03
4.700000000000000011e-02 7.075164999999999926e-01 3.922099999999999476e-01 3.355769999999999698e+01 1.574660000000000082e+03
4.800000000000000100e-02 7.081554999999999378e-01 1.775375000000000369e+00 3.599904999999999688e+01 1.575235000000000127e+03
4.900000000000000189e-02 7.088730000000000864e-01 3.302694999999999936e+00 3.874680000000000035e+01 1.575894999999999982e+03
5.000000000000000278e-02 7.096525000000000194e-01 4.946094999999999686e+00 4.174244999999999806e+01 1.576630000000000109e+03
5.100000000000000366e-02 7.104759999999999964e-01 6.671170000000000044e+00 4.492175000000000296e+01 1.577425000000000182e+03
5.200000000000000455e-02 7.113240000000000673e-01 8.439301205000001360e+00 4.821609999999999729e+01 1.578264999999999873e+03
5.300000000000000544e-02 7.121770000000000600e-01 1.021060000000000123e+01 5.155590000000000117e+01 1.579119999999999891e+03
5.399999999999999939e-02 7.130184999999999995e-01 1.194679499999999983e+01 5.487444999999999595e+01 1.579989999999999782e+03
5.500000000000000028e-02 7.138335000000000097e-01 1.361408500000000110e+01 5.811225000000000307e+01 1.580849999999999909e+03
5.600000000000000117e-02 7.146105000000000373e-01 1.518529499999999999e+01 6.122044999999999959e+01 1.581690000000000055e+03
5.700000000000000205e-02 7.153430000000000621e-01 1.664085000000000036e+01 6.416370000000000573e+01 1.582500000000000000e+03
5.800000000000000294e-02 7.160280000000001088e-01 1.796920000000000073e+01 6.692100000000000648e+01 1.583264999999999873e+03
5.900000000000000383e-02 7.166654999999999553e-01 1.916629999999999967e+01 6.948595000000000255e+01 1.583990000000000009e+03
6.000000000000000472e-02 7.172604999999999675e-01 2.023485000000000156e+01 7.186535000000000650e+01 1.584675000000000182e+03
6.099999999999999867e-02 7.178174999999999972e-01 2.118270000000000053e+01 7.407715000000000316e+01 1.585315000000000055e+03
6.199999999999999956e-02 7.183444999999999414e-01 2.202190000000000225e+01 7.614770000000000039e+01 1.585920000000000073e+03
6.300000000000000044e-02 7.188510000000000177e-01 2.276729999999999876e+01 7.810920000000000130e+01 1.586494999999999891e+03
6.400000000000000133e-02 7.193454999999999711e-01 2.343534999999999968e+01 7.999710000000000321e+01 1.587045000000000073e+03
6.500000000000000222e-02 7.198364999999999903e-01 2.404295000000000115e+01 8.184694999999999254e+01 1.587585000000000036e+03
6.600000000000000311e-02 7.203325000000000422e-01 2.460660000000000025e+01 8.369265000000000043e+01 1.588119999999999891e+03
6.700000000000000400e-02 7.208404999999999951e-01 2.514114999999999966e+01 8.556354999999999222e+01 1.588659999999999854e+03
6.800000000000000488e-02 7.213650000000000340e-01 2.565910000000000224e+01 8.748295000000000243e+01 1.589204999999999927e+03
6.900000000000000577e-02 7.219085000000000640e-01 2.616960000000000264e+01 8.946635000000000559e+01 1.589764999999999873e+03
7.000000000000000666e-02 7.224730000000000318e-01 2.667795000000000272e+01 9.152029999999999177e+01 1.590339999999999918e+03
7.100000000000000755e-02 7.230544999999999334e-01 2.718529999999999802e+01 9.364185000000000514e+01 1.590930000000000064e+03
7.200000000000000844e-02 7.236495000000000566e-01 2.768840000000000146e+01 9.581879999999999598e+01 1.591534999999999854e+03
7.300000000000000933e-02 7.242520000000000069e-01 2.818055000000000021e+01 9.803040000000000020e+01 1.592144999999999982e+03
7.399999999999999634e-02 7.248529999999999696e-01 2.865180000000000149e+01 1.002494000000000085e+02 1.592764999999999873e+03
7.499999999999999722e-02 7.254439999999999777e-01 2.908995000000000175e+01 1.024428499999999929e+02 1.593380000000000109e+03
7.599999999999999811e-02 7.260154999999999248e-01 2.948174999999999812e+01 1.045755000000000052e+02 1.593980000000000018e+03
7.699999999999999900e-02 7.265580000000000371e-01 2.981364999999999910e+01 1.066105000000000018e+02 1.594555000000000064e+03
7.799999999999999989e-02 7.270634999999999737e-01 3.007290000000000063e+01 1.085140000000000100e+02 1.595099999999999909e+03
7.900000000000000078e-02 7.275234999999999896e-01 3.024824999999999875e+01 1.102560000000000002e+02 1.595610000000000127e+03
8.000000000000000167e-02 7.279324999999999823e-01 3.033070000000000022e+01 1.118085000000000093e+02 1.596070000000000164e+03
8.100000000000000255e-02 7.282855000000000301e-01 3.031385000000000218e+01 1.131539999999999964e+02 1.596474999999999909e+03
8.200000000000000344e-02 7.285809999999999231e-01 3.019429999999999836e+01 1.142795000000000130e+02 1.596829999999999927e+03
8.300000000000000433e-02 7.288174999999998960e-01 2.997169999999999845e+01 1.151790000000000020e+02 1.597125000000000000e+03
8.400000000000000522e-02 7.289965000000000472e-01 2.964880000000000138e+01 1.158549999999999898e+02 1.597355000000000018e+03
8.500000000000000611e-02 7.291210000000000191e-01 2.923125000000000284e+01 1.163154999999999859e+02 1.597529999999999973e+03
8.600000000000000699e-02 7.291950000000000376e-01 2.872735000000000127e+01 1.165759999999999934e+02 1.597650000000000091e+03
8.700000000000000788e-02 7.292240000000000943e-01 2.814770000000000039e+01 1.166560000000000059e+02 1.597715000000000146e+03
8.800000000000000877e-02 7.292140000000000288e-01 2.750485000000000113e+01 1.165790000000000077e+02 1.597744999999999891e+03
8.899999999999999578e-02 7.291725000000000012e-01 2.681250000000000000e+01 1.163729999999999905e+02 1.597724999999999909e+03
8.999999999999999667e-02 7.291064999999999907e-01 2.608525000000000205e+01 1.160655000000000001e+02 1.597680000000000064e+03
9.099999999999999756e-02 7.290239999999998943e-01 2.533780000000000143e+01 1.156869999999999976e+02 1.597605000000000018e+03
9.199999999999999845e-02 7.289319999999999133e-01 2.458455000000000013e+01 1.152644999999999982e+02 1.597514999999999873e+03
9.299999999999999933e-02 7.288364999999999982e-01 2.383879999999999910e+01 1.148255000000000052e+02 1.597414999999999964e+03
9.400000000000000022e-02 7.287445000000000173e-01 2.311229999999999762e+01 1.143930000000000007e+02 1.597309999999999945e+03
9.500000000000000111e-02 7.286589999999999456e-01 2.241494999999999749e+01 1.139875000000000114e+02 1.597210000000000036e+03
9.600000000000000200e-02 7.285840000000000094e-01 2.175424999999999898e+01 1.136230000000000047e+02 1.597110000000000127e+03
9.700000000000000289e-02 7.285215000000000440e-01 2.113519999999999754e+01 1.133104999999999905e+02 1.597025000000000091e+03
9.800000000000000377e-02 7.284734999999999960e-01 2.056015000000000015e+01 1.130560000000000116e+02 1.596949999999999818e+03
9.900000000000000466e-02 7.284384999999999888e-01 2.002879999999999683e+01 1.128584999999999923e+02 1.596894999999999982e+03
1.000000000000000056e-01 7.284150000000000347e-01 1.953869999999999862e+01 1.127145000000000010e+02 1.596840000000000146e+03
1.010000000000000064e-01 7.284005000000000063e-01 1.908490000000000109e+01 1.126150000000000091e+02 1.596804999999999836e+03
1.020000000000000073e-01 7.283919999999999284e-01 1.866100000000000136e+01 1.125474999999999994e+02 1.596775000000000091e+03
1.030000000000000082e-01 7.283850000000000602e-01 1.825919999999999987e+01 1.124979999999999905e+02 1.596755000000000109e+03
1.040000000000000091e-01 7.283755000000000646e-01 1.787064999999999770e+01 1.124505000000000052e+02 1.596735000000000127e+03
1.050000000000000100e-01 7.283589999999999787e-01 1.748620000000000019e+01 1.123875000000000028e+02 1.596710000000000036e+03
1.059999999999999970e-01 7.283319999999999794e-01 1.709689999999999799e+01 1.122924999999999898e+02 1.596680000000000064e+03
1.069999999999999979e-01 7.282899999999999929e-01 1.669419999999999860e+01 1.121490000000000009e+02 1.596634999999999991e+03
1.079999999999999988e-01 7.282294999999999741e-01 1.627064999999999984e+01 1.119445000000000050e+02 1.596585000000000036e+03
1.089999999999999997e-01 7.281484999999999763e-01 1.582024999999999970e+01 1.116674999999999898e+02 1.596509999999999991e+03
1.100000000000000006e-01 7.280465000000000408e-01 1.533849999999999980e+01 1.113104999999999905e+02 1.596420000000000073e+03
1.110000000000000014e-01 7.279214999999999991e-01 1.482310000000000016e+01 1.108689999999999998e+02 1.596309999999999945e+03
1.120000000000000023e-01 7.277744999999999909e-01 1.427364999999999995e+01 1.103445000000000107e+02 1.596174999999999955e+03
1.130000000000000032e-01 7.276070000000000038e-01 1.369190000000000040e+01 1.097400000000000091e+02 1.596025000000000091e+03
1.140000000000000041e-01 7.274224999999999719e-01 1.308178999999999803e+01 1.090635000000000048e+02 1.595849999999999909e+03
1.150000000000000050e-01 7.272229999999999528e-01 1.244899500000000003e+01 1.083275000000000006e+02 1.595659999999999854e+03
1.160000000000000059e-01 7.270134999999999792e-01 1.180101499999999959e+01 1.075465000000000089e+02 1.595460000000000036e+03
1.170000000000000068e-01 7.267995000000000427e-01 1.114661500000000061e+01 1.067379999999999995e+02 1.595250000000000000e+03
1.180000000000000077e-01 7.265850000000000364e-01 1.049542500000000089e+01 1.059205000000000041e+02 1.595029999999999973e+03
1.190000000000000085e-01 7.263749999999999929e-01 9.857675000000000409e+00 1.051140000000000043e+02 1.594815000000000055e+03
1.200000000000000094e-01 7.261759999999999327e-01 9.243590000000001083e+00 1.043388500000000079e+02 1.594605000000000018e+03
1.209999999999999964e-01 7.259914999999999008e-01 8.662889999999999091e+00 1.036137999999999977e+02 1.594400000000000091e+03
1.219999999999999973e-01 7.258264999999999301e-01 8.124655000000000626e+00 1.029553499999999957e+02 1.594215000000000146e+03
1.229999999999999982e-01 7.256845000000000656e-01 7.636435000000000528e+00 1.023792499999999990e+02 1.594050000000000182e+03
1.239999999999999991e-01 7.255670000000000730e-01 7.204489999999999839e+00 1.018963999999999999e+02 1.593910000000000082e+03
1.250000000000000000e-01 7.254774999999999974e-01 6.833095000000000141e+00 1.015149499999999989e+02 1.593785000000000082e+03
1.260000000000000009e-01 7.254154999999999909e-01 6.524665000000000603e+00 1.012398000000000025e+02 1.593695000000000164e+03
1.270000000000000018e-01 7.253804999999999836e-01 6.279634999999999856e+00 1.010704499999999939e+02 1.593630000000000109e+03
1.280000000000000027e-01 7.253720000000000168e-01 6.096515000000000128e+00 1.010045999999999964e+02 1.593585000000000036e+03
1.290000000000000036e-01 7.253880000000000328e-01 5.972055000000000113e+00 1.010345000000000084e+02 1.593574999999999818e+03
1.300000000000000044e-01 7.254240000000000688e-01 5.901460000000000150e+00 1.011520000000000010e+02 1.593585000000000036e+03
1.310000000000000053e-01 7.254789999999999850e-01 5.878645000000000564e+00 1.013435000000000059e+02 1.593614999999999782e+03
1.320000000000000062e-01 7.255480000000000818e-01 5.896564999999999834e+00 1.015960000000000036e+02 1.593670000000000073e+03
1.330000000000000071e-01 7.256274999999999809e-01 5.947535000000000238e+00 1.018954999999999984e+02 1.593730000000000018e+03
1.340000000000000080e-01 7.257130000000000525e-01 6.023569999999999425e+00 1.022259999999999991e+02 1.593804999999999836e+03
1.350000000000000089e-01 7.258020000000000582e-01 6.116679999999999673e+00 1.025734999999999957e+02 1.593884999999999991e+03
1.360000000000000098e-01 7.258900000000000352e-01 6.219165000000000276e+00 1.029230000000000018e+02 1.593970000000000027e+03
1.370000000000000107e-01 7.259744999999999671e-01 6.323845000000000383e+00 1.032630000000000052e+02 1.594055000000000064e+03
1.380000000000000115e-01 7.260524999999999896e-01 6.424305000000000376e+00 1.035825000000000102e+02 1.594139999999999873e+03
1.390000000000000124e-01 7.261219999999999342e-01 6.515015000000000001e+00 1.038719999999999999e+02 1.594215000000000146e+03
1.400000000000000133e-01 7.261824999999999530e-01 6.591440000000000410e+00 1.041260000000000048e+02 1.594284999999999854e+03
1.410000000000000142e-01 7.262315000000000298e-01 6.650140000000000384e+00 1.043379999999999939e+02 1.594345000000000027e+03
1.420000000000000151e-01 7.262694999999999013e-01 6.688765000000000072e+00 1.045074999999999932e+02 1.594394999999999982e+03
1.430000000000000160e-01 7.262969999999999704e-01 6.706044999999999590e+00 1.046329999999999956e+02 1.594434999999999945e+03
1.440000000000000169e-01 7.263135000000000563e-01 6.701749999999999652e+00 1.047154999999999916e+02 1.594465000000000146e+03
1.450000000000000178e-01 7.263200000000000767e-01 6.676569999999999894e+00 1.047595000000000027e+02 1.594485000000000127e+03
1.459999999999999909e-01 7.263189999999999369e-01 6.632055000000000256e+00 1.047680000000000007e+02 1.594494999999999891e+03
1.469999999999999918e-01 7.263114999999999988e-01 6.570444999999999425e+00 1.047469999999999999e+02 1.594494999999999891e+03
1.479999999999999927e-01 7.262979999999999992e-01 6.494514999999999816e+00 1.047025000000000006e+02 1.594490000000000009e+03
1.489999999999999936e-01 7.262815000000000243e-01 6.407449999999999868e+00 1.046419999999999959e+02 1.594480000000000018e+03
1.499999999999999944e-01 7.262634999999999508e-01 6.312640000000000029e+00 1.045704999999999956e+02 1.594465000000000146e+03
1.509999999999999953e-01 7.262454999999999883e-01 6.213520000000000820e+00 1.044945000000000022e+02 1.594450000000000045e+03
1.519999999999999962e-01 7.262284999999999435e-01 6.113424999999999443e+00 1.044219999999999970e+02 1.594434999999999945e+03
1.529999999999999971e-01 7.262139999999999151e-01 6.015414999999999957e+00 1.043555000000000064e+02 1.594420000000000073e+03
1.539999999999999980e-01 7.262030000000000429e-01 5.922159999999999869e+00 1.043004999999999995e+02 1.594405000000000200e+03
1.549999999999999989e-01 7.261965000000000225e-01 5.835844999999999949e+00 1.042599999999999909e+02 1.594400000000000091e+03
1.559999999999999998e-01 7.261940000000000062e-01 5.758094999999999963e+00 1.042360000000000042e+02 1.594389999999999873e+03
1.570000000000000007e-01 7.261965000000000225e-01 5.689930000000000376e+00 1.042284999999999968e+02 1.594384999999999991e+03
1.580000000000000016e-01 7.262030000000000429e-01 5.631769999999999499e+00 1.042379999999999995e+02 1.594389999999999873e+03
1.590000000000000024e-01 7.262129999999999974e-01 5.583479999999999777e+00 1.042620000000000005e+02 1.594394999999999982e+03
