# t [s], A [cm^2], U [cm/s], P [cPa], c [cm/s]
1.000000000000000021e-03 2.173120000000000052e-01 1.689209999999999878e-01 1.049644999999999868e+02 2.191989999999999782e+03
2.000000000000000042e-03 2.172629999999999839e-01 1.574139000000000177e+00 1.018638499999999993e+02 2.191635000000000218e+03
3.000000000000000062e-03 2.171175000000000188e-01 3.403360500000000233e+00 9.734539999999999793e+01 2.190630000000000109e+03
4.000000000000000083e-03 2.169125000000000081e-01 5.501648499999999942e+00 9.212014999999999532e+01 2.189234999999999673e+03
5.000000000000000104e-03 2.166865000000000041e-01 7.795139999999999958e+00 8.714605000000000246e+01 2.187720000000000255e+03
6.000000000000000125e-03 2.164665000000000061e-01 1.012492999999999910e+01 8.290404999999999802e+01 2.186260000000000218e+03
7.000000000000000146e-03 2.162594999999999934e-01 1.225869499999999945e+01 7.927819999999999823e+01 2.184909999999999854e+03
8.000000000000000167e-03 2.160690000000000111e-01 1.406540500000000016e+01 7.602070000000000505e+01 2.183690000000000055e+03
9.000000000000001055e-03 2.158999999999999808e-01 1.555935000000000024e+01 7.315149999999999864e+01 2.182630000000000109e+03
1.000000000000000194e-02 2.157574999999999910e-01 1.678079999999999927e+01 7.077405000000000257e+01 2.181739999999999782e+03
1.099999999999999936e-02 2.156414999999999860e-01 1.775455000000000183e+01 6.890399999999999636e+01 2.181029999999999745e+03
1.200000000000000025e-02 2.155500000000000194e-01 1.850029999999999930e+01 6.749495000000000289e+01 2.180480000000000018e+03
1.300000000000000114e-02 2.154800000000000049e-01 1.902250000000000085e+01 6.643654999999999688e+01 2.180059999999999945e+03
1.400000000000000203e-02 2.154244999999999910e-01 1.932385000000000019e+01 6.557404999999999973e+01 2.179739999999999782e+03
1.499999999999999944e-02 2.153800000000000159e-01 1.945759999999999934e+01 6.485075000000000500e+01 2.179485000000000127e+03
1.600000000000000033e-02 2.153505000000000003e-01 1.955185000000000173e+01 6.444059999999998922e+01 2.179324999999999818e+03
1.700000000000000122e-02 2.153454999999999953e-01 1.976509999999999678e+01 6.469464999999999577e+01 2.179305000000000291e+03
1.800000000000000211e-02 2.153754999999999975e-01 2.020429999999999993e+01 6.591730000000001155e+01 2.179494999999999891e+03
1.900000000000000300e-02 2.154425000000000090e-01 2.086634999999999707e+01 6.814254999999999995e+01 2.179909999999999854e+03
2.000000000000000042e-02 2.155394999999999950e-01 2.163954999999999984e+01 7.106050000000000466e+01 2.180519999999999982e+03
2.100000000000000130e-02 2.156500000000000083e-01 2.235524999999999807e+01 7.412080000000000268e+01 2.181220000000000255e+03
2.200000000000000219e-02 2.157560000000000033e-01 2.285705000000000098e+01 7.673890000000000100e+01 2.181900000000000091e+03
2.299999999999999961e-02 2.158404999999999907e-01 2.305550000000000210e+01 7.849809999999999377e+01 2.182460000000000036e+03
2.400000000000000050e-02 2.158955000000000179e-01 2.294894999999999996e+01 7.926465000000000316e+01 2.182829999999999927e+03
2.500000000000000139e-02 2.159205000000000152e-01 2.260895000000000010e+01 7.918600000000000705e+01 2.183014999999999873e+03
2.600000000000000228e-02 2.159225000000000172e-01 2.214170000000000016e+01 7.858929999999999438e+01 2.183050000000000182e+03
2.700000000000000316e-02 2.159125000000000072e-01 2.164290000000000092e+01 7.783305000000000007e+01 2.182994999999999891e+03
2.800000000000000058e-02 2.158980000000000066e-01 2.116539999999999822e+01 7.717404999999999404e+01 2.182904999999999745e+03
2.900000000000000147e-02 2.158844999999999792e-01 2.070765000000000100e+01 7.669454999999999245e+01 2.182820000000000164e+03
3.000000000000000236e-02 2.158714999999999939e-01 2.022475000000000023e+01 7.630570000000000164e+01 2.182734999999999673e+03
3.099999999999999978e-02 2.158545000000000047e-01 1.965439999999999898e+01 7.581434999999999036e+01 2.182630000000000109e+03
3.200000000000000067e-02 2.158285000000000065e-01 1.894819999999999993e+01 7.502244999999999209e+01 2.182470000000000255e+03
3.300000000000000155e-02 2.157879999999999798e-01 1.809680000000000177e+01 7.382340000000000657e+01 2.182224999999999909e+03
3.400000000000000244e-02 2.157344999999999957e-01 1.714229999999999876e+01 7.226370000000000005e+01 2.181900000000000091e+03
3.500000000000000333e-02 2.156730000000000036e-01 1.617215000000000202e+01 7.054904999999999404e+01 2.181519999999999982e+03
3.600000000000000422e-02 2.156119999999999981e-01 1.529744999999999955e+01 6.899379999999999313e+01 2.181130000000000109e+03
3.700000000000000511e-02 2.155634999999999912e-01 1.462334999999999852e+01 6.793170000000000641e+01 2.180815000000000055e+03
3.799999999999999906e-02 2.155364999999999920e-01 1.422109999999999985e+01 6.762010000000000787e+01 2.180635000000000218e+03
3.899999999999999994e-02 2.155385000000000217e-01 1.411080000000000112e+01 6.816830000000000211e+01 2.180619999999999891e+03
4.000000000000000083e-02 2.155684999999999962e-01 1.425825000000000031e+01 6.951009999999999422e+01 2.180795000000000073e+03
4.100000000000000172e-02 2.156239999999999823e-01 1.458554999999999957e+01 7.142305000000000348e+01 2.181130000000000109e+03
4.200000000000000261e-02 2.156945000000000112e-01 1.498954999999999949e+01 7.358365000000000578e+01 2.181564999999999600e+03
4.300000000000000350e-02 2.157695000000000030e-01 1.536319999999999908e+01 7.563804999999999268e+01 2.182034999999999854e+03
4.400000000000000439e-02 2.158370000000000011e-01 1.561420000000000030e+01 7.727020000000000266e+01 2.182460000000000036e+03
4.499999999999999833e-02 2.158875000000000099e-01 1.567689999999999984e+01 7.825145000000000550e+01 2.182784999999999854e+03
4.599999999999999922e-02 2.159145000000000092e-01 1.551704999999999934e+01 7.846459999999999013e+01 2.182970000000000255e+03
4.700000000000000011e-02 2.159139999999999948e-01 1.512979999999999947e+01 7.790125000000000455e+01 2.182980000000000018e+03
4.800000000000000100e-02 2.158865000000000089e-01 1.453209999999999980e+01 7.663890000000000668e+01 2.182820000000000164e+03
4.900000000000000189e-02 2.158349999999999991e-01 1.375359999999999872e+01 7.480715000000000714e+01 2.182505000000000109e+03
5.000000000000000278e-02 2.157634999999999970e-01 1.282829999999999870e+01 7.255254999999999654e+01 2.182059999999999945e+03
5.100000000000000366e-02 2.156755000000000200e-01 1.178872000000000142e+01 7.001165000000000305e+01 2.181514999999999873e+03
5.200000000000000455e-02 2.155759999999999899e-01 1.066296999999999962e+01 6.729609999999999559e+01 2.180890000000000327e+03
5.300000000000000544e-02 2.154689999999999939e-01 9.475559999999999761e+00 6.448959999999999582e+01 2.180220000000000255e+03
5.399999999999999939e-02 2.153579999999999939e-01 8.249470000000000525e+00 6.165500000000000114e+01 2.179515000000000327e+03
5.500000000000000028e-02 2.152445000000000053e-01 7.009494999999999365e+00 5.884620000000000317e+01 2.178795000000000073e+03
5.600000000000000117e-02 2.151309999999999889e-01 5.784734999999999516e+00 5.612050000000000693e+01 2.178079999999999927e+03
5.700000000000000205e-02 2.150215000000000043e-01 4.609910000000000174e+00 5.354749999999999943e+01 2.177385000000000218e+03
5.800000000000000294e-02 2.149185000000000123e-01 3.525000000000000355e+00 5.121244999999999692e+01 2.176730000000000018e+03
5.900000000000000383e-02 2.148265000000000036e-01 2.573237999999999914e+00 4.921380000000000621e+01 2.176135000000000218e+03
6.000000000000000472e-02 2.147479999999999944e-01 1.797948099999999938e+00 4.765540000000000020e+01 2.175630000000000109e+03
6.099999999999999867e-02 2.146885000000000043e-01 1.238832799999999956e+00 4.663640000000000185e+01 2.175239999999999782e+03
6.199999999999999956e-02 2.146509999999999807e-01 9.284264999999999324e-01 4.623980000000000246e+01 2.174984999999999673e+03
6.300000000000000044e-02 2.146379999999999955e-01 8.892470000000000097e-01 4.652315000000000111e+01 2.174885000000000218e+03
6.400000000000000133e-02 2.146524999999999961e-01 1.131979000000000068e+00 4.751234999999999786e+01 2.174954999999999927e+03
6.500000000000000222e-02 2.146945000000000103e-01 1.654882500000000034e+00 4.919865000000000066e+01 2.175199999999999818e+03
6.600000000000000311e-02 2.147640000000000104e-01 2.444296999999999720e+00 5.154025000000000034e+01 2.175619999999999891e+03
6.700000000000000400e-02 2.148585000000000078e-01 3.476034999999999986e+00 5.446650000000000347e+01 2.176194999999999709e+03
6.800000000000000488e-02 2.149754999999999860e-01 4.717494999999999550e+00 5.788445000000000107e+01 2.176920000000000073e+03
6.900000000000000577e-02 2.151115000000000110e-01 6.130135000000000112e+00 6.168670000000000186e+01 2.177764999999999873e+03
7.000000000000000666e-02 2.152629999999999821e-01 7.672195000000000320e+00 6.575999999999999091e+01 2.178710000000000036e+03
7.100000000000000755e-02 2.154250000000000054e-01 9.301470000000000127e+00 6.999330000000000496e+01 2.179730000000000018e+03
7.200000000000000844e-02 2.155934999999999935e-01 1.097773000000000110e+01 7.428524999999999068e+01 2.180795000000000073e+03
7.300000000000000933e-02 2.157650000000000123e-01 1.266497500000000187e+01 7.855010000000000048e+01 2.181885000000000218e+03
7.399999999999999634e-02 2.159369999999999901e-01 1.433300000000000018e+01 8.272200000000000841e+01 2.182974999999999909e+03
7.499999999999999722e-02 2.161060000000000203e-01 1.595834999999999937e+01 8.675685000000000002e+01 2.184055000000000291e+03
7.599999999999999811e-02 2.162709999999999910e-01 1.752465000000000117e+01 9.063230000000000075e+01 2.185114999999999782e+03
7.699999999999999900e-02 2.164304999999999979e-01 1.902210000000000178e+01 9.434520000000000550e+01 2.186140000000000327e+03
7.799999999999999989e-02 2.165854999999999864e-01 2.044634999999999891e+01 9.790704999999999814e+01 2.187135000000000218e+03
7.900000000000000078e-02 2.167354999999999976e-01 2.179739999999999966e+01 1.013401000000000067e+02 2.188099999999999909e+03
8.000000000000000167e-02 2.168815000000000048e-01 2.307779999999999987e+01 1.046696500000000043e+02 2.189039999999999964e+03
8.100000000000000255e-02 2.170230000000000214e-01 2.429149999999999920e+01 1.079224999999999994e+02 2.189960000000000036e+03
8.200000000000000344e-02 2.171625000000000083e-01 2.544249999999999901e+01 1.111185000000000116e+02 2.190859999999999673e+03
8.300000000000000433e-02 2.172999999999999932e-01 2.653409999999999869e+01 1.142729999999999961e+02 2.191750000000000000e+03
8.400000000000000522e-02 2.174349999999999894e-01 2.756840000000000046e+01 1.173924999999999983e+02 2.192625000000000000e+03
8.500000000000000611e-02 2.175690000000000124e-01 2.854619999999999891e+01 1.204745000000000061e+02 2.193489999999999782e+03
8.600000000000000699e-02 2.177010000000000056e-01 2.946685000000000088e+01 1.235114999999999839e+02 2.194350000000000364e+03
8.700000000000000788e-02 2.178309999999999969e-01 3.032844999999999658e+01 1.264904999999999973e+02 2.195194999999999709e+03
8.800000000000000877e-02 2.179584999999999995e-01 3.112839999999999918e+01 1.293934999999999889e+02 2.196019999999999982e+03
8.899999999999999578e-02 2.180825000000000125e-01 3.186274999999999835e+01 1.322015000000000100e+02 2.196824999999999818e+03
8.999999999999999667e-02 2.182020000000000071e-01 3.252709999999999724e+01 1.348930000000000007e+02 2.197605000000000018e+03
9.099999999999999756e-02 2.183164999999999967e-01 3.311639999999999873e+01 1.374465000000000146e+02 2.198355000000000018e+03
9.199999999999999845e-02 2.184254999999999947e-01 3.362500000000000000e+01 1.398394999999999868e+02 2.199059999999999945e+03
9.299999999999999933e-02 2.185274999999999856e-01 3.404680000000000462e+01 1.420490000000000066e+02 2.199730000000000018e+03
9.400000000000000022e-02 2.186214999999999964e-01 3.437584999999999980e+01 1.440545000000000186e+02 2.200345000000000255e+03
9.500000000000000111e-02 2.187074999999999991e-01 3.460625000000000284e+01 1.458340000000000032e+02 2.200904999999999745e+03
9.600000000000000200e-02 2.187830000000000052e-01 3.473300000000000409e+01 1.473704999999999927e+02 2.201404999999999745e+03
9.700000000000000289e-02 2.188495000000000024e-01 3.475230000000000530e+01 1.486490000000000009e+02 2.201845000000000255e+03
9.800000000000000377e-02 2.189050000000000162e-01 3.466209999999999525e+01 1.496614999999999895e+02 2.202210000000000036e+03
9.900000000000000466e-02 2.189495000000000191e-01 3.446264999999999645e+01 1.504035000000000082e+02 2.202510000000000218e+03
1.000000000000000056e-01 2.189829999999999832e-01 3.415659999999999741e+01 1.508799999999999955e+02 2.202739999999999782e+03
1.010000000000000064e-01 2.190055000000000196e-01 3.374925000000000352e+01 1.511014999999999873e+02 2.202894999999999982e+03
1.020000000000000073e-01 2.190185000000000048e-01 3.324835000000000207e+01 1.510869999999999891e+02 2.202985000000000127e+03
1.030000000000000082e-01 2.190214999999999801e-01 3.266414999999999935e+01 1.508600000000000136e+02 2.203014999999999873e+03
1.040000000000000091e-01 2.190159999999999885e-01 3.200854999999999961e+01 1.504505000000000052e+02 2.202985000000000127e+03
1.050000000000000100e-01 2.190030000000000032e-01 3.129465000000000074e+01 1.498894999999999982e+02 2.202904999999999745e+03
1.059999999999999970e-01 2.189834999999999976e-01 3.053644999999999854e+01 1.492129999999999939e+02 2.202784999999999854e+03
1.069999999999999979e-01 2.189590000000000147e-01 2.974794999999999945e+01 1.484524999999999864e+02 2.202635000000000218e+03
1.079999999999999988e-01 2.189309999999999867e-01 2.894259999999999877e+01 1.476399999999999864e+02 2.202454999999999927e+03
1.089999999999999997e-01 2.189010000000000122e-01 2.813295000000000101e+01 1.468054999999999950e+02 2.202264999999999873e+03
1.100000000000000006e-01 2.188694999999999946e-01 2.733014999999999972e+01 1.459719999999999800e+02 2.202065000000000055e+03
1.110000000000000014e-01 2.188375000000000181e-01 2.654335000000000022e+01 1.451589999999999918e+02 2.201860000000000127e+03
1.120000000000000023e-01 2.188060000000000005e-01 2.578000000000000114e+01 1.443799999999999955e+02 2.201649999999999636e+03
1.130000000000000032e-01 2.187755000000000116e-01 2.504514999999999958e+01 1.436440000000000055e+02 2.201454999999999927e+03
1.140000000000000041e-01 2.187465000000000104e-01 2.434134999999999849e+01 1.429535000000000196e+02 2.201265000000000327e+03
1.150000000000000050e-01 2.187184999999999824e-01 2.366924999999999812e+01 1.423040000000000020e+02 2.201079999999999927e+03
1.160000000000000059e-01 2.186914999999999831e-01 2.302694999999999936e+01 1.416875000000000000e+02 2.200904999999999745e+03
1.170000000000000068e-01 2.186655000000000126e-01 2.241080000000000183e+01 1.410924999999999727e+02 2.200735000000000127e+03
1.180000000000000077e-01 2.186400000000000010e-01 2.181544999999999845e+01 1.405020000000000095e+02 2.200565000000000055e+03
1.190000000000000085e-01 2.186139999999999750e-01 2.123414999999999964e+01 1.398969999999999914e+02 2.200400000000000091e+03
1.200000000000000094e-01 2.185880000000000045e-01 2.065954999999999941e+01 1.392580000000000098e+02 2.200220000000000255e+03
1.209999999999999964e-01 2.185594999999999899e-01 2.008380000000000010e+01 1.385634999999999764e+02 2.200039999999999964e+03
1.219999999999999973e-01 2.185285000000000144e-01 1.949934999999999974e+01 1.377964999999999804e+02 2.199840000000000146e+03
1.229999999999999982e-01 2.184955000000000092e-01 1.889920000000000044e+01 1.369390000000000214e+02 2.199619999999999891e+03
1.239999999999999991e-01 2.184579999999999855e-01 1.827765000000000128e+01 1.359780000000000086e+02 2.199385000000000218e+03
1.250000000000000000e-01 2.184165000000000134e-01 1.763044999999999973e+01 1.349060000000000059e+02 2.199114999999999782e+03
1.260000000000000009e-01 2.183705000000000229e-01 1.695534999999999926e+01 1.337199999999999989e+02 2.198820000000000164e+03
1.270000000000000018e-01 2.183194999999999997e-01 1.625205000000000055e+01 1.324220000000000255e+02 2.198489999999999782e+03
1.280000000000000027e-01 2.182649999999999868e-01 1.552260000000000062e+01 1.310210000000000150e+02 2.198139999999999873e+03
1.290000000000000036e-01 2.182060000000000111e-01 1.477115000000000045e+01 1.295320000000000107e+02 2.197765000000000327e+03
1.300000000000000044e-01 2.181440000000000046e-01 1.400394999999999968e+01 1.279735000000000014e+02 2.197369999999999891e+03
1.310000000000000053e-01 2.180794999999999817e-01 1.322895000000000110e+01 1.263689999999999998e+02 2.196954999999999927e+03
1.320000000000000062e-01 2.180134999999999990e-01 1.245555000000000057e+01 1.247464999999999975e+02 2.196525000000000091e+03
1.330000000000000071e-01 2.179464999999999875e-01 1.169403000000000148e+01 1.231330000000000098e+02 2.196090000000000146e+03
1.340000000000000080e-01 2.178800000000000181e-01 1.095500000000000007e+01 1.215589999999999975e+02 2.195664999999999964e+03
1.350000000000000089e-01 2.178154999999999952e-01 1.024895499999999871e+01 1.200519999999999925e+02 2.195250000000000000e+03
1.360000000000000098e-01 2.177530000000000021e-01 9.585670000000000357e+00 1.186370000000000005e+02 2.194845000000000255e+03
1.370000000000000107e-01 2.176949999999999996e-01 8.973845000000000738e+00 1.173360000000000127e+02 2.194465000000000146e+03
1.380000000000000115e-01 2.176410000000000011e-01 8.420609999999999928e+00 1.161670000000000016e+02 2.194114999999999782e+03
1.390000000000000124e-01 2.175929999999999809e-01 7.931339999999999613e+00 1.151415000000000077e+02 2.193800000000000182e+03
1.400000000000000133e-01 2.175499999999999934e-01 7.509560000000000457e+00 1.142660000000000053e+02 2.193515000000000327e+03
1.410000000000000142e-01 2.175124999999999975e-01 7.156810000000000116e+00 1.135434999999999945e+02 2.193269999999999982e+03
1.420000000000000151e-01 2.174820000000000086e-01 6.872770000000000046e+00 1.129699999999999989e+02 2.193069999999999709e+03
1.430000000000000160e-01 2.174564999999999970e-01 6.655395000000000394e+00 1.125390000000000015e+02 2.192900000000000091e+03
1.440000000000000169e-01 2.174369999999999914e-01 6.501154999999999795e+00 1.122404999999999973e+02 2.192769999999999982e+03
1.450000000000000178e-01 2.174229999999999774e-01 6.405224999999999724e+00 1.120604999999999905e+02 2.192670000000000073e+03
1.459999999999999909e-01 2.174134999999999818e-01 6.361814999999999998e+00 1.119844999999999970e+02 2.192605000000000018e+03
1.469999999999999918e-01 2.174085000000000045e-01 6.364404999999999646e+00 1.119964999999999975e+02 2.192565000000000055e+03
1.479999999999999927e-01 2.174065000000000025e-01 6.406015000000000015e+00 1.120805000000000007e+02 2.192554999999999836e+03
1.489999999999999936e-01 2.174079999999999901e-01 6.479480000000000572e+00 1.122199999999999989e+02 2.192555000000000291e+03
1.499999999999999944e-01 2.174114999999999798e-01 6.577650000000000219e+00 1.123984999999999985e+02 2.192574999999999818e+03
1.509999999999999953e-01 2.174169999999999991e-01 6.693659999999999499e+00 1.126030000000000086e+02 2.192605000000000018e+03
1.519999999999999962e-01 2.174234999999999918e-01 6.821069999999999744e+00 1.128190000000000026e+02 2.192644999999999982e+03
1.529999999999999971e-01 2.174309999999999854e-01 6.954060000000000130e+00 1.130370000000000061e+02 2.192689999999999600e+03
1.539999999999999980e-01 2.174379999999999924e-01 7.087564999999999671e+00 1.132464999999999975e+02 2.192735000000000127e+03
1.549999999999999989e-01 2.174460000000000004e-01 7.217375000000000540e+00 1.134405000000000001e+02 2.192784999999999854e+03
1.559999999999999998e-01 2.174530000000000074e-01 7.340199999999999392e+00 1.136140000000000043e+02 2.192824999999999818e+03
1.570000000000000007e-01 2.174590000000000134e-01 7.453699999999999548e+00 1.137650000000000006e+02 2.192869999999999891e+03
1.580000000000000016e-01 2.174645000000000050e-01 7.556475000000000719e+00 1.138924999999999983e+02 2.192904999999999745e+03
1.590000000000000024e-01 2.174694999999999823e-01 7.648004999999999498e+00 1.139964999999999975e+02 2.192934999999999945e+03
