# t [s], A [cm^2], U [cm/s], P [cPa], c [cm/s]
1.000000000000000021e-03 1.384674999999999934e-01 3.685565000000000091e-01 1.002153500000000008e+02 1.775844999999999800e+03
2.000000000000000042e-03 1.384384999999999921e-01 2.044282500000000002e+00 9.704824999999999591e+01 1.775554999999999836e+03
3.000000000000000062e-03 1.383344999999999991e-01 4.069523499999999849e+00 9.293125000000000568e+01 1.774559999999999945e+03
4.000000000000000083e-03 1.381819999999999993e-01 6.299369500000000066e+00 8.841925000000000523e+01 1.773115000000000009e+03
5.000000000000000104e-03 1.380069999999999908e-01 8.676520000000000010e+00 8.425200000000000955e+01 1.771484999999999900e+03
6.000000000000000125e-03 1.378300000000000081e-01 1.107961500000000044e+01 8.077029999999999177e+01 1.769839999999999918e+03
7.000000000000000146e-03 1.376600000000000046e-01 1.333828500000000084e+01 7.789079999999999870e+01 1.768285000000000082e+03
8.000000000000000167e-03 1.375004999999999977e-01 1.533208999999999911e+01 7.537915000000000987e+01 1.766845000000000027e+03
9.000000000000001055e-03 1.373539999999999761e-01 1.704690000000000083e+01 7.314144999999999186e+01 1.765539999999999964e+03
1.000000000000000194e-02 1.372229999999999839e-01 1.851679999999999993e+01 7.121954999999999814e+01 1.764394999999999982e+03
1.099999999999999936e-02 1.371104999999999963e-01 1.976374999999999815e+01 6.963429999999999609e+01 1.763414999999999964e+03
1.200000000000000025e-02 1.370149999999999979e-01 2.079895000000000138e+01 6.835159999999999059e+01 1.762590000000000146e+03
1.300000000000000114e-02 1.369360000000000022e-01 2.163615000000000066e+01 6.732574999999999932e+01 1.761920000000000073e+03
1.400000000000000203e-02 1.368709999999999927e-01 2.228699999999999903e+01 6.650584999999999525e+01 1.761375000000000000e+03
1.499999999999999944e-02 1.368175000000000086e-01 2.276234999999999786e+01 6.583129999999999882e+01 1.760929999999999836e+03
1.600000000000000033e-02 1.367734999999999923e-01 2.309125000000000227e+01 6.527025000000000432e+01 1.760574999999999818e+03
1.700000000000000122e-02 1.367389999999999994e-01 2.333859999999999957e+01 6.487819999999999254e+01 1.760305000000000064e+03
1.800000000000000211e-02 1.367165000000000186e-01 2.359769999999999968e+01 6.480889999999999418e+01 1.760134999999999991e+03
1.900000000000000300e-02 1.367114999999999858e-01 2.395724999999999838e+01 6.524994999999999834e+01 1.760110000000000127e+03
2.000000000000000042e-02 1.367275000000000018e-01 2.446349999999999980e+01 6.631964999999999577e+01 1.760259999999999991e+03
2.100000000000000130e-02 1.367659999999999987e-01 2.509955000000000069e+01 6.798675000000000068e+01 1.760599999999999909e+03
2.200000000000000219e-02 1.368225000000000136e-01 2.578969999999999985e+01 7.005465000000000941e+01 1.761099999999999909e+03
2.299999999999999961e-02 1.368914999999999993e-01 2.642515000000000214e+01 7.221110000000000184e+01 1.761704999999999927e+03
2.400000000000000050e-02 1.369619999999999727e-01 2.689775000000000205e+01 7.411745000000000516e+01 1.762335000000000036e+03
2.500000000000000139e-02 1.370260000000000089e-01 2.713054999999999950e+01 7.550100000000000477e+01 1.762909999999999854e+03
2.600000000000000228e-02 1.370750000000000024e-01 2.709534999999999982e+01 7.622075000000000955e+01 1.763355000000000018e+03
2.700000000000000316e-02 1.371060000000000056e-01 2.681465000000000032e+01 7.628919999999999391e+01 1.763650000000000091e+03
2.800000000000000058e-02 1.371185000000000043e-01 2.634839999999999804e+01 7.584850000000000136e+01 1.763779999999999973e+03
2.900000000000000147e-02 1.371169999999999889e-01 2.577315000000000111e+01 7.511404999999999177e+01 1.763784999999999854e+03
3.000000000000000236e-02 1.371060000000000056e-01 2.515944999999999965e+01 7.430625000000000568e+01 1.763704999999999927e+03
3.099999999999999978e-02 1.370914999999999773e-01 2.455525000000000091e+01 7.359219999999999118e+01 1.763585000000000036e+03
3.200000000000000067e-02 1.370764999999999900e-01 2.397905000000000086e+01 7.305310000000000059e+01 1.763465000000000146e+03
3.300000000000000155e-02 1.370640000000000192e-01 2.342269999999999897e+01 7.268164999999999054e+01 1.763355000000000018e+03
3.400000000000000244e-02 1.370529999999999804e-01 2.286115000000000208e+01 7.240460000000000207e+01 1.763259999999999991e+03
3.500000000000000333e-02 1.370429999999999982e-01 2.226590000000000202e+01 7.212010000000000787e+01 1.763175000000000182e+03
3.600000000000000422e-02 1.370310000000000139e-01 2.161739999999999995e+01 7.173795000000001210e+01 1.763075000000000045e+03
3.700000000000000511e-02 1.370149999999999979e-01 2.091450000000000031e+01 7.121199999999998909e+01 1.762940000000000055e+03
3.799999999999999906e-02 1.369950000000000057e-01 2.017804999999999893e+01 7.055809999999999604e+01 1.762775000000000091e+03
3.899999999999999994e-02 1.369724999999999970e-01 1.944850000000000279e+01 6.985390000000001010e+01 1.762579999999999927e+03
4.000000000000000083e-02 1.369495000000000018e-01 1.877810000000000201e+01 6.922185000000000343e+01 1.762375000000000000e+03
4.100000000000000172e-02 1.369295000000000095e-01 1.822039999999999793e+01 6.880079999999999529e+01 1.762199999999999818e+03
4.200000000000000261e-02 1.369170000000000109e-01 1.781824999999999903e+01 6.871260000000000900e+01 1.762085000000000036e+03
4.300000000000000350e-02 1.369155000000000233e-01 1.759489999999999910e+01 6.903289999999999793e+01 1.762065000000000055e+03
4.400000000000000439e-02 1.369265000000000065e-01 1.754860000000000042e+01 6.977254999999999541e+01 1.762154999999999973e+03
4.499999999999999833e-02 1.369515000000000038e-01 1.765225000000000222e+01 7.087255000000000393e+01 1.762355000000000018e+03
4.599999999999999922e-02 1.369869999999999977e-01 1.785775000000000290e+01 7.221295000000000641e+01 1.762660000000000082e+03
4.700000000000000011e-02 1.370304999999999995e-01 1.810329999999999728e+01 7.363249999999999318e+01 1.763030000000000200e+03
4.800000000000000100e-02 1.370764999999999900e-01 1.832209999999999894e+01 7.495335000000000036e+01 1.763425000000000182e+03
4.900000000000000189e-02 1.371199999999999919e-01 1.845100000000000051e+01 7.600694999999998913e+01 1.763804999999999836e+03
5.000000000000000278e-02 1.371549999999999991e-01 1.843734999999999857e+01 7.665500000000000114e+01 1.764115000000000009e+03
5.100000000000000366e-02 1.371784999999999810e-01 1.824380000000000024e+01 7.680355000000000132e+01 1.764319999999999936e+03
5.200000000000000455e-02 1.371860000000000024e-01 1.784989999999999810e+01 7.640944999999999254e+01 1.764389999999999873e+03
5.300000000000000544e-02 1.371755000000000058e-01 1.725185000000000102e+01 7.547819999999998686e+01 1.764309999999999945e+03
5.399999999999999939e-02 1.371475000000000055e-01 1.646024999999999849e+01 7.405649999999999977e+01 1.764069999999999936e+03
5.500000000000000028e-02 1.371020000000000016e-01 1.549690000000000012e+01 7.222105000000000530e+01 1.763684999999999945e+03
5.600000000000000117e-02 1.370414999999999828e-01 1.439144999999999897e+01 7.006614999999999327e+01 1.763159999999999854e+03
5.700000000000000205e-02 1.369684999999999930e-01 1.317777500000000046e+01 6.769294999999999618e+01 1.762534999999999854e+03
5.800000000000000294e-02 1.368860000000000077e-01 1.189219999999999899e+01 6.520109999999999673e+01 1.761820000000000164e+03
5.900000000000000383e-02 1.367979999999999752e-01 1.057154000000000060e+01 6.268359999999999843e+01 1.761049999999999955e+03
6.000000000000000472e-02 1.367059999999999942e-01 9.252349999999999852e+00 6.022490000000000521e+01 1.760255000000000109e+03
6.099999999999999867e-02 1.366144999999999998e-01 7.970744999999999969e+00 5.790104999999999791e+01 1.759450000000000045e+03
6.199999999999999956e-02 1.365255000000000218e-01 6.762344999999999828e+00 5.578125000000000000e+01 1.758675000000000182e+03
6.300000000000000044e-02 1.364424999999999943e-01 5.661999999999999922e+00 5.392960000000000065e+01 1.757950000000000045e+03
6.400000000000000133e-02 1.363685000000000036e-01 4.703859999999999708e+00 5.240670000000000073e+01 1.757299999999999955e+03
6.500000000000000222e-02 1.363050000000000095e-01 3.920495000000000285e+00 5.126930000000000121e+01 1.756735000000000127e+03
6.600000000000000311e-02 1.362550000000000150e-01 3.342055000000000220e+00 5.057014999999999816e+01 1.756285000000000082e+03
6.700000000000000400e-02 1.362200000000000077e-01 2.995084999999999997e+00 5.035535000000000139e+01 1.755974999999999909e+03
6.800000000000000488e-02 1.362030000000000185e-01 2.901245000000000296e+00 5.066214999999999691e+01 1.755809999999999945e+03
6.900000000000000577e-02 1.362045000000000061e-01 3.076025000000000009e+00 5.151615000000000322e+01 1.755809999999999945e+03
7.000000000000000666e-02 1.362265000000000004e-01 3.527795000000000236e+00 5.292855000000000132e+01 1.755984999999999900e+03
7.100000000000000755e-02 1.362690000000000012e-01 4.257130000000000081e+00 5.489480000000000359e+01 1.756340000000000146e+03
7.200000000000000844e-02 1.363330000000000097e-01 5.256660000000000110e+00 5.739369999999999550e+01 1.756875000000000000e+03
7.300000000000000933e-02 1.364164999999999961e-01 6.511330000000000062e+00 6.038824999999999932e+01 1.757590000000000146e+03
7.399999999999999634e-02 1.365200000000000025e-01 7.999150000000000205e+00 6.382725000000000648e+01 1.758474999999999909e+03
7.499999999999999722e-02 1.366410000000000124e-01 9.692294999999999661e+00 6.764799999999999613e+01 1.759514999999999873e+03
7.599999999999999811e-02 1.367780000000000107e-01 1.155837999999999965e+01 7.177959999999998786e+01 1.760695000000000164e+03
7.699999999999999900e-02 1.369275000000000075e-01 1.356201000000000079e+01 7.614660000000000650e+01 1.762000000000000000e+03
7.799999999999999989e-02 1.370885000000000020e-01 1.566625000000000156e+01 8.067239999999999611e+01 1.763400000000000091e+03
7.900000000000000078e-02 1.372574999999999767e-01 1.783385000000000176e+01 8.528284999999999627e+01 1.764880000000000109e+03
8.000000000000000167e-02 1.374319999999999986e-01 2.002894999999999825e+01 8.990905000000000769e+01 1.766404999999999973e+03
8.100000000000000255e-02 1.376090000000000091e-01 2.221794999999999831e+01 9.448924999999999841e+01 1.767965000000000146e+03
8.200000000000000344e-02 1.377864999999999784e-01 2.437059999999999960e+01 9.897194999999999254e+01 1.769534999999999854e+03
8.300000000000000433e-02 1.379630000000000023e-01 2.646079999999999899e+01 1.033152499999999918e+02 1.771090000000000146e+03
8.400000000000000522e-02 1.381355000000000222e-01 2.846734999999999971e+01 1.074900499999999965e+02 1.772630000000000109e+03
8.500000000000000611e-02 1.383039999999999825e-01 3.037409999999999854e+01 1.114774999999999920e+02 1.774130000000000109e+03
8.600000000000000699e-02 1.384664999999999924e-01 3.217020000000000124e+01 1.152715000000000032e+02 1.775579999999999927e+03
8.700000000000000788e-02 1.386229999999999962e-01 3.385000000000000142e+01 1.188750000000000000e+02 1.776985000000000127e+03
8.800000000000000877e-02 1.387740000000000085e-01 3.541240000000000521e+01 1.223010000000000019e+02 1.778340000000000146e+03
8.899999999999999578e-02 1.389185000000000003e-01 3.686059999999999803e+01 1.255695000000000050e+02 1.779644999999999982e+03
8.999999999999999667e-02 1.390569999999999862e-01 3.820109999999999673e+01 1.287034999999999911e+02 1.780900000000000091e+03
9.099999999999999756e-02 1.391910000000000092e-01 3.944270000000000209e+01 1.317319999999999993e+02 1.782110000000000127e+03
9.199999999999999845e-02 1.393214999999999870e-01 4.059575000000000244e+01 1.346820000000000164e+02 1.783289999999999964e+03
9.299999999999999933e-02 1.394485000000000030e-01 4.167109999999999559e+01 1.375785000000000196e+02 1.784434999999999945e+03
9.400000000000000022e-02 1.395724999999999882e-01 4.267900000000000205e+01 1.404435000000000002e+02 1.785569999999999936e+03
9.500000000000000111e-02 1.396950000000000136e-01 4.362870000000000203e+01 1.432944999999999993e+02 1.786679999999999836e+03
9.600000000000000200e-02 1.398165000000000102e-01 4.452740000000000009e+01 1.461410000000000196e+02 1.787784999999999854e+03
9.700000000000000289e-02 1.399374999999999925e-01 4.538020000000000209e+01 1.489855000000000018e+02 1.788889999999999873e+03
9.800000000000000377e-02 1.400580000000000158e-01 4.618965000000000032e+01 1.518265000000000100e+02 1.789980000000000018e+03
9.900000000000000466e-02 1.401775000000000104e-01 4.695565000000000566e+01 1.546519999999999868e+02 1.791070000000000164e+03
1.000000000000000056e-01 1.402960000000000040e-01 4.767575000000000074e+01 1.574474999999999909e+02 1.792150000000000091e+03
1.010000000000000064e-01 1.404130000000000100e-01 4.834515000000000384e+01 1.601920000000000073e+02 1.793220000000000027e+03
1.020000000000000073e-01 1.405285000000000006e-01 4.895754999999999768e+01 1.628609999999999900e+02 1.794269999999999982e+03
1.030000000000000082e-01 1.406405000000000016e-01 4.950489999999999924e+01 1.654295000000000186e+02 1.795289999999999964e+03
1.040000000000000091e-01 1.407490000000000130e-01 4.997854999999999848e+01 1.678694999999999879e+02 1.796279999999999973e+03
1.050000000000000100e-01 1.408520000000000050e-01 5.036945000000000050e+01 1.701549999999999727e+02 1.797230000000000018e+03
1.059999999999999970e-01 1.409500000000000197e-01 5.066864999999999952e+01 1.722615000000000123e+02 1.798130000000000109e+03
1.069999999999999979e-01 1.410409999999999997e-01 5.086799999999999500e+01 1.741664999999999850e+02 1.798964999999999918e+03
1.079999999999999988e-01 1.411250000000000004e-01 5.096020000000000039e+01 1.758514999999999873e+02 1.799735000000000127e+03
1.089999999999999997e-01 1.412005000000000066e-01 5.093954999999999700e+01 1.773009999999999877e+02 1.800429999999999836e+03
1.100000000000000006e-01 1.412670000000000037e-01 5.080194999999999794e+01 1.785060000000000002e+02 1.801049999999999955e+03
1.110000000000000014e-01 1.413244999999999918e-01 5.054524999999999579e+01 1.794604999999999961e+02 1.801585000000000036e+03
1.120000000000000023e-01 1.413725000000000120e-01 5.016939999999999600e+01 1.801634999999999991e+02 1.802029999999999973e+03
1.130000000000000032e-01 1.414104999999999945e-01 4.967650000000000432e+01 1.806195000000000164e+02 1.802389999999999873e+03
1.140000000000000041e-01 1.414389999999999814e-01 4.907075000000000387e+01 1.808369999999999891e+02 1.802664999999999964e+03
1.150000000000000050e-01 1.414584999999999870e-01 4.835855000000000103e+01 1.808284999999999911e+02 1.802849999999999909e+03
1.160000000000000059e-01 1.414679999999999827e-01 4.754805000000000348e+01 1.806119999999999948e+02 1.802950000000000045e+03
1.170000000000000068e-01 1.414699999999999847e-01 4.664929999999999666e+01 1.802069999999999936e+02 1.802974999999999909e+03
1.180000000000000077e-01 1.414634999999999920e-01 4.567374999999999829e+01 1.796354999999999791e+02 1.802930000000000064e+03
1.190000000000000085e-01 1.414504999999999790e-01 4.463385000000000247e+01 1.789225000000000136e+02 1.802820000000000164e+03
1.200000000000000094e-01 1.414310000000000012e-01 4.354294999999999760e+01 1.780955000000000155e+02 1.802644999999999982e+03
1.209999999999999964e-01 1.414064999999999905e-01 4.241464999999999463e+01 1.771779999999999973e+02 1.802430000000000064e+03
1.219999999999999973e-01 1.413780000000000037e-01 4.126254999999999740e+01 1.761980000000000075e+02 1.802170000000000073e+03
1.229999999999999982e-01 1.413449999999999984e-01 4.009980000000000189e+01 1.751784999999999854e+02 1.801880000000000109e+03
1.239999999999999991e-01 1.413105000000000055e-01 3.893880000000000052e+01 1.741424999999999841e+02 1.801565000000000055e+03
1.250000000000000000e-01 1.412740000000000107e-01 3.779075000000000273e+01 1.731094999999999970e+02 1.801240000000000009e+03
1.260000000000000009e-01 1.412370000000000014e-01 3.666554999999999609e+01 1.720964999999999918e+02 1.800900000000000091e+03
1.270000000000000018e-01 1.411999999999999922e-01 3.557129999999999370e+01 1.711170000000000186e+02 1.800559999999999945e+03
1.280000000000000027e-01 1.411624999999999963e-01 3.451440000000000197e+01 1.701795000000000186e+02 1.800224999999999909e+03
1.290000000000000036e-01 1.411264999999999881e-01 3.349934999999999974e+01 1.692909999999999968e+02 1.799889999999999873e+03
1.300000000000000044e-01 1.410919999999999952e-01 3.252875000000000227e+01 1.684530000000000030e+02 1.799570000000000164e+03
1.310000000000000053e-01 1.410580000000000167e-01 3.160314999999999941e+01 1.676630000000000109e+02 1.799259999999999991e+03
1.320000000000000062e-01 1.410259999999999847e-01 3.072149999999999892e+01 1.669164999999999850e+02 1.798965000000000146e+03
1.330000000000000071e-01 1.409954999999999958e-01 2.988100000000000023e+01 1.662060000000000173e+02 1.798680000000000064e+03
1.340000000000000080e-01 1.409655000000000213e-01 2.907750000000000057e+01 1.655210000000000150e+02 1.798404999999999973e+03
1.350000000000000089e-01 1.409365000000000201e-01 2.830555000000000021e+01 1.648480000000000132e+02 1.798134999999999991e+03
1.360000000000000098e-01 1.409079999999999777e-01 2.755884999999999962e+01 1.641740000000000066e+02 1.797869999999999891e+03
1.370000000000000107e-01 1.408789999999999765e-01 2.683059999999999690e+01 1.634855000000000018e+02 1.797605000000000018e+03
1.380000000000000115e-01 1.408499999999999752e-01 2.611355000000000004e+01 1.627669999999999959e+02 1.797335000000000036e+03
1.390000000000000124e-01 1.408200000000000007e-01 2.540064999999999884e+01 1.620054999999999836e+02 1.797059999999999945e+03
1.400000000000000133e-01 1.407884999999999831e-01 2.468504999999999683e+01 1.611879999999999882e+02 1.796769999999999982e+03
1.410000000000000142e-01 1.407550000000000190e-01 2.396049999999999969e+01 1.603040000000000020e+02 1.796464999999999918e+03
1.420000000000000151e-01 1.407189999999999830e-01 2.322169999999999845e+01 1.593449999999999989e+02 1.796139999999999873e+03
1.430000000000000160e-01 1.406804999999999861e-01 2.246434999999999960e+01 1.583045000000000186e+02 1.795784999999999854e+03
1.440000000000000169e-01 1.406395000000000006e-01 2.168544999999999945e+01 1.571795000000000186e+02 1.795409999999999854e+03
1.450000000000000178e-01 1.405950000000000255e-01 2.088335000000000008e+01 1.559689999999999941e+02 1.795005000000000109e+03
1.459999999999999909e-01 1.405474999999999919e-01 2.005799999999999983e+01 1.546764999999999759e+02 1.794570000000000164e+03
1.469999999999999918e-01 1.404969999999999830e-01 1.921069999999999922e+01 1.533079999999999927e+02 1.794115000000000009e+03
1.479999999999999927e-01 1.404430000000000123e-01 1.834425000000000239e+01 1.518725000000000023e+02 1.793630000000000109e+03
1.489999999999999936e-01 1.403869999999999840e-01 1.746294999999999931e+01 1.503810000000000002e+02 1.793119999999999891e+03
1.499999999999999944e-01 1.403289999999999815e-01 1.657220000000000226e+01 1.488474999999999966e+02 1.792595000000000027e+03
1.509999999999999953e-01 1.402684999999999904e-01 1.567854999999999954e+01 1.472880000000000109e+02 1.792050000000000182e+03
1.519999999999999962e-01 1.402069999999999983e-01 1.478934999999999889e+01 1.457199999999999989e+02 1.791494999999999891e+03
1.529999999999999971e-01 1.401449999999999918e-01 1.391250000000000142e+01 1.441600000000000250e+02 1.790934999999999945e+03
1.539999999999999980e-01 1.400830000000000131e-01 1.305615000000000059e+01 1.426274999999999977e+02 1.790375000000000000e+03
1.549999999999999989e-01 1.400215000000000209e-01 1.222841500000000003e+01 1.411394999999999982e+02 1.789820000000000164e+03
1.559999999999999998e-01 1.399615000000000165e-01 1.143727499999999964e+01 1.397115000000000009e+02 1.789275000000000091e+03
1.570000000000000007e-01 1.399029999999999996e-01 1.068987500000000068e+01 1.383594999999999970e+02 1.788744999999999891e+03
1.580000000000000016e-01 1.398475000000000135e-01 9.992655000000000953e+00 1.370960000000000036e+02 1.788240000000000009e+03
1.590000000000000024e-01 1.397950000000000026e-01 9.351119999999999877e+00 1.359304999999999950e+02 1.787759999999999991e+03
