# t [s], A [cm^2], U [cm/s], P [cPa], c [cm/s]
1.000000000000000021e-03 5.212419999999999831e-01 3.491050000000002485e-03 1.054929999999999950e+02 1.410454999999999927e+03
2.000000000000000042e-03 5.212339999999999751e-01 4.954999999999955100e-06 1.054755000000000109e+02 1.410449999999999818e+03
3.000000000000000062e-03 5.212710000000000399e-01 6.719440000000001523e-02 1.055349999999999966e+02 1.410470000000000027e+03
4.000000000000000083e-03 5.213200000000000056e-01 1.566496500000000014e-01 1.056374999999999886e+02 1.410505000000000109e+03
5.000000000000000104e-03 5.213210000000000344e-01 1.637405000000000110e-01 1.056444999999999936e+02 1.410505000000000109e+03
6.000000000000000125e-03 5.212795000000000067e-01 9.250349999999998851e-02 1.055219999999999914e+02 1.410485000000000127e+03
7.000000000000000146e-03 5.212329999999999464e-01 8.143000000000011340e-03 1.053259999999999934e+02 1.410434999999999945e+03
8.000000000000000167e-03 5.211790000000000589e-01 -9.607949999999998436e-02 1.050600000000000023e+02 1.410375000000000000e+03
9.000000000000001055e-03 5.210865000000000080e-01 -2.790550000000000530e-01 1.046589999999999918e+02 1.410275000000000091e+03
1.000000000000000194e-02 5.209455000000000613e-01 -5.598400000000001153e-01 1.040749999999999886e+02 1.410134999999999991e+03
1.099999999999999936e-02 5.207524999999999515e-01 -9.361100000000001087e-01 1.032810000000000059e+02 1.409940000000000055e+03
1.200000000000000025e-02 5.204969999999999875e-01 -1.416380000000000194e+00 1.022402999999999906e+02 1.409675000000000182e+03
1.300000000000000114e-02 5.201705000000000911e-01 -1.998675000000000201e+00 1.009235500000000059e+02 1.409329999999999927e+03
1.400000000000000203e-02 5.197879999999999168e-01 -2.636470000000000091e+00 9.935384999999999422e+01 1.408914999999999964e+03
1.499999999999999944e-02 5.193849999999999856e-01 -3.237009999999999721e+00 9.762109999999999843e+01 1.408434999999999945e+03
1.600000000000000033e-02 5.190040000000000209e-01 -3.693979999999999819e+00 9.585734999999999673e+01 1.407940000000000055e+03
1.700000000000000122e-02 5.186744999999999273e-01 -3.926579999999999959e+00 9.418760000000000332e+01 1.407434999999999945e+03
1.800000000000000211e-02 5.184070000000000622e-01 -3.902093500000000326e+00 9.269389999999999930e+01 1.406965000000000146e+03
1.900000000000000300e-02 5.181894999999999696e-01 -3.637259999999999938e+00 9.139824999999999022e+01 1.406534999999999854e+03
2.000000000000000042e-02 5.179985000000000284e-01 -3.184847999999999679e+00 9.026749999999999829e+01 1.406134999999999991e+03
2.100000000000000130e-02 5.178064999999999474e-01 -2.613584999999999603e+00 8.923215000000000430e+01 1.405760000000000218e+03
2.200000000000000219e-02 5.175894999999999246e-01 -1.987854999999999706e+00 8.821150000000000091e+01 1.405380000000000109e+03
2.299999999999999961e-02 5.173349999999999893e-01 -1.352125000000000243e+00 8.713820000000001187e+01 1.404994999999999891e+03
2.400000000000000050e-02 5.170415000000000427e-01 -7.239499999999998714e-01 8.597495000000000687e+01 1.404589999999999918e+03
2.500000000000000139e-02 5.167190000000000394e-01 -9.712999999999993861e-02 8.471915000000001328e+01 1.404159999999999854e+03
2.600000000000000228e-02 5.163815000000000488e-01 5.472650000000003345e-01 8.339525000000000432e+01 1.403714999999999918e+03
2.700000000000000316e-02 5.160420000000000007e-01 1.226850000000000218e+00 8.203919999999999391e+01 1.403255000000000109e+03
2.800000000000000058e-02 5.157074999999999854e-01 1.946185000000000054e+00 8.068139999999999645e+01 1.402800000000000182e+03
2.900000000000000147e-02 5.153765000000000152e-01 2.690475000000000172e+00 7.933410000000000650e+01 1.402339999999999918e+03
3.000000000000000236e-02 5.150410000000000821e-01 3.425520000000000564e+00 7.798510000000000275e+01 1.401875000000000000e+03
3.099999999999999978e-02 5.146850000000000591e-01 4.102965000000000195e+00 7.659900000000000375e+01 1.401404999999999973e+03
3.200000000000000067e-02 5.142934999999999590e-01 4.668919999999999959e+00 7.512494999999999834e+01 1.400914999999999964e+03
3.300000000000000155e-02 5.138509999999999467e-01 5.074184999999999945e+00 7.350810000000001310e+01 1.400389999999999873e+03
3.400000000000000244e-02 5.133484999999999854e-01 5.283519999999999328e+00 7.170300000000000296e+01 1.399819999999999936e+03
3.500000000000000333e-02 5.127850000000000463e-01 5.283010000000000872e+00 6.968569999999999709e+01 1.399199999999999818e+03
3.600000000000000422e-02 5.121695000000000553e-01 5.082869999999999777e+00 6.746229999999999905e+01 1.398525000000000091e+03
3.700000000000000511e-02 5.115174999999999583e-01 4.716054999999999886e+00 6.507155000000000200e+01 1.397805000000000064e+03
3.799999999999999906e-02 5.108530000000000015e-01 4.232974999999999710e+00 6.258154999999999291e+01 1.397055000000000064e+03
3.899999999999999994e-02 5.102014999999999745e-01 3.693705000000000016e+00 6.008194999999999908e+01 1.396299999999999955e+03
4.000000000000000083e-02 5.095895000000000286e-01 3.160115000000000229e+00 5.767324999999999591e+01 1.395565000000000055e+03
4.100000000000000172e-02 5.090394999999999781e-01 2.688880000000000159e+00 5.545565000000000566e+01 1.394869999999999891e+03
4.200000000000000261e-02 5.085720000000000240e-01 2.327035000000000409e+00 5.352009999999999934e+01 1.394244999999999891e+03
4.300000000000000350e-02 5.081984999999999975e-01 2.109349999999999614e+00 5.194105000000000416e+01 1.393715000000000146e+03
4.400000000000000439e-02 5.079305000000000625e-01 2.058759999999999479e+00 5.077315000000000111e+01 1.393289999999999964e+03
4.499999999999999833e-02 5.077700000000000546e-01 2.187594999999999956e+00 5.005030000000000001e+01 1.392990000000000009e+03
4.599999999999999922e-02 5.077190000000000314e-01 2.500211999999999879e+00 4.978740000000000521e+01 1.392820000000000164e+03
4.700000000000000011e-02 5.077745000000000175e-01 2.995715000000000128e+00 4.998385000000000389e+01 1.392789999999999964e+03
4.800000000000000100e-02 5.079325000000000090e-01 3.670309999999999739e+00 5.062704999999999700e+01 1.392889999999999873e+03
4.900000000000000189e-02 5.081894999999999607e-01 4.518880000000000230e+00 5.169684999999999775e+01 1.393119999999999891e+03
5.000000000000000278e-02 5.085389999999999633e-01 5.535585000000000200e+00 5.316785000000000139e+01 1.393474999999999909e+03
5.100000000000000366e-02 5.089755000000000251e-01 6.713699000000000083e+00 5.501185000000000258e+01 1.393949999999999818e+03
5.200000000000000455e-02 5.094935000000000436e-01 8.044554999999999012e+00 5.719804999999999495e+01 1.394529999999999973e+03
5.300000000000000544e-02 5.100839999999999819e-01 9.516790000000000305e+00 5.969339999999999691e+01 1.395220000000000027e+03
5.399999999999999939e-02 5.107389999999999430e-01 1.111526499999999906e+01 6.246180000000000376e+01 1.395994999999999891e+03
5.500000000000000028e-02 5.114490000000000425e-01 1.282078000000000095e+01 6.546384999999999366e+01 1.396849999999999909e+03
5.600000000000000117e-02 5.122035000000000338e-01 1.461037499999999945e+01 6.865680000000000405e+01 1.397780000000000200e+03
5.700000000000000205e-02 5.129905000000000159e-01 1.645801499999999962e+01 7.199524999999999864e+01 1.398755000000000109e+03
5.800000000000000294e-02 5.137990000000000057e-01 1.833575000000000088e+01 7.543229999999999791e+01 1.399785000000000082e+03
5.900000000000000383e-02 5.146165000000000322e-01 2.021535000000000082e+01 7.892104999999999393e+01 1.400835000000000036e+03
6.000000000000000472e-02 5.154334999999999889e-01 2.206964999999999932e+01 8.241679999999999495e+01 1.401900000000000091e+03
6.099999999999999867e-02 5.162409999999999499e-01 2.387409999999999854e+01 8.587850000000000250e+01 1.402970000000000027e+03
6.199999999999999956e-02 5.170299999999999896e-01 2.560759999999999792e+01 8.927174999999999727e+01 1.404029999999999973e+03
6.300000000000000044e-02 5.177964999999999929e-01 2.725329999999999941e+01 9.256730000000000302e+01 1.405075000000000045e+03
6.400000000000000133e-02 5.185349999999999682e-01 2.879889999999999972e+01 9.574445000000000050e+01 1.406089999999999918e+03
6.500000000000000222e-02 5.192444999999999977e-01 3.023649999999999949e+01 9.879070000000000107e+01 1.407085000000000036e+03
6.600000000000000311e-02 5.199249999999999705e-01 3.156259999999999621e+01 1.017009000000000043e+02 1.408039999999999964e+03
6.700000000000000400e-02 5.205759999999999277e-01 3.277714999999999890e+01 1.044759999999999991e+02 1.408960000000000036e+03
6.800000000000000488e-02 5.212015000000000953e-01 3.388324999999999676e+01 1.071234500000000054e+02 1.409845000000000027e+03
6.900000000000000577e-02 5.218034999999999757e-01 3.488640000000000185e+01 1.096544999999999987e+02 1.410695000000000164e+03
7.000000000000000666e-02 5.223854999999999471e-01 3.579394999999999527e+01 1.120840000000000032e+02 1.411515000000000100e+03
7.100000000000000755e-02 5.229524999999999313e-01 3.661424999999999841e+01 1.144295000000000044e+02 1.412309999999999945e+03
7.200000000000000844e-02 5.235069999999999446e-01 3.735649999999999693e+01 1.167069999999999936e+02 1.413085000000000036e+03
7.300000000000000933e-02 5.240529999999999911e-01 3.802970000000000539e+01 1.189350000000000023e+02 1.413840000000000146e+03
7.399999999999999634e-02 5.245940000000000047e-01 3.864260000000000161e+01 1.211280000000000001e+02 1.414590000000000146e+03
7.499999999999999722e-02 5.251319999999999322e-01 3.920300000000000296e+01 1.232984999999999900e+02 1.415324999999999818e+03
7.599999999999999811e-02 5.256695000000000118e-01 3.971734999999999616e+01 1.254565000000000055e+02 1.416050000000000182e+03
7.699999999999999900e-02 5.262065000000000214e-01 4.019050000000000011e+01 1.276069999999999993e+02 1.416775000000000091e+03
7.799999999999999989e-02 5.267425000000000024e-01 4.062529999999999575e+01 1.297520000000000095e+02 1.417494999999999891e+03
7.900000000000000078e-02 5.272774999999999546e-01 4.102250000000000085e+01 1.318880000000000052e+02 1.418210000000000036e+03
8.000000000000000167e-02 5.278074999999999850e-01 4.138100000000000023e+01 1.340065000000000168e+02 1.418920000000000073e+03
8.100000000000000255e-02 5.283305000000000362e-01 4.169774999999999920e+01 1.360969999999999800e+02 1.419619999999999891e+03
8.200000000000000344e-02 5.288414999999999644e-01 4.196809999999999974e+01 1.381440000000000055e+02 1.420309999999999945e+03
8.300000000000000433e-02 5.293375000000000163e-01 4.218630000000000280e+01 1.401299999999999955e+02 1.420980000000000018e+03
8.400000000000000522e-02 5.298119999999999497e-01 4.234579999999999700e+01 1.420369999999999777e+02 1.421630000000000109e+03
8.500000000000000611e-02 5.302625000000000810e-01 4.243994999999999607e+01 1.438445000000000107e+02 1.422244999999999891e+03
8.600000000000000699e-02 5.306819999999999871e-01 4.246219999999999573e+01 1.455330000000000155e+02 1.422829999999999927e+03
8.700000000000000788e-02 5.310690000000000133e-01 4.240675000000000239e+01 1.470860000000000127e+02 1.423380000000000109e+03
8.800000000000000877e-02 5.314179999999999460e-01 4.226874999999999716e+01 1.484864999999999782e+02 1.423875000000000000e+03
8.899999999999999578e-02 5.317270000000000607e-01 4.204489999999999839e+01 1.497235000000000014e+02 1.424325000000000045e+03
8.999999999999999667e-02 5.319945000000000368e-01 4.173310000000000031e+01 1.507860000000000014e+02 1.424719999999999800e+03
9.099999999999999756e-02 5.322184999999999278e-01 4.133329999999999416e+01 1.516700000000000159e+02 1.425065000000000055e+03
9.199999999999999845e-02 5.323995000000000255e-01 4.084700000000000131e+01 1.523729999999999905e+02 1.425349999999999909e+03
9.299999999999999933e-02 5.325379999999999558e-01 4.027734999999999843e+01 1.528975000000000080e+02 1.425575000000000045e+03
9.400000000000000022e-02 5.326359999999999983e-01 3.962935000000000230e+01 1.532489999999999952e+02 1.425750000000000000e+03
9.500000000000000111e-02 5.326949999999999186e-01 3.890935000000000343e+01 1.534370000000000118e+02 1.425865000000000009e+03
9.600000000000000200e-02 5.327189999999999426e-01 3.812510000000000332e+01 1.534735000000000014e+02 1.425934999999999945e+03
9.700000000000000289e-02 5.327110000000000456e-01 3.728535000000000110e+01 1.533725000000000023e+02 1.425960000000000036e+03
9.800000000000000377e-02 5.326739999999999808e-01 3.639995000000000402e+01 1.531519999999999868e+02 1.425940000000000055e+03
9.900000000000000466e-02 5.326135000000000730e-01 3.547899999999999920e+01 1.528290000000000077e+02 1.425884999999999991e+03
1.000000000000000056e-01 5.325340000000000629e-01 3.453329999999999700e+01 1.524219999999999970e+02 1.425789999999999964e+03
1.010000000000000064e-01 5.324385000000000367e-01 3.357334999999999781e+01 1.519505000000000052e+02 1.425680000000000064e+03
1.020000000000000073e-01 5.323324999999999863e-01 3.260940000000000083e+01 1.514334999999999809e+02 1.425545000000000073e+03
1.030000000000000082e-01 5.322194999999999565e-01 3.165124999999999744e+01 1.508879999999999768e+02 1.425394999999999982e+03
1.040000000000000091e-01 5.321040000000000214e-01 3.070770000000000266e+01 1.503305000000000007e+02 1.425240000000000009e+03
1.050000000000000100e-01 5.319879999999999054e-01 2.978645000000000209e+01 1.497760000000000105e+02 1.425069999999999936e+03
1.059999999999999970e-01 5.318755000000000566e-01 2.889385000000000048e+01 1.492364999999999782e+02 1.424909999999999854e+03
1.069999999999999979e-01 5.317680000000000184e-01 2.803474999999999895e+01 1.487225000000000250e+02 1.424750000000000000e+03
1.079999999999999988e-01 5.316665000000000418e-01 2.721240000000000236e+01 1.482404999999999973e+02 1.424590000000000146e+03
1.089999999999999997e-01 5.315725000000000033e-01 2.642840000000000344e+01 1.477939999999999827e+02 1.424445000000000164e+03
1.100000000000000006e-01 5.314860000000000140e-01 2.568254999999999910e+01 1.473849999999999909e+02 1.424309999999999945e+03
1.110000000000000014e-01 5.314065000000000039e-01 2.497334999999999994e+01 1.470135000000000218e+02 1.424174999999999955e+03
1.120000000000000023e-01 5.313335000000000141e-01 2.429755000000000109e+01 1.466730000000000018e+02 1.424054999999999836e+03
1.130000000000000032e-01 5.312639999999999585e-01 2.365109999999999957e+01 1.463600000000000136e+02 1.423944999999999936e+03
1.140000000000000041e-01 5.311974999999999891e-01 2.302854999999999919e+01 1.460654999999999859e+02 1.423839999999999918e+03
1.150000000000000050e-01 5.311310000000000198e-01 2.242399999999999949e+01 1.457805000000000177e+02 1.423735000000000127e+03
1.160000000000000059e-01 5.310630000000000628e-01 2.183104999999999762e+01 1.454950000000000045e+02 1.423634999999999991e+03
1.170000000000000068e-01 5.309904999999999209e-01 2.124324999999999974e+01 1.451995000000000005e+02 1.423534999999999854e+03
1.180000000000000077e-01 5.309114999999999807e-01 2.065405000000000157e+01 1.448835000000000264e+02 1.423425000000000182e+03
1.190000000000000085e-01 5.308245000000000324e-01 2.005750000000000099e+01 1.445374999999999943e+02 1.423309999999999945e+03
1.200000000000000094e-01 5.307264999999999899e-01 1.944825000000000159e+01 1.441530000000000200e+02 1.423184999999999945e+03
1.209999999999999964e-01 5.306170000000000053e-01 1.882179999999999964e+01 1.437235000000000014e+02 1.423050000000000182e+03
1.219999999999999973e-01 5.304945000000000910e-01 1.817460000000000164e+01 1.432435000000000116e+02 1.422900000000000091e+03
1.229999999999999982e-01 5.303590000000000249e-01 1.750440000000000040e+01 1.427090000000000032e+02 1.422730000000000018e+03
1.239999999999999991e-01 5.302105000000000290e-01 1.681009999999999849e+01 1.421200000000000045e+02 1.422549999999999955e+03
1.250000000000000000e-01 5.300489999999999924e-01 1.609195000000000064e+01 1.414774999999999920e+02 1.422355000000000018e+03
1.260000000000000009e-01 5.298760000000000137e-01 1.535144999999999982e+01 1.407830000000000155e+02 1.422144999999999982e+03
1.270000000000000018e-01 5.296920000000000517e-01 1.459141999999999939e+01 1.400430000000000064e+02 1.421914999999999964e+03
1.280000000000000027e-01 5.294995000000000118e-01 1.381573500000000010e+01 1.392644999999999982e+02 1.421680000000000064e+03
1.290000000000000036e-01 5.293014999999999803e-01 1.302938500000000133e+01 1.384555000000000007e+02 1.421424999999999955e+03
1.300000000000000044e-01 5.290995000000000559e-01 1.223824000000000112e+01 1.376260000000000048e+02 1.421170000000000073e+03
1.310000000000000053e-01 5.288964999999999916e-01 1.144871000000000016e+01 1.367874999999999943e+02 1.420909999999999854e+03
1.320000000000000062e-01 5.286950000000000260e-01 1.066783000000000037e+01 1.359519999999999982e+02 1.420644999999999982e+03
1.330000000000000071e-01 5.284984999999999822e-01 9.902775000000000105e+00 1.351315000000000168e+02 1.420389999999999873e+03
1.340000000000000080e-01 5.283094999999999875e-01 9.160660000000000025e+00 1.343360000000000127e+02 1.420130000000000109e+03
1.350000000000000089e-01 5.281305000000000582e-01 8.448419999999998709e+00 1.335790000000000077e+02 1.419884999999999991e+03
1.360000000000000098e-01 5.279639999999999889e-01 7.772360000000000824e+00 1.328700000000000045e+02 1.419655000000000200e+03
1.370000000000000107e-01 5.278119999999999479e-01 7.138290000000000468e+00 1.322175000000000011e+02 1.419429999999999836e+03
1.380000000000000115e-01 5.276760000000000339e-01 6.550969999999999516e+00 1.316295000000000073e+02 1.419235000000000127e+03
1.390000000000000124e-01 5.275570000000000537e-01 6.014119999999999244e+00 1.311119999999999948e+02 1.419055000000000064e+03
1.400000000000000133e-01 5.274560000000000359e-01 5.530369999999999564e+00 1.306680000000000064e+02 1.418894999999999982e+03
1.410000000000000142e-01 5.273729999999999807e-01 5.101105000000000445e+00 1.302994999999999948e+02 1.418750000000000000e+03
1.420000000000000151e-01 5.273075000000000401e-01 4.726494999999999891e+00 1.300055000000000121e+02 1.418634999999999991e+03
1.430000000000000160e-01 5.272594999999999921e-01 4.405515000000000292e+00 1.297844999999999800e+02 1.418545000000000073e+03
1.440000000000000169e-01 5.272265000000000423e-01 4.136010000000000630e+00 1.296310000000000002e+02 1.418474999999999909e+03
1.450000000000000178e-01 5.272080000000000100e-01 3.914835000000000065e+00 1.295395000000000039e+02 1.418420000000000073e+03
1.459999999999999909e-01 5.272014999999999896e-01 3.738010000000000055e+00 1.295029999999999859e+02 1.418384999999999991e+03
1.469999999999999918e-01 5.272054999999999936e-01 3.600839999999999819e+00 1.295130000000000052e+02 1.418364999999999782e+03
1.479999999999999927e-01 5.272175000000000056e-01 3.498165000000000191e+00 1.295604999999999905e+02 1.418360000000000127e+03
1.489999999999999936e-01 5.272354999999999681e-01 3.424504999999999910e+00 1.296359999999999957e+02 1.418365000000000009e+03
1.499999999999999944e-01 5.272565000000000168e-01 3.374274999999999913e+00 1.297295000000000016e+02 1.418375000000000000e+03
1.509999999999999953e-01 5.272790000000000532e-01 3.341944999999999943e+00 1.298330000000000268e+02 1.418394999999999982e+03
1.519999999999999962e-01 5.273015000000000896e-01 3.322219999999999729e+00 1.299370000000000118e+02 1.418414999999999964e+03
1.529999999999999971e-01 5.273220000000000685e-01 3.310154999999999959e+00 1.300349999999999966e+02 1.418440000000000055e+03
1.539999999999999980e-01 5.273384999999999323e-01 3.301280000000000214e+00 1.301189999999999998e+02 1.418454999999999927e+03
1.549999999999999989e-01 5.273499999999999854e-01 3.291700000000000070e+00 1.301845000000000141e+02 1.418474999999999909e+03
1.559999999999999998e-01 5.273559999999999359e-01 3.278125000000000178e+00 1.302270000000000039e+02 1.418485000000000127e+03
1.570000000000000007e-01 5.273554999999999771e-01 3.257934999999999803e+00 1.302425000000000068e+02 1.418489999999999782e+03
1.580000000000000016e-01 5.273490000000000677e-01 3.229160000000000252e+00 1.302309999999999945e+02 1.418485000000000127e+03
1.590000000000000024e-01 5.273360000000000269e-01 3.190469999999999917e+00 1.301915000000000191e+02 1.418470000000000027e+03
