# t [s], A [cm^2], U [cm/s], P [cPa], c [cm/s]
1.000000000000000021e-03 2.135174999999999990e-01 2.316969999999999863e-01 9.408870000000000289e+01 2.161569999999999709e+03
2.000000000000000042e-03 2.134610000000000118e-01 1.635937500000000044e+00 9.097065000000000623e+01 2.161170000000000073e+03
3.000000000000000062e-03 2.133105000000000140e-01 3.418271500000000351e+00 8.647440000000000282e+01 2.160130000000000109e+03
4.000000000000000083e-03 2.131075000000000053e-01 5.450243500000000019e+00 8.148075000000000045e+01 2.158744999999999891e+03
5.000000000000000104e-03 2.128915000000000113e-01 7.656265000000000320e+00 7.696610000000001151e+01 2.157295000000000073e+03
6.000000000000000125e-03 2.126870000000000149e-01 9.842964999999999520e+00 7.327559999999999718e+01 2.155930000000000291e+03
7.000000000000000146e-03 2.124979999999999924e-01 1.176353999999999900e+01 7.013004999999999711e+01 2.154699999999999818e+03
8.000000000000000167e-03 2.123265000000000013e-01 1.333343999999999951e+01 6.729590000000000316e+01 2.153609999999999673e+03
9.000000000000001055e-03 2.121784999999999921e-01 1.460354999999999848e+01 6.487139999999999418e+01 2.152680000000000291e+03
1.000000000000000194e-02 2.120575000000000099e-01 1.561304999999999943e+01 6.294435000000000002e+01 2.151925000000000182e+03
1.099999999999999936e-02 2.119619999999999838e-01 1.638540000000000063e+01 6.149094999999999800e+01 2.151340000000000146e+03
1.200000000000000025e-02 2.118900000000000228e-01 1.694215000000000160e+01 6.044809999999999661e+01 2.150905000000000200e+03
1.300000000000000114e-02 2.118359999999999965e-01 1.728450000000000131e+01 5.968384999999999962e+01 2.150590000000000146e+03
1.400000000000000203e-02 2.117930000000000090e-01 1.742419999999999902e+01 5.904519999999999413e+01 2.150344999999999800e+03
1.499999999999999944e-02 2.117610000000000048e-01 1.745104999999999862e+01 5.856085000000000207e+01 2.150170000000000073e+03
1.600000000000000033e-02 2.117479999999999918e-01 1.753795000000000215e+01 5.855109999999999815e+01 2.150105000000000018e+03
1.700000000000000122e-02 2.117669999999999830e-01 1.785735000000000028e+01 5.946144999999999925e+01 2.150230000000000018e+03
1.800000000000000211e-02 2.118280000000000163e-01 1.847605000000000075e+01 6.153945000000000221e+01 2.150609999999999673e+03
1.900000000000000300e-02 2.119274999999999909e-01 1.930920000000000059e+01 6.460729999999999507e+01 2.151235000000000127e+03
2.000000000000000042e-02 2.120509999999999895e-01 2.015599999999999881e+01 6.807689999999999486e+01 2.152010000000000218e+03
2.100000000000000130e-02 2.121735000000000149e-01 2.078835000000000122e+01 7.117674999999999841e+01 2.152800000000000182e+03
2.200000000000000219e-02 2.122724999999999751e-01 2.104149999999999920e+01 7.325159999999999627e+01 2.153454999999999927e+03
2.299999999999999961e-02 2.123325000000000073e-01 2.086980000000000146e+01 7.399375000000000568e+01 2.153859999999999673e+03
2.400000000000000050e-02 2.123494999999999966e-01 2.034765000000000157e+01 7.351464999999998895e+01 2.154005000000000109e+03
2.500000000000000139e-02 2.123335000000000083e-01 1.962454999999999927e+01 7.224819999999999709e+01 2.153925000000000182e+03
2.600000000000000228e-02 2.122985000000000011e-01 1.885795000000000243e+01 7.074420000000000641e+01 2.153710000000000036e+03
2.700000000000000316e-02 2.122594999999999898e-01 1.815420000000000300e+01 6.945069999999999766e+01 2.153470000000000255e+03
2.800000000000000058e-02 2.122264999999999846e-01 1.753975000000000151e+01 6.857104999999999961e+01 2.153255000000000109e+03
2.900000000000000147e-02 2.122014999999999874e-01 1.696715000000000018e+01 6.803600000000000136e+01 2.153090000000000146e+03
3.000000000000000236e-02 2.121804999999999941e-01 1.634850000000000136e+01 6.758254999999999768e+01 2.152954999999999927e+03
3.099999999999999978e-02 2.121534999999999949e-01 1.560020000000000095e+01 6.689400000000000546e+01 2.152784999999999854e+03
3.200000000000000067e-02 2.121129999999999960e-01 1.468420000000000059e+01 6.574809999999999377e+01 2.152539999999999964e+03
3.300000000000000155e-02 2.120569999999999955e-01 1.363149999999999906e+01 6.412415000000000020e+01 2.152194999999999709e+03
3.400000000000000244e-02 2.119889999999999830e-01 1.254084999999999894e+01 6.223245000000000005e+01 2.151765000000000327e+03
3.500000000000000333e-02 2.119194999999999829e-01 1.155280499999999932e+01 6.045889999999999986e+01 2.151329999999999927e+03
3.600000000000000422e-02 2.118634999999999824e-01 1.080851000000000006e+01 5.924479999999999791e+01 2.150960000000000036e+03
3.700000000000000511e-02 2.118329999999999935e-01 1.040822999999999965e+01 5.894745000000000346e+01 2.150755000000000109e+03
3.799999999999999906e-02 2.118389999999999995e-01 1.038350000000000151e+01 5.972970000000000113e+01 2.150769999999999982e+03
3.899999999999999994e-02 2.118820000000000148e-01 1.068979999999999997e+01 6.151194999999999879e+01 2.151015000000000327e+03
4.000000000000000083e-02 2.119555000000000189e-01 1.121954999999999991e+01 6.399369999999999692e+01 2.151460000000000036e+03
4.100000000000000172e-02 2.120480000000000143e-01 1.182789999999999964e+01 6.672934999999999661e+01 2.152034999999999854e+03
4.200000000000000261e-02 2.121425000000000116e-01 1.236384999999999934e+01 6.923015000000000896e+01 2.152635000000000218e+03
4.300000000000000350e-02 2.122239999999999960e-01 1.269730000000000025e+01 7.106284999999999741e+01 2.153154999999999745e+03
4.400000000000000439e-02 2.122780000000000222e-01 1.273789999999999978e+01 7.192274999999999352e+01 2.153510000000000218e+03
4.499999999999999833e-02 2.122959999999999847e-01 1.244229999999999947e+01 7.166915000000000191e+01 2.153640000000000327e+03
4.599999999999999922e-02 2.122740000000000182e-01 1.181139999999999901e+01 7.032130000000000791e+01 2.153524999999999636e+03
4.700000000000000011e-02 2.122134999999999994e-01 1.088020000000000032e+01 6.802484999999998649e+01 2.153154999999999745e+03
4.800000000000000100e-02 2.121204999999999896e-01 9.704029999999999490e+00 6.500045000000000073e+01 2.152579999999999927e+03
4.900000000000000189e-02 2.120015000000000094e-01 8.345914999999999750e+00 6.149224999999999852e+01 2.151835000000000036e+03
5.000000000000000278e-02 2.118645000000000111e-01 6.867050000000000765e+00 5.772769999999999868e+01 2.150970000000000255e+03
5.100000000000000366e-02 2.117175000000000029e-01 5.322770000000000223e+00 5.389489999999999981e+01 2.150039999999999964e+03
5.200000000000000455e-02 2.115664999999999907e-01 3.762071450000000095e+00 5.013885000000000502e+01 2.149079999999999927e+03
5.300000000000000544e-02 2.114174999999999804e-01 2.230319999999999858e+00 4.656990000000000407e+01 2.148130000000000109e+03
5.399999999999999939e-02 2.112745000000000040e-01 7.726150000000000517e-01 4.328024999999999523e+01 2.147225000000000364e+03
5.500000000000000028e-02 2.111429999999999974e-01 -5.635600000000000609e-01 4.035880000000000223e+01 2.146380000000000109e+03
5.600000000000000117e-02 2.110255000000000047e-01 -1.727513999999999994e+00 3.790124999999999744e+01 2.145630000000000109e+03
5.700000000000000205e-02 2.109280000000000044e-01 -2.666701000000000210e+00 3.601290000000000191e+01 2.144989999999999782e+03
5.800000000000000294e-02 2.108545000000000003e-01 -3.329889999999999795e+00 3.480279999999999774e+01 2.144510000000000218e+03
5.900000000000000383e-02 2.108089999999999964e-01 -3.671475000000000044e+00 3.437360000000000326e+01 2.144199999999999818e+03
6.000000000000000472e-02 2.107959999999999834e-01 -3.655930000000000124e+00 3.480825000000000102e+01 2.144095000000000255e+03
6.099999999999999867e-02 2.108174999999999910e-01 -3.261449999999999960e+00 3.615805000000000291e+01 2.144204999999999927e+03
6.199999999999999956e-02 2.108764999999999945e-01 -2.482343000000000188e+00 3.843430000000000035e+01 2.144555000000000291e+03
6.300000000000000044e-02 2.109719999999999929e-01 -1.329594999999999860e+00 4.160479999999999734e+01 2.145135000000000218e+03
6.400000000000000133e-02 2.111024999999999985e-01 1.699749999999999872e-01 4.559579999999999700e+01 2.145940000000000055e+03
6.500000000000000222e-02 2.112654999999999950e-01 1.975845000000000073e+00 5.029815000000000680e+01 2.146954999999999927e+03
6.600000000000000311e-02 2.114559999999999773e-01 4.036701500000000387e+00 5.557569999999999766e+01 2.148144999999999982e+03
6.700000000000000400e-02 2.116695000000000104e-01 6.293764999999999610e+00 6.127579999999999671e+01 2.149489999999999782e+03
6.800000000000000488e-02 2.118999999999999773e-01 8.684255000000000280e+00 6.723959999999999582e+01 2.150944999999999709e+03
6.900000000000000577e-02 2.121405000000000096e-01 1.114479499999999845e+01 7.331175000000000352e+01 2.152475000000000364e+03
7.000000000000000666e-02 2.123865000000000058e-01 1.361494000000000071e+01 7.934969999999999857e+01 2.154039999999999964e+03
7.100000000000000755e-02 2.126315000000000011e-01 1.603999999999999915e+01 8.523104999999999620e+01 2.155614999999999782e+03
7.200000000000000844e-02 2.128709999999999769e-01 1.837389999999999901e+01 9.086039999999999850e+01 2.157154999999999745e+03
7.300000000000000933e-02 2.131025000000000003e-01 2.058115000000000094e+01 9.617345000000000255e+01 2.158650000000000091e+03
7.399999999999999634e-02 2.133220000000000116e-01 2.263785000000000025e+01 1.011385500000000093e+02 2.160074999999999818e+03
7.499999999999999722e-02 2.135294999999999832e-01 2.453190000000000026e+01 1.057553499999999929e+02 2.161420000000000073e+03
7.599999999999999811e-02 2.137249999999999983e-01 2.626194999999999879e+01 1.100515000000000043e+02 2.162699999999999818e+03
7.699999999999999900e-02 2.139085000000000014e-01 2.783565000000000111e+01 1.140755000000000052e+02 2.163900000000000091e+03
7.799999999999999989e-02 2.140829999999999955e-01 2.926725000000000065e+01 1.178880000000000052e+02 2.165039999999999964e+03
7.900000000000000078e-02 2.142499999999999960e-01 3.057469999999999999e+01 1.215545000000000044e+02 2.166130000000000109e+03
8.000000000000000167e-02 2.144115000000000049e-01 3.177734999999999843e+01 1.251365000000000123e+02 2.167194999999999709e+03
8.100000000000000255e-02 2.145700000000000107e-01 3.289310000000000400e+01 1.286845000000000141e+02 2.168230000000000018e+03
8.200000000000000344e-02 2.147264999999999868e-01 3.393724999999999881e+01 1.322334999999999923e+02 2.169260000000000218e+03
8.300000000000000433e-02 2.148829999999999907e-01 3.492060000000000031e+01 1.358029999999999973e+02 2.170284999999999854e+03
8.400000000000000522e-02 2.150394999999999945e-01 3.584935000000000116e+01 1.393940000000000055e+02 2.171315000000000055e+03
8.500000000000000611e-02 2.151965000000000128e-01 3.672480000000000189e+01 1.429895000000000209e+02 2.172335000000000036e+03
8.600000000000000699e-02 2.153525000000000023e-01 3.754375000000000284e+01 1.465615000000000236e+02 2.173355000000000018e+03
8.700000000000000788e-02 2.155060000000000031e-01 3.829925000000000068e+01 1.500699999999999932e+02 2.174364999999999782e+03
8.800000000000000877e-02 2.156569999999999876e-01 3.898104999999999620e+01 1.534694999999999823e+02 2.175355000000000018e+03
8.899999999999999578e-02 2.158025000000000082e-01 3.957699999999999818e+01 1.567110000000000127e+02 2.176310000000000400e+03
8.999999999999999667e-02 2.159405000000000074e-01 4.007385000000000019e+01 1.597439999999999998e+02 2.177225000000000364e+03
9.099999999999999756e-02 2.160694999999999977e-01 4.045794999999999675e+01 1.625230000000000246e+02 2.178074999999999818e+03
9.199999999999999845e-02 2.161885000000000057e-01 4.071654999999999802e+01 1.650039999999999907e+02 2.178855000000000018e+03
9.299999999999999933e-02 2.162945000000000007e-01 4.083849999999999625e+01 1.671535000000000082e+02 2.179559999999999945e+03
9.400000000000000022e-02 2.163864999999999816e-01 4.081494999999999607e+01 1.689440000000000168e+02 2.180175000000000182e+03
9.500000000000000111e-02 2.164639999999999898e-01 4.064034999999999798e+01 1.703569999999999993e+02 2.180690000000000055e+03
9.600000000000000200e-02 2.165254999999999819e-01 4.031269999999999953e+01 1.713874999999999886e+02 2.181109999999999673e+03
9.700000000000000289e-02 2.165719999999999867e-01 3.983410000000000650e+01 1.720380000000000109e+02 2.181420000000000073e+03
9.800000000000000377e-02 2.166029999999999900e-01 3.921094999999999686e+01 1.723255000000000052e+02 2.181635000000000218e+03
9.900000000000000466e-02 2.166184999999999916e-01 3.845364999999999611e+01 1.722750000000000057e+02 2.181755000000000109e+03
1.000000000000000056e-01 2.166210000000000080e-01 3.757654999999999745e+01 1.719219999999999970e+02 2.181779999999999745e+03
1.010000000000000064e-01 2.166115000000000124e-01 3.659694999999999965e+01 1.713084999999999809e+02 2.181725000000000364e+03
1.020000000000000073e-01 2.165905000000000191e-01 3.553464999999999918e+01 1.704830000000000041e+02 2.181605000000000018e+03
1.030000000000000082e-01 2.165614999999999901e-01 3.441084999999999638e+01 1.694954999999999927e+02 2.181420000000000073e+03
1.040000000000000091e-01 2.165254999999999819e-01 3.324739999999999895e+01 1.683969999999999914e+02 2.181190000000000055e+03
1.050000000000000100e-01 2.164844999999999964e-01 3.206555000000000177e+01 1.672359999999999900e+02 2.180929999999999836e+03
1.059999999999999970e-01 2.164409999999999945e-01 3.088555000000000206e+01 1.660575000000000045e+02 2.180650000000000091e+03
1.069999999999999979e-01 2.163960000000000050e-01 2.972550000000000026e+01 1.648994999999999891e+02 2.180355000000000018e+03
1.079999999999999988e-01 2.163514999999999744e-01 2.860099999999999909e+01 1.637950000000000159e+02 2.180059999999999945e+03
1.089999999999999997e-01 2.163085000000000147e-01 2.752454999999999785e+01 1.627674999999999841e+02 2.179779999999999745e+03
1.100000000000000006e-01 2.162679999999999880e-01 2.650509999999999877e+01 1.618309999999999889e+02 2.179514999999999873e+03
1.110000000000000014e-01 2.162304999999999922e-01 2.554800000000000182e+01 1.609934999999999832e+02 2.179264999999999873e+03
1.120000000000000023e-01 2.161965000000000137e-01 2.465490000000000137e+01 1.602524999999999977e+02 2.179039999999999964e+03
1.130000000000000032e-01 2.161659999999999970e-01 2.382379999999999853e+01 1.595974999999999966e+02 2.178829999999999927e+03
1.140000000000000041e-01 2.161379999999999968e-01 2.304954999999999998e+01 1.590109999999999957e+02 2.178644999999999982e+03
1.150000000000000050e-01 2.161124999999999852e-01 2.232385000000000019e+01 1.584699999999999989e+02 2.178474999999999909e+03
1.160000000000000059e-01 2.160880000000000023e-01 2.163624999999999687e+01 1.579454999999999814e+02 2.178309999999999945e+03
1.170000000000000068e-01 2.160644999999999927e-01 2.097469999999999857e+01 1.574064999999999941e+02 2.178144999999999982e+03
1.180000000000000077e-01 2.160394999999999954e-01 2.032625000000000171e+01 1.568205000000000098e+02 2.177980000000000018e+03
1.190000000000000085e-01 2.160119999999999818e-01 1.967795000000000272e+01 1.561569999999999823e+02 2.177800000000000182e+03
1.200000000000000094e-01 2.159814999999999929e-01 1.901745000000000019e+01 1.553880000000000052e+02 2.177599999999999909e+03
1.209999999999999964e-01 2.159464999999999857e-01 1.833409999999999940e+01 1.544900000000000091e+02 2.177369999999999891e+03
1.219999999999999973e-01 2.159065000000000012e-01 1.761925000000000097e+01 1.534449999999999932e+02 2.177109999999999673e+03
1.229999999999999982e-01 2.158609999999999973e-01 1.686690000000000111e+01 1.522450000000000045e+02 2.176805000000000291e+03
1.239999999999999991e-01 2.158085000000000142e-01 1.607424999999999926e+01 1.508870000000000005e+02 2.176474999999999909e+03
1.250000000000000000e-01 2.157499999999999973e-01 1.524174999999999969e+01 1.493779999999999859e+02 2.176095000000000255e+03
1.260000000000000009e-01 2.156865000000000032e-01 1.437294999999999945e+01 1.477334999999999923e+02 2.175679999999999836e+03
1.270000000000000018e-01 2.156170000000000031e-01 1.347475000000000023e+01 1.459755000000000109e+02 2.175230000000000018e+03
1.280000000000000027e-01 2.155429999999999846e-01 1.255659999999999954e+01 1.441334999999999980e+02 2.174755000000000109e+03
1.290000000000000036e-01 2.154665000000000052e-01 1.163030499999999989e+01 1.422404999999999973e+02 2.174255000000000109e+03
1.300000000000000044e-01 2.153879999999999961e-01 1.070937999999999946e+01 1.403350000000000080e+02 2.173744999999999891e+03
1.310000000000000053e-01 2.153090000000000004e-01 9.807945000000000135e+00 1.384540000000000077e+02 2.173230000000000018e+03
1.320000000000000062e-01 2.152314999999999923e-01 8.940525000000000944e+00 1.366349999999999909e+02 2.172724999999999909e+03
1.330000000000000071e-01 2.151565000000000005e-01 8.120710000000000761e+00 1.349130000000000109e+02 2.172234999999999673e+03
1.340000000000000080e-01 2.150854999999999850e-01 7.360974999999999824e+00 1.333179999999999836e+02 2.171769999999999982e+03
1.350000000000000089e-01 2.150190000000000157e-01 6.671725000000000350e+00 1.318750000000000000e+02 2.171329999999999927e+03
1.360000000000000098e-01 2.149590000000000112e-01 6.061020000000000074e+00 1.306005000000000109e+02 2.170935000000000400e+03
1.370000000000000107e-01 2.149054999999999993e-01 5.534229999999999983e+00 1.295064999999999884e+02 2.170585000000000036e+03
1.380000000000000115e-01 2.148589999999999944e-01 5.093914999999999971e+00 1.285954999999999870e+02 2.170275000000000091e+03
1.390000000000000124e-01 2.148200000000000109e-01 4.739840000000000053e+00 1.278640000000000043e+02 2.170014999999999873e+03
1.400000000000000133e-01 2.147880000000000067e-01 4.469120000000000203e+00 1.273019999999999925e+02 2.169800000000000182e+03
1.410000000000000142e-01 2.147624999999999951e-01 4.276510000000000034e+00 1.268944999999999936e+02 2.169625000000000000e+03
1.420000000000000151e-01 2.147434999999999761e-01 4.154779999999999696e+00 1.266225000000000023e+02 2.169494999999999891e+03
1.430000000000000160e-01 2.147294999999999898e-01 4.095085000000000086e+00 1.264629999999999939e+02 2.169394999999999982e+03
1.440000000000000169e-01 2.147199999999999942e-01 4.087455000000000283e+00 1.263915000000000077e+02 2.169324999999999818e+03
1.450000000000000178e-01 2.147140000000000160e-01 4.121214999999999407e+00 1.263840000000000003e+02 2.169284999999999854e+03
1.459999999999999909e-01 2.147109999999999852e-01 4.185449999999999449e+00 1.264155000000000086e+02 2.169260000000000218e+03
1.469999999999999918e-01 2.147094999999999976e-01 4.269400000000000084e+00 1.264625000000000057e+02 2.169250000000000000e+03
1.479999999999999927e-01 2.147090000000000110e-01 4.362849999999999895e+00 1.265045000000000073e+02 2.169239999999999782e+03
1.489999999999999936e-01 2.147080000000000100e-01 4.456445000000000434e+00 1.265220000000000056e+02 2.169229999999999563e+03
1.499999999999999944e-01 2.147060000000000080e-01 4.541975000000000762e+00 1.265000000000000000e+02 2.169220000000000255e+03
1.509999999999999953e-01 2.147034999999999916e-01 4.612594999999999779e+00 1.264265000000000043e+02 2.169199999999999818e+03
1.519999999999999962e-01 2.146985000000000143e-01 4.662974999999999426e+00 1.262930000000000064e+02 2.169170000000000073e+03
1.529999999999999971e-01 2.146919999999999940e-01 4.689384999999999692e+00 1.260960000000000036e+02 2.169125000000000000e+03
1.539999999999999980e-01 2.146824999999999983e-01 4.689705000000000013e+00 1.258329999999999984e+02 2.169065000000000055e+03
1.549999999999999989e-01 2.146704999999999863e-01 4.663384999999999891e+00 1.255074999999999932e+02 2.168989999999999782e+03
1.559999999999999998e-01 2.146565000000000001e-01 4.611279999999999824e+00 1.251239999999999952e+02 2.168899999999999636e+03
1.570000000000000007e-01 2.146399999999999975e-01 4.535495000000000054e+00 1.246910000000000025e+02 2.168795000000000073e+03
1.580000000000000016e-01 2.146220000000000072e-01 4.439130000000000464e+00 1.242175000000000011e+02 2.168680000000000291e+03
1.590000000000000024e-01 2.146019999999999872e-01 4.325990000000000002e+00 1.237150000000000034e+02 2.168555000000000291e+03
