# t [s], A [cm^2], U [cm/s], P [cPa], c [cm/s]
1.000000000000000021e-03 4.507134999999999891e-01 5.104149999999994802e-03 1.052880000000000109e+02 1.563329999999999927e+03
2.000000000000000042e-03 4.507059999999999955e-01 -2.230202049999999939e-03 1.052659999999999911e+02 1.563324999999999818e+03
3.000000000000000062e-03 4.507299999999999640e-01 5.169270000000000115e-02 1.053224999999999909e+02 1.563345000000000027e+03
4.000000000000000083e-03 4.507689999999999753e-01 1.425236500000000017e-01 1.054375000000000000e+02 1.563375000000000000e+03
5.000000000000000104e-03 4.507729999999999793e-01 1.638158000000000114e-01 1.054615000000000009e+02 1.563384999999999991e+03
6.000000000000000125e-03 4.507400000000000295e-01 9.934650000000001813e-02 1.053404999999999916e+02 1.563360000000000127e+03
7.000000000000000146e-03 4.507049999999999668e-01 2.721699999999999120e-02 1.051544999999999987e+02 1.563309999999999945e+03
8.000000000000000167e-03 4.506704999999999739e-01 -4.928450000000000886e-02 1.049224999999999994e+02 1.563255000000000109e+03
9.000000000000001055e-03 4.506124999999999714e-01 -1.929285000000000028e-01 1.045750000000000028e+02 1.563170000000000073e+03
1.000000000000000194e-02 4.505209999999999493e-01 -4.272449999999999859e-01 1.040629999999999882e+02 1.563045000000000073e+03
1.099999999999999936e-02 4.503920000000000146e-01 -7.594350000000000822e-01 1.033499999999999943e+02 1.562865000000000009e+03
1.200000000000000025e-02 4.502134999999999887e-01 -1.207875000000000032e+00 1.023832999999999913e+02 1.562625000000000000e+03
1.300000000000000114e-02 4.499830000000000219e-01 -1.767609999999999904e+00 1.011318500000000000e+02 1.562300000000000182e+03
1.400000000000000203e-02 4.497180000000000066e-01 -2.376275000000000137e+00 9.963944999999999652e+01 1.561909999999999854e+03
1.499999999999999944e-02 4.494515000000000038e-01 -2.928665000000000074e+00 9.802289999999999281e+01 1.561474999999999909e+03
1.600000000000000033e-02 4.492144999999999611e-01 -3.323336000000000290e+00 9.642064999999999486e+01 1.561025000000000091e+03
1.700000000000000122e-02 4.490204999999999891e-01 -3.501179500000000111e+00 9.493765000000000498e+01 1.560585000000000036e+03
1.800000000000000211e-02 4.488649999999999585e-01 -3.456912899999999844e+00 9.361464999999999748e+01 1.560170000000000073e+03
1.900000000000000300e-02 4.487305000000000321e-01 -3.228028000000000119e+00 9.243000000000000682e+01 1.559779999999999973e+03
2.000000000000000042e-02 4.485955000000000359e-01 -2.873037500000000133e+00 9.131980000000000075e+01 1.559400000000000091e+03
2.100000000000000130e-02 4.484405000000000197e-01 -2.449241499999999849e+00 9.020705000000000950e+01 1.559025000000000091e+03
2.200000000000000219e-02 4.482550000000000145e-01 -1.995984999999999676e+00 8.902854999999999563e+01 1.558625000000000000e+03
2.299999999999999961e-02 4.480404999999999527e-01 -1.526929999999999898e+00 8.775315000000000509e+01 1.558204999999999927e+03
2.400000000000000050e-02 4.478044999999999387e-01 -1.032290000000000152e+00 8.638670000000000471e+01 1.557759999999999991e+03
2.500000000000000139e-02 4.475594999999999990e-01 -4.892599999999998062e-01 8.496395000000001119e+01 1.557295000000000073e+03
2.600000000000000228e-02 4.473179999999999934e-01 1.238999999999998991e-01 8.353100000000000591e+01 1.556825000000000045e+03
2.700000000000000316e-02 4.470855000000000246e-01 8.153900000000002812e-01 8.212669999999999959e+01 1.556360000000000127e+03
2.800000000000000058e-02 4.468625000000000513e-01 1.572815000000000074e+00 8.076785000000000991e+01 1.555900000000000091e+03
2.900000000000000147e-02 4.466404999999999959e-01 2.362775000000000070e+00 7.944249999999999545e+01 1.555449999999999818e+03
3.000000000000000236e-02 4.464084999999999859e-01 3.136260000000000048e+00 7.811240000000000805e+01 1.554994999999999891e+03
3.099999999999999978e-02 4.461524999999999519e-01 3.838014999999999954e+00 7.672159999999999513e+01 1.554534999999999854e+03
3.200000000000000067e-02 4.458615000000000217e-01 4.417619999999999436e+00 7.521129999999999427e+01 1.554050000000000182e+03
3.300000000000000155e-02 4.455289999999999528e-01 4.839885000000000659e+00 7.353509999999999991e+01 1.553519999999999982e+03
3.400000000000000244e-02 4.451554999999999818e-01 5.091929999999999623e+00 7.167279999999999518e+01 1.552945000000000164e+03
3.500000000000000333e-02 4.447504999999999931e-01 5.185555000000000803e+00 6.963819999999999766e+01 1.552335000000000036e+03
3.600000000000000422e-02 4.443274999999999864e-01 5.153874999999999318e+00 6.747934999999999661e+01 1.551694999999999936e+03
3.700000000000000511e-02 4.439060000000000228e-01 5.044010000000000105e+00 6.527154999999999063e+01 1.551029999999999973e+03
3.799999999999999906e-02 4.435040000000000093e-01 4.907875000000000654e+00 6.310564999999999714e+01 1.550380000000000109e+03
3.899999999999999994e-02 4.431389999999999496e-01 4.794100000000000250e+00 6.107529999999999859e+01 1.549759999999999991e+03
4.000000000000000083e-02 4.428230000000000222e-01 4.742364999999999498e+00 5.926600000000000534e+01 1.549195000000000164e+03
4.100000000000000172e-02 4.425654999999999450e-01 4.781090000000000728e+00 5.774750000000000227e+01 1.548699999999999818e+03
4.200000000000000261e-02 4.423715000000000286e-01 4.927383500000000360e+00 5.657045000000000101e+01 1.548300000000000182e+03
4.300000000000000350e-02 4.422429999999999972e-01 5.189759999999999707e+00 5.576670000000000016e+01 1.548005000000000109e+03
4.400000000000000439e-02 4.421804999999999763e-01 5.571140000000000647e+00 5.535195000000000221e+01 1.547815000000000055e+03
4.499999999999999833e-02 4.421825000000000339e-01 6.072420000000000151e+00 5.533034999999999570e+01 1.547735000000000127e+03
4.599999999999999922e-02 4.422490000000000032e-01 6.695104999999999862e+00 5.569944999999999879e+01 1.547775000000000091e+03
4.700000000000000011e-02 4.423790000000000222e-01 7.442839999999999456e+00 5.645400000000000063e+01 1.547934999999999945e+03
4.800000000000000100e-02 4.425729999999999942e-01 8.321440000000000836e+00 5.758830000000000382e+01 1.548204999999999927e+03
4.900000000000000189e-02 4.428309999999999746e-01 9.337780000000000413e+00 5.909705000000000297e+01 1.548595000000000027e+03
5.000000000000000278e-02 4.431525000000000603e-01 1.049775999999999954e+01 6.097424999999999784e+01 1.549095000000000027e+03
5.100000000000000366e-02 4.435370000000000146e-01 1.180412499999999909e+01 6.321099999999999852e+01 1.549699999999999818e+03
5.200000000000000455e-02 4.439809999999999590e-01 1.325492000000000026e+01 6.579335000000000377e+01 1.550420000000000073e+03
5.300000000000000544e-02 4.444805000000000006e-01 1.484212500000000112e+01 6.870064999999999600e+01 1.551240000000000009e+03
5.399999999999999939e-02 4.450300000000000367e-01 1.655179499999999848e+01 7.190449999999999875e+01 1.552144999999999982e+03
5.500000000000000028e-02 4.456220000000000181e-01 1.836477500000000163e+01 7.536920000000000641e+01 1.553139999999999873e+03
5.600000000000000117e-02 4.462479999999999780e-01 2.025789999999999935e+01 7.905280000000000484e+01 1.554214999999999918e+03
5.700000000000000205e-02 4.469000000000000195e-01 2.220589999999999975e+01 8.290940000000000509e+01 1.555345000000000027e+03
5.800000000000000294e-02 4.475695000000000090e-01 2.418325000000000102e+01 8.689249999999999829e+01 1.556530000000000200e+03
5.900000000000000383e-02 4.482494999999999674e-01 2.616570000000000107e+01 9.095619999999999550e+01 1.557744999999999891e+03
6.000000000000000472e-02 4.489330000000000265e-01 2.813149999999999906e+01 9.505795000000000528e+01 1.558980000000000018e+03
6.099999999999999867e-02 4.496145000000000280e-01 3.006240000000000023e+01 9.916239999999999100e+01 1.560235000000000127e+03
6.199999999999999956e-02 4.502900000000000236e-01 3.194379999999999953e+01 1.032400499999999965e+02 1.561494999999999891e+03
6.300000000000000044e-02 4.509580000000000255e-01 3.376474999999999937e+01 1.072686500000000080e+02 1.562744999999999891e+03
6.400000000000000133e-02 4.516155000000000586e-01 3.551774999999999949e+01 1.112327499999999958e+02 1.563985000000000127e+03
6.500000000000000222e-02 4.522619999999999973e-01 3.719794999999999874e+01 1.151244999999999976e+02 1.565215000000000146e+03
6.600000000000000311e-02 4.528984999999999816e-01 3.880254999999999654e+01 1.189395000000000095e+02 1.566420000000000073e+03
6.700000000000000400e-02 4.535239999999999827e-01 4.033050000000000068e+01 1.226790000000000020e+02 1.567610000000000127e+03
6.800000000000000488e-02 4.541405000000000025e-01 4.178140000000000498e+01 1.263454999999999870e+02 1.568784999999999854e+03
6.900000000000000577e-02 4.547475000000000267e-01 4.315550000000000352e+01 1.299435000000000002e+02 1.569945000000000164e+03
7.000000000000000666e-02 4.553470000000000018e-01 4.445289999999999964e+01 1.334775000000000205e+02 1.571079999999999927e+03
7.100000000000000755e-02 4.559369999999999812e-01 4.567334999999999923e+01 1.369509999999999934e+02 1.572200000000000045e+03
7.200000000000000844e-02 4.565190000000000081e-01 4.681595000000000084e+01 1.403640000000000043e+02 1.573309999999999945e+03
7.300000000000000933e-02 4.570920000000000538e-01 4.787904999999999944e+01 1.437164999999999964e+02 1.574394999999999982e+03
7.399999999999999634e-02 4.576544999999999641e-01 4.886019999999999897e+01 1.470035000000000025e+02 1.575465000000000146e+03
7.499999999999999722e-02 4.582049999999999734e-01 4.975594999999999857e+01 1.502185000000000059e+02 1.576514999999999873e+03
7.599999999999999811e-02 4.587410000000000099e-01 5.056255000000000166e+01 1.533505000000000109e+02 1.577539999999999964e+03
7.699999999999999900e-02 4.592614999999999892e-01 5.127575000000000216e+01 1.563884999999999934e+02 1.578539999999999964e+03
7.799999999999999989e-02 4.597625000000000184e-01 5.189150000000000063e+01 1.593179999999999836e+02 1.579505000000000109e+03
7.900000000000000078e-02 4.602429999999999577e-01 5.240610000000000213e+01 1.621264999999999930e+02 1.580440000000000055e+03
8.000000000000000167e-02 4.606999999999999984e-01 5.281634999999999991e+01 1.647989999999999782e+02 1.581335000000000036e+03
8.100000000000000255e-02 4.611319999999999864e-01 5.312019999999999698e+01 1.673235000000000241e+02 1.582184999999999945e+03
8.200000000000000344e-02 4.615365000000000162e-01 5.331654999999999944e+01 1.696889999999999930e+02 1.582985000000000127e+03
8.300000000000000433e-02 4.619134999999999769e-01 5.340550000000000352e+01 1.718859999999999957e+02 1.583739999999999782e+03
8.400000000000000522e-02 4.622600000000000042e-01 5.338840000000000430e+01 1.739089999999999918e+02 1.584440000000000055e+03
8.500000000000000611e-02 4.625779999999999892e-01 5.326754999999999995e+01 1.757535000000000025e+02 1.585085000000000036e+03
8.600000000000000699e-02 4.628659999999999997e-01 5.304650000000000176e+01 1.774184999999999945e+02 1.585674999999999955e+03
8.700000000000000788e-02 4.631244999999999945e-01 5.272964999999999947e+01 1.789050000000000011e+02 1.586210000000000036e+03
8.800000000000000877e-02 4.633545000000000025e-01 5.232229999999999848e+01 1.802160000000000082e+02 1.586684999999999945e+03
8.899999999999999578e-02 4.635559999999999681e-01 5.183070000000000022e+01 1.813580000000000041e+02 1.587105000000000018e+03
8.999999999999999667e-02 4.637314999999999632e-01 5.126160000000000139e+01 1.823375000000000057e+02 1.587480000000000018e+03
9.099999999999999756e-02 4.638814999999999467e-01 5.062270000000000181e+01 1.831639999999999873e+02 1.587800000000000182e+03
9.199999999999999845e-02 4.640090000000000048e-01 4.992225000000000534e+01 1.838489999999999895e+02 1.588065000000000055e+03
9.299999999999999933e-02 4.641144999999999854e-01 4.916890000000000072e+01 1.844030000000000200e+02 1.588295000000000073e+03
9.400000000000000022e-02 4.642015000000000446e-01 4.837194999999999823e+01 1.848394999999999868e+02 1.588484999999999900e+03
9.500000000000000111e-02 4.642709999999999892e-01 4.754070000000000107e+01 1.851734999999999900e+02 1.588635000000000218e+03
9.600000000000000200e-02 4.643269999999999897e-01 4.668439999999999657e+01 1.854175000000000182e+02 1.588750000000000000e+03
9.700000000000000289e-02 4.643699999999999495e-01 4.581220000000000425e+01 1.855865000000000009e+02 1.588840000000000146e+03
9.800000000000000377e-02 4.644034999999999691e-01 4.493254999999999910e+01 1.856945000000000050e+02 1.588904999999999973e+03
9.900000000000000466e-02 4.644290000000000362e-01 4.405324999999999847e+01 1.857529999999999859e+02 1.588954999999999927e+03
1.000000000000000056e-01 4.644479999999999720e-01 4.318094999999999573e+01 1.857740000000000009e+02 1.588980000000000018e+03
1.010000000000000064e-01 4.644625000000000004e-01 4.232094999999999629e+01 1.857669999999999959e+02 1.589000000000000000e+03
1.020000000000000073e-01 4.644730000000000247e-01 4.147735000000000127e+01 1.857389999999999759e+02 1.589009999999999991e+03
1.030000000000000082e-01 4.644800000000000040e-01 4.065274999999999750e+01 1.856955000000000098e+02 1.589005000000000109e+03
1.040000000000000091e-01 4.644840000000000080e-01 3.984829999999999472e+01 1.856384999999999934e+02 1.588994999999999891e+03
1.050000000000000100e-01 4.644844999999999668e-01 3.906374999999999886e+01 1.855695000000000050e+02 1.588980000000000018e+03
1.059999999999999970e-01 4.644819999999999505e-01 3.829775000000000063e+01 1.854864999999999782e+02 1.588954999999999927e+03
1.069999999999999979e-01 4.644749999999999712e-01 3.754789999999999850e+01 1.853860000000000241e+02 1.588929999999999836e+03
1.079999999999999988e-01 4.644625000000000004e-01 3.681099999999999994e+01 1.852634999999999934e+02 1.588894999999999982e+03
1.089999999999999997e-01 4.644439999999999680e-01 3.608344999999999914e+01 1.851134999999999877e+02 1.588849999999999909e+03
1.100000000000000006e-01 4.644185000000000674e-01 3.536124999999999829e+01 1.849295000000000186e+02 1.588789999999999964e+03
1.110000000000000014e-01 4.643844999999999779e-01 3.464029999999999632e+01 1.847060000000000173e+02 1.588724999999999909e+03
1.120000000000000023e-01 4.643414999999999626e-01 3.391684999999999661e+01 1.844365000000000236e+02 1.588644999999999982e+03
1.130000000000000032e-01 4.642890000000000073e-01 3.318719999999999715e+01 1.841159999999999854e+02 1.588549999999999955e+03
1.140000000000000041e-01 4.642260000000000275e-01 3.244839999999999947e+01 1.837400000000000091e+02 1.588434999999999945e+03
1.150000000000000050e-01 4.641520000000000090e-01 3.169800000000000040e+01 1.833059999999999832e+02 1.588309999999999945e+03
1.160000000000000059e-01 4.640674999999999661e-01 3.093439999999999657e+01 1.828125000000000000e+02 1.588160000000000082e+03
1.170000000000000068e-01 4.639719999999999955e-01 3.015670000000000073e+01 1.822590000000000146e+02 1.587994999999999891e+03
1.180000000000000077e-01 4.638674999999999882e-01 2.936505000000000010e+01 1.816469999999999914e+02 1.587809999999999945e+03
1.190000000000000085e-01 4.637529999999999708e-01 2.856034999999999968e+01 1.809800000000000182e+02 1.587610000000000127e+03
1.200000000000000094e-01 4.636299999999999866e-01 2.774459999999999837e+01 1.802629999999999768e+02 1.587394999999999982e+03
1.209999999999999964e-01 4.635000000000000231e-01 2.692044999999999888e+01 1.795024999999999977e+02 1.587160000000000082e+03
1.219999999999999973e-01 4.633639999999999981e-01 2.609145000000000181e+01 1.787060000000000173e+02 1.586920000000000073e+03
1.229999999999999982e-01 4.632239999999999691e-01 2.526180000000000092e+01 1.778814999999999884e+02 1.586670000000000073e+03
1.239999999999999991e-01 4.630824999999999525e-01 2.443619999999999948e+01 1.770389999999999873e+02 1.586410000000000082e+03
1.250000000000000000e-01 4.629395000000000038e-01 2.361979999999999791e+01 1.761885000000000048e+02 1.586144999999999982e+03
1.260000000000000009e-01 4.627974999999999728e-01 2.281784999999999997e+01 1.753404999999999916e+02 1.585885000000000218e+03
1.270000000000000018e-01 4.626585000000000281e-01 2.203555000000000064e+01 1.745049999999999955e+02 1.585619999999999891e+03
1.280000000000000027e-01 4.625239999999999907e-01 2.127824999999999989e+01 1.736915000000000191e+02 1.585360000000000127e+03
1.290000000000000036e-01 4.623954999999999593e-01 2.055049999999999955e+01 1.729089999999999918e+02 1.585110000000000127e+03
1.300000000000000044e-01 4.622735000000000039e-01 1.985665000000000191e+01 1.721650000000000205e+02 1.584869999999999891e+03
1.310000000000000053e-01 4.621605000000000296e-01 1.920040000000000191e+01 1.714669999999999845e+02 1.584639999999999873e+03
1.320000000000000062e-01 4.620555000000000634e-01 1.858445000000000036e+01 1.708190000000000168e+02 1.584425000000000182e+03
1.330000000000000071e-01 4.619599999999999818e-01 1.801089999999999947e+01 1.702250000000000227e+02 1.584224999999999909e+03
1.340000000000000080e-01 4.618745000000000211e-01 1.748089999999999833e+01 1.696870000000000118e+02 1.584045000000000073e+03
1.350000000000000089e-01 4.617975000000000274e-01 1.699480000000000146e+01 1.692044999999999959e+02 1.583869999999999891e+03
1.360000000000000098e-01 4.617295000000000149e-01 1.655199999999999960e+01 1.687769999999999868e+02 1.583720000000000027e+03
1.370000000000000107e-01 4.616704999999999837e-01 1.615139999999999887e+01 1.684010000000000105e+02 1.583590000000000146e+03
1.380000000000000115e-01 4.616185000000000427e-01 1.579095000000000049e+01 1.680729999999999791e+02 1.583465000000000146e+03
1.390000000000000124e-01 4.615735000000000254e-01 1.546835000000000093e+01 1.677880000000000109e+02 1.583360000000000127e+03
1.400000000000000133e-01 4.615339999999999998e-01 1.518084999999999951e+01 1.675414999999999850e+02 1.583264999999999873e+03
1.410000000000000142e-01 4.614995000000000069e-01 1.492545000000000144e+01 1.673265000000000100e+02 1.583179999999999836e+03
1.420000000000000151e-01 4.614690000000000181e-01 1.469894999999999996e+01 1.671384999999999934e+02 1.583105000000000018e+03
1.430000000000000160e-01 4.614415000000000600e-01 1.449840000000000018e+01 1.669714999999999918e+02 1.583039999999999964e+03
1.440000000000000169e-01 4.614159999999999928e-01 1.432070000000000043e+01 1.668205000000000098e+02 1.582980000000000018e+03
1.450000000000000178e-01 4.613919999999999688e-01 1.416310000000000002e+01 1.666810000000000116e+02 1.582924999999999955e+03
1.459999999999999909e-01 4.613689999999999736e-01 1.402295000000000158e+01 1.665490000000000066e+02 1.582875000000000000e+03
1.469999999999999918e-01 4.613464999999999927e-01 1.389799999999999969e+01 1.664215000000000089e+02 1.582824999999999818e+03
1.479999999999999927e-01 4.613245000000000262e-01 1.378614999999999924e+01 1.662959999999999923e+02 1.582779999999999973e+03
1.489999999999999936e-01 4.613019999999999898e-01 1.368544999999999945e+01 1.661715000000000089e+02 1.582730000000000018e+03
1.499999999999999944e-01 4.612800000000000233e-01 1.359440000000000026e+01 1.660459999999999923e+02 1.582684999999999945e+03
1.509999999999999953e-01 4.612569999999999726e-01 1.351149999999999984e+01 1.659189999999999827e+02 1.582639999999999873e+03
1.519999999999999962e-01 4.612340000000000328e-01 1.343544999999999945e+01 1.657900000000000205e+02 1.582595000000000027e+03
1.529999999999999971e-01 4.612104999999999677e-01 1.336514999999999986e+01 1.656594999999999800e+02 1.582550000000000182e+03
1.539999999999999980e-01 4.611875000000000280e-01 1.329969999999999963e+01 1.655269999999999868e+02 1.582505000000000109e+03
1.549999999999999989e-01 4.611635000000000595e-01 1.323815000000000097e+01 1.653935000000000173e+02 1.582460000000000036e+03
1.559999999999999998e-01 4.611395000000000355e-01 1.317994999999999983e+01 1.652590000000000146e+02 1.582414999999999964e+03
1.570000000000000007e-01 4.611155000000000115e-01 1.312434999999999974e+01 1.651235000000000070e+02 1.582365000000000009e+03
1.580000000000000016e-01 4.610910000000000286e-01 1.307094999999999985e+01 1.649879999999999995e+02 1.582325000000000045e+03
1.590000000000000024e-01 4.610674999999999635e-01 1.301944999999999908e+01 1.648525000000000205e+02 1.582279999999999973e+03
