# t [s], A [cm^2], U [cm/s], P [cPa], c [cm/s]
1.000000000000000021e-03 1.226619999999999933e-01 4.903659999999999686e-01 9.367220000000000368e+01 1.828595000000000027e+03
2.000000000000000042e-03 1.226254999999999984e-01 2.258199999999999985e+00 9.014580000000000837e+01 1.828144999999999982e+03
3.000000000000000062e-03 1.225230000000000069e-01 4.343123499999999915e+00 8.560060000000000002e+01 1.826904999999999973e+03
4.000000000000000083e-03 1.223810000000000037e-01 6.632957999999999466e+00 8.092500000000001137e+01 1.825220000000000027e+03
5.000000000000000104e-03 1.222274999999999889e-01 9.052140000000001407e+00 7.692660000000000764e+01 1.823409999999999854e+03
6.000000000000000125e-03 1.220784999999999926e-01 1.141791000000000089e+01 7.376614999999999611e+01 1.821670000000000073e+03
7.000000000000000146e-03 1.219379999999999908e-01 1.352980999999999945e+01 7.113394999999999868e+01 1.820065000000000055e+03
8.000000000000000167e-03 1.218085000000000001e-01 1.531928999999999874e+01 6.877870000000000061e+01 1.818605000000000018e+03
9.000000000000001055e-03 1.216929999999999956e-01 1.683129999999999882e+01 6.672955000000000325e+01 1.817315000000000055e+03
1.000000000000000194e-02 1.215940000000000076e-01 1.810350000000000037e+01 6.504784999999999684e+01 1.816224999999999909e+03
1.099999999999999936e-02 1.215104999999999935e-01 1.914809999999999945e+01 6.369504999999999484e+01 1.815309999999999945e+03
1.200000000000000025e-02 1.214415000000000078e-01 1.998400000000000176e+01 6.261759999999999593e+01 1.814570000000000164e+03
1.300000000000000114e-02 1.213854999999999934e-01 2.063049999999999784e+01 6.177109999999999701e+01 1.813980000000000018e+03
1.400000000000000203e-02 1.213404999999999900e-01 2.109759999999999991e+01 6.108554999999999779e+01 1.813505000000000109e+03
1.499999999999999944e-02 1.213039999999999952e-01 2.141430000000000078e+01 6.051104999999999734e+01 1.813130000000000109e+03
1.600000000000000033e-02 1.212749999999999939e-01 2.166400000000000148e+01 6.012810000000000343e+01 1.812845000000000027e+03
1.700000000000000122e-02 1.212584999999999913e-01 2.197579999999999956e+01 6.017719999999999914e+01 1.812690000000000055e+03
1.800000000000000211e-02 1.212605000000000072e-01 2.246614999999999895e+01 6.093914999999999793e+01 1.812724999999999909e+03
1.900000000000000300e-02 1.212865000000000054e-01 2.317470000000000141e+01 6.254654999999999632e+01 1.813014999999999873e+03
2.000000000000000042e-02 1.213349999999999984e-01 2.403555000000000064e+01 6.485784999999999911e+01 1.813549999999999955e+03
2.100000000000000130e-02 1.214000000000000079e-01 2.489764999999999873e+01 6.746750000000000114e+01 1.814275000000000091e+03
2.200000000000000219e-02 1.214704999999999951e-01 2.558014999999999972e+01 6.983494999999999209e+01 1.815059999999999945e+03
2.299999999999999961e-02 1.215334999999999888e-01 2.593355000000000032e+01 7.146555000000000746e+01 1.815775000000000091e+03
2.400000000000000050e-02 1.215779999999999916e-01 2.588575000000000159e+01 7.206524999999999181e+01 1.816289999999999964e+03
2.500000000000000139e-02 1.215980000000000116e-01 2.545774999999999721e+01 7.161719999999999686e+01 1.816535000000000082e+03
2.600000000000000228e-02 1.215934999999999933e-01 2.474735000000000085e+01 7.036054999999998927e+01 1.816514999999999873e+03
2.700000000000000316e-02 1.215699999999999975e-01 2.389065000000000083e+01 6.868899999999999295e+01 1.816280000000000200e+03
2.800000000000000058e-02 1.215364999999999918e-01 2.301780000000000115e+01 6.701364999999999839e+01 1.815924999999999955e+03
2.900000000000000147e-02 1.215009999999999979e-01 2.221799999999999997e+01 6.564175000000000182e+01 1.815545000000000073e+03
3.000000000000000236e-02 1.214704999999999951e-01 2.152414999999999878e+01 6.470914999999999395e+01 1.815204999999999927e+03
3.099999999999999978e-02 1.214464999999999989e-01 2.091799999999999926e+01 6.417770000000000152e+01 1.814934999999999945e+03
3.200000000000000067e-02 1.214294999999999958e-01 2.034929999999999950e+01 6.388564999999999827e+01 1.814750000000000000e+03
3.300000000000000155e-02 1.214164999999999967e-01 1.976180000000000092e+01 6.362614999999999554e+01 1.814599999999999909e+03
3.400000000000000244e-02 1.214024999999999965e-01 1.911659999999999826e+01 6.322610000000000241e+01 1.814450000000000045e+03
3.500000000000000333e-02 1.213849999999999929e-01 1.840820000000000078e+01 6.260455000000000325e+01 1.814260000000000218e+03
3.600000000000000422e-02 1.213639999999999997e-01 1.766870000000000118e+01 6.179809999999999803e+01 1.814029999999999973e+03
3.700000000000000511e-02 1.213390000000000024e-01 1.696095000000000041e+01 6.094904999999999973e+01 1.813764999999999873e+03
3.799999999999999906e-02 1.213150000000000062e-01 1.636224999999999952e+01 6.026274999999999693e+01 1.813500000000000000e+03
3.899999999999999994e-02 1.212975000000000025e-01 1.594359999999999999e+01 5.994795000000000584e+01 1.813304999999999836e+03
4.000000000000000083e-02 1.212904999999999955e-01 1.575104999999999933e+01 6.015649999999999409e+01 1.813214999999999918e+03
4.100000000000000172e-02 1.212970000000000020e-01 1.579260000000000019e+01 6.093959999999999866e+01 1.813279999999999973e+03
4.200000000000000261e-02 1.213194999999999968e-01 1.603490000000000038e+01 6.223045000000000471e+01 1.813505000000000109e+03
4.300000000000000350e-02 1.213539999999999897e-01 1.640829999999999700e+01 6.385414999999999708e+01 1.813875000000000000e+03
4.400000000000000439e-02 1.213970000000000049e-01 1.681905000000000072e+01 6.556125000000000114e+01 1.814340000000000146e+03
4.499999999999999833e-02 1.214425000000000088e-01 1.716469999999999985e+01 6.707280000000000086e+01 1.814829999999999927e+03
4.599999999999999922e-02 1.214830000000000076e-01 1.734940000000000282e+01 6.812730000000000530e+01 1.815275000000000091e+03
4.700000000000000011e-02 1.215110000000000079e-01 1.729619999999999891e+01 6.851949999999999363e+01 1.815585000000000036e+03
4.800000000000000100e-02 1.215220000000000050e-01 1.695514999999999972e+01 6.812489999999999668e+01 1.815715000000000146e+03
4.900000000000000189e-02 1.215114999999999945e-01 1.630604999999999905e+01 6.690819999999999368e+01 1.815615000000000009e+03
5.000000000000000278e-02 1.214785000000000031e-01 1.535705000000000098e+01 6.491714999999999236e+01 1.815264999999999873e+03
5.100000000000000366e-02 1.214240000000000042e-01 1.414000000000000057e+01 6.226565000000000794e+01 1.814670000000000073e+03
5.200000000000000455e-02 1.213494999999999990e-01 1.270454000000000150e+01 5.911200000000000188e+01 1.813860000000000127e+03
5.300000000000000544e-02 1.212590000000000057e-01 1.111149999999999949e+01 5.563625000000000398e+01 1.812875000000000000e+03
5.399999999999999939e-02 1.211575000000000013e-01 9.427775000000000460e+00 5.202264999999999873e+01 1.811759999999999991e+03
5.500000000000000028e-02 1.210495000000000043e-01 7.722435000000000827e+00 4.844655000000000200e+01 1.810575000000000045e+03
5.600000000000000117e-02 1.209400000000000058e-01 6.064250000000000362e+00 4.506889999999999930e+01 1.809380000000000109e+03
5.700000000000000205e-02 1.208344999999999975e-01 4.520313500000000317e+00 4.203425000000000011e+01 1.808210000000000036e+03
5.800000000000000294e-02 1.207364999999999966e-01 3.155517999999999823e+00 3.947244999999999493e+01 1.807130000000000109e+03
5.900000000000000383e-02 1.206504999999999939e-01 2.031700500000000353e+00 3.750104999999999933e+01 1.806184999999999945e+03
6.000000000000000472e-02 1.205819999999999947e-01 1.206700000000000106e+00 3.622599999999999909e+01 1.805414999999999964e+03
6.099999999999999867e-02 1.205330000000000013e-01 7.327414999999999345e-01 3.574145000000000039e+01 1.804869999999999891e+03
6.199999999999999956e-02 1.205080000000000040e-01 6.543005000000000626e-01 3.612624999999999886e+01 1.804569999999999936e+03
6.300000000000000044e-02 1.205094999999999916e-01 1.005630500000000094e+00 3.743970000000000198e+01 1.804565000000000055e+03
6.400000000000000133e-02 1.205390000000000073e-01 1.808276500000000064e+00 3.971580000000000155e+01 1.804865000000000009e+03
6.500000000000000222e-02 1.205984999999999974e-01 3.069049999999999834e+00 4.295810000000000173e+01 1.805494999999999891e+03
6.600000000000000311e-02 1.206880000000000036e-01 4.778834999999999944e+00 4.713669999999999760e+01 1.806450000000000045e+03
6.700000000000000400e-02 1.208079999999999987e-01 6.912465000000000082e+00 5.218719999999999715e+01 1.807740000000000009e+03
6.800000000000000488e-02 1.209554999999999936e-01 9.429850000000000065e+00 5.801310000000000144e+01 1.809345000000000027e+03
6.900000000000000577e-02 1.211295000000000011e-01 1.227814500000000031e+01 6.449109999999998877e+01 1.811240000000000009e+03
7.000000000000000666e-02 1.213255000000000028e-01 1.539469499999999869e+01 7.147875000000000512e+01 1.813384999999999991e+03
7.100000000000000755e-02 1.215394999999999948e-01 1.871065000000000111e+01 7.882285000000000252e+01 1.815740000000000009e+03
7.200000000000000844e-02 1.217680000000000012e-01 2.215439999999999898e+01 8.636915000000000475e+01 1.818259999999999991e+03
7.300000000000000933e-02 1.220055000000000028e-01 2.565494999999999948e+01 9.396969999999998890e+01 1.820894999999999982e+03
7.399999999999999634e-02 1.222479999999999956e-01 2.914464999999999861e+01 1.014900999999999982e+02 1.823599999999999909e+03
7.499999999999999722e-02 1.224910000000000027e-01 3.256165000000000020e+01 1.088139000000000038e+02 1.826319999999999936e+03
7.599999999999999811e-02 1.227304999999999924e-01 3.585164999999999935e+01 1.158455000000000013e+02 1.829019999999999982e+03
7.699999999999999900e-02 1.229645000000000044e-01 3.896930000000000405e+01 1.225130000000000052e+02 1.831664999999999964e+03
7.799999999999999989e-02 1.231895000000000073e-01 4.187924999999999898e+01 1.287669999999999959e+02 1.834215000000000146e+03
7.900000000000000078e-02 1.234029999999999988e-01 4.455660000000000309e+01 1.345805000000000007e+02 1.836654999999999973e+03
8.000000000000000167e-02 1.236055000000000070e-01 4.698730000000000473e+01 1.399509999999999934e+02 1.838965000000000146e+03
8.100000000000000255e-02 1.237945000000000018e-01 4.916795000000000471e+01 1.448949999999999818e+02 1.841139999999999873e+03
8.200000000000000344e-02 1.239719999999999989e-01 5.110540000000000305e+01 1.494484999999999957e+02 1.843179999999999836e+03
8.300000000000000433e-02 1.241369999999999973e-01 5.281515000000000271e+01 1.536614999999999895e+02 1.845095000000000027e+03
8.400000000000000522e-02 1.242914999999999992e-01 5.432025000000000148e+01 1.575974999999999966e+02 1.846889999999999873e+03
8.500000000000000611e-02 1.244374999999999926e-01 5.564920000000000044e+01 1.613245000000000005e+02 1.848585000000000036e+03
8.600000000000000699e-02 1.245759999999999923e-01 5.683370000000000033e+01 1.649144999999999754e+02 1.850200000000000045e+03
8.700000000000000788e-02 1.247095000000000009e-01 5.790625000000000000e+01 1.684354999999999905e+02 1.851759999999999991e+03
8.800000000000000877e-02 1.248394999999999921e-01 5.889804999999999779e+01 1.719484999999999957e+02 1.853275000000000091e+03
8.899999999999999578e-02 1.249685000000000101e-01 5.983679999999999666e+01 1.755020000000000095e+02 1.854785000000000082e+03
8.999999999999999667e-02 1.250964999999999994e-01 6.074515000000000242e+01 1.791299999999999955e+02 1.856284999999999854e+03
9.099999999999999756e-02 1.252270000000000050e-01 6.163925000000000409e+01 1.828485000000000014e+02 1.857795000000000073e+03
9.199999999999999845e-02 1.253579999999999972e-01 6.252810000000000201e+01 1.866574999999999989e+02 1.859325000000000045e+03
9.299999999999999933e-02 1.254909999999999914e-01 6.341335000000000122e+01 1.905395000000000039e+02 1.860880000000000109e+03
9.400000000000000022e-02 1.256249999999999867e-01 6.428985000000000127e+01 1.944610000000000127e+02 1.862445000000000164e+03
9.500000000000000111e-02 1.257599999999999829e-01 6.514594999999999914e+01 1.983774999999999977e+02 1.864025000000000091e+03
9.600000000000000200e-02 1.258944999999999925e-01 6.596520000000001005e+01 2.022345000000000255e+02 1.865595000000000027e+03
9.700000000000000289e-02 1.260264999999999858e-01 6.672704999999999131e+01 2.059705000000000155e+02 1.867139999999999873e+03
9.800000000000000377e-02 1.261549999999999894e-01 6.740889999999998849e+01 2.095235000000000127e+02 1.868650000000000091e+03
9.900000000000000466e-02 1.262774999999999870e-01 6.798734999999999218e+01 2.128329999999999984e+02 1.870090000000000146e+03
1.000000000000000056e-01 1.263930000000000053e-01 6.843965000000000032e+01 2.158425000000000011e+02 1.871450000000000045e+03
1.010000000000000064e-01 1.264990000000000003e-01 6.874510000000000787e+01 2.185040000000000191e+02 1.872704999999999927e+03
1.020000000000000073e-01 1.265944999999999987e-01 6.888604999999999734e+01 2.207769999999999868e+02 1.873840000000000146e+03
1.030000000000000082e-01 1.266784999999999994e-01 6.884900000000000375e+01 2.226345000000000027e+02 1.874835000000000036e+03
1.040000000000000091e-01 1.267495000000000149e-01 6.862520000000000664e+01 2.240595000000000141e+02 1.875684999999999945e+03
1.050000000000000100e-01 1.268070000000000030e-01 6.821084999999999354e+01 2.250480000000000018e+02 1.876380000000000109e+03
1.059999999999999970e-01 1.268509999999999915e-01 6.760750000000000171e+01 2.256075000000000159e+02 1.876909999999999854e+03
1.069999999999999979e-01 1.268809999999999938e-01 6.682184999999999775e+01 2.257554999999999836e+02 1.877284999999999854e+03
1.079999999999999988e-01 1.268980000000000108e-01 6.586549999999999727e+01 2.255224999999999795e+02 1.877505000000000109e+03
1.089999999999999997e-01 1.269029999999999880e-01 6.475424999999999898e+01 2.249439999999999884e+02 1.877569999999999936e+03
1.100000000000000006e-01 1.268960000000000088e-01 6.350755000000000194e+01 2.240640000000000214e+02 1.877505000000000109e+03
1.110000000000000014e-01 1.268789999999999918e-01 6.214790000000000703e+01 2.229314999999999998e+02 1.877315000000000055e+03
1.120000000000000023e-01 1.268519999999999925e-01 6.069944999999999879e+01 2.215969999999999800e+02 1.877019999999999982e+03
1.130000000000000032e-01 1.268185000000000007e-01 5.918750000000000000e+01 2.201134999999999877e+02 1.876634999999999991e+03
1.140000000000000041e-01 1.267790000000000028e-01 5.763739999999999952e+01 2.185314999999999941e+02 1.876175000000000182e+03
1.150000000000000050e-01 1.267350000000000143e-01 5.607359999999999900e+01 2.168990000000000009e+02 1.875664999999999964e+03
1.160000000000000059e-01 1.266880000000000228e-01 5.451899999999999835e+01 2.152610000000000241e+02 1.875115000000000009e+03
1.170000000000000068e-01 1.266395000000000159e-01 5.299399999999999977e+01 2.136555000000000177e+02 1.874550000000000182e+03
1.180000000000000077e-01 1.265910000000000091e-01 5.151639999999999731e+01 2.121144999999999925e+02 1.873980000000000018e+03
1.190000000000000085e-01 1.265429999999999888e-01 5.010014999999999930e+01 2.106610000000000014e+02 1.873414999999999964e+03
1.200000000000000094e-01 1.264969999999999983e-01 4.875580000000000069e+01 2.093125000000000000e+02 1.872869999999999891e+03
1.209999999999999964e-01 1.264530000000000098e-01 4.749004999999999654e+01 2.080785000000000196e+02 1.872349999999999909e+03
1.219999999999999973e-01 1.264119999999999966e-01 4.630559999999999832e+01 2.069590000000000032e+02 1.871865000000000009e+03
1.229999999999999982e-01 1.263734999999999997e-01 4.520145000000000124e+01 2.059474999999999909e+02 1.871404999999999973e+03
1.239999999999999991e-01 1.263384999999999925e-01 4.417340000000000089e+01 2.050314999999999941e+02 1.870980000000000018e+03
1.250000000000000000e-01 1.263054999999999872e-01 4.321394999999999698e+01 2.041935000000000002e+02 1.870590000000000146e+03
1.260000000000000009e-01 1.262749999999999984e-01 4.231314999999999316e+01 2.034095000000000084e+02 1.870219999999999800e+03
1.270000000000000018e-01 1.262459999999999971e-01 4.145909999999999940e+01 2.026539999999999964e+02 1.869875000000000000e+03
1.280000000000000027e-01 1.262179999999999969e-01 4.063854999999999507e+01 2.018979999999999961e+02 1.869539999999999964e+03
1.290000000000000036e-01 1.261899999999999966e-01 3.983755000000000024e+01 2.011140000000000043e+02 1.869204999999999927e+03
1.300000000000000044e-01 1.261615000000000097e-01 3.904189999999999827e+01 2.002735000000000127e+02 1.868865000000000009e+03
1.310000000000000053e-01 1.261309999999999931e-01 3.823805000000000121e+01 1.993509999999999991e+02 1.868509999999999991e+03
1.320000000000000062e-01 1.260990000000000166e-01 3.741340000000000288e+01 1.983229999999999791e+02 1.868130000000000109e+03
1.330000000000000071e-01 1.260640000000000094e-01 3.655700000000000216e+01 1.971700000000000159e+02 1.867714999999999918e+03
1.340000000000000080e-01 1.260254999999999848e-01 3.565975000000000250e+01 1.958774999999999977e+02 1.867260000000000218e+03
1.350000000000000089e-01 1.259819999999999829e-01 3.471490000000000009e+01 1.944354999999999905e+02 1.866755000000000109e+03
1.360000000000000098e-01 1.259349999999999914e-01 3.371804999999999808e+01 1.928404999999999916e+02 1.866204999999999927e+03
1.370000000000000107e-01 1.258829999999999949e-01 3.266774999999999807e+01 1.910929999999999893e+02 1.865605000000000018e+03
1.380000000000000115e-01 1.258265000000000078e-01 3.156504999999999939e+01 1.891999999999999886e+02 1.864950000000000045e+03
1.390000000000000124e-01 1.257655000000000023e-01 3.041375000000000028e+01 1.871754999999999995e+02 1.864235000000000127e+03
1.400000000000000133e-01 1.257004999999999928e-01 2.922015000000000384e+01 1.850349999999999966e+02 1.863480000000000018e+03
1.410000000000000142e-01 1.256315000000000071e-01 2.799300000000000210e+01 1.828009999999999877e+02 1.862680000000000064e+03
1.420000000000000151e-01 1.255590000000000039e-01 2.674269999999999925e+01 1.804989999999999952e+02 1.861845000000000027e+03
1.430000000000000160e-01 1.254850000000000132e-01 2.548134999999999906e+01 1.781560000000000059e+02 1.860980000000000018e+03
1.440000000000000169e-01 1.254085000000000061e-01 2.422214999999999918e+01 1.758020000000000209e+02 1.860095000000000027e+03
1.450000000000000178e-01 1.253314999999999846e-01 2.297889999999999944e+01 1.734675000000000011e+02 1.859199999999999818e+03
1.459999999999999909e-01 1.252544999999999908e-01 2.176520000000000010e+01 1.711814999999999998e+02 1.858309999999999945e+03
1.469999999999999918e-01 1.251784999999999981e-01 2.059445000000000192e+01 1.689714999999999918e+02 1.857424999999999955e+03
1.479999999999999927e-01 1.251045000000000074e-01 1.947869999999999990e+01 1.668629999999999995e+02 1.856570000000000164e+03
1.489999999999999936e-01 1.250324999999999909e-01 1.842895000000000039e+01 1.648774999999999977e+02 1.855735000000000127e+03
1.499999999999999944e-01 1.249649999999999928e-01 1.745400000000000063e+01 1.630325000000000273e+02 1.854950000000000045e+03
1.509999999999999953e-01 1.249009999999999981e-01 1.656065000000000254e+01 1.613385000000000105e+02 1.854199999999999818e+03
1.519999999999999962e-01 1.248409999999999936e-01 1.575329999999999941e+01 1.598045000000000186e+02 1.853509999999999991e+03
1.529999999999999971e-01 1.247859999999999941e-01 1.503395000000000081e+01 1.584309999999999832e+02 1.852869999999999891e+03
1.539999999999999980e-01 1.247365000000000002e-01 1.440199999999999925e+01 1.572150000000000034e+02 1.852280000000000200e+03
1.549999999999999989e-01 1.246904999999999958e-01 1.385464999999999947e+01 1.561485000000000127e+02 1.851750000000000000e+03
1.559999999999999998e-01 1.246504999999999974e-01 1.338700000000000045e+01 1.552180000000000177e+02 1.851275000000000091e+03
1.570000000000000007e-01 1.246140000000000025e-01 1.299214999999999876e+01 1.544080000000000155e+02 1.850849999999999909e+03
1.580000000000000016e-01 1.245819999999999983e-01 1.266185000000000116e+01 1.537005000000000052e+02 1.850474999999999909e+03
1.590000000000000024e-01 1.245529999999999970e-01 1.238680000000000092e+01 1.530755000000000052e+02 1.850130000000000109e+03
