# t [s], A [cm^2], U [cm/s], P [cPa], c [cm/s]
1.000000000000000021e-03 1.557045000000000234e-01 2.482534999999999881e-01 9.608445000000000391e+01 1.803119999999999891e+03
2.000000000000000042e-03 1.556794999999999984e-01 1.696118999999999932e+00 9.334815000000000396e+01 1.802904999999999973e+03
3.000000000000000062e-03 1.555805000000000105e-01 3.490187500000000220e+00 8.973340000000000316e+01 1.802105000000000018e+03
4.000000000000000083e-03 1.554289999999999838e-01 5.482043090000000340e+00 8.561809999999999832e+01 1.800910000000000082e+03
5.000000000000000104e-03 1.552530000000000021e-01 7.622635000000000716e+00 8.166120000000000800e+01 1.799530000000000200e+03
6.000000000000000125e-03 1.550715000000000010e-01 9.820109999999999673e+00 7.824885000000000446e+01 1.798125000000000000e+03
7.000000000000000146e-03 1.548964999999999925e-01 1.192834500000000020e+01 7.540010000000000900e+01 1.796779999999999973e+03
8.000000000000000167e-03 1.547310000000000074e-01 1.381887499999999847e+01 7.293059999999999832e+01 1.795534999999999854e+03
9.000000000000001055e-03 1.545779999999999932e-01 1.545153999999999961e+01 7.072055000000000291e+01 1.794394999999999982e+03
1.000000000000000194e-02 1.544409999999999950e-01 1.684935000000000116e+01 6.878999999999999204e+01 1.793384999999999991e+03
1.099999999999999936e-02 1.543215000000000003e-01 1.803705000000000069e+01 6.717825000000000557e+01 1.792515000000000100e+03
1.200000000000000025e-02 1.542204999999999826e-01 1.902684999999999960e+01 6.587500000000000000e+01 1.791785000000000082e+03
1.300000000000000114e-02 1.541359999999999952e-01 1.982925000000000182e+01 6.484215000000000373e+01 1.791190000000000055e+03
1.400000000000000203e-02 1.540675000000000239e-01 2.045295000000000130e+01 6.403010000000000446e+01 1.790704999999999927e+03
1.499999999999999944e-02 1.540114999999999956e-01 2.090444999999999709e+01 6.337604999999999933e+01 1.790319999999999936e+03
1.600000000000000033e-02 1.539659999999999918e-01 2.120159999999999911e+01 6.282959999999999923e+01 1.790014999999999873e+03
1.700000000000000122e-02 1.539294999999999969e-01 2.139175000000000182e+01 6.240505000000000280e+01 1.789775000000000091e+03
1.800000000000000211e-02 1.539035000000000264e-01 2.155284999999999940e+01 6.220954999999999302e+01 1.789610000000000127e+03
1.900000000000000300e-02 1.538935000000000164e-01 2.177159999999999940e+01 6.240944999999999254e+01 1.789554999999999836e+03
2.000000000000000042e-02 1.539030000000000120e-01 2.211005000000000109e+01 6.314894999999999925e+01 1.789634999999999991e+03
2.100000000000000130e-02 1.539345000000000019e-01 2.258140000000000214e+01 6.446935000000000571e+01 1.789869999999999891e+03
2.200000000000000219e-02 1.539874999999999994e-01 2.314410000000000167e+01 6.626999999999999602e+01 1.790264999999999873e+03
2.299999999999999961e-02 1.540560000000000263e-01 2.371735000000000326e+01 6.832634999999999081e+01 1.790764999999999873e+03
2.400000000000000050e-02 1.541325000000000056e-01 2.420640000000000214e+01 7.035070000000000334e+01 1.791329999999999927e+03
2.500000000000000139e-02 1.542064999999999964e-01 2.453020000000000067e+01 7.206995000000000573e+01 1.791884999999999991e+03
2.600000000000000228e-02 1.542709999999999915e-01 2.464150000000000063e+01 7.329210000000000491e+01 1.792364999999999782e+03
2.700000000000000316e-02 1.543200000000000127e-01 2.453419999999999845e+01 7.394499999999999318e+01 1.792744999999999891e+03
2.800000000000000058e-02 1.543514999999999748e-01 2.423975000000000080e+01 7.407685000000000741e+01 1.793000000000000000e+03
2.900000000000000147e-02 1.543680000000000052e-01 2.381235000000000213e+01 7.382519999999999527e+01 1.793130000000000109e+03
3.000000000000000236e-02 1.543714999999999948e-01 2.331135000000000090e+01 7.336634999999999707e+01 1.793175000000000182e+03
3.099999999999999978e-02 1.543680000000000052e-01 2.278484999999999872e+01 7.286214999999999975e+01 1.793159999999999854e+03
3.200000000000000067e-02 1.543609999999999982e-01 2.225959999999999894e+01 7.242095000000000482e+01 1.793109999999999900e+03
3.300000000000000155e-02 1.543529999999999902e-01 2.173870000000000147e+01 7.207970000000000255e+01 1.793059999999999945e+03
3.400000000000000244e-02 1.543459999999999832e-01 2.120725000000000193e+01 7.181010000000000559e+01 1.793009999999999991e+03
3.500000000000000333e-02 1.543379999999999752e-01 2.064139999999999731e+01 7.154189999999999827e+01 1.792949999999999818e+03
3.600000000000000422e-02 1.543269999999999920e-01 2.002015000000000100e+01 7.119509999999999650e+01 1.792880000000000109e+03
3.700000000000000511e-02 1.543125000000000191e-01 1.933474999999999966e+01 7.071200000000000330e+01 1.792775000000000091e+03
3.799999999999999906e-02 1.542919999999999847e-01 1.859490000000000265e+01 7.008029999999999404e+01 1.792634999999999991e+03
3.899999999999999994e-02 1.542675000000000018e-01 1.782945000000000135e+01 6.934305000000000518e+01 1.792454999999999927e+03
4.000000000000000083e-02 1.542405000000000026e-01 1.708265000000000100e+01 6.859305000000000518e+01 1.792264999999999873e+03
4.100000000000000172e-02 1.542135000000000034e-01 1.640565000000000140e+01 6.795420000000000016e+01 1.792069999999999936e+03
4.200000000000000261e-02 1.541919999999999957e-01 1.584670000000000023e+01 6.755434999999999945e+01 1.791910000000000082e+03
4.300000000000000350e-02 1.541794999999999971e-01 1.544134999999999991e+01 6.749690000000001078e+01 1.791815000000000055e+03
4.400000000000000439e-02 1.541795000000000249e-01 1.520570000000000022e+01 6.783754999999999313e+01 1.791809999999999945e+03
4.499999999999999833e-02 1.541934999999999834e-01 1.513295000000000101e+01 6.857179999999999609e+01 1.791900000000000091e+03
4.599999999999999922e-02 1.542209999999999970e-01 1.519505000000000017e+01 6.963450000000000273e+01 1.792085000000000036e+03
4.700000000000000011e-02 1.542594999999999938e-01 1.534725000000000072e+01 7.091009999999999991e+01 1.792360000000000127e+03
4.800000000000000100e-02 1.543054999999999843e-01 1.553480000000000061e+01 7.225219999999998777e+01 1.792684999999999945e+03
4.900000000000000189e-02 1.543539999999999912e-01 1.570085000000000086e+01 7.350480000000000302e+01 1.793034999999999854e+03
5.000000000000000278e-02 1.543990000000000085e-01 1.579325000000000045e+01 7.452404999999998836e+01 1.793365000000000009e+03
5.100000000000000366e-02 1.544365000000000043e-01 1.576984999999999992e+01 7.519499999999999318e+01 1.793639999999999873e+03
5.200000000000000455e-02 1.544619999999999882e-01 1.560139999999999993e+01 7.544210000000001060e+01 1.793835000000000036e+03
5.300000000000000544e-02 1.544729999999999992e-01 1.527285000000000004e+01 7.523255000000000337e+01 1.793914999999999964e+03
5.399999999999999939e-02 1.544675000000000076e-01 1.478204999999999991e+01 7.457330000000000325e+01 1.793880000000000109e+03
5.500000000000000028e-02 1.544455000000000133e-01 1.413759999999999906e+01 7.350395000000000323e+01 1.793730000000000018e+03
5.600000000000000117e-02 1.544079999999999897e-01 1.335620000000000118e+01 7.208660000000000423e+01 1.793465000000000146e+03
5.700000000000000205e-02 1.543565000000000076e-01 1.245938999999999908e+01 7.039549999999999841e+01 1.793090000000000146e+03
5.800000000000000294e-02 1.542935000000000001e-01 1.147171499999999966e+01 6.850870000000000459e+01 1.792634999999999991e+03
5.900000000000000383e-02 1.542215000000000114e-01 1.041890000000000072e+01 6.650175000000000125e+01 1.792115000000000009e+03
6.000000000000000472e-02 1.541430000000000022e-01 9.326969999999999317e+00 6.444450000000000500e+01 1.791545000000000073e+03
6.099999999999999867e-02 1.540614999999999901e-01 8.222199999999999065e+00 6.239999999999999858e+01 1.790949999999999818e+03
6.199999999999999956e-02 1.539785000000000181e-01 7.131085000000000562e+00 6.042609999999999815e+01 1.790345000000000027e+03
6.300000000000000044e-02 1.538970000000000060e-01 6.080835000000000434e+00 5.857685000000000031e+01 1.789744999999999891e+03
6.400000000000000133e-02 1.538189999999999835e-01 5.099370000000000402e+00 5.690500000000000114e+01 1.789175000000000182e+03
6.500000000000000222e-02 1.537474999999999814e-01 4.215234999999999843e+00 5.546294999999999931e+01 1.788644999999999982e+03
6.600000000000000311e-02 1.536839999999999873e-01 3.457174999999999887e+00 5.430324999999999847e+01 1.788179999999999836e+03
6.700000000000000400e-02 1.536319999999999908e-01 2.853259999999999685e+00 5.347750000000000625e+01 1.787789999999999964e+03
6.800000000000000488e-02 1.535924999999999929e-01 2.429784999999999862e+00 5.303470000000000084e+01 1.787494999999999891e+03
6.900000000000000577e-02 1.535680000000000101e-01 2.210040000000000227e+00 5.301860000000000639e+01 1.787309999999999945e+03
7.000000000000000666e-02 1.535610000000000031e-01 2.213029999999999831e+00 5.346465000000000600e+01 1.787240000000000009e+03
7.100000000000000755e-02 1.535725000000000007e-01 2.452374999999999972e+00 5.439744999999999919e+01 1.787315000000000055e+03
7.200000000000000844e-02 1.536035000000000039e-01 2.935475000000000279e+00 5.582845000000000368e+01 1.787525000000000091e+03
7.300000000000000933e-02 1.536555000000000004e-01 3.663024999999999753e+00 5.775495000000000090e+01 1.787884999999999991e+03
7.399999999999999634e-02 1.537274999999999892e-01 4.628909999999999414e+00 6.015950000000000131e+01 1.788389999999999873e+03
7.499999999999999722e-02 1.538190000000000113e-01 5.820479999999999876e+00 6.301064999999999827e+01 1.789050000000000182e+03
7.599999999999999811e-02 1.539300000000000113e-01 7.219184999999999519e+00 6.626470000000000482e+01 1.789845000000000027e+03
7.699999999999999900e-02 1.540575000000000139e-01 8.801420000000000243e+00 6.986764999999999759e+01 1.790769999999999982e+03
7.799999999999999989e-02 1.542014999999999914e-01 1.053967499999999902e+01 7.375830000000000553e+01 1.791809999999999945e+03
7.900000000000000078e-02 1.543579999999999952e-01 1.240360999999999869e+01 7.787110000000001264e+01 1.792949999999999818e+03
8.000000000000000167e-02 1.545249999999999957e-01 1.436130499999999799e+01 8.213915000000000077e+01 1.794164999999999964e+03
8.100000000000000255e-02 1.547010000000000052e-01 1.638070000000000093e+01 8.649710000000000321e+01 1.795454999999999927e+03
8.200000000000000344e-02 1.548815000000000053e-01 1.843045000000000044e+01 9.088384999999999536e+01 1.796780000000000200e+03
8.300000000000000433e-02 1.550655000000000228e-01 2.048114999999999952e+01 9.524445000000000050e+01 1.798139999999999873e+03
8.400000000000000522e-02 1.552505000000000135e-01 2.250619999999999976e+01 9.953294999999999959e+01 1.799505000000000109e+03
8.500000000000000611e-02 1.554340000000000166e-01 2.448264999999999958e+01 1.037121999999999957e+02 1.800865000000000009e+03
8.600000000000000699e-02 1.556155000000000177e-01 2.639154999999999873e+01 1.077550500000000113e+02 1.802210000000000036e+03
8.700000000000000788e-02 1.557919999999999860e-01 2.821815000000000140e+01 1.116454999999999984e+02 1.803529999999999973e+03
8.800000000000000877e-02 1.559639999999999915e-01 2.995214999999999961e+01 1.153769999999999953e+02 1.804815000000000055e+03
8.899999999999999578e-02 1.561309999999999920e-01 3.158720000000000283e+01 1.189509999999999934e+02 1.806065000000000055e+03
8.999999999999999667e-02 1.562919999999999865e-01 3.312075000000000102e+01 1.223760000000000048e+02 1.807269999999999982e+03
9.099999999999999756e-02 1.564475000000000171e-01 3.455320000000000391e+01 1.256659999999999968e+02 1.808445000000000164e+03
9.199999999999999845e-02 1.565985000000000016e-01 3.588734999999999786e+01 1.288379999999999939e+02 1.809579999999999927e+03
9.299999999999999933e-02 1.567445000000000088e-01 3.712765000000000271e+01 1.319114999999999895e+02 1.810684999999999945e+03
9.400000000000000022e-02 1.568859999999999977e-01 3.827949999999999875e+01 1.349025000000000034e+02 1.811755000000000109e+03
9.500000000000000111e-02 1.570245000000000113e-01 3.934850000000000136e+01 1.378274999999999864e+02 1.812799999999999955e+03
9.600000000000000200e-02 1.571599999999999941e-01 4.033990000000000009e+01 1.406974999999999909e+02 1.813829999999999927e+03
9.700000000000000289e-02 1.572930000000000161e-01 4.125815000000000055e+01 1.435210000000000150e+02 1.814835000000000036e+03
9.800000000000000377e-02 1.574234999999999940e-01 4.210665000000000191e+01 1.463004999999999995e+02 1.815829999999999927e+03
9.900000000000000466e-02 1.575519999999999976e-01 4.288739999999999952e+01 1.490339999999999918e+02 1.816804999999999836e+03
1.000000000000000056e-01 1.576779999999999848e-01 4.360105000000000075e+01 1.517155000000000200e+02 1.817765000000000100e+03
1.010000000000000064e-01 1.578014999999999834e-01 4.424675000000000580e+01 1.543344999999999914e+02 1.818704999999999927e+03
1.020000000000000073e-01 1.579229999999999801e-01 4.482260000000000133e+01 1.568785000000000025e+02 1.819630000000000109e+03
1.030000000000000082e-01 1.580400000000000138e-01 4.532554999999999978e+01 1.593299999999999841e+02 1.820519999999999982e+03
1.040000000000000091e-01 1.581535000000000024e-01 4.575180000000000291e+01 1.616734999999999900e+02 1.821389999999999873e+03
1.050000000000000100e-01 1.582625000000000004e-01 4.609685000000000343e+01 1.638899999999999864e+02 1.822220000000000027e+03
1.059999999999999970e-01 1.583665000000000211e-01 4.635614999999999952e+01 1.659619999999999891e+02 1.823014999999999873e+03
1.069999999999999979e-01 1.584635000000000071e-01 4.652514999999999645e+01 1.678729999999999905e+02 1.823759999999999991e+03
1.079999999999999988e-01 1.585544999999999871e-01 4.659964999999999691e+01 1.696075000000000159e+02 1.824454999999999927e+03
1.089999999999999997e-01 1.586380000000000012e-01 4.657595000000000596e+01 1.711519999999999868e+02 1.825099999999999909e+03
1.100000000000000006e-01 1.587135000000000074e-01 4.645135000000000502e+01 1.724960000000000093e+02 1.825680000000000064e+03
1.110000000000000014e-01 1.587810000000000055e-01 4.622404999999999831e+01 1.736324999999999932e+02 1.826199999999999818e+03
1.120000000000000023e-01 1.588384999999999936e-01 4.589359999999999928e+01 1.745570000000000164e+02 1.826650000000000091e+03
1.130000000000000032e-01 1.588884999999999881e-01 4.546099999999999852e+01 1.752680000000000007e+02 1.827030000000000200e+03
1.140000000000000041e-01 1.589285000000000003e-01 4.492860000000000298e+01 1.757690000000000055e+02 1.827344999999999800e+03
1.150000000000000050e-01 1.589595000000000036e-01 4.430044999999999789e+01 1.760660000000000025e+02 1.827595000000000027e+03
1.160000000000000059e-01 1.589814999999999978e-01 4.358194999999999908e+01 1.761680000000000064e+02 1.827775000000000091e+03
1.170000000000000068e-01 1.589955000000000118e-01 4.278020000000000067e+01 1.760894999999999868e+02 1.827884999999999991e+03
1.180000000000000077e-01 1.590010000000000034e-01 4.190340000000000487e+01 1.758444999999999823e+02 1.827940000000000055e+03
1.190000000000000085e-01 1.589994999999999881e-01 4.096099999999999852e+01 1.754519999999999982e+02 1.827934999999999945e+03
1.200000000000000094e-01 1.589915000000000078e-01 3.996330000000000382e+01 1.749314999999999998e+02 1.827880000000000109e+03
1.209999999999999964e-01 1.589764999999999928e-01 3.892119999999999891e+01 1.743034999999999854e+02 1.827775000000000091e+03
1.219999999999999973e-01 1.589570000000000149e-01 3.784590000000000032e+01 1.735894999999999868e+02 1.827630000000000109e+03
1.229999999999999982e-01 1.589329999999999909e-01 3.674854999999999450e+01 1.728104999999999905e+02 1.827449999999999818e+03
1.239999999999999991e-01 1.589050000000000185e-01 3.563989999999999725e+01 1.719859999999999900e+02 1.827250000000000000e+03
1.250000000000000000e-01 1.588749999999999885e-01 3.453014999999999901e+01 1.711349999999999909e+02 1.827019999999999982e+03
1.260000000000000009e-01 1.588430000000000120e-01 3.342864999999999753e+01 1.702729999999999961e+02 1.826779999999999973e+03
1.270000000000000018e-01 1.588094999999999923e-01 3.234340000000000259e+01 1.694145000000000039e+02 1.826525000000000091e+03
1.280000000000000027e-01 1.587755000000000138e-01 3.128130000000000166e+01 1.685695000000000050e+02 1.826269999999999982e+03
1.290000000000000036e-01 1.587414999999999798e-01 3.024784999999999968e+01 1.677464999999999975e+02 1.826005000000000109e+03
1.300000000000000044e-01 1.587075000000000014e-01 2.924690000000000012e+01 1.669505000000000052e+02 1.825744999999999891e+03
1.310000000000000053e-01 1.586740000000000095e-01 2.828079999999999927e+01 1.661825000000000045e+02 1.825494999999999891e+03
1.320000000000000062e-01 1.586410000000000042e-01 2.735060000000000002e+01 1.654420000000000073e+02 1.825240000000000009e+03
1.330000000000000071e-01 1.586090000000000000e-01 2.645579999999999998e+01 1.647249999999999943e+02 1.824994999999999891e+03
1.340000000000000080e-01 1.585774999999999824e-01 2.559465000000000146e+01 1.640260000000000105e+02 1.824750000000000000e+03
1.350000000000000089e-01 1.585465000000000069e-01 2.476429999999999865e+01 1.633379999999999939e+02 1.824514999999999873e+03
1.360000000000000098e-01 1.585155000000000036e-01 2.396094999999999686e+01 1.626505000000000223e+02 1.824275000000000091e+03
1.370000000000000107e-01 1.584845000000000004e-01 2.318005000000000138e+01 1.619530000000000030e+02 1.824039999999999964e+03
1.380000000000000115e-01 1.584534999999999971e-01 2.241660000000000252e+01 1.612359999999999900e+02 1.823795000000000073e+03
1.390000000000000124e-01 1.584210000000000063e-01 2.166525000000000034e+01 1.604879999999999995e+02 1.823549999999999955e+03
1.400000000000000133e-01 1.583870000000000000e-01 2.092074999999999818e+01 1.596985000000000241e+02 1.823289999999999964e+03
1.410000000000000142e-01 1.583525000000000071e-01 2.017770000000000152e+01 1.588580000000000041e+02 1.823019999999999982e+03
1.420000000000000151e-01 1.583150000000000113e-01 1.943149999999999977e+01 1.579579999999999984e+02 1.822740000000000009e+03
1.430000000000000160e-01 1.582749999999999990e-01 1.867784999999999940e+01 1.569919999999999902e+02 1.822434999999999945e+03
1.440000000000000169e-01 1.582330000000000125e-01 1.791324999999999790e+01 1.559540000000000077e+02 1.822115000000000009e+03
1.450000000000000178e-01 1.581874999999999809e-01 1.713520000000000110e+01 1.548425000000000011e+02 1.821775000000000091e+03
1.459999999999999909e-01 1.581390000000000018e-01 1.634219999999999828e+01 1.536560000000000059e+02 1.821404999999999973e+03
1.469999999999999918e-01 1.580880000000000063e-01 1.553385000000000105e+01 1.523965000000000032e+02 1.821019999999999982e+03
1.479999999999999927e-01 1.580334999999999934e-01 1.471095000000000041e+01 1.510685000000000002e+02 1.820610000000000127e+03
1.489999999999999936e-01 1.579765000000000197e-01 1.387539999999999907e+01 1.496789999999999736e+02 1.820174999999999955e+03
1.499999999999999944e-01 1.579165000000000152e-01 1.303025000000000055e+01 1.482369999999999948e+02 1.819724999999999909e+03
1.509999999999999953e-01 1.578545000000000087e-01 1.217969500000000060e+01 1.467529999999999859e+02 1.819255000000000109e+03
1.519999999999999962e-01 1.577905000000000002e-01 1.132864000000000004e+01 1.452394999999999925e+02 1.818769999999999982e+03
1.529999999999999971e-01 1.577250000000000041e-01 1.048286000000000051e+01 1.437115000000000009e+02 1.818280000000000200e+03
1.539999999999999980e-01 1.576585000000000070e-01 9.648649999999999949e+00 1.421834999999999809e+02 1.817780000000000200e+03
1.549999999999999989e-01 1.575920000000000099e-01 8.832615000000000549e+00 1.406700000000000159e+02 1.817280000000000200e+03
1.559999999999999998e-01 1.575259999999999994e-01 8.041454999999999131e+00 1.391865000000000236e+02 1.816780000000000200e+03
1.570000000000000007e-01 1.574609999999999899e-01 7.281605000000000771e+00 1.377470000000000141e+02 1.816284999999999854e+03
1.580000000000000016e-01 1.573970000000000091e-01 6.559245000000000658e+00 1.363650000000000091e+02 1.815804999999999836e+03
1.590000000000000024e-01 1.573355000000000170e-01 5.879824999999999413e+00 1.350515000000000043e+02 1.815339999999999918e+03
