# t [s], A [cm^2], U [cm/s], P [cPa], c [cm/s]
1.000000000000000021e-03 6.843334999999999280e-01 5.507999999999999008e-03 1.024639999999999986e+02 1.843219999999999800e+03
2.000000000000000042e-03 6.843380000000000019e-01 3.225984999999999964e-02 1.024480000000000075e+02 1.843220000000000027e+03
3.000000000000000062e-03 6.844310000000000116e-01 2.324934500000000182e-01 1.026889999999999930e+02 1.843259999999999991e+03
4.000000000000000083e-03 6.844084999999999752e-01 2.415974499999999914e-01 1.026380000000000052e+02 1.843250000000000000e+03
5.000000000000000104e-03 6.842820000000000569e-01 4.609300000000005060e-02 1.021475000000000080e+02 1.843164999999999964e+03
6.000000000000000125e-03 6.841684999999999572e-01 -1.499349999999999294e-01 1.015109999999999957e+02 1.843045000000000073e+03
7.000000000000000146e-03 6.839530000000000332e-01 -5.692049999999999610e-01 1.004538000000000011e+02 1.842849999999999909e+03
8.000000000000000167e-03 6.836229999999999807e-01 -1.243984999999999896e+00 9.883459999999999468e+01 1.842550000000000182e+03
9.000000000000001055e-03 6.831829999999999847e-01 -2.139529999999999710e+00 9.662174999999999159e+01 1.842134999999999991e+03
1.000000000000000194e-02 6.825805000000000344e-01 -3.321404999999999941e+00 9.364175000000000182e+01 1.841570000000000164e+03
1.099999999999999936e-02 6.818569999999999354e-01 -4.664284999999999570e+00 8.997319999999999141e+01 1.840855000000000018e+03
1.200000000000000025e-02 6.811880000000000157e-01 -5.765401499999999402e+00 8.619759999999999422e+01 1.840090000000000146e+03
1.300000000000000114e-02 6.807365000000000776e-01 -6.233430000000000248e+00 8.304330000000000211e+01 1.839410000000000082e+03
1.400000000000000203e-02 6.805339999999999723e-01 -5.951084999999999958e+00 8.090645000000000664e+01 1.838880000000000109e+03
1.499999999999999944e-02 6.804790000000000560e-01 -5.100590000000000401e+00 7.967150000000000887e+01 1.838519999999999982e+03
1.600000000000000033e-02 6.804160000000000208e-01 -4.030039999999999623e+00 7.883369999999999322e+01 1.838240000000000009e+03
1.700000000000000122e-02 6.802120000000000388e-01 -3.068635000000000002e+00 7.778585000000001060e+01 1.837940000000000055e+03
1.800000000000000211e-02 6.798245000000000537e-01 -2.370138999999999996e+00 7.612935000000000230e+01 1.837549999999999955e+03
1.900000000000000300e-02 6.793069999999999942e-01 -1.869429999999999703e+00 7.384159999999999968e+01 1.837049999999999955e+03
2.000000000000000042e-02 6.787630000000000052e-01 -1.379475000000000007e+00 7.120144999999999413e+01 1.836480000000000018e+03
2.100000000000000130e-02 6.782710000000000683e-01 -7.462749999999997996e-01 6.855375000000000796e+01 1.835889999999999873e+03
2.200000000000000219e-02 6.778435000000000432e-01 4.408000000000011909e-02 6.608539999999999281e+01 1.835325000000000045e+03
2.299999999999999961e-02 6.774260000000000836e-01 8.454500000000000348e-01 6.371869999999999834e+01 1.834769999999999982e+03
2.400000000000000050e-02 6.769199999999999662e-01 1.402434999999999654e+00 6.113394999999999868e+01 1.834180000000000064e+03
2.500000000000000139e-02 6.762245000000000061e-01 1.441435000000000244e+00 5.789085000000000036e+01 1.833474999999999909e+03
2.600000000000000228e-02 6.752759999999999874e-01 7.724650000000004013e-01 5.360519999999999641e+01 1.832595000000000027e+03
2.700000000000000316e-02 6.740760000000000085e-01 -6.332499999999994245e-01 4.811829999999999785e+01 1.831485000000000127e+03
2.800000000000000058e-02 6.726974999999999483e-01 -2.625899999999999679e+00 4.158729999999999905e+01 1.830174999999999955e+03
2.900000000000000147e-02 6.712620000000000253e-01 -4.927360000000000184e+00 3.445485000000000042e+01 1.828730000000000018e+03
3.000000000000000236e-02 6.699019999999999975e-01 -7.217179999999999929e+00 2.732642499999999686e+01 1.827250000000000000e+03
3.099999999999999978e-02 6.687290000000000179e-01 -9.211505000000000720e+00 2.082163800000000009e+01 1.825860000000000127e+03
3.200000000000000067e-02 6.678184999999999816e-01 -1.070940000000000047e+01 1.545347649999999895e+01 1.824664999999999964e+03
3.300000000000000155e-02 6.672065000000000357e-01 -1.160499999999999865e+01 1.156023249999999969e+01 1.823735000000000127e+03
3.400000000000000244e-02 6.668965000000000032e-01 -1.187391500000000022e+01 9.289864999999998929e+00 1.823110000000000127e+03
3.500000000000000333e-02 6.668665000000000287e-01 -1.154619999999999891e+01 8.627064999999999984e+00 1.822824999999999818e+03
3.600000000000000422e-02 6.670875000000000554e-01 -1.067634499999999953e+01 9.445899999999999963e+00 1.822839999999999918e+03
3.700000000000000511e-02 6.675249999999999240e-01 -9.319855000000000445e+00 1.156787835000000086e+01 1.823150000000000091e+03
3.799999999999999906e-02 6.681515000000000093e-01 -7.522890000000000299e+00 1.480610949999999981e+01 1.823710000000000036e+03
3.899999999999999994e-02 6.689410000000000078e-01 -5.326549999999999230e+00 1.898535349999999866e+01 1.824480000000000018e+03
4.000000000000000083e-02 6.698669999999999902e-01 -2.779249999999999332e+00 2.393804999999999694e+01 1.825440000000000055e+03
4.100000000000000172e-02 6.708975000000000355e-01 5.055000000000031690e-02 2.948866999999999905e+01 1.826534999999999854e+03
4.200000000000000261e-02 6.719930000000000625e-01 3.068629999999999747e+00 3.544024999999999892e+01 1.827735000000000127e+03
4.300000000000000350e-02 6.731084999999999985e-01 6.158890000000000420e+00 4.157200000000000273e+01 1.829000000000000000e+03
4.400000000000000439e-02 6.741985000000000339e-01 9.195410000000000750e+00 4.765054999999999552e+01 1.830275000000000091e+03
4.499999999999999833e-02 6.752200000000000424e-01 1.205758499999999955e+01 5.345089999999999719e+01 1.831519999999999982e+03
4.599999999999999922e-02 6.761405000000000332e-01 1.464485000000000170e+01 5.878130000000000166e+01 1.832690000000000055e+03
4.700000000000000011e-02 6.769414999999999738e-01 1.688704999999999856e+01 6.350379999999999825e+01 1.833755000000000109e+03
4.800000000000000100e-02 6.776159999999999961e-01 1.874849999999999994e+01 6.754644999999999300e+01 1.834690000000000055e+03
4.900000000000000189e-02 6.781709999999999683e-01 2.022565000000000168e+01 7.090404999999999802e+01 1.835494999999999891e+03
5.000000000000000278e-02 6.786205000000000709e-01 2.134165000000000134e+01 7.363025000000000375e+01 1.836175000000000182e+03
5.100000000000000366e-02 6.789870000000000072e-01 2.213844999999999885e+01 7.582269999999999754e+01 1.836740000000000009e+03
5.200000000000000455e-02 6.792940000000000644e-01 2.267024999999999935e+01 7.760800000000000409e+01 1.837210000000000036e+03
5.300000000000000544e-02 6.795664999999999623e-01 2.299904999999999688e+01 7.912839999999999918e+01 1.837615000000000009e+03
5.399999999999999939e-02 6.798325000000000617e-01 2.319129999999999825e+01 8.053180000000000405e+01 1.837985000000000127e+03
5.500000000000000028e-02 6.801154999999999839e-01 2.331640000000000157e+01 8.196434999999999604e+01 1.838349999999999909e+03
5.600000000000000117e-02 6.804405000000000037e-01 2.344314999999999927e+01 8.356395000000000550e+01 1.838730000000000018e+03
5.700000000000000205e-02 6.808290000000000175e-01 2.363579999999999970e+01 8.545244999999999891e+01 1.839159999999999854e+03
5.800000000000000294e-02 6.812964999999999716e-01 2.394809999999999661e+01 8.772599999999999909e+01 1.839664999999999964e+03
5.900000000000000383e-02 6.818509999999999849e-01 2.441754999999999853e+01 9.044519999999999982e+01 1.840250000000000000e+03
6.000000000000000472e-02 6.824924999999999464e-01 2.506049999999999756e+01 9.362645000000000550e+01 1.840924999999999955e+03
6.099999999999999867e-02 6.832119999999999305e-01 2.587010000000000076e+01 9.723799999999999955e+01 1.841695000000000164e+03
6.199999999999999956e-02 6.839889999999999581e-01 2.681749999999999901e+01 1.012010999999999967e+02 1.842535000000000082e+03
6.300000000000000044e-02 6.847995000000000054e-01 2.785529999999999973e+01 1.053962500000000091e+02 1.843424999999999955e+03
6.400000000000000133e-02 6.856134999999999868e-01 2.892349999999999710e+01 1.096769999999999925e+02 1.844349999999999909e+03
6.500000000000000222e-02 6.864014999999999977e-01 2.995589999999999975e+01 1.138810000000000002e+02 1.845264999999999873e+03
6.600000000000000311e-02 6.871335000000000637e-01 3.088660000000000139e+01 1.178485000000000014e+02 1.846144999999999982e+03
6.700000000000000400e-02 6.877849999999999797e-01 3.165565000000000140e+01 1.214324999999999903e+02 1.846954999999999927e+03
6.800000000000000488e-02 6.883354999999999890e-01 3.221340000000000003e+01 1.245130000000000052e+02 1.847670000000000073e+03
6.900000000000000577e-02 6.887714999999999810e-01 3.252339999999999520e+01 1.270014999999999930e+02 1.848269999999999982e+03
7.000000000000000666e-02 6.890875000000000750e-01 3.256450000000000244e+01 1.288489999999999895e+02 1.848740000000000009e+03
7.100000000000000755e-02 6.892840000000000078e-01 3.233129999999999882e+01 1.300430000000000064e+02 1.849069999999999936e+03
7.200000000000000844e-02 6.893679999999999808e-01 3.183364999999999867e+01 1.306100000000000136e+02 1.849269999999999982e+03
7.300000000000000933e-02 6.893519999999999648e-01 3.109550000000000125e+01 1.306080000000000041e+02 1.849344999999999800e+03
7.399999999999999634e-02 6.892540000000000333e-01 3.015279999999999916e+01 1.301235000000000070e+02 1.849309999999999945e+03
7.499999999999999722e-02 6.890929999999999556e-01 2.905095000000000027e+01 1.292614999999999839e+02 1.849184999999999945e+03
7.599999999999999811e-02 6.888925000000000187e-01 2.784134999999999849e+01 1.281409999999999911e+02 1.848994999999999891e+03
7.699999999999999900e-02 6.886734999999999385e-01 2.657809999999999917e+01 1.268834999999999980e+02 1.848764999999999873e+03
7.799999999999999989e-02 6.884580000000000144e-01 2.531465000000000032e+01 1.256065000000000111e+02 1.848514999999999873e+03
7.900000000000000078e-02 6.882645000000000568e-01 2.410024999999999906e+01 1.244174999999999898e+02 1.848269999999999982e+03
8.000000000000000167e-02 6.881079999999999419e-01 2.297715000000000174e+01 1.234060000000000059e+02 1.848059999999999945e+03
8.100000000000000255e-02 6.879990000000000272e-01 2.197854999999999848e+01 1.226394999999999982e+02 1.847880000000000109e+03
8.200000000000000344e-02 6.879440000000000000e-01 2.112685000000000102e+01 1.221610000000000014e+02 1.847759999999999991e+03
8.300000000000000433e-02 6.879444999999999588e-01 2.043350000000000222e+01 1.219890000000000043e+02 1.847700000000000045e+03
8.400000000000000522e-02 6.879975000000000396e-01 1.989855000000000018e+01 1.221169999999999902e+02 1.847694999999999936e+03
8.500000000000000611e-02 6.880975000000000286e-01 1.951160000000000139e+01 1.225150000000000006e+02 1.847755000000000109e+03
8.600000000000000699e-02 6.882329999999999837e-01 1.925270000000000081e+01 1.231365000000000123e+02 1.847860000000000127e+03
8.700000000000000788e-02 6.883920000000000039e-01 1.909414999999999907e+01 1.239154999999999944e+02 1.848005000000000109e+03
8.800000000000000877e-02 6.885600000000000609e-01 1.900229999999999819e+01 1.247775000000000034e+02 1.848164999999999964e+03
8.899999999999999578e-02 6.887214999999999865e-01 1.893994999999999962e+01 1.256419999999999959e+02 1.848340000000000146e+03
8.999999999999999667e-02 6.888625000000000442e-01 1.886909999999999954e+01 1.264259999999999877e+02 1.848500000000000000e+03
9.099999999999999756e-02 6.889680000000000248e-01 1.875314999999999799e+01 1.270540000000000020e+02 1.848634999999999991e+03
9.199999999999999845e-02 6.890279999999999738e-01 1.855969999999999942e+01 1.274579999999999984e+02 1.848730000000000018e+03
9.299999999999999933e-02 6.890330000000000066e-01 1.826314999999999955e+01 1.275865000000000009e+02 1.848775000000000091e+03
9.400000000000000022e-02 6.889790000000000081e-01 1.784580000000000055e+01 1.274060000000000059e+02 1.848759999999999991e+03
9.500000000000000111e-02 6.888650000000000606e-01 1.729949999999999832e+01 1.269020000000000010e+02 1.848675000000000182e+03
9.600000000000000200e-02 6.886940000000000284e-01 1.662579999999999814e+01 1.260834999999999866e+02 1.848525000000000091e+03
9.700000000000000289e-02 6.884719999999999729e-01 1.583610000000000184e+01 1.249795000000000016e+02 1.848315000000000055e+03
9.800000000000000377e-02 6.882099999999999884e-01 1.495035500000000006e+01 1.236364999999999839e+02 1.848049999999999955e+03
9.900000000000000466e-02 6.879205000000000458e-01 1.399601999999999968e+01 1.221175000000000068e+02 1.847740000000000009e+03
1.000000000000000056e-01 6.876174999999999926e-01 1.300585999999999842e+01 1.204969999999999999e+02 1.847409999999999854e+03
1.010000000000000064e-01 6.873164999999999969e-01 1.201613499999999846e+01 1.188545000000000016e+02 1.847065000000000055e+03
1.020000000000000073e-01 6.870319999999999760e-01 1.106370500000000057e+01 1.172704999999999984e+02 1.846724999999999909e+03
1.030000000000000082e-01 6.867775000000000407e-01 1.018403499999999973e+01 1.158224999999999909e+02 1.846404999999999973e+03
1.040000000000000091e-01 6.865645000000000220e-01 9.408689999999999998e+00 1.145775000000000006e+02 1.846125000000000000e+03
1.050000000000000100e-01 6.864025000000000265e-01 8.763215000000000643e+00 1.135889999999999986e+02 1.845889999999999873e+03
1.059999999999999970e-01 6.862964999999999760e-01 8.266049999999999898e+00 1.128944999999999936e+02 1.845714999999999918e+03
1.069999999999999979e-01 6.862489999999999979e-01 7.927260000000000417e+00 1.125144999999999982e+02 1.845599999999999909e+03
1.079999999999999988e-01 6.862580000000000346e-01 7.748429999999999929e+00 1.124474999999999909e+02 1.845549999999999955e+03
1.089999999999999997e-01 6.863200000000000411e-01 7.722894999999999399e+00 1.126785000000000139e+02 1.845565000000000055e+03
1.100000000000000006e-01 6.864280000000000381e-01 7.836555000000000604e+00 1.131744999999999948e+02 1.845634999999999991e+03
1.110000000000000014e-01 6.865725000000000300e-01 8.069084999999999397e+00 1.138890000000000100e+02 1.845759999999999991e+03
1.120000000000000023e-01 6.867429999999999923e-01 8.395414999999999850e+00 1.147699999999999960e+02 1.845920000000000073e+03
1.130000000000000032e-01 6.869279999999999831e-01 8.787335000000000562e+00 1.157554999999999978e+02 1.846110000000000127e+03
1.140000000000000041e-01 6.871164999999999079e-01 9.215230000000000032e+00 1.167865000000000038e+02 1.846320000000000164e+03
1.150000000000000050e-01 6.872979999999999645e-01 9.649715000000000487e+00 1.178024999999999949e+02 1.846525000000000091e+03
1.160000000000000059e-01 6.874640000000000750e-01 1.006314499999999867e+01 1.187489999999999952e+02 1.846724999999999909e+03
1.170000000000000068e-01 6.876050000000000217e-01 1.043094999999999928e+01 1.195809999999999889e+02 1.846904999999999973e+03
1.180000000000000077e-01 6.877159999999999940e-01 1.073284999999999911e+01 1.202609999999999957e+02 1.847059999999999945e+03
1.190000000000000085e-01 6.877930000000000987e-01 1.095354999999999990e+01 1.207634999999999934e+02 1.847180000000000064e+03
1.200000000000000094e-01 6.878345000000000153e-01 1.108327500000000043e+01 1.210755000000000052e+02 1.847269999999999982e+03
1.209999999999999964e-01 6.878414999999999946e-01 1.111798500000000089e+01 1.211949999999999932e+02 1.847309999999999945e+03
1.219999999999999973e-01 6.878155000000000241e-01 1.105938000000000088e+01 1.211310000000000002e+02 1.847315000000000055e+03
1.229999999999999982e-01 6.877619999999999845e-01 1.091427999999999976e+01 1.209029999999999916e+02 1.847289999999999964e+03
1.239999999999999991e-01 6.876849999999999907e-01 1.069429500000000033e+01 1.205384999999999991e+02 1.847230000000000018e+03
1.250000000000000000e-01 6.875925000000000509e-01 1.041445000000000043e+01 1.200715000000000003e+02 1.847144999999999982e+03
1.260000000000000009e-01 6.874915000000000331e-01 1.009268499999999946e+01 1.195395000000000039e+02 1.847045000000000073e+03
1.270000000000000018e-01 6.873894999999999866e-01 9.748120000000000118e+00 1.189839999999999947e+02 1.846940000000000055e+03
1.280000000000000027e-01 6.872924999999999729e-01 9.400090000000000501e+00 1.184410000000000025e+02 1.846825000000000045e+03
1.290000000000000036e-01 6.872074999999999712e-01 9.067045000000000243e+00 1.179480000000000075e+02 1.846724999999999909e+03
1.300000000000000044e-01 6.871400000000000841e-01 8.765060000000000073e+00 1.175339999999999918e+02 1.846634999999999991e+03
1.310000000000000053e-01 6.870924999999999949e-01 8.507225000000000037e+00 1.172224999999999966e+02 1.846565000000000055e+03
1.320000000000000062e-01 6.870674999999999422e-01 8.302939999999999543e+00 1.170275000000000034e+02 1.846514999999999873e+03
1.330000000000000071e-01 6.870654999999999957e-01 8.157479999999999620e+00 1.169555000000000007e+02 1.846485000000000127e+03
1.340000000000000080e-01 6.870849999999999458e-01 8.071934999999999860e+00 1.170030000000000001e+02 1.846485000000000127e+03
1.350000000000000089e-01 6.871229999999999283e-01 8.043459999999999610e+00 1.171594999999999942e+02 1.846509999999999991e+03
1.360000000000000098e-01 6.871769999999999268e-01 8.065674999999998818e+00 1.174080000000000013e+02 1.846549999999999955e+03
1.370000000000000107e-01 6.872419999999999085e-01 8.129380000000001161e+00 1.177255000000000109e+02 1.846610000000000127e+03
1.380000000000000115e-01 6.873119999999999230e-01 8.223289999999998656e+00 1.180845000000000056e+02 1.846680000000000064e+03
1.390000000000000124e-01 6.873825000000000074e-01 8.334904999999999120e+00 1.184590000000000032e+02 1.846755000000000109e+03
1.400000000000000133e-01 6.874480000000000590e-01 8.451389999999999958e+00 1.188199999999999932e+02 1.846824999999999818e+03
1.410000000000000142e-01 6.875050000000000328e-01 8.560404999999999376e+00 1.191435000000000031e+02 1.846894999999999982e+03
1.420000000000000151e-01 6.875495000000000356e-01 8.650859999999999772e+00 1.194069999999999965e+02 1.846950000000000045e+03
1.430000000000000160e-01 6.875780000000000225e-01 8.713575000000000514e+00 1.195945000000000107e+02 1.846994999999999891e+03
1.440000000000000169e-01 6.875894999999999646e-01 8.741775000000000517e+00 1.196945000000000050e+02 1.847019999999999982e+03
1.450000000000000178e-01 6.875839999999999730e-01 8.731429999999999580e+00 1.197019999999999982e+02 1.847029999999999973e+03
1.459999999999999909e-01 6.875620000000000065e-01 8.681490000000000151e+00 1.196195000000000022e+02 1.847025000000000091e+03
1.469999999999999918e-01 6.875255000000000116e-01 8.593754999999999811e+00 1.194544999999999959e+02 1.846994999999999891e+03
1.479999999999999927e-01 6.874765000000000459e-01 8.472744999999999749e+00 1.192199999999999989e+02 1.846950000000000045e+03
1.489999999999999936e-01 6.874194999999999611e-01 8.325319999999999609e+00 1.189329999999999927e+02 1.846894999999999982e+03
1.499999999999999944e-01 6.873590000000000533e-01 8.160244999999999749e+00 1.186165000000000020e+02 1.846835000000000036e+03
1.509999999999999953e-01 6.872985000000000344e-01 7.987534999999999386e+00 1.182920000000000016e+02 1.846769999999999982e+03
1.519999999999999962e-01 6.872424999999999784e-01 7.817830000000000723e+00 1.179844999999999970e+02 1.846704999999999927e+03
1.529999999999999971e-01 6.871950000000000003e-01 7.661730000000000373e+00 1.177169999999999987e+02 1.846644999999999982e+03
1.539999999999999980e-01 6.871610000000000218e-01 7.529144999999999754e+00 1.175090000000000003e+02 1.846594999999999800e+03
1.549999999999999989e-01 6.871424999999999894e-01 7.428729999999999833e+00 1.173810000000000002e+02 1.846565000000000055e+03
1.559999999999999998e-01 6.871415000000000717e-01 7.367424999999999891e+00 1.173435000000000059e+02 1.846550000000000182e+03
1.570000000000000007e-01 6.871599999999999930e-01 7.350060000000000038e+00 1.174080000000000013e+02 1.846559999999999945e+03
1.580000000000000016e-01 6.871979999999999755e-01 7.379170000000000229e+00 1.175775000000000006e+02 1.846585000000000036e+03
1.590000000000000024e-01 6.872544999999999904e-01 7.454909999999999926e+00 1.178499999999999943e+02 1.846630000000000109e+03
