# t [s], A [cm^2], U [cm/s], P [cPa], c [cm/s]
1.000000000000000021e-03 7.679955000000000531e-01 6.222499999999998865e-03 9.026834999999999809e+01 1.829630000000000109e+03
2.000000000000000042e-03 7.679860000000000575e-01 2.672199999999999576e-03 9.023444999999999538e+01 1.829619999999999891e+03
3.000000000000000062e-03 7.680629999999999402e-01 1.378590999999999844e-01 9.039889999999999759e+01 1.829650000000000091e+03
4.000000000000000083e-03 7.680985000000000174e-01 2.230344999999999966e-01 9.050444999999999141e+01 1.829674999999999955e+03
5.000000000000000104e-03 7.680275000000000851e-01 1.385255000000000236e-01 9.031280000000000996e+01 1.829634999999999991e+03
6.000000000000000125e-03 7.679464999999999764e-01 2.676700000000004076e-02 8.998050000000000637e+01 1.829570000000000164e+03
7.000000000000000146e-03 7.678584999999999994e-01 -1.106999999999999096e-01 8.954740000000001032e+01 1.829474999999999909e+03
8.000000000000000167e-03 7.676939999999999875e-01 -3.974050000000000082e-01 8.883875000000000455e+01 1.829320000000000164e+03
9.000000000000001055e-03 7.674440000000000150e-01 -8.500950000000000450e-01 8.777989999999999782e+01 1.829105000000000018e+03
1.000000000000000194e-02 7.670870000000000744e-01 -1.498139999999999805e+00 8.627774999999999750e+01 1.828784999999999854e+03
1.099999999999999936e-02 7.666010000000000879e-01 -2.359929999999999861e+00 8.424245000000000516e+01 1.828344999999999800e+03
1.200000000000000025e-02 7.660415000000000418e-01 -3.317250000000000476e+00 8.178499999999999659e+01 1.827804999999999836e+03
1.300000000000000114e-02 7.655205000000000481e-01 -4.140496499999999358e+00 7.923499999999999943e+01 1.827220000000000027e+03
1.400000000000000203e-02 7.651265000000000427e-01 -4.633207999999999771e+00 7.694780000000000086e+01 1.826670000000000073e+03
1.499999999999999944e-02 7.648740000000000538e-01 -4.732110000000000483e+00 7.511574999999999136e+01 1.826190000000000055e+03
1.600000000000000033e-02 7.647120000000000584e-01 -4.506639999999999979e+00 7.371405000000000030e+01 1.825795000000000073e+03
1.700000000000000122e-02 7.645629999999999926e-01 -4.096964999999999968e+00 7.256014999999999304e+01 1.825454999999999927e+03
1.800000000000000211e-02 7.643630000000000146e-01 -3.639714999999999812e+00 7.142474999999998886e+01 1.825115000000000009e+03
1.900000000000000300e-02 7.640845000000000553e-01 -3.212957499999999911e+00 7.013769999999999527e+01 1.824759999999999991e+03
2.000000000000000042e-02 7.637400000000000855e-01 -2.817822340000000203e+00 6.864855000000000018e+01 1.824355000000000018e+03
2.100000000000000130e-02 7.633699999999999930e-01 -2.399858500000000117e+00 6.702119999999999322e+01 1.823930000000000064e+03
2.200000000000000219e-02 7.630155000000000687e-01 -1.895080000000000098e+00 6.537489999999999668e+01 1.823494999999999891e+03
2.299999999999999961e-02 7.626969999999999583e-01 -1.274925000000000086e+00 6.380675000000000097e+01 1.823075000000000045e+03
2.400000000000000050e-02 7.624059999999999171e-01 -5.703100000000000946e-01 6.233489999999999753e+01 1.822664999999999964e+03
2.500000000000000139e-02 7.621029999999999749e-01 1.303299999999998349e-01 6.087940000000000396e+01 1.822264999999999873e+03
2.600000000000000228e-02 7.617385000000000961e-01 7.041800000000000281e-01 5.928179999999999694e+01 1.821835000000000036e+03
2.700000000000000316e-02 7.612630000000000230e-01 1.028985000000000039e+00 5.735399999999999920e+01 1.821340000000000146e+03
2.800000000000000058e-02 7.606485000000000607e-01 1.019584999999999742e+00 5.494060000000000343e+01 1.820755000000000109e+03
2.900000000000000147e-02 7.598959999999999049e-01 6.541049999999999365e-01 5.197509999999999764e+01 1.820045000000000073e+03
3.000000000000000236e-02 7.590390000000000192e-01 -1.977499999999920988e-02 4.850955000000000439e+01 1.819235000000000127e+03
3.099999999999999978e-02 7.581335000000000157e-01 -9.004550000000000054e-01 4.470635000000000048e+01 1.818340000000000146e+03
3.200000000000000067e-02 7.572434999999999583e-01 -1.861639999999999961e+00 4.079975000000000307e+01 1.817409999999999854e+03
3.300000000000000155e-02 7.564275000000000304e-01 -2.782564999999999511e+00 3.704420000000000357e+01 1.816500000000000000e+03
3.400000000000000244e-02 7.557275000000001075e-01 -3.568954999999999433e+00 3.366785000000000139e+01 1.815659999999999854e+03
3.500000000000000333e-02 7.551680000000000614e-01 -4.161905000000000854e+00 3.084254999999999569e+01 1.814930000000000064e+03
3.600000000000000422e-02 7.547580000000000400e-01 -4.535719099999999671e+00 2.867199999999999704e+01 1.814340000000000146e+03
3.700000000000000511e-02 7.544935000000000391e-01 -4.689115000000000144e+00 2.719630000000000081e+01 1.813904999999999973e+03
3.799999999999999906e-02 7.543664999999999399e-01 -4.633124999999999716e+00 2.640749999999999886e+01 1.813634999999999991e+03
3.899999999999999994e-02 7.543659999999999810e-01 -4.380200000000000315e+00 2.626964999999999861e+01 1.813514999999999873e+03
4.000000000000000083e-02 7.544839999999999325e-01 -3.937185000000000379e+00 2.673765000000000214e+01 1.813549999999999955e+03
4.100000000000000172e-02 7.547150000000000247e-01 -3.303659799999999702e+00 2.776915000000000333e+01 1.813730000000000018e+03
4.200000000000000261e-02 7.550559999999999494e-01 -2.475165000000000504e+00 2.932809999999999917e+01 1.814045000000000073e+03
4.300000000000000350e-02 7.555019999999998959e-01 -1.449345000000000105e+00 3.138090000000000046e+01 1.814480000000000018e+03
4.400000000000000439e-02 7.560454999999999259e-01 -2.320899999999999075e-01 3.388864999999999839e+01 1.815029999999999973e+03
4.499999999999999833e-02 7.566744999999999166e-01 1.158474999999999699e+00 3.680015000000000214e+01 1.815679999999999836e+03
4.599999999999999922e-02 7.573710000000000164e-01 2.691189999999999749e+00 4.004814999999999969e+01 1.816430000000000064e+03
4.700000000000000011e-02 7.581145000000000245e-01 4.324184999999999945e+00 4.354945000000000022e+01 1.817244999999999891e+03
4.800000000000000100e-02 7.588835000000000441e-01 6.009515000000000384e+00 4.721039999999999992e+01 1.818115000000000009e+03
4.900000000000000189e-02 7.596555000000000391e-01 7.698275049999999453e+00 5.093455000000000155e+01 1.819009999999999991e+03
5.000000000000000278e-02 7.604119999999999768e-01 9.346130000000000493e+00 5.463130000000000308e+01 1.819909999999999854e+03
5.100000000000000366e-02 7.611395000000000799e-01 1.091677499999999945e+01 5.822384999999999877e+01 1.820800000000000182e+03
5.200000000000000455e-02 7.618285000000000196e-01 1.238435500000000111e+01 6.165529999999999688e+01 1.821659999999999854e+03
5.300000000000000544e-02 7.624750000000000139e-01 1.373403000000000063e+01 6.489064999999999372e+01 1.822490000000000009e+03
5.399999999999999939e-02 7.630795000000000217e-01 1.496069999999999922e+01 6.791769999999999641e+01 1.823275000000000091e+03
5.500000000000000028e-02 7.636469999999999647e-01 1.606765000000000043e+01 7.074365000000000236e+01 1.824014999999999873e+03
5.600000000000000117e-02 7.641834999999999045e-01 1.706419999999999959e+01 7.339164999999999850e+01 1.824714999999999918e+03
5.700000000000000205e-02 7.646975000000000300e-01 1.796365000000000123e+01 7.589600000000000080e+01 1.825380000000000109e+03
5.800000000000000294e-02 7.651974999999999749e-01 1.878134999999999977e+01 7.829689999999999372e+01 1.826019999999999982e+03
5.900000000000000383e-02 7.656914999999999694e-01 1.953294999999999959e+01 8.063585000000000491e+01 1.826639999999999873e+03
6.000000000000000472e-02 7.661869999999999514e-01 2.023270000000000124e+01 8.295105000000000928e+01 1.827250000000000000e+03
6.099999999999999867e-02 7.666884999999999950e-01 2.089239999999999853e+01 8.527340000000000941e+01 1.827860000000000127e+03
6.199999999999999956e-02 7.672004999999999519e-01 2.151984999999999815e+01 8.762360000000001037e+01 1.828470000000000027e+03
6.300000000000000044e-02 7.677209999999999868e-01 2.211870000000000047e+01 9.001005000000000678e+01 1.829095000000000027e+03
6.400000000000000133e-02 7.682485000000000008e-01 2.268809999999999860e+01 9.242855000000000132e+01 1.829719999999999800e+03
6.500000000000000222e-02 7.687779999999999614e-01 2.322325000000000017e+01 9.486275000000000546e+01 1.830349999999999909e+03
6.600000000000000311e-02 7.693030000000000701e-01 2.371594999999999942e+01 9.728605000000000302e+01 1.830974999999999909e+03
6.700000000000000400e-02 7.698154999999999859e-01 2.415619999999999834e+01 9.966530000000000200e+01 1.831599999999999909e+03
6.800000000000000488e-02 7.703074999999999228e-01 2.453305000000000291e+01 1.019627499999999998e+02 1.832194999999999936e+03
6.900000000000000577e-02 7.707709999999999839e-01 2.483590000000000231e+01 1.041405000000000030e+02 1.832775000000000091e+03
7.000000000000000666e-02 7.711995000000000378e-01 2.505545000000000044e+01 1.061620000000000061e+02 1.833309999999999945e+03
7.100000000000000755e-02 7.715859999999999941e-01 2.518404999999999916e+01 1.079975000000000023e+02 1.833804999999999836e+03
7.200000000000000844e-02 7.719275000000000997e-01 2.521645000000000181e+01 1.096210000000000093e+02 1.834250000000000000e+03
7.300000000000000933e-02 7.722195000000000586e-01 2.514969999999999928e+01 1.110144999999999982e+02 1.834644999999999982e+03
7.399999999999999634e-02 7.724614999999999121e-01 2.498375000000000057e+01 1.121684999999999945e+02 1.834974999999999909e+03
7.499999999999999722e-02 7.726520000000000055e-01 2.472100000000000009e+01 1.130794999999999959e+02 1.835250000000000000e+03
7.599999999999999811e-02 7.727945000000000508e-01 2.436649999999999849e+01 1.137530000000000001e+02 1.835460000000000036e+03
7.699999999999999900e-02 7.728909999999999947e-01 2.392804999999999893e+01 1.142005000000000052e+02 1.835615000000000009e+03
7.799999999999999989e-02 7.729460000000000219e-01 2.341570000000000107e+01 1.144414999999999907e+02 1.835720000000000027e+03
7.900000000000000078e-02 7.729639999999999844e-01 2.284165000000000134e+01 1.144985000000000070e+02 1.835775000000000091e+03
8.000000000000000167e-02 7.729524999999999313e-01 2.221994999999999720e+01 1.144004999999999939e+02 1.835779999999999973e+03
8.100000000000000255e-02 7.729165000000000063e-01 2.156544999999999845e+01 1.141790000000000020e+02 1.835755000000000109e+03
8.200000000000000344e-02 7.728634999999999255e-01 2.089369999999999905e+01 1.138659999999999997e+02 1.835704999999999927e+03
8.300000000000000433e-02 7.728005000000000013e-01 2.021959999999999980e+01 1.134960000000000093e+02 1.835630000000000109e+03
8.400000000000000522e-02 7.727340000000000320e-01 1.955685000000000073e+01 1.130979999999999990e+02 1.835545000000000073e+03
8.500000000000000611e-02 7.726679999999999104e-01 1.891730000000000089e+01 1.127009999999999934e+02 1.835460000000000036e+03
8.600000000000000699e-02 7.726079999999999615e-01 1.831015000000000015e+01 1.123265000000000100e+02 1.835365000000000009e+03
8.700000000000000788e-02 7.725554999999999506e-01 1.774150000000000205e+01 1.119919999999999902e+02 1.835285000000000082e+03
8.800000000000000877e-02 7.725130000000000052e-01 1.721454999999999913e+01 1.117065000000000055e+02 1.835210000000000036e+03
8.899999999999999578e-02 7.724794999999999856e-01 1.672905000000000086e+01 1.114745000000000061e+02 1.835144999999999982e+03
8.999999999999999667e-02 7.724550000000000027e-01 1.628200000000000003e+01 1.112930000000000064e+02 1.835094999999999800e+03
9.099999999999999756e-02 7.724360000000000115e-01 1.586785000000000068e+01 1.111535000000000082e+02 1.835045000000000073e+03
9.199999999999999845e-02 7.724204999999999544e-01 1.547920000000000051e+01 1.110434999999999945e+02 1.835009999999999991e+03
9.299999999999999933e-02 7.724040000000000905e-01 1.510704999999999920e+01 1.109459999999999980e+02 1.834980000000000018e+03
9.400000000000000022e-02 7.723835000000000006e-01 1.474194999999999922e+01 1.108435000000000059e+02 1.834940000000000055e+03
9.500000000000000111e-02 7.723549999999999027e-01 1.437400000000000055e+01 1.107175000000000011e+02 1.834904999999999973e+03
9.600000000000000200e-02 7.723150000000000848e-01 1.399390000000000001e+01 1.105494999999999948e+02 1.834860000000000127e+03
9.700000000000000289e-02 7.722605000000000164e-01 1.359350000000000058e+01 1.103249999999999886e+02 1.834809999999999945e+03
9.800000000000000377e-02 7.721894999999999731e-01 1.316624999999999979e+01 1.100310000000000059e+02 1.834735000000000127e+03
9.900000000000000466e-02 7.721004999999999674e-01 1.270768499999999968e+01 1.096599999999999966e+02 1.834644999999999982e+03
1.000000000000000056e-01 7.719945000000000279e-01 1.221566999999999936e+01 1.092085000000000008e+02 1.834539999999999964e+03
1.010000000000000064e-01 7.718724999999999614e-01 1.169074999999999953e+01 1.086784999999999997e+02 1.834414999999999964e+03
1.020000000000000073e-01 7.717359999999999776e-01 1.113607499999999995e+01 1.080784999999999911e+02 1.834269999999999982e+03
1.030000000000000082e-01 7.715885000000000105e-01 1.055716999999999928e+01 1.074209999999999923e+02 1.834114999999999782e+03
1.040000000000000091e-01 7.714349999999999818e-01 9.961859999999999715e+00 1.067229999999999990e+02 1.833945000000000164e+03
1.050000000000000100e-01 7.712795000000000067e-01 9.359579999999999345e+00 1.060065000000000026e+02 1.833769999999999982e+03
1.059999999999999970e-01 7.711280000000000356e-01 8.760880000000000223e+00 1.052950000000000017e+02 1.833595000000000027e+03
1.069999999999999979e-01 7.709844999999999615e-01 8.177035000000000053e+00 1.046118999999999915e+02 1.833424999999999955e+03
1.079999999999999988e-01 7.708550000000000679e-01 7.618994999999999962e+00 1.039824500000000000e+02 1.833264999999999873e+03
1.089999999999999997e-01 7.707444999999999435e-01 7.097170000000000201e+00 1.034282499999999914e+02 1.833119999999999891e+03
1.100000000000000006e-01 7.706554999999999378e-01 6.620530000000000470e+00 1.029696999999999889e+02 1.832994999999999891e+03
1.110000000000000014e-01 7.705910000000000259e-01 6.196329999999999671e+00 1.026217000000000041e+02 1.832894999999999982e+03
1.120000000000000023e-01 7.705530000000000435e-01 5.829670000000000130e+00 1.023944999999999936e+02 1.832829999999999927e+03
1.130000000000000032e-01 7.705425000000000191e-01 5.523304999999999687e+00 1.022935999999999979e+02 1.832784999999999854e+03
1.140000000000000041e-01 7.705580000000000762e-01 5.277614999999999945e+00 1.023179999999999978e+02 1.832775000000000091e+03
1.150000000000000050e-01 7.705984999999999641e-01 5.090670000000000250e+00 1.024635000000000105e+02 1.832795000000000073e+03
1.160000000000000059e-01 7.706614999999999993e-01 4.958495000000000097e+00 1.027185000000000059e+02 1.832840000000000146e+03
1.170000000000000068e-01 7.707424999999999971e-01 4.875404999999999767e+00 1.030704999999999956e+02 1.832909999999999854e+03
1.180000000000000077e-01 7.708384999999999820e-01 4.834410000000000096e+00 1.035005000000000024e+02 1.833000000000000000e+03
1.190000000000000085e-01 7.709459999999999091e-01 4.827659999999999840e+00 1.039919999999999902e+02 1.833109999999999900e+03
1.200000000000000094e-01 7.710600000000000787e-01 4.846890000000000143e+00 1.045245000000000033e+02 1.833235000000000127e+03
1.209999999999999964e-01 7.711770000000000014e-01 4.883815000000000239e+00 1.050790000000000077e+02 1.833365000000000009e+03
1.219999999999999973e-01 7.712939999999999241e-01 4.930460000000000065e+00 1.056380000000000052e+02 1.833494999999999891e+03
1.229999999999999982e-01 7.714069999999999538e-01 4.979475000000000762e+00 1.061855000000000047e+02 1.833634999999999991e+03
1.239999999999999991e-01 7.715140000000000331e-01 5.024359999999999715e+00 1.067065000000000055e+02 1.833760000000000218e+03
1.250000000000000000e-01 7.716119999999999646e-01 5.059569999999999901e+00 1.071914999999999907e+02 1.833884999999999991e+03
1.260000000000000009e-01 7.717005000000000114e-01 5.080675000000000274e+00 1.076304999999999978e+02 1.833994999999999891e+03
1.270000000000000018e-01 7.717784999999999229e-01 5.084374999999999645e+00 1.080190000000000055e+02 1.834094999999999800e+03
1.280000000000000027e-01 7.718454999999999622e-01 5.068519999999999470e+00 1.083539999999999992e+02 1.834184999999999945e+03
1.290000000000000036e-01 7.719009999999999483e-01 5.032075000000000742e+00 1.086334999999999980e+02 1.834265000000000100e+03
1.300000000000000044e-01 7.719460000000000210e-01 4.975060000000000038e+00 1.088605000000000018e+02 1.834329999999999927e+03
1.310000000000000053e-01 7.719814999999999872e-01 4.898439999999999905e+00 1.090380000000000109e+02 1.834385000000000218e+03
1.320000000000000062e-01 7.720080000000000275e-01 4.803990000000000649e+00 1.091709999999999923e+02 1.834429999999999836e+03
1.330000000000000071e-01 7.720274999999999777e-01 4.694124999999999659e+00 1.092650000000000006e+02 1.834454999999999927e+03
1.340000000000000080e-01 7.720409999999999773e-01 4.571720000000000006e+00 1.093269999999999982e+02 1.834485000000000127e+03
1.350000000000000089e-01 7.720504999999999729e-01 4.439890000000000114e+00 1.093640000000000043e+02 1.834500000000000000e+03
1.360000000000000098e-01 7.720565000000000344e-01 4.301795000000000258e+00 1.093815000000000026e+02 1.834509999999999991e+03
1.370000000000000107e-01 7.720605000000000384e-01 4.160425000000000040e+00 1.093864999999999981e+02 1.834514999999999873e+03
1.380000000000000115e-01 7.720639999999999725e-01 4.018449999999999633e+00 1.093840000000000003e+02 1.834519999999999982e+03
1.390000000000000124e-01 7.720664999999999889e-01 3.878065000000000317e+00 1.093770000000000095e+02 1.834519999999999982e+03
1.400000000000000133e-01 7.720685000000000464e-01 3.740890000000000271e+00 1.093684999999999974e+02 1.834519999999999982e+03
1.410000000000000142e-01 7.720709999999999518e-01 3.607969999999999899e+00 1.093584999999999923e+02 1.834525000000000091e+03
1.420000000000000151e-01 7.720730000000000093e-01 3.479750000000000121e+00 1.093470000000000084e+02 1.834519999999999982e+03
1.430000000000000160e-01 7.720735000000000792e-01 3.356160000000000032e+00 1.093329999999999984e+02 1.834519999999999982e+03
1.440000000000000169e-01 7.720735000000000792e-01 3.236735000000000362e+00 1.093119999999999976e+02 1.834515000000000100e+03
1.450000000000000178e-01 7.720700000000000340e-01 3.120714999999999684e+00 1.092820000000000107e+02 1.834509999999999991e+03
1.459999999999999909e-01 7.720635000000000137e-01 3.007235000000000102e+00 1.092400000000000091e+02 1.834500000000000000e+03
1.469999999999999918e-01 7.720534999999999481e-01 2.895399999999999974e+00 1.091809999999999974e+02 1.834485000000000127e+03
1.479999999999999927e-01 7.720390000000000308e-01 2.784505000000000230e+00 1.091039999999999992e+02 1.834470000000000027e+03
1.489999999999999936e-01 7.720194999999999697e-01 2.674039999999999750e+00 1.090054999999999978e+02 1.834444999999999936e+03
1.499999999999999944e-01 7.719949999999999868e-01 2.563829999999999831e+00 1.088859999999999957e+02 1.834420000000000073e+03
1.509999999999999953e-01 7.719664999999999999e-01 2.454025000000000123e+00 1.087445000000000022e+02 1.834380000000000109e+03
1.519999999999999962e-01 7.719329999999999803e-01 2.345124999999999904e+00 1.085829999999999984e+02 1.834340000000000146e+03
1.529999999999999971e-01 7.718964999999999854e-01 2.237929999999999975e+00 1.084035000000000082e+02 1.834300000000000182e+03
1.539999999999999980e-01 7.718564999999999454e-01 2.133535000000000181e+00 1.082090000000000032e+02 1.834255000000000109e+03
1.549999999999999989e-01 7.718140000000000001e-01 2.033260000000000289e+00 1.080040000000000049e+02 1.834199999999999818e+03
1.559999999999999998e-01 7.717709999999999848e-01 1.938584999999999781e+00 1.077934999999999945e+02 1.834150000000000091e+03
1.570000000000000007e-01 7.717275000000000107e-01 1.851115000000000066e+00 1.075815000000000055e+02 1.834095000000000027e+03
1.580000000000000016e-01 7.716849999999999543e-01 1.772510000000000030e+00 1.073735000000000070e+02 1.834039999999999964e+03
1.590000000000000024e-01 7.716449999999999143e-01 1.704443000000000152e+00 1.071760000000000019e+02 1.833985000000000127e+03
