# t [s], A [cm^2], U [cm/s], P [cPa], c [cm/s]
1.000000000000000021e-03 1.969835000000000058e-01 3.836389350000000142e-01 9.590700000000001069e+01 2.315720000000000255e+03
2.000000000000000042e-03 1.969124999999999903e-01 1.996102999999999739e+00 9.186724999999999852e+01 2.315090000000000146e+03
3.000000000000000062e-03 1.967530000000000112e-01 3.992641000000000329e+00 8.624655000000001337e+01 2.313725000000000364e+03
4.000000000000000083e-03 1.965540000000000065e-01 6.271905000000000285e+00 8.055715000000000714e+01 2.312045000000000073e+03
5.000000000000000104e-03 1.963590000000000058e-01 8.685380000000000322e+00 7.590070000000000050e+01 2.310404999999999745e+03
6.000000000000000125e-03 1.961795000000000067e-01 1.089474500000000035e+01 7.216219999999999857e+01 2.308930000000000291e+03
7.000000000000000146e-03 1.960149999999999948e-01 1.268276999999999788e+01 6.879545000000000243e+01 2.307614999999999782e+03
8.000000000000000167e-03 1.958725000000000049e-01 1.410634999999999906e+01 6.585975000000000534e+01 2.306489999999999782e+03
9.000000000000001055e-03 1.957565000000000000e-01 1.522950000000000159e+01 6.353000000000000114e+01 2.305585000000000036e+03
1.000000000000000194e-02 1.956660000000000066e-01 1.607920000000000016e+01 6.176850000000000307e+01 2.304890000000000327e+03
1.099999999999999936e-02 1.955975000000000075e-01 1.668634999999999735e+01 6.049469999999999459e+01 2.304369999999999891e+03
1.200000000000000025e-02 1.955454999999999832e-01 1.704785000000000039e+01 5.951729999999999876e+01 2.303989999999999782e+03
1.300000000000000114e-02 1.955034999999999967e-01 1.718880000000000052e+01 5.863584999999999781e+01 2.303684999999999945e+03
1.400000000000000203e-02 1.954724999999999935e-01 1.728079999999999927e+01 5.805365000000000464e+01 2.303470000000000255e+03
1.499999999999999944e-02 1.954690000000000039e-01 1.760444999999999993e+01 5.846184999999999832e+01 2.303454999999999927e+03
1.600000000000000033e-02 1.955109999999999904e-01 1.835464999999999947e+01 6.052174999999999727e+01 2.303779999999999745e+03
1.700000000000000122e-02 1.956025000000000125e-01 1.947944999999999993e+01 6.422854999999999848e+01 2.304484999999999673e+03
1.800000000000000211e-02 1.957269999999999843e-01 2.068459999999999965e+01 6.872305000000000064e+01 2.305465000000000146e+03
1.900000000000000300e-02 1.958524999999999849e-01 2.158474999999999966e+01 7.266030000000000655e+01 2.306465000000000146e+03
2.000000000000000042e-02 1.959440000000000071e-01 2.189209999999999923e+01 7.485144999999999982e+01 2.307225000000000364e+03
2.100000000000000130e-02 1.959819999999999895e-01 2.153904999999999959e+01 7.479439999999999600e+01 2.307569999999999709e+03
2.200000000000000219e-02 1.959635000000000127e-01 2.068404999999999916e+01 7.283404999999999063e+01 2.307465000000000146e+03
2.299999999999999961e-02 1.959060000000000246e-01 1.961074999999999946e+01 6.991055000000000064e+01 2.307039999999999964e+03
2.400000000000000050e-02 1.958349999999999813e-01 1.858680000000000021e+01 6.706970000000001164e+01 2.306484999999999673e+03
2.500000000000000139e-02 1.957714999999999872e-01 1.775465000000000160e+01 6.500534999999999286e+01 2.305965000000000146e+03
2.600000000000000228e-02 1.957249999999999823e-01 1.709960000000000235e+01 6.383919999999999817e+01 2.305585000000000036e+03
2.700000000000000316e-02 1.956924999999999915e-01 1.649159999999999826e+01 6.318905000000000172e+01 2.305324999999999818e+03
2.800000000000000058e-02 1.956625000000000170e-01 1.577090000000000103e+01 6.244020000000000437e+01 2.305079999999999927e+03
2.900000000000000147e-02 1.956209999999999893e-01 1.483624999999999972e+01 6.108044999999999902e+01 2.304760000000000218e+03
3.000000000000000236e-02 1.955610000000000126e-01 1.370350000000000001e+01 5.896089999999999520e+01 2.304300000000000182e+03
3.099999999999999978e-02 1.954865000000000075e-01 1.251245000000000118e+01 5.638880000000000337e+01 2.303715000000000146e+03
3.200000000000000067e-02 1.954099999999999726e-01 1.148053499999999971e+01 5.402089999999999748e+01 2.303105000000000018e+03
3.300000000000000155e-02 1.953519999999999979e-01 1.082329000000000008e+01 5.260739999999999839e+01 2.302635000000000218e+03
3.400000000000000244e-02 1.953300000000000036e-01 1.067552500000000038e+01 5.269950000000000045e+01 2.302434999999999945e+03
3.500000000000000333e-02 1.953535000000000132e-01 1.104415000000000013e+01 5.444089999999999918e+01 2.302579999999999927e+03
3.600000000000000422e-02 1.954194999999999960e-01 1.180614999999999881e+01 5.751189999999999714e+01 2.303074999999999818e+03
3.700000000000000511e-02 1.955149999999999944e-01 1.274535000000000018e+01 6.122785000000000366e+01 2.303810000000000400e+03
3.799999999999999906e-02 1.956185000000000007e-01 1.360960000000000036e+01 6.473384999999998968e+01 2.304630000000000109e+03
3.899999999999999994e-02 1.957074999999999787e-01 1.416890000000000072e+01 6.722249999999999659e+01 2.305335000000000036e+03
4.000000000000000083e-02 1.957605000000000040e-01 1.425905000000000022e+01 6.810900000000000887e+01 2.305775000000000091e+03
4.100000000000000172e-02 1.957650000000000223e-01 1.380170000000000030e+01 6.712489999999999668e+01 2.305840000000000146e+03
4.200000000000000261e-02 1.957154999999999867e-01 1.280310000000000059e+01 6.432110000000000127e+01 2.305475000000000364e+03
4.300000000000000350e-02 1.956160000000000121e-01 1.133452499999999930e+01 5.999814999999999543e+01 2.304704999999999927e+03
4.400000000000000439e-02 1.954739999999999811e-01 9.505349999999999966e+00 5.459664999999999679e+01 2.303605000000000018e+03
4.499999999999999833e-02 1.953020000000000034e-01 7.437139999999999418e+00 4.858799999999999386e+01 2.302255000000000109e+03
4.599999999999999922e-02 1.951129999999999809e-01 5.245911000000000435e+00 4.239355000000000473e+01 2.300760000000000218e+03
4.700000000000000011e-02 1.949179999999999802e-01 3.033900000000000041e+00 3.634635000000000105e+01 2.299220000000000255e+03
4.800000000000000100e-02 1.947264999999999968e-01 8.899850000000000261e-01 3.069190000000000040e+01 2.297699999999999818e+03
4.900000000000000189e-02 1.945465000000000111e-01 -1.105735000000000134e+00 2.561289999999999978e+01 2.296265000000000327e+03
5.000000000000000278e-02 1.943840000000000012e-01 -2.876764999999999795e+00 2.126129999999999853e+01 2.294970000000000255e+03
5.100000000000000366e-02 1.942450000000000010e-01 -4.347714999999999996e+00 1.778209999999999980e+01 2.293849999999999909e+03
5.200000000000000455e-02 1.941344999999999876e-01 -5.445769999999999555e+00 1.532272499999999837e+01 2.292954999999999927e+03
5.300000000000000544e-02 1.940584999999999949e-01 -6.105755000000000265e+00 1.402445000000000164e+01 2.292324999999999818e+03
5.399999999999999939e-02 1.940204999999999846e-01 -6.277324999999999378e+00 1.400329999999999941e+01 2.291994999999999891e+03
5.500000000000000028e-02 1.940250000000000030e-01 -5.931895000000000806e+00 1.532639999999999958e+01 2.291994999999999891e+03
5.600000000000000117e-02 1.940720000000000223e-01 -5.067479999999999762e+00 1.799314999999999998e+01 2.292335000000000036e+03
5.700000000000000205e-02 1.941625000000000156e-01 -3.710050500000000362e+00 2.192674999999999841e+01 2.293015000000000327e+03
5.800000000000000294e-02 1.942925000000000069e-01 -1.911390000000000144e+00 2.697765000000000057e+01 2.294010000000000218e+03
5.900000000000000383e-02 1.944575000000000053e-01 2.558550000000001656e-01 3.293795000000000073e+01 2.295289999999999964e+03
6.000000000000000472e-02 1.946510000000000185e-01 2.704649999999999999e+00 3.956165000000000020e+01 2.296800000000000182e+03
6.099999999999999867e-02 1.948644999999999960e-01 5.340365999999999502e+00 4.658705000000000496e+01 2.298480000000000018e+03
6.199999999999999956e-02 1.950914999999999733e-01 8.067030000000000811e+00 5.375630000000000308e+01 2.300270000000000437e+03
6.300000000000000044e-02 1.953225000000000100e-01 1.079278500000000030e+01 6.083239999999999981e+01 2.302109999999999673e+03
6.400000000000000133e-02 1.955510000000000026e-01 1.343496000000000024e+01 6.761154999999999404e+01 2.303934999999999945e+03
6.500000000000000222e-02 1.957714999999999872e-01 1.592404999999999937e+01 7.393365000000000009e+01 2.305704999999999927e+03
6.600000000000000311e-02 1.959784999999999999e-01 1.820755000000000123e+01 7.969004999999999939e+01 2.307369999999999891e+03
6.700000000000000400e-02 1.961680000000000090e-01 2.025274999999999892e+01 8.482855000000000700e+01 2.308909999999999854e+03
6.800000000000000488e-02 1.963405000000000011e-01 2.204764999999999731e+01 8.935495000000000232e+01 2.310310000000000400e+03
6.900000000000000577e-02 1.964940000000000020e-01 2.360069999999999979e+01 9.332914999999999850e+01 2.311565000000000055e+03
7.000000000000000666e-02 1.966324999999999878e-01 2.493825000000000003e+01 9.685679999999999268e+01 2.312699999999999818e+03
7.100000000000000755e-02 1.967585000000000028e-01 2.610034999999999883e+01 1.000755499999999927e+02 2.313730000000000018e+03
7.200000000000000844e-02 1.968759999999999954e-01 2.713514999999999944e+01 1.031367999999999938e+02 2.314695000000000164e+03
7.300000000000000933e-02 1.969889999999999974e-01 2.809359999999999857e+01 1.061905000000000001e+02 2.315625000000000000e+03
7.399999999999999634e-02 1.971030000000000004e-01 2.902309999999999945e+01 1.093665000000000020e+02 2.316555000000000291e+03
7.499999999999999722e-02 1.972205000000000208e-01 2.996345000000000169e+01 1.127644999999999982e+02 2.317515000000000327e+03
7.599999999999999811e-02 1.973449999999999926e-01 3.094304999999999950e+01 1.164414999999999907e+02 2.318525000000000091e+03
7.699999999999999900e-02 1.974775000000000003e-01 3.197684999999999889e+01 1.204124999999999943e+02 2.319595000000000255e+03
7.799999999999999989e-02 1.976180000000000159e-01 3.306589999999999918e+01 1.246490000000000009e+02 2.320735000000000127e+03
7.900000000000000078e-02 1.977654999999999830e-01 3.419845000000000113e+01 1.290865000000000009e+02 2.321930000000000291e+03
8.000000000000000167e-02 1.979179999999999828e-01 3.535134999999999650e+01 1.336295000000000073e+02 2.323164999999999964e+03
8.100000000000000255e-02 1.980724999999999847e-01 3.649309999999999832e+01 1.381639999999999873e+02 2.324414999999999964e+03
8.200000000000000344e-02 1.982249999999999845e-01 3.758675000000000210e+01 1.425670000000000073e+02 2.325659999999999854e+03
8.300000000000000433e-02 1.983725000000000072e-01 3.859304999999999808e+01 1.467154999999999916e+02 2.326864999999999782e+03
8.400000000000000522e-02 1.985105000000000064e-01 3.947364999999999924e+01 1.504954999999999927e+02 2.327994999999999891e+03
8.500000000000000611e-02 1.986364999999999936e-01 4.019405000000000427e+01 1.538104999999999905e+02 2.329025000000000091e+03
8.600000000000000699e-02 1.987464999999999926e-01 4.072554999999999836e+01 1.565844999999999914e+02 2.329929999999999836e+03
8.700000000000000788e-02 1.988395000000000024e-01 4.104749999999999943e+01 1.587680000000000007e+02 2.330699999999999818e+03
8.800000000000000877e-02 1.989124999999999921e-01 4.114844999999999686e+01 1.603394999999999868e+02 2.331315000000000055e+03
8.899999999999999578e-02 1.989660000000000040e-01 4.102655000000000030e+01 1.613040000000000020e+02 2.331769999999999982e+03
8.999999999999999667e-02 1.990004999999999968e-01 4.068975000000000364e+01 1.616935000000000002e+02 2.332065000000000055e+03
9.099999999999999756e-02 1.990169999999999995e-01 4.015460000000000207e+01 1.615615000000000236e+02 2.332215000000000146e+03
9.199999999999999845e-02 1.990164999999999851e-01 3.944545000000000101e+01 1.609805000000000064e+02 2.332230000000000018e+03
9.299999999999999933e-02 1.990020000000000122e-01 3.859234999999999616e+01 1.600370000000000061e+02 2.332125000000000000e+03
9.400000000000000022e-02 1.989754999999999996e-01 3.762935000000000230e+01 1.588215000000000146e+02 2.331914999999999964e+03
9.500000000000000111e-02 1.989400000000000057e-01 3.659239999999999782e+01 1.574300000000000068e+02 2.331644999999999982e+03
9.600000000000000200e-02 1.988989999999999925e-01 3.551744999999999663e+01 1.559519999999999982e+02 2.331315000000000055e+03
9.700000000000000289e-02 1.988544999999999896e-01 3.443864999999999554e+01 1.544724999999999966e+02 2.330960000000000036e+03
9.800000000000000377e-02 1.988105000000000011e-01 3.338689999999999714e+01 1.530640000000000214e+02 2.330599999999999909e+03
9.900000000000000466e-02 1.987674999999999859e-01 3.238809999999999434e+01 1.517844999999999800e+02 2.330255000000000109e+03
1.000000000000000056e-01 1.987280000000000157e-01 3.146245000000000047e+01 1.506775000000000091e+02 2.329930000000000291e+03
1.010000000000000064e-01 1.986939999999999817e-01 3.062369999999999948e+01 1.497680000000000007e+02 2.329650000000000091e+03
1.020000000000000073e-01 1.986660000000000093e-01 2.987825000000000131e+01 1.490645000000000095e+02 2.329404999999999745e+03
1.030000000000000082e-01 1.986430000000000140e-01 2.922530000000000072e+01 1.485550000000000068e+02 2.329220000000000255e+03
1.040000000000000091e-01 1.986259999999999970e-01 2.865744999999999720e+01 1.482119999999999891e+02 2.329070000000000164e+03
1.050000000000000100e-01 1.986134999999999984e-01 2.816090000000000160e+01 1.479925000000000068e+02 2.328960000000000036e+03
1.059999999999999970e-01 1.986045000000000171e-01 2.771679999999999922e+01 1.478414999999999964e+02 2.328880000000000109e+03
1.069999999999999979e-01 1.985965000000000091e-01 2.730270000000000152e+01 1.476965000000000146e+02 2.328810000000000400e+03
1.079999999999999988e-01 1.985885000000000011e-01 2.689444999999999908e+01 1.474914999999999736e+02 2.328744999999999891e+03
1.089999999999999997e-01 1.985779999999999768e-01 2.646750000000000114e+01 1.471619999999999777e+02 2.328654999999999745e+03
1.100000000000000006e-01 1.985629999999999895e-01 2.599915000000000020e+01 1.466499999999999773e+02 2.328529999999999745e+03
1.110000000000000014e-01 1.985425000000000106e-01 2.547005000000000052e+01 1.459089999999999918e+02 2.328364999999999782e+03
1.120000000000000023e-01 1.985139999999999960e-01 2.486570000000000036e+01 1.449064999999999941e+02 2.328135000000000218e+03
1.130000000000000032e-01 1.984775000000000011e-01 2.417735000000000056e+01 1.436274999999999977e+02 2.327840000000000146e+03
1.140000000000000041e-01 1.984325000000000117e-01 2.340310000000000201e+01 1.420740000000000123e+02 2.327480000000000018e+03
1.150000000000000050e-01 1.983785000000000132e-01 2.254755000000000109e+01 1.402690000000000055e+02 2.327050000000000182e+03
1.160000000000000059e-01 1.983175000000000077e-01 2.162190000000000012e+01 1.382520000000000095e+02 2.326555000000000291e+03
1.170000000000000068e-01 1.982495000000000229e-01 2.064284999999999926e+01 1.360740000000000123e+02 2.326015000000000327e+03
1.180000000000000077e-01 1.981769999999999921e-01 1.963170000000000215e+01 1.338004999999999995e+02 2.325425000000000182e+03
1.190000000000000085e-01 1.981020000000000003e-01 1.861254999999999882e+01 1.315015000000000214e+02 2.324819999999999709e+03
1.200000000000000094e-01 1.980270000000000086e-01 1.761124999999999829e+01 1.292495000000000118e+02 2.324210000000000036e+03
1.209999999999999964e-01 1.979529999999999901e-01 1.665299999999999869e+01 1.271119999999999948e+02 2.323610000000000127e+03
1.219999999999999973e-01 1.978834999999999900e-01 1.576135000000000019e+01 1.251525000000000034e+02 2.323039999999999964e+03
1.229999999999999982e-01 1.978190000000000226e-01 1.495664999999999978e+01 1.234215000000000089e+02 2.322519999999999982e+03
1.239999999999999991e-01 1.977625000000000077e-01 1.425515000000000043e+01 1.219585000000000008e+02 2.322050000000000182e+03
1.250000000000000000e-01 1.977145000000000152e-01 1.366805000000000092e+01 1.207870000000000061e+02 2.321654999999999745e+03
1.260000000000000009e-01 1.976755000000000040e-01 1.320120000000000005e+01 1.199175000000000040e+02 2.321329999999999927e+03
1.270000000000000018e-01 1.976455000000000017e-01 1.285539999999999949e+01 1.193449999999999989e+02 2.321079999999999927e+03
1.280000000000000027e-01 1.976255000000000095e-01 1.262635000000000041e+01 1.190529999999999973e+02 2.320909999999999854e+03
1.290000000000000036e-01 1.976149999999999851e-01 1.250539999999999985e+01 1.190134999999999934e+02 2.320810000000000400e+03
1.300000000000000044e-01 1.976114999999999955e-01 1.248019999999999996e+01 1.191914999999999907e+02 2.320775000000000091e+03
1.310000000000000053e-01 1.976149999999999851e-01 1.253575000000000017e+01 1.195444999999999993e+02 2.320795000000000073e+03
1.320000000000000062e-01 1.976239999999999941e-01 1.265510000000000090e+01 1.200285000000000082e+02 2.320859999999999673e+03
1.330000000000000071e-01 1.976374999999999937e-01 1.282035000000000124e+01 1.205964999999999918e+02 2.320970000000000255e+03
1.340000000000000080e-01 1.976539999999999964e-01 1.301360000000000028e+01 1.212065000000000055e+02 2.321090000000000146e+03
1.350000000000000089e-01 1.976720000000000144e-01 1.321770000000000067e+01 1.218160000000000025e+02 2.321235000000000127e+03
1.360000000000000098e-01 1.976895000000000180e-01 1.341680000000000028e+01 1.223889999999999958e+02 2.321375000000000000e+03
1.370000000000000107e-01 1.977065000000000072e-01 1.359720000000000084e+01 1.228954999999999984e+02 2.321514999999999873e+03
1.380000000000000115e-01 1.977209999999999801e-01 1.374774999999999991e+01 1.233119999999999976e+02 2.321630000000000109e+03
1.390000000000000124e-01 1.977335000000000065e-01 1.386005000000000109e+01 1.236219999999999999e+02 2.321735000000000127e+03
1.400000000000000133e-01 1.977430000000000021e-01 1.392889999999999873e+01 1.238174999999999955e+02 2.321810000000000400e+03
1.410000000000000142e-01 1.977484999999999937e-01 1.395224999999999937e+01 1.238990000000000009e+02 2.321860000000000127e+03
1.420000000000000151e-01 1.977510000000000101e-01 1.393094999999999928e+01 1.238725000000000023e+02 2.321885000000000218e+03
1.430000000000000160e-01 1.977499999999999813e-01 1.386854999999999905e+01 1.237514999999999930e+02 2.321880000000000109e+03
1.440000000000000169e-01 1.977464999999999917e-01 1.377080000000000126e+01 1.235540000000000020e+02 2.321849999999999909e+03
1.450000000000000178e-01 1.977404999999999857e-01 1.364530000000000065e+01 1.233019999999999925e+02 2.321804999999999836e+03
1.459999999999999909e-01 1.977329999999999921e-01 1.350049999999999883e+01 1.230180000000000007e+02 2.321750000000000000e+03
1.469999999999999918e-01 1.977245000000000252e-01 1.334529999999999994e+01 1.227249999999999943e+02 2.321684999999999945e+03
1.479999999999999927e-01 1.977160000000000029e-01 1.318820000000000014e+01 1.224455000000000098e+02 2.321614999999999782e+03
1.489999999999999936e-01 1.977079999999999949e-01 1.303709999999999880e+01 1.221974999999999909e+02 2.321550000000000182e+03
1.499999999999999944e-01 1.977005000000000012e-01 1.289835000000000065e+01 1.219934999999999974e+02 2.321485000000000127e+03
1.509999999999999953e-01 1.976944999999999952e-01 1.277679999999999971e+01 1.218439999999999941e+02 2.321440000000000055e+03
1.519999999999999962e-01 1.976904999999999912e-01 1.267549999999999955e+01 1.217524999999999977e+02 2.321404999999999745e+03
1.529999999999999971e-01 1.976875000000000160e-01 1.259564999999999912e+01 1.217185000000000059e+02 2.321385000000000218e+03
1.539999999999999980e-01 1.976864999999999872e-01 1.253685000000000116e+01 1.217369999999999948e+02 2.321375000000000000e+03
1.549999999999999989e-01 1.976875000000000160e-01 1.249725000000000108e+01 1.217990000000000066e+02 2.321375000000000000e+03
1.559999999999999998e-01 1.976895000000000180e-01 1.247370000000000090e+01 1.218944999999999936e+02 2.321394999999999982e+03
1.570000000000000007e-01 1.976919999999999789e-01 1.246229999999999905e+01 1.220100000000000051e+02 2.321409999999999854e+03
1.580000000000000016e-01 1.976954999999999962e-01 1.245850000000000080e+01 1.221334999999999980e+02 2.321440000000000055e+03
1.590000000000000024e-01 1.976990000000000136e-01 1.245779999999999887e+01 1.222520000000000095e+02 2.321465000000000146e+03
