# t [s], A [cm^2], U [cm/s], P [cPa], c [cm/s]
1.000000000000000021e-03 7.416380000000000194e-01 6.706000000000003625e-03 1.003954999999999984e+02 1.839494999999999891e+03
2.000000000000000042e-03 7.416325000000000278e-01 1.224014999999999825e-02 1.003649999999999949e+02 1.839489999999999782e+03
3.000000000000000062e-03 7.417215000000000336e-01 1.784682499999999949e-01 1.005694499999999891e+02 1.839529999999999973e+03
4.000000000000000083e-03 7.417355000000001031e-01 2.396530000000000049e-01 1.006254500000000007e+02 1.839539999999999964e+03
5.000000000000000104e-03 7.416350000000000442e-01 1.041929999999999801e-01 1.003064999999999998e+02 1.839474999999999909e+03
6.000000000000000125e-03 7.415424999999999933e-01 -3.227499999999994262e-02 9.986140000000000327e+01 1.839384999999999991e+03
7.000000000000000146e-03 7.414060000000000095e-01 -2.672849999999999948e-01 9.920345000000000368e+01 1.839244999999999891e+03
8.000000000000000167e-03 7.411655000000000326e-01 -7.119849999999999790e-01 9.813660000000000139e+01 1.839019999999999982e+03
9.000000000000001055e-03 7.408289999999999598e-01 -1.348430000000000017e+00 9.661520000000000152e+01 1.838699999999999818e+03
1.000000000000000194e-02 7.403575000000000017e-01 -2.223540000000000294e+00 9.450700000000000500e+01 1.838255000000000109e+03
1.099999999999999936e-02 7.397454999999999448e-01 -3.316854999999999887e+00 9.175534999999999286e+01 1.837664999999999964e+03
1.200000000000000025e-02 7.391019999999999257e-01 -4.395545000000000258e+00 8.864275000000000659e+01 1.836970000000000027e+03
1.300000000000000114e-02 7.385749999999999815e-01 -5.138179000000000052e+00 8.568569999999999709e+01 1.836279999999999973e+03
1.400000000000000203e-02 7.382409999999999251e-01 -5.350249999999999950e+00 8.330325000000000557e+01 1.835684999999999945e+03
1.499999999999999944e-02 7.380694999999999339e-01 -5.050944999999999574e+00 8.160339999999999350e+01 1.835210000000000036e+03
1.600000000000000033e-02 7.379590000000000316e-01 -4.421710000000000029e+00 8.038564999999999827e+01 1.834829999999999927e+03
1.700000000000000122e-02 7.377994999999999415e-01 -3.694059999999999899e+00 7.928555000000000064e+01 1.834490000000000009e+03
1.800000000000000211e-02 7.375224999999999698e-01 -3.038946000000000147e+00 7.796514999999999418e+01 1.834110000000000127e+03
1.900000000000000300e-02 7.371250000000000302e-01 -2.501781999999999950e+00 7.626390000000000668e+01 1.833660000000000082e+03
2.000000000000000042e-02 7.366619999999999280e-01 -2.011495000000000033e+00 7.423949999999999250e+01 1.833150000000000091e+03
2.100000000000000130e-02 7.362020000000000231e-01 -1.451979999999999826e+00 7.208859999999999957e+01 1.832599999999999909e+03
2.200000000000000219e-02 7.357920000000000016e-01 -7.469050000000001521e-01 7.000890000000001123e+01 1.832065000000000055e+03
2.299999999999999961e-02 7.354300000000000281e-01 8.785500000000023846e-02 6.808379999999999654e+01 1.831550000000000182e+03
2.400000000000000050e-02 7.350714999999999888e-01 9.389450000000001406e-01 6.623320000000001073e+01 1.831045000000000073e+03
2.500000000000000139e-02 7.346429999999999350e-01 1.628754999999999953e+00 6.423505000000000109e+01 1.830519999999999982e+03
2.600000000000000228e-02 7.340720000000000578e-01 1.971314999999999706e+00 6.180035000000000167e+01 1.829909999999999854e+03
2.700000000000000316e-02 7.333119999999999639e-01 1.833720000000000017e+00 5.867839999999999634e+01 1.829164999999999964e+03
2.800000000000000058e-02 7.323625000000000274e-01 1.182845000000000368e+00 5.475584999999999525e+01 1.828259999999999991e+03
2.900000000000000147e-02 7.312715000000000742e-01 9.824999999999928235e-02 5.011249999999999716e+01 1.827190000000000055e+03
3.000000000000000236e-02 7.301234999999999253e-01 -1.253829999999999778e+00 4.500900000000000034e+01 1.826015000000000100e+03
3.099999999999999978e-02 7.290134999999999810e-01 -2.670709999999999695e+00 3.982029999999999603e+01 1.824799999999999955e+03
3.200000000000000067e-02 7.280240000000000045e-01 -3.962785000000000224e+00 3.494709999999999894e+01 1.823630000000000109e+03
3.300000000000000155e-02 7.272170000000000023e-01 -4.987455000000000638e+00 3.073900000000000077e+01 1.822585000000000036e+03
3.400000000000000244e-02 7.266224999999999490e-01 -5.661495999999999640e+00 2.744545000000000101e+01 1.821724999999999909e+03
3.500000000000000333e-02 7.262494999999999923e-01 -5.956484999999999808e+00 2.519919999999999760e+01 1.821085000000000036e+03
3.600000000000000422e-02 7.260854999999999393e-01 -5.883210000000000051e+00 2.402609999999999957e+01 1.820695000000000164e+03
3.700000000000000511e-02 7.261115000000000208e-01 -5.471635000000000026e+00 2.387434999999999974e+01 1.820539999999999964e+03
3.799999999999999906e-02 7.263064999999999660e-01 -4.753319999999999546e+00 2.465050000000000097e+01 1.820615000000000009e+03
3.899999999999999994e-02 7.266529999999999934e-01 -3.750881500000000202e+00 2.625144999999999840e+01 1.820894999999999982e+03
4.000000000000000083e-02 7.271384999999999099e-01 -2.476865000000000094e+00 2.858310000000000173e+01 1.821360000000000127e+03
4.100000000000000172e-02 7.277514999999999956e-01 -9.403400000000003978e-01 3.156380000000000052e+01 1.821990000000000009e+03
4.200000000000000261e-02 7.284785000000000288e-01 8.431199999999998695e-01 3.511520000000000152e+01 1.822764999999999873e+03
4.300000000000000350e-02 7.293020000000000058e-01 2.843210000000000015e+00 3.915094999999999459e+01 1.823674999999999955e+03
4.400000000000000439e-02 7.301980000000000137e-01 5.011554999999999538e+00 4.356680000000000064e+01 1.824680000000000064e+03
4.499999999999999833e-02 7.311380000000000656e-01 7.284189999999999721e+00 4.823964999999999748e+01 1.825764999999999873e+03
4.599999999999999922e-02 7.320904999999999774e-01 9.588169499999999346e+00 5.303310000000000457e+01 1.826894999999999982e+03
4.700000000000000011e-02 7.330274999999999430e-01 1.185036999999999985e+01 5.780939999999999657e+01 1.828039999999999964e+03
4.800000000000000100e-02 7.339245000000000907e-01 1.400611999999999924e+01 6.244330000000000780e+01 1.829170000000000073e+03
4.900000000000000189e-02 7.347639999999999727e-01 1.600511999999999802e+01 6.683429999999999893e+01 1.830255000000000109e+03
5.000000000000000278e-02 7.355374999999999552e-01 1.781514999999999915e+01 7.091519999999999868e+01 1.831289999999999964e+03
5.100000000000000366e-02 7.362429999999999808e-01 1.942154999999999987e+01 7.465510000000000446e+01 1.832244999999999891e+03
5.200000000000000455e-02 7.368859999999999300e-01 2.082560000000000144e+01 7.805724999999999625e+01 1.833135000000000218e+03
5.300000000000000544e-02 7.374754999999999505e-01 2.204054999999999964e+01 8.115379999999998972e+01 1.833954999999999927e+03
5.399999999999999939e-02 7.380244999999999722e-01 2.308845000000000169e+01 8.399830000000000041e+01 1.834710000000000036e+03
5.500000000000000028e-02 7.385470000000000645e-01 2.399705000000000155e+01 8.665829999999999700e+01 1.835424999999999955e+03
5.600000000000000117e-02 7.390585000000000626e-01 2.479715000000000202e+01 8.920830000000000837e+01 1.836105000000000018e+03
5.700000000000000205e-02 7.395720000000000072e-01 2.552074999999999960e+01 9.172339999999999804e+01 1.836775000000000091e+03
5.800000000000000294e-02 7.401014999999999677e-01 2.619850000000000279e+01 9.427344999999999686e+01 1.837440000000000055e+03
5.900000000000000383e-02 7.406565000000000509e-01 2.685754999999999981e+01 9.691710000000000491e+01 1.838119999999999891e+03
6.000000000000000472e-02 7.412440000000000140e-01 2.751879999999999882e+01 9.969745000000000346e+01 1.838829999999999927e+03
6.099999999999999867e-02 7.418670000000000542e-01 2.819505000000000194e+01 1.026355000000000075e+02 1.839575000000000045e+03
6.199999999999999956e-02 7.425215000000000565e-01 2.888909999999999911e+01 1.057295000000000016e+02 1.840349999999999909e+03
6.300000000000000044e-02 7.431995000000000129e-01 2.959420000000000073e+01 1.089535000000000053e+02 1.841154999999999973e+03
6.400000000000000133e-02 7.438910000000000800e-01 3.029439999999999955e+01 1.122590000000000003e+02 1.841984999999999900e+03
6.500000000000000222e-02 7.445794999999999497e-01 3.096715000000000018e+01 1.155815000000000055e+02 1.842820000000000164e+03
6.600000000000000311e-02 7.452495000000000092e-01 3.158559999999999945e+01 1.188449999999999989e+02 1.843650000000000091e+03
6.700000000000000400e-02 7.458850000000000202e-01 3.212180000000000035e+01 1.219685000000000059e+02 1.844445000000000164e+03
6.800000000000000488e-02 7.464705000000000368e-01 3.254945000000000022e+01 1.248760000000000048e+02 1.845200000000000045e+03
6.900000000000000577e-02 7.469939999999999358e-01 3.284579999999999700e+01 1.275000000000000000e+02 1.845889999999999873e+03
7.000000000000000666e-02 7.474460000000000548e-01 3.299370000000000402e+01 1.297849999999999966e+02 1.846505000000000109e+03
7.100000000000000755e-02 7.478209999999999580e-01 3.298230000000000217e+01 1.316955000000000098e+02 1.847025000000000091e+03
7.200000000000000844e-02 7.481160000000000032e-01 3.280760000000000076e+01 1.332110000000000127e+02 1.847464999999999918e+03
7.300000000000000933e-02 7.483334999999999848e-01 3.247265000000000157e+01 1.343325000000000102e+02 1.847799999999999955e+03
7.399999999999999634e-02 7.484764999999999890e-01 3.198685000000000400e+01 1.350740000000000123e+02 1.848050000000000182e+03
7.499999999999999722e-02 7.485535000000000938e-01 3.136544999999999916e+01 1.354680000000000177e+02 1.848204999999999927e+03
7.599999999999999811e-02 7.485729999999999329e-01 3.062875000000000014e+01 1.355585000000000093e+02 1.848284999999999854e+03
7.699999999999999900e-02 7.485465000000000035e-01 2.980069999999999908e+01 1.353979999999999961e+02 1.848289999999999964e+03
7.799999999999999989e-02 7.484850000000000669e-01 2.890755000000000052e+01 1.350455000000000041e+02 1.848250000000000000e+03
7.900000000000000078e-02 7.484020000000000117e-01 2.797664999999999935e+01 1.345604999999999905e+02 1.848164999999999964e+03
8.000000000000000167e-02 7.483079999999999732e-01 2.703464999999999918e+01 1.340035000000000025e+02 1.848054999999999836e+03
8.100000000000000255e-02 7.482134999999999758e-01 2.610640000000000072e+01 1.334290000000000020e+02 1.847940000000000055e+03
8.200000000000000344e-02 7.481275000000000563e-01 2.521325000000000216e+01 1.328855000000000075e+02 1.847815000000000055e+03
8.300000000000000433e-02 7.480560000000000542e-01 2.437219999999999942e+01 1.324085000000000036e+02 1.847700000000000045e+03
8.400000000000000522e-02 7.480035000000000434e-01 2.359515000000000029e+01 1.320254999999999939e+02 1.847605000000000018e+03
8.500000000000000611e-02 7.479720000000000812e-01 2.288850000000000051e+01 1.317505000000000166e+02 1.847529999999999973e+03
8.600000000000000699e-02 7.479605000000000281e-01 2.225319999999999965e+01 1.315860000000000127e+02 1.847480000000000018e+03
8.700000000000000788e-02 7.479664999999999786e-01 2.168495000000000061e+01 1.315219999999999914e+02 1.847450000000000045e+03
8.800000000000000877e-02 7.479860000000000397e-01 2.117499999999999716e+01 1.315395000000000039e+02 1.847440000000000055e+03
8.899999999999999578e-02 7.480115000000000514e-01 2.071079999999999899e+01 1.316119999999999948e+02 1.847444999999999936e+03
8.999999999999999667e-02 7.480375000000000218e-01 2.027710000000000079e+01 1.317049999999999841e+02 1.847454999999999927e+03
9.099999999999999756e-02 7.480560000000000542e-01 1.985699999999999932e+01 1.317839999999999918e+02 1.847465000000000146e+03
9.199999999999999845e-02 7.480605000000000171e-01 1.943305000000000149e+01 1.318100000000000023e+02 1.847470000000000027e+03
9.299999999999999933e-02 7.480430000000000135e-01 1.898850000000000193e+01 1.317479999999999905e+02 1.847450000000000045e+03
9.400000000000000022e-02 7.479979999999999407e-01 1.850835000000000008e+01 1.315674999999999955e+02 1.847409999999999854e+03
9.500000000000000111e-02 7.479215000000000169e-01 1.798069999999999879e+01 1.312420000000000186e+02 1.847340000000000146e+03
9.600000000000000200e-02 7.478110000000000035e-01 1.739714999999999989e+01 1.307560000000000002e+02 1.847230000000000018e+03
9.700000000000000289e-02 7.476659999999999417e-01 1.675414999999999921e+01 1.301020000000000039e+02 1.847085000000000036e+03
9.800000000000000377e-02 7.474885000000000002e-01 1.605279999999999774e+01 1.292830000000000155e+02 1.846894999999999982e+03
9.900000000000000466e-02 7.472820000000000018e-01 1.529899999999999949e+01 1.283140000000000214e+02 1.846670000000000073e+03
1.000000000000000056e-01 7.470520000000000493e-01 1.450324999999999953e+01 1.272180000000000035e+02 1.846414999999999964e+03
1.010000000000000064e-01 7.468060000000000809e-01 1.367998000000000047e+01 1.260279999999999916e+02 1.846134999999999991e+03
1.020000000000000073e-01 7.465524999999999523e-01 1.284642499999999998e+01 1.247824999999999989e+02 1.845839999999999918e+03
1.030000000000000082e-01 7.462999999999999634e-01 1.202174499999999924e+01 1.235240000000000009e+02 1.845529999999999973e+03
1.040000000000000091e-01 7.460579999999999989e-01 1.122563000000000066e+01 1.222974999999999994e+02 1.845230000000000018e+03
1.050000000000000100e-01 7.458339999999999970e-01 1.047724000000000011e+01 1.211460000000000008e+02 1.844940000000000055e+03
1.059999999999999970e-01 7.456365000000000354e-01 9.793889999999999318e+00 1.201069999999999993e+02 1.844675000000000182e+03
1.069999999999999979e-01 7.454704999999999249e-01 9.189989999999999881e+00 1.192139999999999986e+02 1.844440000000000055e+03
1.079999999999999988e-01 7.453395000000000437e-01 8.676490000000001146e+00 1.184909999999999997e+02 1.844240000000000009e+03
1.089999999999999997e-01 7.452469999999999928e-01 8.260049999999999670e+00 1.179519999999999982e+02 1.844090000000000146e+03
1.100000000000000006e-01 7.451925000000000354e-01 7.943035000000000068e+00 1.176039999999999992e+02 1.843974999999999909e+03
1.110000000000000014e-01 7.451740000000000030e-01 7.723555000000000170e+00 1.174405000000000001e+02 1.843910000000000082e+03
1.120000000000000023e-01 7.451879999999999615e-01 7.595780000000000420e+00 1.174489999999999981e+02 1.843880000000000109e+03
1.130000000000000032e-01 7.452304999999999069e-01 7.550575000000000259e+00 1.176094999999999970e+02 1.843894999999999982e+03
1.140000000000000041e-01 7.452954999999999997e-01 7.576175000000000104e+00 1.178950000000000102e+02 1.843940000000000055e+03
1.150000000000000050e-01 7.453764999999999974e-01 7.659045000000000769e+00 1.182775000000000034e+02 1.844009999999999991e+03
1.160000000000000059e-01 7.454680000000000195e-01 7.784659999999999691e+00 1.187249999999999943e+02 1.844099999999999909e+03
1.170000000000000068e-01 7.455640000000000045e-01 7.938329999999999664e+00 1.192065000000000055e+02 1.844204999999999927e+03
1.180000000000000077e-01 7.456579999999999320e-01 8.105865000000001430e+00 1.196935000000000002e+02 1.844315000000000055e+03
1.190000000000000085e-01 7.457465000000000899e-01 8.274210000000000065e+00 1.201599999999999966e+02 1.844424999999999955e+03
1.200000000000000094e-01 7.458245000000000013e-01 8.431889999999999219e+00 1.205849999999999937e+02 1.844525000000000091e+03
1.209999999999999964e-01 7.458894999999999831e-01 8.569379999999998887e+00 1.209509999999999934e+02 1.844615000000000009e+03
1.219999999999999973e-01 7.459400000000000475e-01 8.679320000000000590e+00 1.212464999999999975e+02 1.844690000000000055e+03
1.229999999999999982e-01 7.459750000000000547e-01 8.756644999999998902e+00 1.214654999999999916e+02 1.844755000000000109e+03
1.239999999999999991e-01 7.459944999999998938e-01 8.798579999999999401e+00 1.216059999999999945e+02 1.844789999999999964e+03
1.250000000000000000e-01 7.459999999999999964e-01 8.804565000000000197e+00 1.216709999999999923e+02 1.844815000000000055e+03
1.260000000000000009e-01 7.459919999999999884e-01 8.776080000000000325e+00 1.216664999999999992e+02 1.844825000000000045e+03
1.270000000000000018e-01 7.459739999999999149e-01 8.716435000000000599e+00 1.216039999999999992e+02 1.844820000000000164e+03
1.280000000000000027e-01 7.459480000000000555e-01 8.630369999999999209e+00 1.214945000000000022e+02 1.844799999999999955e+03
1.290000000000000036e-01 7.459169999999999412e-01 8.523635000000000517e+00 1.213524999999999920e+02 1.844775000000000091e+03
1.300000000000000044e-01 7.458835000000000326e-01 8.402860000000000440e+00 1.211920000000000073e+02 1.844744999999999891e+03
1.310000000000000053e-01 7.458510000000000417e-01 8.274715000000000487e+00 1.210279999999999916e+02 1.844710000000000036e+03
1.320000000000000062e-01 7.458225000000000549e-01 8.145690000000000097e+00 1.208739999999999952e+02 1.844674999999999955e+03
1.330000000000000071e-01 7.457985000000000309e-01 8.021660000000000679e+00 1.207399999999999949e+02 1.844644999999999982e+03
1.340000000000000080e-01 7.457814999999999861e-01 7.907519999999999882e+00 1.206355000000000075e+02 1.844619999999999891e+03
1.350000000000000089e-01 7.457724999999999493e-01 7.806905000000000427e+00 1.205664999999999907e+02 1.844599999999999909e+03
1.360000000000000098e-01 7.457705000000000028e-01 7.722115000000000506e+00 1.205345000000000084e+02 1.844589999999999918e+03
1.370000000000000107e-01 7.457764999999999533e-01 7.654009999999999536e+00 1.205399999999999920e+02 1.844585000000000036e+03
1.380000000000000115e-01 7.457884999999999653e-01 7.602160000000000473e+00 1.205784999999999911e+02 1.844595000000000027e+03
1.390000000000000124e-01 7.458055000000000101e-01 7.564980000000000260e+00 1.206444999999999936e+02 1.844610000000000127e+03
1.400000000000000133e-01 7.458255000000000301e-01 7.540004999999998958e+00 1.207299999999999898e+02 1.844625000000000000e+03
1.410000000000000142e-01 7.458469999999999267e-01 7.524189999999999934e+00 1.208265000000000100e+02 1.844650000000000091e+03
1.420000000000000151e-01 7.458685000000000453e-01 7.514174999999999827e+00 1.209244999999999948e+02 1.844670000000000073e+03
1.430000000000000160e-01 7.458865000000000078e-01 7.506619999999999848e+00 1.210150000000000006e+02 1.844690000000000055e+03
1.440000000000000169e-01 7.459014999999999951e-01 7.498439999999999550e+00 1.210914999999999964e+02 1.844704999999999927e+03
1.450000000000000178e-01 7.459119999999999084e-01 7.486975000000001046e+00 1.211459999999999866e+02 1.844720000000000027e+03
1.459999999999999909e-01 7.459164999999999823e-01 7.470219999999999416e+00 1.211760000000000019e+02 1.844730000000000018e+03
1.469999999999999918e-01 7.459154999999999536e-01 7.446850000000000414e+00 1.211784999999999997e+02 1.844735000000000127e+03
1.479999999999999927e-01 7.459089999999999332e-01 7.416315000000000879e+00 1.211535000000000082e+02 1.844724999999999909e+03
1.489999999999999936e-01 7.458974999999999911e-01 7.378814999999999458e+00 1.211030000000000086e+02 1.844714999999999918e+03
1.499999999999999944e-01 7.458810000000000162e-01 7.335300000000000153e+00 1.210304999999999893e+02 1.844699999999999818e+03
1.509999999999999953e-01 7.458620000000000250e-01 7.287380000000000635e+00 1.209419999999999931e+02 1.844679999999999836e+03
1.519999999999999962e-01 7.458415000000000461e-01 7.237224999999999575e+00 1.208430000000000035e+02 1.844659999999999854e+03
1.529999999999999971e-01 7.458209999999999562e-01 7.187454999999999927e+00 1.207425000000000068e+02 1.844634999999999991e+03
1.539999999999999980e-01 7.458025000000000349e-01 7.140980000000000771e+00 1.206469999999999914e+02 1.844610000000000127e+03
1.549999999999999989e-01 7.457869999999999777e-01 7.100855000000000139e+00 1.205654999999999859e+02 1.844590000000000146e+03
1.559999999999999998e-01 7.457765000000000644e-01 7.070104999999999862e+00 1.205064999999999884e+02 1.844575000000000045e+03
1.570000000000000007e-01 7.457719999999999905e-01 7.051555000000000462e+00 1.204755000000000109e+02 1.844565000000000055e+03
1.580000000000000016e-01 7.457750000000000767e-01 7.047684999999999533e+00 1.204815000000000111e+02 1.844565000000000055e+03
1.590000000000000024e-01 7.457865000000000189e-01 7.060469999999999580e+00 1.205270000000000010e+02 1.844570000000000164e+03
