# t [s], A [cm^2], U [cm/s], P [cPa], c [cm/s]
1.000000000000000021e-03 4.644574999999999676e-01 3.632799999999998530e-03 9.678065000000000850e+01 1.550755000000000109e+03
2.000000000000000042e-03 4.644510000000000582e-01 -1.002182999999999807e-03 9.676185000000000969e+01 1.550750000000000000e+03
3.000000000000000062e-03 4.644779999999999465e-01 5.881145000000000816e-02 9.682144999999999868e+01 1.550769999999999982e+03
4.000000000000000083e-03 4.645160000000000400e-01 1.454035499999999925e-01 9.693025000000000091e+01 1.550799999999999955e+03
5.000000000000000104e-03 4.645185000000000008e-01 1.589685000000000126e-01 9.694755000000000678e+01 1.550804999999999836e+03
6.000000000000000125e-03 4.644885000000000264e-01 9.849999999999999034e-02 9.683679999999999666e+01 1.550784999999999854e+03
7.000000000000000146e-03 4.644559999999999800e-01 2.995999999999998664e-02 9.666280000000000427e+01 1.550744999999999891e+03
8.000000000000000167e-03 4.644214999999999871e-01 -5.037700000000000511e-02 9.643359999999999843e+01 1.550690000000000055e+03
9.000000000000001055e-03 4.643614999999999826e-01 -1.971434999999999715e-01 9.608514999999999873e+01 1.550610000000000127e+03
1.000000000000000194e-02 4.642665000000000264e-01 -4.341350000000000486e-01 9.556790000000000873e+01 1.550490000000000009e+03
1.099999999999999936e-02 4.641300000000000425e-01 -7.718500000000000361e-01 9.484225000000000705e+01 1.550320000000000164e+03
1.200000000000000025e-02 4.639425000000000354e-01 -1.224400000000000155e+00 9.386160000000000991e+01 1.550085000000000036e+03
1.300000000000000114e-02 4.637040000000000051e-01 -1.780109999999999859e+00 9.260730000000000928e+01 1.549780000000000200e+03
1.400000000000000203e-02 4.634325000000000250e-01 -2.378180000000000405e+00 9.112680000000000291e+01 1.549410000000000082e+03
1.499999999999999944e-02 4.631594999999999462e-01 -2.924730000000000274e+00 8.952809999999999491e+01 1.548994999999999891e+03
1.600000000000000033e-02 4.629114999999999758e-01 -3.331414500000000167e+00 8.793685000000000684e+01 1.548570000000000164e+03
1.700000000000000122e-02 4.627020000000000022e-01 -3.545856499999999745e+00 8.645089999999999009e+01 1.548150000000000091e+03
1.800000000000000211e-02 4.625295000000000378e-01 -3.560555550000000125e+00 8.511554999999999893e+01 1.547755000000000109e+03
1.900000000000000300e-02 4.623804999999999721e-01 -3.404024499999999787e+00 8.392295000000000016e+01 1.547384999999999991e+03
2.000000000000000042e-02 4.622364999999999946e-01 -3.123622199999999793e+00 8.282744999999999891e+01 1.547029999999999973e+03
2.100000000000000130e-02 4.620819999999999927e-01 -2.767698999999999909e+00 8.176810000000000400e+01 1.546680000000000064e+03
2.200000000000000219e-02 4.619084999999999996e-01 -2.371946499999999958e+00 8.069020000000000437e+01 1.546320000000000164e+03
2.299999999999999961e-02 4.617124999999999702e-01 -1.952609999999999957e+00 7.956085000000000207e+01 1.545960000000000036e+03
2.400000000000000050e-02 4.615004999999999802e-01 -1.507590000000000208e+00 7.837434999999999263e+01 1.545579999999999927e+03
2.500000000000000139e-02 4.612795000000000645e-01 -1.024119999999999919e+00 7.714730000000000132e+01 1.545190000000000055e+03
2.600000000000000228e-02 4.610584999999999822e-01 -4.896499999999999186e-01 7.590609999999999502e+01 1.544789999999999964e+03
2.700000000000000316e-02 4.608415000000000150e-01 9.838000000000013401e-02 7.467260000000000275e+01 1.544394999999999982e+03
2.800000000000000058e-02 4.606259999999999799e-01 7.268899999999998141e-01 7.345294999999998709e+01 1.544000000000000000e+03
2.900000000000000147e-02 4.604070000000000107e-01 1.366829999999999989e+00 7.223214999999999009e+01 1.543605000000000018e+03
3.000000000000000236e-02 4.601735000000000131e-01 1.977449999999999930e+00 7.097575000000000500e+01 1.543200000000000045e+03
3.099999999999999978e-02 4.599139999999999895e-01 2.513789999999999303e+00 6.963700000000000045e+01 1.542779999999999973e+03
3.200000000000000067e-02 4.596189999999999998e-01 2.935275000000000301e+00 6.816790000000000305e+01 1.542324999999999818e+03
3.300000000000000155e-02 4.592840000000000256e-01 3.213595000000000201e+00 6.653114999999999668e+01 1.541835000000000036e+03
3.400000000000000244e-02 4.589090000000000114e-01 3.338010000000000144e+00 6.471040000000000703e+01 1.541304999999999836e+03
3.500000000000000333e-02 4.585015000000000063e-01 3.317174999999999763e+00 6.271620000000000061e+01 1.540724999999999909e+03
3.600000000000000422e-02 4.580724999999999936e-01 3.176625000000000476e+00 6.058695000000000164e+01 1.540119999999999891e+03
3.700000000000000511e-02 4.576374999999999749e-01 2.953840000000000465e+00 5.838349999999999795e+01 1.539490000000000009e+03
3.799999999999999906e-02 4.572134999999999949e-01 2.691320000000000157e+00 5.618144999999999811e+01 1.538855000000000018e+03
3.899999999999999994e-02 4.568145000000000122e-01 2.430420000000000247e+00 5.406085000000000207e+01 1.538240000000000009e+03
4.000000000000000083e-02 4.564529999999999976e-01 2.206579999999999764e+00 5.209774999999999778e+01 1.537654999999999973e+03
4.100000000000000172e-02 4.561389999999999612e-01 2.047030000000000349e+00 5.035710000000000264e+01 1.537125000000000000e+03
4.200000000000000261e-02 4.558784999999999643e-01 1.970340000000000202e+00 4.888949999999999818e+01 1.536664999999999964e+03
4.300000000000000350e-02 4.556755000000000111e-01 1.987774999999999848e+00 4.773015000000000185e+01 1.536285000000000082e+03
4.400000000000000439e-02 4.555305000000000049e-01 2.105535000000000156e+00 4.690035000000000309e+01 1.535985000000000127e+03
4.499999999999999833e-02 4.554449999999999887e-01 2.327129644999999858e+00 4.641025000000000489e+01 1.535779999999999973e+03
4.599999999999999922e-02 4.554190000000000182e-01 2.655425000000000146e+00 4.626245000000000118e+01 1.535675000000000182e+03
4.700000000000000011e-02 4.554515000000000091e-01 3.093820000000000014e+00 4.645479999999999876e+01 1.535664999999999964e+03
4.800000000000000100e-02 4.555430000000000312e-01 3.646460000000000257e+00 4.698239999999999839e+01 1.535750000000000000e+03
4.900000000000000189e-02 4.556919999999999860e-01 4.317660000000000053e+00 4.783870000000000289e+01 1.535930000000000064e+03
5.000000000000000278e-02 4.558984999999999843e-01 5.110655000000000392e+00 4.901524999999999466e+01 1.536204999999999927e+03
5.100000000000000366e-02 4.561604999999999688e-01 6.026239999999999597e+00 5.050074999999999648e+01 1.536570000000000164e+03
5.200000000000000455e-02 4.564749999999999641e-01 7.061630000000000074e+00 5.227965000000000373e+01 1.537019999999999982e+03
5.300000000000000544e-02 4.568384999999999807e-01 8.209710000000001173e+00 5.433145000000000380e+01 1.537555000000000064e+03
5.399999999999999939e-02 4.572450000000000125e-01 9.458854999999999791e+00 5.663009999999999877e+01 1.538159999999999854e+03
5.500000000000000028e-02 4.576884999999999981e-01 1.079359499999999983e+01 5.914424999999999955e+01 1.538835000000000036e+03
5.600000000000000117e-02 4.581614999999999993e-01 1.219548499999999969e+01 6.183814999999999884e+01 1.539575000000000045e+03
5.700000000000000205e-02 4.586574999999999402e-01 1.364431500000000064e+01 6.467345000000000255e+01 1.540355000000000018e+03
5.800000000000000294e-02 4.591695000000000082e-01 1.511954000000000065e+01 6.761090000000000089e+01 1.541174999999999955e+03
5.900000000000000383e-02 4.596899999999999875e-01 1.660147500000000065e+01 7.061249999999999716e+01 1.542025000000000091e+03
6.000000000000000472e-02 4.602140000000000120e-01 1.807244999999999990e+01 7.364334999999999809e+01 1.542894999999999982e+03
6.099999999999999867e-02 4.607360000000000344e-01 1.951735000000000042e+01 7.667320000000000846e+01 1.543775000000000091e+03
6.199999999999999956e-02 4.612534999999999830e-01 2.092419999999999902e+01 7.967754999999999654e+01 1.544654999999999973e+03
6.300000000000000044e-02 4.617629999999999790e-01 2.228415000000000035e+01 8.263804999999999268e+01 1.545525000000000091e+03
6.400000000000000133e-02 4.622640000000000082e-01 2.359120000000000061e+01 8.554245000000000232e+01 1.546390000000000100e+03
6.500000000000000222e-02 4.627560000000000007e-01 2.484179999999999922e+01 8.838434999999999775e+01 1.547250000000000000e+03
6.600000000000000311e-02 4.632384999999999975e-01 2.603460000000000107e+01 9.116214999999999691e+01 1.548090000000000146e+03
6.700000000000000400e-02 4.637124999999999719e-01 2.716960000000000264e+01 9.387789999999999679e+01 1.548914999999999964e+03
6.800000000000000488e-02 4.641790000000000083e-01 2.824775000000000347e+01 9.653579999999999472e+01 1.549724999999999909e+03
6.900000000000000577e-02 4.646384999999999543e-01 2.927049999999999841e+01 9.914324999999999477e+01 1.550530000000000200e+03
7.000000000000000666e-02 4.650934999999999930e-01 3.023920000000000030e+01 1.017054499999999990e+02 1.551319999999999936e+03
7.100000000000000755e-02 4.655430000000000401e-01 3.115505000000000280e+01 1.042288000000000068e+02 1.552099999999999909e+03
7.200000000000000844e-02 4.659880000000000133e-01 3.201839999999999975e+01 1.067160999999999973e+02 1.552865000000000009e+03
7.300000000000000933e-02 4.664279999999999538e-01 3.282894999999999897e+01 1.091705000000000041e+02 1.553630000000000109e+03
7.399999999999999634e-02 4.668634999999999868e-01 3.358554999999999779e+01 1.115900000000000034e+02 1.554380000000000109e+03
7.499999999999999722e-02 4.672924999999999995e-01 3.428629999999999711e+01 1.139710000000000036e+02 1.555119999999999891e+03
7.599999999999999811e-02 4.677135000000000042e-01 3.492834999999999468e+01 1.163069999999999879e+02 1.555849999999999909e+03
7.699999999999999900e-02 4.681250000000000133e-01 3.550860000000000127e+01 1.185904999999999916e+02 1.556565000000000055e+03
7.799999999999999989e-02 4.685249999999999693e-01 3.602360000000000184e+01 1.208094999999999999e+02 1.557259999999999991e+03
7.900000000000000078e-02 4.689115000000000366e-01 3.647005000000000052e+01 1.229534999999999911e+02 1.557940000000000055e+03
8.000000000000000167e-02 4.692824999999999913e-01 3.684459999999999980e+01 1.250109999999999957e+02 1.558594999999999800e+03
8.100000000000000255e-02 4.696354999999999835e-01 3.714459999999999695e+01 1.269699999999999989e+02 1.559220000000000027e+03
8.200000000000000344e-02 4.699694999999999845e-01 3.736799999999999500e+01 1.288190000000000168e+02 1.559820000000000164e+03
8.300000000000000433e-02 4.702815000000000190e-01 3.751335000000000264e+01 1.305500000000000114e+02 1.560380000000000109e+03
8.400000000000000522e-02 4.705719999999999903e-01 3.758015000000000327e+01 1.321535000000000082e+02 1.560904999999999973e+03
8.500000000000000611e-02 4.708384999999999931e-01 3.756864999999999810e+01 1.336239999999999952e+02 1.561400000000000091e+03
8.600000000000000699e-02 4.710814999999999864e-01 3.747984999999999900e+01 1.349565000000000055e+02 1.561849999999999909e+03
8.700000000000000788e-02 4.713005000000000111e-01 3.731560000000000343e+01 1.361494999999999891e+02 1.562255000000000109e+03
8.800000000000000877e-02 4.714949999999999974e-01 3.707850000000000534e+01 1.372024999999999864e+02 1.562619999999999891e+03
8.899999999999999578e-02 4.716654999999999598e-01 3.677200000000000557e+01 1.381165000000000020e+02 1.562945000000000164e+03
8.999999999999999667e-02 4.718120000000000092e-01 3.640009999999999479e+01 1.388954999999999984e+02 1.563235000000000127e+03
9.099999999999999756e-02 4.719369999999999954e-01 3.596760000000000446e+01 1.395439999999999827e+02 1.563474999999999909e+03
9.199999999999999845e-02 4.720400000000000151e-01 3.548015000000000185e+01 1.400695000000000050e+02 1.563684999999999945e+03
9.299999999999999933e-02 4.721235000000000293e-01 3.494360000000000355e+01 1.404789999999999850e+02 1.563849999999999909e+03
9.400000000000000022e-02 4.721889999999999699e-01 3.436480000000000246e+01 1.407835000000000036e+02 1.563990000000000009e+03
9.500000000000000111e-02 4.722375000000000322e-01 3.375059999999999860e+01 1.409920000000000186e+02 1.564090000000000146e+03
9.600000000000000200e-02 4.722724999999999840e-01 3.310840000000000316e+01 1.411154999999999973e+02 1.564164999999999964e+03
9.700000000000000289e-02 4.722939999999999916e-01 3.244559999999999889e+01 1.411674999999999898e+02 1.564220000000000027e+03
9.800000000000000377e-02 4.723054999999999892e-01 3.176924999999999955e+01 1.411585000000000036e+02 1.564244999999999891e+03
9.900000000000000466e-02 4.723089999999999788e-01 3.108634999999999593e+01 1.411009999999999991e+02 1.564250000000000000e+03
1.000000000000000056e-01 4.723054999999999892e-01 3.040305000000000035e+01 1.410049999999999955e+02 1.564250000000000000e+03
1.010000000000000064e-01 4.722969999999999668e-01 2.972489999999999810e+01 1.408810000000000002e+02 1.564234999999999900e+03
1.020000000000000073e-01 4.722850000000000104e-01 2.905635000000000190e+01 1.407379999999999995e+02 1.564204999999999927e+03
1.030000000000000082e-01 4.722699999999999676e-01 2.840090000000000003e+01 1.405815000000000055e+02 1.564170000000000073e+03
1.040000000000000091e-01 4.722534999999999927e-01 2.776089999999999947e+01 1.404180000000000064e+02 1.564130000000000109e+03
1.050000000000000100e-01 4.722349999999999604e-01 2.713759999999999906e+01 1.402500000000000000e+02 1.564085000000000036e+03
1.059999999999999970e-01 4.722149999999999959e-01 2.653099999999999881e+01 1.400790000000000077e+02 1.564039999999999964e+03
1.069999999999999979e-01 4.721929999999999739e-01 2.594035000000000224e+01 1.399039999999999964e+02 1.563990000000000009e+03
1.079999999999999988e-01 4.721695000000000197e-01 2.536390000000000100e+01 1.397245000000000061e+02 1.563934999999999945e+03
1.089999999999999997e-01 4.721429999999999794e-01 2.479934999999999690e+01 1.395360000000000014e+02 1.563880000000000109e+03
1.100000000000000006e-01 4.721124999999999905e-01 2.424370000000000047e+01 1.393349999999999795e+02 1.563820000000000164e+03
1.110000000000000014e-01 4.720779999999999976e-01 2.369400000000000261e+01 1.391175000000000068e+02 1.563755000000000109e+03
1.120000000000000023e-01 4.720385000000000275e-01 2.314679999999999893e+01 1.388774999999999977e+02 1.563684999999999945e+03
1.130000000000000032e-01 4.719925000000000370e-01 2.259895000000000209e+01 1.386109999999999900e+02 1.563605000000000018e+03
1.140000000000000041e-01 4.719404999999999850e-01 2.204749999999999943e+01 1.383135000000000048e+02 1.563519999999999982e+03
1.150000000000000050e-01 4.718815000000000093e-01 2.148969999999999914e+01 1.379814999999999827e+02 1.563420000000000073e+03
1.160000000000000059e-01 4.718149999999999844e-01 2.092350000000000065e+01 1.376119999999999948e+02 1.563315000000000055e+03
1.170000000000000068e-01 4.717410000000000214e-01 2.034725000000000250e+01 1.372035000000000196e+02 1.563195000000000164e+03
1.180000000000000077e-01 4.716599999999999682e-01 1.976010000000000133e+01 1.367560000000000002e+02 1.563065000000000055e+03
1.190000000000000085e-01 4.715709999999999624e-01 1.916179999999999950e+01 1.362700000000000102e+02 1.562924999999999955e+03
1.200000000000000094e-01 4.714760000000000062e-01 1.855294999999999916e+01 1.357485000000000070e+02 1.562769999999999982e+03
1.209999999999999964e-01 4.713755000000000028e-01 1.793485000000000085e+01 1.351945000000000050e+02 1.562615000000000009e+03
1.219999999999999973e-01 4.712705000000000366e-01 1.730949999999999989e+01 1.346129999999999995e+02 1.562445000000000164e+03
1.229999999999999982e-01 4.711615000000000109e-01 1.667964999999999876e+01 1.340105000000000075e+02 1.562264999999999873e+03
1.239999999999999991e-01 4.710509999999999975e-01 1.604844999999999899e+01 1.333935000000000173e+02 1.562085000000000036e+03
1.250000000000000000e-01 4.709389999999999965e-01 1.541975000000000051e+01 1.327704999999999984e+02 1.561904999999999973e+03
1.260000000000000009e-01 4.708284999999999831e-01 1.479759999999999920e+01 1.321490000000000009e+02 1.561720000000000027e+03
1.270000000000000018e-01 4.707204999999999862e-01 1.418631000000000064e+01 1.315374999999999943e+02 1.561539999999999964e+03
1.280000000000000027e-01 4.706159999999999788e-01 1.359035499999999885e+01 1.309454999999999814e+02 1.561359999999999900e+03
1.290000000000000036e-01 4.705170000000000186e-01 1.301399999999999935e+01 1.303810000000000002e+02 1.561190000000000055e+03
1.300000000000000044e-01 4.704255000000000519e-01 1.246139499999999956e+01 1.298520000000000039e+02 1.561025000000000091e+03
1.310000000000000053e-01 4.703410000000000091e-01 1.193622999999999834e+01 1.293645000000000209e+02 1.560869999999999891e+03
1.320000000000000062e-01 4.702659999999999618e-01 1.144167500000000004e+01 1.289254999999999995e+02 1.560730000000000018e+03
1.330000000000000071e-01 4.702005000000000212e-01 1.098039999999999949e+01 1.285389999999999873e+02 1.560605000000000018e+03
1.340000000000000080e-01 4.701450000000000351e-01 1.055432500000000040e+01 1.282085000000000150e+02 1.560490000000000009e+03
1.350000000000000089e-01 4.700995000000000035e-01 1.016451999999999956e+01 1.279359999999999928e+02 1.560394999999999982e+03
1.360000000000000098e-01 4.700649999999999551e-01 9.811495000000000744e+00 1.277214999999999918e+02 1.560320000000000164e+03
1.370000000000000107e-01 4.700400000000000134e-01 9.494889999999999830e+00 1.275639999999999930e+02 1.560255000000000109e+03
1.380000000000000115e-01 4.700244999999999562e-01 9.213565000000000893e+00 1.274615000000000009e+02 1.560210000000000036e+03
1.390000000000000124e-01 4.700174999999999770e-01 8.965914999999998969e+00 1.274094999999999942e+02 1.560174999999999955e+03
1.400000000000000133e-01 4.700185000000000057e-01 8.749745000000000772e+00 1.274029999999999916e+02 1.560159999999999854e+03
1.410000000000000142e-01 4.700254999999999850e-01 8.562439999999998719e+00 1.274380000000000024e+02 1.560154999999999973e+03
1.420000000000000151e-01 4.700389999999999846e-01 8.401044999999999874e+00 1.275074999999999932e+02 1.560154999999999973e+03
1.430000000000000160e-01 4.700564999999999882e-01 8.262475000000000236e+00 1.276049999999999898e+02 1.560175000000000182e+03
1.440000000000000169e-01 4.700779999999999959e-01 8.143595000000001249e+00 1.277249999999999943e+02 1.560194999999999936e+03
1.450000000000000178e-01 4.701014999999999500e-01 8.041285000000000238e+00 1.278605000000000018e+02 1.560224999999999909e+03
1.459999999999999909e-01 4.701265000000000027e-01 7.952579999999999316e+00 1.280070000000000050e+02 1.560259999999999991e+03
1.469999999999999918e-01 4.701524999999999732e-01 7.874719999999999942e+00 1.281580000000000155e+02 1.560299999999999955e+03
1.479999999999999927e-01 4.701779999999999848e-01 7.805215000000000458e+00 1.283100000000000023e+02 1.560339999999999918e+03
1.489999999999999936e-01 4.702030000000000376e-01 7.741870000000000474e+00 1.284590000000000032e+02 1.560375000000000000e+03
1.499999999999999944e-01 4.702270000000000061e-01 7.682824999999999349e+00 1.286020000000000039e+02 1.560414999999999964e+03
1.509999999999999953e-01 4.702500000000000013e-01 7.626535000000000508e+00 1.287370000000000232e+02 1.560454999999999927e+03
1.519999999999999962e-01 4.702715000000000645e-01 7.571790000000000020e+00 1.288629999999999995e+02 1.560490000000000009e+03
1.529999999999999971e-01 4.702905000000000002e-01 7.517674999999999663e+00 1.289784999999999968e+02 1.560525000000000091e+03
1.539999999999999980e-01 4.703089999999999771e-01 7.463559999999999306e+00 1.290840000000000032e+02 1.560554999999999836e+03
1.549999999999999989e-01 4.703249999999999931e-01 7.409060000000000201e+00 1.291790000000000020e+02 1.560585000000000036e+03
1.559999999999999998e-01 4.703395000000000215e-01 7.354004999999999903e+00 1.292655000000000030e+02 1.560610000000000127e+03
1.570000000000000007e-01 4.703534999999999799e-01 7.298410000000000508e+00 1.293424999999999727e+02 1.560630000000000109e+03
1.580000000000000016e-01 4.703665000000000207e-01 7.242399999999999949e+00 1.294130000000000109e+02 1.560654999999999973e+03
1.590000000000000024e-01 4.703779999999999628e-01 7.186214999999999797e+00 1.294780000000000086e+02 1.560674999999999955e+03
