# t [s], A [cm^2], U [cm/s], P [cPa], c [cm/s]
1.000000000000000021e-03 7.852485000000000159e-01 8.025500000000004852e-03 1.002630000000000052e+02 1.796539999999999964e+03
2.000000000000000042e-03 7.852314999999999712e-01 -7.387789999999999982e-03 1.002214999999999918e+02 1.796534999999999854e+03
3.000000000000000062e-03 7.852919999999999900e-01 8.882080000000000530e-02 1.003367000000000075e+02 1.796559999999999945e+03
4.000000000000000083e-03 7.853490000000000748e-01 1.971277999999999919e-01 1.004789999999999992e+02 1.796589999999999918e+03
5.000000000000000104e-03 7.853054999999999897e-01 1.624762499999999887e-01 1.003852499999999992e+02 1.796570000000000164e+03
6.000000000000000125e-03 7.852185000000000414e-01 5.591350000000000486e-02 1.001080000000000041e+02 1.796509999999999991e+03
7.000000000000000146e-03 7.851574999999999527e-01 -1.963300000000001155e-02 9.981149999999999523e+01 1.796450000000000045e+03
8.000000000000000167e-03 7.850485000000000380e-01 -1.862200000000000522e-01 9.935899999999999466e+01 1.796349999999999909e+03
9.000000000000001055e-03 7.848684999999999690e-01 -4.908349999999999103e-01 9.865645000000000664e+01 1.796204999999999927e+03
1.000000000000000194e-02 7.846170000000000089e-01 -9.323799999999999866e-01 9.766665000000000418e+01 1.795994999999999891e+03
1.099999999999999936e-02 7.842594999999999983e-01 -1.553324999999999623e+00 9.628334999999999866e+01 1.795710000000000036e+03
1.200000000000000025e-02 7.837959999999999372e-01 -2.337545000000000428e+00 9.446850000000000591e+01 1.795325000000000045e+03
1.300000000000000114e-02 7.833019999999999428e-01 -3.136220000000000230e+00 9.238419999999999277e+01 1.794864999999999782e+03
1.400000000000000203e-02 7.828779999999999628e-01 -3.746706000000000092e+00 9.032189999999999941e+01 1.794400000000000091e+03
1.499999999999999944e-02 7.825770000000000781e-01 -4.035747000000000639e+00 8.852080000000000837e+01 1.793964999999999918e+03
1.600000000000000033e-02 7.823849999999999971e-01 -3.991890000000000160e+00 8.705670000000000641e+01 1.793589999999999918e+03
1.700000000000000122e-02 7.822394999999999765e-01 -3.700664999999999871e+00 8.584149999999999636e+01 1.793255000000000109e+03
1.800000000000000211e-02 7.820679999999999854e-01 -3.284434999999999771e+00 8.469695000000000107e+01 1.792934999999999945e+03
1.900000000000000300e-02 7.818220000000000169e-01 -2.843996499999999816e+00 8.344724999999999682e+01 1.792595000000000027e+03
2.000000000000000042e-02 7.814904999999999768e-01 -2.423078999999999983e+00 8.199174999999999613e+01 1.792215000000000146e+03
2.100000000000000130e-02 7.810964999999999714e-01 -2.003765000000000018e+00 8.033400000000000318e+01 1.791789999999999964e+03
2.200000000000000219e-02 7.806850000000000733e-01 -1.529395000000000060e+00 7.856315000000000737e+01 1.791340000000000146e+03
2.299999999999999961e-02 7.802959999999999896e-01 -9.417599999999999305e-01 7.680169999999999675e+01 1.790885000000000218e+03
2.400000000000000050e-02 7.799510000000000609e-01 -2.153149999999999231e-01 7.514610000000000412e+01 1.790450000000000045e+03
2.500000000000000139e-02 7.796425000000000161e-01 6.243799999999999351e-01 7.362330000000000041e+01 1.790039999999999964e+03
2.600000000000000228e-02 7.793375000000000163e-01 1.501364999999999839e+00 7.217640000000000100e+01 1.789644999999999982e+03
2.700000000000000316e-02 7.789900000000000713e-01 2.306169999999999831e+00 7.067775000000000318e+01 1.789244999999999891e+03
2.800000000000000058e-02 7.785520000000000218e-01 2.923249999999999460e+00 6.896604999999999563e+01 1.788804999999999836e+03
2.900000000000000147e-02 7.779905000000000292e-01 3.262165000000000425e+00 6.689574999999999250e+01 1.788299999999999955e+03
3.000000000000000236e-02 7.773010000000000197e-01 3.283430000000000515e+00 6.438649999999999807e+01 1.787704999999999927e+03
3.099999999999999978e-02 7.765070000000000583e-01 3.009380000000000166e+00 6.145404999999999518e+01 1.787019999999999982e+03
3.200000000000000067e-02 7.756585000000000285e-01 2.514994999999999870e+00 5.821034999999999826e+01 1.786269999999999982e+03
3.300000000000000155e-02 7.748135000000000439e-01 1.903859999999999442e+00 5.483504999999999541e+01 1.785480000000000018e+03
3.400000000000000244e-02 7.740264999999999507e-01 1.280620000000000314e+00 5.153260000000000218e+01 1.784700000000000045e+03
3.500000000000000333e-02 7.733369999999999411e-01 7.298199999999996912e-01 4.849139999999999873e+01 1.783960000000000036e+03
3.600000000000000422e-02 7.727684999999999693e-01 3.059150000000001590e-01 4.585680000000000689e+01 1.783309999999999945e+03
3.700000000000000511e-02 7.723280000000000145e-01 3.320500000000015106e-02 4.371925000000000239e+01 1.782750000000000000e+03
3.799999999999999906e-02 7.720110000000000028e-01 -8.711500000000027555e-02 4.211655000000000371e+01 1.782320000000000164e+03
3.899999999999999994e-02 7.718089999999999673e-01 -6.649500000000019284e-02 4.104585000000000150e+01 1.782005000000000109e+03
4.000000000000000083e-02 7.717100000000000071e-01 8.169499999999996209e-02 4.048040000000000305e+01 1.781809999999999945e+03
4.100000000000000172e-02 7.717064999999999619e-01 3.505749999999999700e-01 4.038729999999999620e+01 1.781740000000000009e+03
4.200000000000000261e-02 7.717975000000000252e-01 7.438400000000000567e-01 4.073999999999999488e+01 1.781769999999999982e+03
4.300000000000000350e-02 7.719840000000000035e-01 1.274778500000000037e+00 4.152410000000000423e+01 1.781909999999999854e+03
4.400000000000000439e-02 7.722689999999999833e-01 1.961195000000000022e+00 4.273534999999999684e+01 1.782154999999999973e+03
4.499999999999999833e-02 7.726564999999999683e-01 2.818405000000000271e+00 4.437219999999999942e+01 1.782505000000000109e+03
4.599999999999999922e-02 7.731419999999999959e-01 3.852824999999999722e+00 4.642640000000000100e+01 1.782954999999999927e+03
4.700000000000000011e-02 7.737199999999999633e-01 5.058034500000000655e+00 4.887519999999999953e+01 1.783500000000000000e+03
4.800000000000000100e-02 7.743765000000000231e-01 6.413799499999999654e+00 5.167710000000000292e+01 1.784130000000000109e+03
4.900000000000000189e-02 7.750924999999999621e-01 7.888351499999999739e+00 5.477209999999999468e+01 1.784839999999999918e+03
5.000000000000000278e-02 7.758490000000000109e-01 9.442159999999999442e+00 5.808644999999999925e+01 1.785605000000000018e+03
5.100000000000000366e-02 7.766245000000000509e-01 1.103302000000000049e+01 6.153879999999999484e+01 1.786420000000000073e+03
5.200000000000000455e-02 7.774015000000000786e-01 1.262082000000000015e+01 6.504900000000000659e+01 1.787255000000000109e+03
5.300000000000000544e-02 7.781649999999999956e-01 1.417126000000000019e+01 6.854489999999999839e+01 1.788095000000000027e+03
5.399999999999999939e-02 7.789044999999999996e-01 1.565816500000000033e+01 7.196819999999999595e+01 1.788929999999999836e+03
5.500000000000000028e-02 7.796140000000000292e-01 1.706409999999999982e+01 7.527779999999999916e+01 1.789750000000000000e+03
5.600000000000000117e-02 7.802914999999999157e-01 1.837999999999999901e+01 7.844979999999999620e+01 1.790539999999999964e+03
5.700000000000000205e-02 7.809395000000000087e-01 1.960329999999999728e+01 8.147665000000000646e+01 1.791299999999999955e+03
5.800000000000000294e-02 7.815600000000000325e-01 2.073665000000000092e+01 8.436390000000000100e+01 1.792035000000000082e+03
5.900000000000000383e-02 7.821590000000000487e-01 2.178580000000000183e+01 8.712675000000000125e+01 1.792740000000000009e+03
6.000000000000000472e-02 7.827410000000000201e-01 2.275849999999999795e+01 8.978649999999998954e+01 1.793420000000000073e+03
6.099999999999999867e-02 7.833114999999999384e-01 2.366259999999999764e+01 9.236695000000000277e+01 1.794079999999999927e+03
6.199999999999999956e-02 7.838754999999999473e-01 2.450584999999999880e+01 9.489124999999999943e+01 1.794724999999999909e+03
6.300000000000000044e-02 7.844359999999999111e-01 2.529410000000000025e+01 9.737870000000000914e+01 1.795360000000000127e+03
6.400000000000000133e-02 7.849939999999999696e-01 2.603130000000000166e+01 9.984354999999999336e+01 1.795990000000000009e+03
6.500000000000000222e-02 7.855509999999999993e-01 2.671865000000000023e+01 1.022911500000000018e+02 1.796610000000000127e+03
6.600000000000000311e-02 7.861044999999999838e-01 2.735459999999999781e+01 1.047210499999999911e+02 1.797230000000000018e+03
6.700000000000000400e-02 7.866505000000000303e-01 2.793529999999999802e+01 1.071219999999999999e+02 1.797840000000000146e+03
6.800000000000000488e-02 7.871854999999999825e-01 2.845495000000000019e+01 1.094795000000000016e+02 1.798445000000000164e+03
6.900000000000000577e-02 7.877030000000000420e-01 2.890695000000000192e+01 1.117715000000000032e+02 1.799030000000000200e+03
7.000000000000000666e-02 7.881985000000000241e-01 2.928459999999999752e+01 1.139749999999999943e+02 1.799599999999999909e+03
7.100000000000000755e-02 7.886664999999999370e-01 2.958200000000000074e+01 1.160660000000000025e+02 1.800139999999999873e+03
7.200000000000000844e-02 7.891025000000000400e-01 2.979449999999999932e+01 1.180240000000000009e+02 1.800650000000000091e+03
7.300000000000000933e-02 7.895029999999999548e-01 2.991920000000000002e+01 1.198294999999999959e+02 1.801130000000000109e+03
7.399999999999999634e-02 7.898659999999999570e-01 2.995474999999999710e+01 1.214685000000000059e+02 1.801559999999999945e+03
7.499999999999999722e-02 7.901890000000000303e-01 2.990104999999999791e+01 1.229300000000000068e+02 1.801954999999999927e+03
7.599999999999999811e-02 7.904709999999999237e-01 2.975959999999999894e+01 1.242075000000000102e+02 1.802304999999999836e+03
7.699999999999999900e-02 7.907120000000000815e-01 2.953275000000000006e+01 1.252984999999999900e+02 1.802605000000000018e+03
7.799999999999999989e-02 7.909125000000000183e-01 2.922409999999999997e+01 1.262034999999999911e+02 1.802865000000000009e+03
7.900000000000000078e-02 7.910730000000000262e-01 2.883845000000000169e+01 1.269275000000000091e+02 1.803075000000000045e+03
8.000000000000000167e-02 7.911964999999999693e-01 2.838179999999999836e+01 1.274774999999999920e+02 1.803244999999999891e+03
8.100000000000000255e-02 7.912844999999999462e-01 2.786175000000000068e+01 1.278644999999999925e+02 1.803369999999999891e+03
8.200000000000000344e-02 7.913414999999999200e-01 2.728715000000000046e+01 1.281034999999999968e+02 1.803460000000000036e+03
8.300000000000000433e-02 7.913704999999999767e-01 2.666825000000000045e+01 1.282115000000000009e+02 1.803514999999999873e+03
8.400000000000000522e-02 7.913775000000000670e-01 2.601644999999999897e+01 1.282085000000000150e+02 1.803539999999999964e+03
8.500000000000000611e-02 7.913660000000000139e-01 2.534349999999999881e+01 1.281160000000000139e+02 1.803535000000000082e+03
8.600000000000000699e-02 7.913419999999999899e-01 2.466120000000000090e+01 1.279555000000000007e+02 1.803515000000000100e+03
8.700000000000000788e-02 7.913094999999999990e-01 2.398055000000000092e+01 1.277495000000000118e+02 1.803474999999999909e+03
8.800000000000000877e-02 7.912734999999999630e-01 2.331129999999999924e+01 1.275160000000000053e+02 1.803429999999999836e+03
8.899999999999999578e-02 7.912354999999999805e-01 2.266124999999999901e+01 1.272734999999999843e+02 1.803380000000000109e+03
8.999999999999999667e-02 7.911995000000000555e-01 2.203600000000000136e+01 1.270329999999999870e+02 1.803319999999999936e+03
9.099999999999999756e-02 7.911650000000000071e-01 2.143865000000000265e+01 1.268034999999999854e+02 1.803264999999999873e+03
9.199999999999999845e-02 7.911329999999999751e-01 2.086990000000000123e+01 1.265885000000000105e+02 1.803210000000000036e+03
9.299999999999999933e-02 7.911025000000000418e-01 2.032845000000000013e+01 1.263870000000000005e+02 1.803159999999999854e+03
9.400000000000000022e-02 7.910715000000000385e-01 1.981090000000000018e+01 1.261940000000000168e+02 1.803110000000000127e+03
9.500000000000000111e-02 7.910384999999999778e-01 1.931244999999999834e+01 1.260019999999999953e+02 1.803059999999999945e+03
9.600000000000000200e-02 7.910004999999999953e-01 1.882720000000000127e+01 1.258004999999999995e+02 1.803005000000000109e+03
9.700000000000000289e-02 7.909545000000000048e-01 1.834864999999999924e+01 1.255775000000000148e+02 1.802944999999999936e+03
9.800000000000000377e-02 7.908984999999999488e-01 1.786999999999999744e+01 1.253209999999999980e+02 1.802884999999999991e+03
9.900000000000000466e-02 7.908295000000000741e-01 1.738475000000000037e+01 1.250190000000000055e+02 1.802809999999999945e+03
1.000000000000000056e-01 7.907454999999999901e-01 1.688690000000000069e+01 1.246605000000000132e+02 1.802720000000000027e+03
1.010000000000000064e-01 7.906444999999999723e-01 1.637120000000000175e+01 1.242360000000000042e+02 1.802619999999999891e+03
1.020000000000000073e-01 7.905264999999999098e-01 1.583399999999999963e+01 1.237400000000000091e+02 1.802500000000000000e+03
1.030000000000000082e-01 7.903895000000000781e-01 1.527305000000000135e+01 1.231690000000000111e+02 1.802365000000000009e+03
1.040000000000000091e-01 7.902359999999999385e-01 1.468785000000000096e+01 1.225225000000000080e+02 1.802214999999999918e+03
1.050000000000000100e-01 7.900665000000000049e-01 1.407997500000000102e+01 1.218054999999999950e+02 1.802045000000000073e+03
1.059999999999999970e-01 7.898840000000000305e-01 1.345289999999999964e+01 1.210264999999999986e+02 1.801855000000000018e+03
1.069999999999999979e-01 7.896914999999999907e-01 1.281189000000000000e+01 1.201970000000000027e+02 1.801659999999999854e+03
1.079999999999999988e-01 7.894930000000000003e-01 1.216375000000000028e+01 1.193315000000000055e+02 1.801449999999999818e+03
1.089999999999999997e-01 7.892919999999999936e-01 1.151652999999999949e+01 1.184490000000000123e+02 1.801234999999999900e+03
1.100000000000000006e-01 7.890945000000000320e-01 1.087912999999999997e+01 1.175674999999999955e+02 1.801019999999999982e+03
1.110000000000000014e-01 7.889040000000000497e-01 1.026069500000000012e+01 1.167075000000000102e+02 1.800809999999999945e+03
1.120000000000000023e-01 7.887250000000000094e-01 9.670249999999999346e+00 1.158884999999999934e+02 1.800605000000000018e+03
1.130000000000000032e-01 7.885614999999999153e-01 9.116294999999999149e+00 1.151285000000000025e+02 1.800409999999999854e+03
1.140000000000000041e-01 7.884174999999999933e-01 8.606234999999999857e+00 1.144440000000000026e+02 1.800235000000000127e+03
1.150000000000000050e-01 7.882944999999998981e-01 8.146084999999999354e+00 1.138474999999999966e+02 1.800074999999999818e+03
1.160000000000000059e-01 7.881944999999999091e-01 7.740310000000000024e+00 1.133499999999999943e+02 1.799940000000000055e+03
1.170000000000000068e-01 7.881179999999999852e-01 7.391490000000000116e+00 1.129555000000000007e+02 1.799835000000000036e+03
1.180000000000000077e-01 7.880659999999999332e-01 7.100369999999999848e+00 1.126664999999999992e+02 1.799744999999999891e+03
1.190000000000000085e-01 7.880354999999999999e-01 6.865885000000000460e+00 1.124805000000000064e+02 1.799679999999999836e+03
1.200000000000000094e-01 7.880264999999999631e-01 6.685304999999999609e+00 1.123919999999999959e+02 1.799644999999999982e+03
1.209999999999999964e-01 7.880350000000000410e-01 6.554515000000000313e+00 1.123909999999999911e+02 1.799630000000000109e+03
1.219999999999999973e-01 7.880595000000000239e-01 6.468259999999999899e+00 1.124680000000000035e+02 1.799630000000000109e+03
1.229999999999999982e-01 7.880970000000000475e-01 6.420569999999999666e+00 1.126080000000000041e+02 1.799654999999999973e+03
1.239999999999999991e-01 7.881434999999999969e-01 6.405034999999999812e+00 1.127990000000000066e+02 1.799690000000000055e+03
1.250000000000000000e-01 7.881960000000000077e-01 6.415179999999999438e+00 1.130264999999999986e+02 1.799735000000000127e+03
1.260000000000000009e-01 7.882525000000000226e-01 6.444689999999999586e+00 1.132779999999999916e+02 1.799784999999999854e+03
1.270000000000000018e-01 7.883105000000000251e-01 6.487659999999999982e+00 1.135414999999999992e+02 1.799845000000000027e+03
1.280000000000000027e-01 7.883674999999999988e-01 6.538739999999999775e+00 1.138059999999999974e+02 1.799904999999999973e+03
1.290000000000000036e-01 7.884219999999999562e-01 6.593220000000000525e+00 1.140639999999999930e+02 1.799965000000000146e+03
1.300000000000000044e-01 7.884729999999999794e-01 6.647095000000000198e+00 1.143085000000000093e+02 1.800019999999999982e+03
1.310000000000000053e-01 7.885189999999999699e-01 6.697079999999999700e+00 1.145345000000000084e+02 1.800074999999999818e+03
1.320000000000000062e-01 7.885604999999999976e-01 6.740629999999999455e+00 1.147384999999999877e+02 1.800130000000000109e+03
1.330000000000000071e-01 7.885965000000000336e-01 6.775885000000000602e+00 1.149184999999999945e+02 1.800175000000000182e+03
1.340000000000000080e-01 7.886279999999999957e-01 6.801709999999999923e+00 1.150745000000000005e+02 1.800210000000000036e+03
1.350000000000000089e-01 7.886534999999998963e-01 6.817600000000000549e+00 1.152079999999999984e+02 1.800244999999999891e+03
1.360000000000000098e-01 7.886759999999999327e-01 6.823665000000000092e+00 1.153199999999999932e+02 1.800280000000000200e+03
1.370000000000000107e-01 7.886940000000000062e-01 6.820550000000000779e+00 1.154140000000000015e+02 1.800304999999999836e+03
1.380000000000000115e-01 7.887100000000000222e-01 6.809350000000000236e+00 1.154935000000000116e+02 1.800329999999999927e+03
1.390000000000000124e-01 7.887235000000000218e-01 6.791484999999999772e+00 1.155614999999999952e+02 1.800349999999999909e+03
1.400000000000000133e-01 7.887370000000000214e-01 6.768584999999999852e+00 1.156219999999999999e+02 1.800369999999999891e+03
1.410000000000000142e-01 7.887500000000000622e-01 6.742329999999999934e+00 1.156800000000000068e+02 1.800384999999999991e+03
1.420000000000000151e-01 7.887634999999999508e-01 6.714330000000000354e+00 1.157379999999999995e+02 1.800400000000000091e+03
1.430000000000000160e-01 7.887785000000000490e-01 6.685985000000000511e+00 1.157980000000000018e+02 1.800414999999999964e+03
1.440000000000000169e-01 7.887945000000000650e-01 6.658419999999999561e+00 1.158635000000000019e+02 1.800430000000000064e+03
1.450000000000000178e-01 7.888125000000000275e-01 6.632385000000000197e+00 1.159344999999999999e+02 1.800454999999999927e+03
1.459999999999999909e-01 7.888319999999999776e-01 6.608220000000000205e+00 1.160105000000000075e+02 1.800470000000000027e+03
1.469999999999999918e-01 7.888519999999999976e-01 6.585914999999999964e+00 1.160925000000000011e+02 1.800490000000000009e+03
1.479999999999999927e-01 7.888735000000000053e-01 6.565110000000000667e+00 1.161769999999999925e+02 1.800509999999999991e+03
1.489999999999999936e-01 7.888939999999999841e-01 6.545194999999999652e+00 1.162630000000000052e+02 1.800534999999999854e+03
1.499999999999999944e-01 7.889140000000000041e-01 6.525405000000000122e+00 1.163464999999999918e+02 1.800554999999999836e+03
1.509999999999999953e-01 7.889325000000000365e-01 6.504954999999999821e+00 1.164249999999999972e+02 1.800574999999999818e+03
1.519999999999999962e-01 7.889490000000000114e-01 6.483135000000000758e+00 1.164960000000000093e+02 1.800594999999999800e+03
1.529999999999999971e-01 7.889630000000000809e-01 6.459419999999999717e+00 1.165579999999999927e+02 1.800609999999999900e+03
1.539999999999999980e-01 7.889745000000000230e-01 6.433559999999999945e+00 1.166075000000000017e+02 1.800619999999999891e+03
1.549999999999999989e-01 7.889829999999999899e-01 6.405630000000000379e+00 1.166460000000000008e+02 1.800635000000000218e+03
1.559999999999999998e-01 7.889884999999999815e-01 6.376034999999999897e+00 1.166719999999999970e+02 1.800644999999999982e+03
1.570000000000000007e-01 7.889920000000000266e-01 6.345505000000000173e+00 1.166870000000000118e+02 1.800650000000000091e+03
1.580000000000000016e-01 7.889945000000000430e-01 6.315049999999999386e+00 1.166935000000000002e+02 1.800650000000000091e+03
1.590000000000000024e-01 7.889950000000000019e-01 6.285880000000000578e+00 1.166935000000000002e+02 1.800650000000000091e+03
