# t [s], A [cm^2], U [cm/s], P [cPa], c [cm/s]
1.000000000000000021e-03 1.772719999999999851e-01 2.843002000000000029e-01 9.259559999999999036e+01 2.246364999999999782e+03
2.000000000000000042e-03 1.772279999999999966e-01 1.665267999999999970e+00 8.932274999999999920e+01 2.245909999999999854e+03
3.000000000000000062e-03 1.771139999999999937e-01 3.383783000000000207e+00 8.475274999999999181e+01 2.244784999999999854e+03
4.000000000000000083e-03 1.769600000000000062e-01 5.331980500000000234e+00 7.984915000000000873e+01 2.243300000000000182e+03
5.000000000000000104e-03 1.767994999999999983e-01 7.431594999999999729e+00 7.555504999999999427e+01 2.241755000000000109e+03
6.000000000000000125e-03 1.766469999999999985e-01 9.478014999999999191e+00 7.208889999999999532e+01 2.240309999999999945e+03
7.000000000000000146e-03 1.765050000000000230e-01 1.124967499999999987e+01 6.909505000000000052e+01 2.238989999999999782e+03
8.000000000000000167e-03 1.763760000000000050e-01 1.270284000000000013e+01 6.639625000000000909e+01 2.237815000000000055e+03
9.000000000000001055e-03 1.762650000000000050e-01 1.389104999999999990e+01 6.411759999999999593e+01 2.236815000000000055e+03
1.000000000000000194e-02 1.761745000000000116e-01 1.484309999999999974e+01 6.231960000000000122e+01 2.236010000000000218e+03
1.099999999999999936e-02 1.761019999999999808e-01 1.557205000000000084e+01 6.095230000000000103e+01 2.235369999999999891e+03
1.200000000000000025e-02 1.760455000000000214e-01 1.608060000000000045e+01 5.990609999999999502e+01 2.234889999999999873e+03
1.300000000000000114e-02 1.759999999999999898e-01 1.636359999999999815e+01 5.901269999999999527e+01 2.234505000000000109e+03
1.400000000000000203e-02 1.759614999999999929e-01 1.646464999999999890e+01 5.818840000000000146e+01 2.234190000000000055e+03
1.499999999999999944e-02 1.759324999999999917e-01 1.652089999999999748e+01 5.763315000000000055e+01 2.233954999999999927e+03
1.600000000000000033e-02 1.759239999999999970e-01 1.671945000000000192e+01 5.780259999999999820e+01 2.233890000000000327e+03
1.700000000000000122e-02 1.759445000000000037e-01 1.719044999999999845e+01 5.911209999999999809e+01 2.234079999999999927e+03
1.800000000000000211e-02 1.759985000000000022e-01 1.792585000000000051e+01 6.161594999999999800e+01 2.234559999999999945e+03
1.900000000000000300e-02 1.760794999999999999e-01 1.877929999999999922e+01 6.489849999999999852e+01 2.235289999999999964e+03
2.000000000000000042e-02 1.761725000000000096e-01 1.953540000000000276e+01 6.822820000000000107e+01 2.236130000000000109e+03
2.100000000000000130e-02 1.762579999999999980e-01 2.000355000000000061e+01 7.085729999999999507e+01 2.236920000000000073e+03
2.200000000000000219e-02 1.763210000000000055e-01 2.008719999999999928e+01 7.230199999999999250e+01 2.237519999999999982e+03
2.299999999999999961e-02 1.763540000000000108e-01 1.980570000000000164e+01 7.248265000000000668e+01 2.237849999999999909e+03
2.400000000000000050e-02 1.763595000000000024e-01 1.926604999999999990e+01 7.168659999999999854e+01 2.237925000000000182e+03
2.500000000000000139e-02 1.763445000000000151e-01 1.860614999999999952e+01 7.039619999999999322e+01 2.237814999999999600e+03
2.600000000000000228e-02 1.763200000000000045e-01 1.793670000000000186e+01 6.907235000000000014e+01 2.237605000000000018e+03
2.700000000000000316e-02 1.762940000000000063e-01 1.730584999999999951e+01 6.798900000000000432e+01 2.237369999999999891e+03
2.800000000000000058e-02 1.762710000000000110e-01 1.669554999999999723e+01 6.717199999999999704e+01 2.237154999999999745e+03
2.900000000000000147e-02 1.762489999999999890e-01 1.604520000000000124e+01 6.644724999999999682e+01 2.236954999999999927e+03
3.000000000000000236e-02 1.762229999999999908e-01 1.528974999999999795e+01 6.556014999999999304e+01 2.236724999999999909e+03
3.099999999999999978e-02 1.761894999999999989e-01 1.439664999999999928e+01 6.431434999999999036e+01 2.236430000000000291e+03
3.200000000000000067e-02 1.761455000000000104e-01 1.338909999999999911e+01 6.267755000000000365e+01 2.236039999999999964e+03
3.300000000000000155e-02 1.760940000000000005e-01 1.234755000000000003e+01 6.081984999999999530e+01 2.235579999999999927e+03
3.400000000000000244e-02 1.760410000000000030e-01 1.138978499999999983e+01 5.907195000000000107e+01 2.235105000000000018e+03
3.500000000000000333e-02 1.759965000000000002e-01 1.063685500000000062e+01 5.782224999999999682e+01 2.234695000000000164e+03
3.600000000000000422e-02 1.759689999999999865e-01 1.017709999999999937e+01 5.739164999999999850e+01 2.234434999999999945e+03
3.700000000000000511e-02 1.759654999999999969e-01 1.004167499999999968e+01 5.793195000000000050e+01 2.234380000000000109e+03
3.799999999999999906e-02 1.759880000000000055e-01 1.019682500000000047e+01 5.937905000000000655e+01 2.234554999999999836e+03
3.899999999999999994e-02 1.760315000000000074e-01 1.055414500000000011e+01 6.146985000000000099e+01 2.234940000000000055e+03
4.000000000000000083e-02 1.760895000000000099e-01 1.099220000000000041e+01 6.380939999999999657e+01 2.235444999999999709e+03
4.100000000000000172e-02 1.761504999999999876e-01 1.138329999999999842e+01 6.596264999999999645e+01 2.235989999999999782e+03
4.200000000000000261e-02 1.762039999999999995e-01 1.161625000000000085e+01 6.754310000000000969e+01 2.236475000000000364e+03
4.300000000000000350e-02 1.762404999999999944e-01 1.161260000000000048e+01 6.827785000000000082e+01 2.236815000000000055e+03
4.400000000000000439e-02 1.762535000000000074e-01 1.133249999999999957e+01 6.803764999999999930e+01 2.236940000000000055e+03
4.499999999999999833e-02 1.762405000000000221e-01 1.077216999999999913e+01 6.683205000000000950e+01 2.236840000000000146e+03
4.599999999999999922e-02 1.762009999999999965e-01 9.955549999999998789e+00 6.477809999999999491e+01 2.236494999999999891e+03
4.700000000000000011e-02 1.761389999999999900e-01 8.923300000000001120e+00 6.205634999999999479e+01 2.235949999999999818e+03
4.800000000000000100e-02 1.760579999999999923e-01 7.722830000000000084e+00 5.886724999999999852e+01 2.235224999999999909e+03
4.900000000000000189e-02 1.759629999999999805e-01 6.401634999999999742e+00 5.539844999999999686e+01 2.234369999999999891e+03
5.000000000000000278e-02 1.758589999999999876e-01 5.004195000000000171e+00 5.180845000000000056e+01 2.233440000000000055e+03
5.100000000000000366e-02 1.757509999999999906e-01 3.572259999999999991e+00 4.822475000000000023e+01 2.232460000000000036e+03
5.200000000000000455e-02 1.756415000000000060e-01 2.146885000000000154e+00 4.475234999999999985e+01 2.231470000000000255e+03
5.300000000000000544e-02 1.755339999999999956e-01 7.708349999999999369e-01 4.148675000000000068e+01 2.230500000000000000e+03
5.399999999999999939e-02 1.754324999999999912e-01 -5.099150000000001182e-01 3.852499999999999858e+01 2.229579999999999927e+03
5.500000000000000028e-02 1.753410000000000246e-01 -1.646301999999999932e+00 3.597180000000000177e+01 2.228739999999999782e+03
5.600000000000000117e-02 1.752620000000000011e-01 -2.588081499999999924e+00 3.393885000000000218e+01 2.228010000000000218e+03
5.700000000000000205e-02 1.751989999999999936e-01 -3.287094999999999878e+00 3.253775000000000261e+01 2.227430000000000291e+03
5.800000000000000294e-02 1.751559999999999784e-01 -3.701270000000000060e+00 3.186890000000000001e+01 2.227019999999999982e+03
5.900000000000000383e-02 1.751354999999999995e-01 -3.798470000000000013e+00 3.201004999999999967e+01 2.226814999999999600e+03
6.000000000000000472e-02 1.751399999999999901e-01 -3.559565000000000090e+00 3.300549999999999784e+01 2.226835000000000036e+03
6.099999999999999867e-02 1.751699999999999924e-01 -2.980255000000000098e+00 3.485984999999999445e+01 2.227085000000000036e+03
6.199999999999999956e-02 1.752269999999999939e-01 -2.071380650000000045e+00 3.753629999999999711e+01 2.227565000000000055e+03
6.300000000000000044e-02 1.753085000000000060e-01 -8.579449999999999577e-01 4.095900000000000318e+01 2.228275000000000091e+03
6.400000000000000133e-02 1.754114999999999980e-01 6.230100000000000637e-01 4.502020000000000266e+01 2.229190000000000055e+03
6.500000000000000222e-02 1.755349999999999966e-01 2.325275000000000425e+00 4.958884999999999366e+01 2.230289999999999964e+03
6.600000000000000311e-02 1.756745000000000112e-01 4.196870499999999282e+00 5.452185000000000059e+01 2.231534999999999854e+03
6.700000000000000400e-02 1.758250000000000091e-01 6.183569999999999567e+00 5.967439999999999856e+01 2.232885000000000218e+03
6.800000000000000488e-02 1.759824999999999862e-01 8.232274999999999565e+00 6.491084999999999638e+01 2.234309999999999945e+03
6.900000000000000577e-02 1.761444999999999816e-01 1.029437000000000069e+01 7.011294999999999789e+01 2.235775000000000091e+03
7.000000000000000666e-02 1.763055000000000039e-01 1.232803999999999967e+01 7.518739999999999668e+01 2.237250000000000000e+03
7.100000000000000755e-02 1.764649999999999830e-01 1.430025000000000190e+01 8.006950000000000500e+01 2.238704999999999927e+03
7.200000000000000844e-02 1.766194999999999848e-01 1.618759999999999977e+01 8.472475000000000023e+01 2.240125000000000000e+03
7.300000000000000933e-02 1.767684999999999951e-01 1.797614999999999696e+01 8.914674999999999727e+01 2.241494999999999891e+03
7.399999999999999634e-02 1.769114999999999993e-01 1.966065000000000040e+01 9.335304999999999609e+01 2.242815000000000055e+03
7.499999999999999722e-02 1.770490000000000119e-01 2.124309999999999832e+01 9.737870000000000914e+01 2.244090000000000146e+03
7.599999999999999811e-02 1.771825000000000205e-01 2.273019999999999996e+01 1.012681499999999915e+02 2.245324999999999818e+03
7.699999999999999900e-02 1.773119999999999974e-01 2.413185000000000002e+01 1.050689999999999884e+02 2.246529999999999745e+03
7.799999999999999989e-02 1.774395000000000000e-01 2.545860000000000056e+01 1.088245000000000005e+02 2.247715000000000146e+03
7.900000000000000078e-02 1.775654999999999872e-01 2.672030000000000172e+01 1.125690000000000026e+02 2.248885000000000218e+03
8.000000000000000167e-02 1.776915000000000022e-01 2.792475000000000307e+01 1.163230000000000075e+02 2.250050000000000182e+03
8.100000000000000255e-02 1.778175000000000172e-01 2.907679999999999865e+01 1.200954999999999870e+02 2.251224999999999909e+03
8.200000000000000344e-02 1.779430000000000178e-01 3.017810000000000059e+01 1.238799999999999955e+02 2.252400000000000091e+03
8.300000000000000433e-02 1.780690000000000051e-01 3.122700000000000031e+01 1.276585000000000036e+02 2.253569999999999709e+03
8.400000000000000522e-02 1.781944999999999779e-01 3.221885000000000332e+01 1.314044999999999845e+02 2.254739999999999782e+03
8.500000000000000611e-02 1.783180000000000043e-01 3.314634999999999820e+01 1.350815000000000055e+02 2.255894999999999982e+03
8.600000000000000699e-02 1.784395000000000009e-01 3.400019999999999953e+01 1.386500000000000057e+02 2.257024999999999636e+03
8.700000000000000788e-02 1.785565000000000069e-01 3.476954999999999529e+01 1.420670000000000073e+02 2.258130000000000109e+03
8.800000000000000877e-02 1.786694999999999811e-01 3.544265000000000043e+01 1.452895000000000039e+02 2.259180000000000291e+03
8.899999999999999578e-02 1.787755000000000039e-01 3.600784999999999769e+01 1.482769999999999868e+02 2.260180000000000291e+03
8.999999999999999667e-02 1.788744999999999918e-01 3.645374999999999943e+01 1.509904999999999973e+02 2.261110000000000127e+03
9.099999999999999756e-02 1.789644999999999986e-01 3.677044999999999675e+01 1.533974999999999795e+02 2.261954999999999927e+03
9.199999999999999845e-02 1.790450000000000097e-01 3.695009999999999906e+01 1.554720000000000084e+02 2.262724999999999909e+03
9.299999999999999933e-02 1.791150000000000242e-01 3.698725000000000307e+01 1.571965000000000146e+02 2.263385000000000218e+03
9.400000000000000022e-02 1.791739999999999999e-01 3.687999999999999545e+01 1.585620000000000118e+02 2.263949999999999818e+03
9.500000000000000111e-02 1.792219999999999924e-01 3.662995000000000090e+01 1.595715000000000146e+02 2.264409999999999854e+03
9.600000000000000200e-02 1.792584999999999873e-01 3.624260000000000304e+01 1.602379999999999995e+02 2.264769999999999982e+03
9.700000000000000289e-02 1.792849999999999999e-01 3.572710000000000008e+01 1.605829999999999984e+02 2.265025000000000091e+03
9.800000000000000377e-02 1.793009999999999882e-01 3.509620000000000317e+01 1.606394999999999982e+02 2.265185000000000400e+03
9.900000000000000466e-02 1.793079999999999952e-01 3.436525000000000318e+01 1.604465000000000146e+02 2.265265000000000327e+03
1.000000000000000056e-01 1.793064999999999798e-01 3.355190000000000339e+01 1.600480000000000018e+02 2.265260000000000218e+03
1.010000000000000064e-01 1.792995000000000005e-01 3.267510000000000048e+01 1.594900000000000091e+02 2.265204999999999927e+03
1.020000000000000073e-01 1.792865000000000153e-01 3.175400000000000134e+01 1.588195000000000050e+02 2.265095000000000255e+03
1.030000000000000082e-01 1.792694999999999983e-01 3.080760000000000076e+01 1.580805000000000007e+02 2.264940000000000055e+03
1.040000000000000091e-01 1.792505000000000071e-01 2.985340000000000060e+01 1.573134999999999764e+02 2.264765000000000327e+03
1.050000000000000100e-01 1.792294999999999860e-01 2.890709999999999980e+01 1.565525000000000091e+02 2.264574999999999818e+03
1.059999999999999970e-01 1.792084999999999928e-01 2.798185000000000144e+01 1.558245000000000005e+02 2.264380000000000109e+03
1.069999999999999979e-01 1.791880000000000139e-01 2.708794999999999931e+01 1.551475000000000080e+02 2.264184999999999945e+03
1.079999999999999988e-01 1.791679999999999939e-01 2.623245000000000005e+01 1.545335000000000036e+02 2.264005000000000109e+03
1.089999999999999997e-01 1.791500000000000037e-01 2.541920000000000002e+01 1.539834999999999923e+02 2.263829999999999927e+03
1.100000000000000006e-01 1.791335000000000011e-01 2.464869999999999806e+01 1.534934999999999832e+02 2.263670000000000073e+03
1.110000000000000014e-01 1.791179999999999994e-01 2.391854999999999976e+01 1.530500000000000114e+02 2.263519999999999982e+03
1.120000000000000023e-01 1.791034999999999988e-01 2.322370000000000090e+01 1.526349999999999909e+02 2.263380000000000109e+03
1.130000000000000032e-01 1.790895000000000126e-01 2.255689999999999884e+01 1.522255000000000109e+02 2.263250000000000000e+03
1.140000000000000041e-01 1.790754999999999986e-01 2.190934999999999988e+01 1.517955000000000041e+02 2.263114999999999782e+03
1.150000000000000050e-01 1.790605000000000113e-01 2.127134999999999820e+01 1.513189999999999884e+02 2.262974999999999909e+03
1.160000000000000059e-01 1.790440000000000087e-01 2.063295000000000101e+01 1.507694999999999936e+02 2.262814999999999600e+03
1.170000000000000068e-01 1.790249999999999897e-01 1.998470000000000013e+01 1.501235000000000070e+02 2.262635000000000218e+03
1.180000000000000077e-01 1.790029999999999955e-01 1.931839999999999691e+01 1.493625000000000114e+02 2.262430000000000291e+03
1.190000000000000085e-01 1.789775000000000116e-01 1.862750000000000128e+01 1.484719999999999800e+02 2.262190000000000055e+03
1.200000000000000094e-01 1.789479999999999960e-01 1.790759999999999863e+01 1.474454999999999814e+02 2.261914999999999964e+03
1.209999999999999964e-01 1.789145000000000041e-01 1.715700000000000003e+01 1.462830000000000155e+02 2.261605000000000018e+03
1.219999999999999973e-01 1.788764999999999938e-01 1.637675000000000125e+01 1.449925000000000068e+02 2.261255000000000109e+03
1.229999999999999982e-01 1.788349999999999940e-01 1.557055000000000078e+01 1.435885000000000105e+02 2.260875000000000000e+03
1.239999999999999991e-01 1.787905000000000189e-01 1.474474999999999980e+01 1.420939999999999941e+02 2.260454999999999927e+03
1.250000000000000000e-01 1.787429999999999852e-01 1.390794999999999959e+01 1.405360000000000014e+02 2.260015000000000327e+03
1.260000000000000009e-01 1.786940000000000195e-01 1.307059999999999889e+01 1.389465000000000146e+02 2.259560000000000400e+03
1.270000000000000018e-01 1.786435000000000106e-01 1.224419999999999931e+01 1.373580000000000041e+02 2.259095000000000255e+03
1.280000000000000027e-01 1.785935000000000161e-01 1.144089999999999918e+01 1.358054999999999950e+02 2.258625000000000000e+03
1.290000000000000036e-01 1.785439999999999805e-01 1.067265000000000086e+01 1.343220000000000027e+02 2.258164999999999964e+03
1.300000000000000044e-01 1.784970000000000168e-01 9.950479999999998881e+00 1.329365000000000236e+02 2.257724999999999909e+03
1.310000000000000053e-01 1.784530000000000005e-01 9.284100000000000463e+00 1.316734999999999900e+02 2.257314999999999600e+03
1.320000000000000062e-01 1.784125000000000016e-01 8.681464999999999321e+00 1.305519999999999925e+02 2.256930000000000291e+03
1.330000000000000071e-01 1.783764999999999934e-01 8.148245000000001070e+00 1.295854999999999961e+02 2.256590000000000146e+03
1.340000000000000080e-01 1.783440000000000025e-01 7.687800000000000189e+00 1.287789999999999964e+02 2.256289999999999964e+03
1.350000000000000089e-01 1.783175000000000177e-01 7.301180000000000447e+00 1.281324999999999932e+02 2.256034999999999854e+03
1.360000000000000098e-01 1.782954999999999957e-01 6.987149999999999750e+00 1.276405000000000030e+02 2.255820000000000164e+03
1.370000000000000107e-01 1.782779999999999920e-01 6.742485000000000284e+00 1.272920000000000016e+02 2.255649999999999636e+03
1.380000000000000115e-01 1.782644999999999924e-01 6.562189999999999301e+00 1.270720000000000027e+02 2.255524999999999636e+03
1.390000000000000124e-01 1.782555000000000112e-01 6.439894999999999925e+00 1.269629999999999939e+02 2.255430000000000291e+03
1.400000000000000133e-01 1.782500000000000195e-01 6.368209999999999482e+00 1.269459999999999980e+02 2.255375000000000000e+03
1.410000000000000142e-01 1.782469999999999888e-01 6.339064999999999728e+00 1.270010000000000048e+02 2.255340000000000146e+03
1.420000000000000151e-01 1.782469999999999888e-01 6.344089999999999563e+00 1.271090000000000089e+02 2.255335000000000036e+03
1.430000000000000160e-01 1.782480000000000175e-01 6.374905000000000044e+00 1.272500000000000000e+02 2.255340000000000146e+03
1.440000000000000169e-01 1.782509999999999928e-01 6.423445000000000071e+00 1.274074999999999989e+02 2.255364999999999782e+03
1.450000000000000178e-01 1.782540000000000235e-01 6.482144999999999158e+00 1.275655000000000001e+02 2.255390000000000327e+03
1.459999999999999909e-01 1.782575000000000132e-01 6.544200000000000017e+00 1.277109999999999985e+02 2.255420000000000073e+03
1.469999999999999918e-01 1.782604999999999884e-01 6.603680000000000661e+00 1.278335000000000008e+02 2.255449999999999818e+03
1.479999999999999927e-01 1.782635000000000192e-01 6.655689999999999884e+00 1.279244999999999948e+02 2.255474999999999909e+03
1.489999999999999936e-01 1.782655000000000212e-01 6.696424999999999628e+00 1.279780000000000086e+02 2.255489999999999782e+03
1.499999999999999944e-01 1.782664999999999944e-01 6.723184999999999967e+00 1.279915000000000020e+02 2.255500000000000000e+03
1.509999999999999953e-01 1.782664999999999944e-01 6.734379999999999811e+00 1.279639999999999986e+02 2.255500000000000000e+03
1.519999999999999962e-01 1.782654999999999934e-01 6.729459999999999553e+00 1.278979999999999961e+02 2.255494999999999891e+03
1.529999999999999971e-01 1.782630000000000048e-01 6.708809999999999718e+00 1.277965000000000089e+02 2.255470000000000255e+03
1.539999999999999980e-01 1.782600000000000018e-01 6.673580000000000290e+00 1.276639999999999873e+02 2.255444999999999709e+03
1.549999999999999989e-01 1.782555000000000112e-01 6.625539999999999985e+00 1.275070000000000050e+02 2.255404999999999745e+03
1.559999999999999998e-01 1.782509999999999928e-01 6.566844999999999821e+00 1.273325000000000102e+02 2.255364999999999782e+03
1.570000000000000007e-01 1.782455000000000012e-01 6.499859999999999971e+00 1.271454999999999984e+02 2.255315000000000055e+03
1.580000000000000016e-01 1.782400000000000095e-01 6.426944999999999908e+00 1.269530000000000030e+02 2.255265000000000327e+03
1.590000000000000024e-01 1.782345000000000179e-01 6.350270000000000081e+00 1.267595000000000027e+02 2.255210000000000036e+03
