# t [s], A [cm^2], U [cm/s], P [cPa], c [cm/s]
1.000000000000000021e-03 6.450865000000000071e-01 7.752999999999996006e-03 9.646004999999999541e+01 1.829735000000000127e+03
2.000000000000000042e-03 6.450759999999999827e-01 2.774900000000000283e-04 9.641935000000000855e+01 1.829724999999999909e+03
3.000000000000000062e-03 6.451430000000000220e-01 1.403444500000000095e-01 9.658899999999999864e+01 1.829759999999999991e+03
4.000000000000000083e-03 6.451740000000000252e-01 2.313979999999999926e-01 9.669579999999999131e+01 1.829784999999999854e+03
5.000000000000000104e-03 6.451029999999999820e-01 1.320675000000000043e-01 9.646774999999999523e+01 1.829735000000000127e+03
6.000000000000000125e-03 6.450285000000000046e-01 1.206200000000001715e-02 9.609975000000000023e+01 1.829659999999999854e+03
7.000000000000000146e-03 6.449464999999999781e-01 -1.365299999999999292e-01 9.562905000000000655e+01 1.829549999999999955e+03
8.000000000000000167e-03 6.447914999999999619e-01 -4.566999999999998838e-01 9.485075000000000500e+01 1.829384999999999991e+03
9.000000000000001055e-03 6.445665000000000422e-01 -9.413899999999999491e-01 9.371690000000000964e+01 1.829144999999999982e+03
1.000000000000000194e-02 6.442529999999999646e-01 -1.617020000000000124e+00 9.213890000000000668e+01 1.828809999999999945e+03
1.099999999999999936e-02 6.438245000000000218e-01 -2.515400000000000080e+00 9.000260000000000105e+01 1.828349999999999909e+03
1.200000000000000025e-02 6.433320000000000149e-01 -3.506145000000000067e+00 8.742609999999999104e+01 1.827775000000000091e+03
1.300000000000000114e-02 6.428849999999999287e-01 -4.322315000000000573e+00 8.478995000000000459e+01 1.827170000000000073e+03
1.400000000000000203e-02 6.425674999999999581e-01 -4.740472999999999715e+00 8.249520000000001119e+01 1.826605000000000018e+03
1.499999999999999944e-02 6.423860000000000126e-01 -4.702205000000000190e+00 8.073484999999999445e+01 1.826134999999999991e+03
1.600000000000000033e-02 6.422809999999999908e-01 -4.308919999999999639e+00 7.943639999999999191e+01 1.825755000000000109e+03
1.700000000000000122e-02 6.421695000000000597e-01 -3.741954999999999920e+00 7.834514999999998963e+01 1.825420000000000073e+03
1.800000000000000211e-02 6.419850000000000279e-01 -3.168385000000000229e+00 7.716929999999999268e+01 1.825074999999999818e+03
1.900000000000000300e-02 6.417055000000000398e-01 -2.671968500000000191e+00 7.571495000000000175e+01 1.824680000000000064e+03
2.000000000000000042e-02 6.413550000000000084e-01 -2.233559999999999768e+00 7.395730000000000359e+01 1.824219999999999800e+03
2.100000000000000130e-02 6.409829999999999695e-01 -1.765484999999999971e+00 7.202015000000000100e+01 1.823720000000000027e+03
2.200000000000000219e-02 6.406380000000000408e-01 -1.176139999999999963e+00 7.008634999999999593e+01 1.823220000000000027e+03
2.299999999999999961e-02 6.403410000000000490e-01 -4.280300000000001326e-01 6.829335000000000377e+01 1.822735000000000127e+03
2.400000000000000050e-02 6.400794999999999124e-01 4.349749999999998895e-01 6.666325000000000500e+01 1.822284999999999854e+03
2.500000000000000139e-02 6.398099999999999898e-01 1.294665000000000177e+00 6.508494999999999209e+01 1.821844999999999800e+03
2.600000000000000228e-02 6.394755000000000855e-01 1.991200000000000081e+00 6.334609999999999985e+01 1.821380000000000109e+03
2.700000000000000316e-02 6.390234999999999665e-01 2.370425000000000004e+00 6.120185000000000031e+01 1.820835000000000036e+03
2.800000000000000058e-02 6.384274999999999256e-01 2.332579999999999654e+00 5.846054999999999779e+01 1.820175000000000182e+03
2.900000000000000147e-02 6.376934999999999132e-01 1.865909999999999958e+00 5.505764999999999532e+01 1.819375000000000000e+03
3.000000000000000236e-02 6.368659999999999322e-01 1.050419999999999909e+00 5.108835000000000548e+01 1.818450000000000045e+03
3.099999999999999978e-02 6.360090000000000465e-01 3.055000000000074323e-02 4.678605000000000302e+01 1.817434999999999945e+03
3.200000000000000067e-02 6.351914999999999090e-01 -1.027915000000000134e+00 4.246110000000000184e+01 1.816404999999999973e+03
3.300000000000000155e-02 6.344710000000000072e-01 -1.977365000000000261e+00 3.842934999999999945e+01 1.815420000000000073e+03
3.400000000000000244e-02 6.338854999999999906e-01 -2.712639999999999940e+00 3.495490000000000208e+01 1.814539999999999964e+03
3.500000000000000333e-02 6.334524999999999739e-01 -3.177554999999999907e+00 3.221770000000000067e+01 1.813809999999999945e+03
3.600000000000000422e-02 6.331720000000000681e-01 -3.358701500000000006e+00 3.030620000000000047e+01 1.813269999999999982e+03
3.700000000000000511e-02 6.330344999999999445e-01 -3.270845000000000002e+00 2.922939999999999827e+01 1.812920000000000073e+03
3.799999999999999906e-02 6.330240000000000311e-01 -2.940084999999999837e+00 2.894234999999999758e+01 1.812755000000000109e+03
3.899999999999999994e-02 6.331290000000000529e-01 -2.389260000000000161e+00 2.937565000000000026e+01 1.812769999999999982e+03
4.000000000000000083e-02 6.333385000000000264e-01 -1.629430000000000156e+00 3.045980000000000132e+01 1.812954999999999927e+03
4.100000000000000172e-02 6.336485000000000589e-01 -6.594400000000000261e-01 3.213954999999999984e+01 1.813289999999999964e+03
4.200000000000000261e-02 6.340570000000000928e-01 5.277050000000000907e-01 3.437425000000000352e+01 1.813775000000000091e+03
4.300000000000000350e-02 6.345600000000000129e-01 1.935280000000000111e+00 3.712884999999999991e+01 1.814384999999999991e+03
4.400000000000000439e-02 6.351495000000000335e-01 3.554235000000000255e+00 4.036104999999999876e+01 1.815115000000000009e+03
4.499999999999999833e-02 6.358135000000000314e-01 5.358730000000000437e+00 4.401120000000000232e+01 1.815954999999999927e+03
4.599999999999999922e-02 6.365324999999999456e-01 7.306169999999999831e+00 4.799835000000000207e+01 1.816884999999999991e+03
4.700000000000000011e-02 6.372864999999999780e-01 9.342088500000000906e+00 5.222240000000000038e+01 1.817884999999999991e+03
4.800000000000000100e-02 6.380520000000000636e-01 1.140667499999999990e+01 5.657274999999999920e+01 1.818934999999999945e+03
4.900000000000000189e-02 6.388099999999999890e-01 1.344245000000000090e+01 6.093950000000000244e+01 1.819994999999999891e+03
5.000000000000000278e-02 6.395444999999999602e-01 1.540039499999999961e+01 6.522480000000000189e+01 1.821054999999999836e+03
5.100000000000000366e-02 6.402440000000000353e-01 1.724390000000000001e+01 6.935224999999999795e+01 1.822095000000000027e+03
5.200000000000000455e-02 6.409034999999999593e-01 1.895045000000000002e+01 7.327159999999999229e+01 1.823089999999999918e+03
5.300000000000000544e-02 6.415230000000000654e-01 2.051040000000000063e+01 7.696035000000000537e+01 1.824045000000000073e+03
5.399999999999999939e-02 6.421060000000000656e-01 2.192515000000000214e+01 8.042089999999998895e+01 1.824945000000000164e+03
5.500000000000000028e-02 6.426585000000000214e-01 2.320429999999999993e+01 8.367600000000000193e+01 1.825800000000000182e+03
5.600000000000000117e-02 6.431884999999999408e-01 2.436289999999999978e+01 8.676329999999998677e+01 1.826619999999999891e+03
5.700000000000000205e-02 6.437044999999999018e-01 2.541924999999999812e+01 8.972939999999999827e+01 1.827400000000000091e+03
5.800000000000000294e-02 6.442155000000000520e-01 2.639334999999999809e+01 9.262489999999999668e+01 1.828170000000000073e+03
5.900000000000000383e-02 6.447300000000000253e-01 2.730464999999999876e+01 9.549909999999999854e+01 1.828920000000000073e+03
6.000000000000000472e-02 6.452534999999999243e-01 2.817079999999999984e+01 9.839544999999999675e+01 1.829679999999999836e+03
6.099999999999999867e-02 6.457914999999999628e-01 2.900569999999999737e+01 1.013469000000000051e+02 1.830445000000000164e+03
6.199999999999999956e-02 6.463460000000000871e-01 2.981820000000000093e+01 1.043731999999999971e+02 1.831224999999999909e+03
6.300000000000000044e-02 6.469150000000000178e-01 3.061064999999999969e+01 1.074780000000000086e+02 1.832029999999999973e+03
6.400000000000000133e-02 6.474949999999999317e-01 3.137935000000000230e+01 1.106465000000000032e+02 1.832840000000000146e+03
6.500000000000000222e-02 6.480790000000000717e-01 3.211449999999999960e+01 1.138509999999999991e+02 1.833659999999999854e+03
6.600000000000000311e-02 6.486585000000000267e-01 3.280219999999999914e+01 1.170490000000000066e+02 1.834484999999999900e+03
6.700000000000000400e-02 6.492240000000000233e-01 3.342575000000000074e+01 1.201910000000000025e+02 1.835295000000000073e+03
6.800000000000000488e-02 6.497660000000000657e-01 3.396795000000000186e+01 1.232235000000000014e+02 1.836090000000000146e+03
6.900000000000000577e-02 6.502749999999999364e-01 3.441259999999999764e+01 1.260944999999999965e+02 1.836840000000000146e+03
7.000000000000000666e-02 6.507450000000000179e-01 3.474604999999999677e+01 1.287574999999999932e+02 1.837550000000000182e+03
7.100000000000000755e-02 6.511679999999999691e-01 3.495785000000000053e+01 1.311730000000000018e+02 1.838199999999999818e+03
7.200000000000000844e-02 6.515410000000000368e-01 3.504139999999999588e+01 1.333129999999999882e+02 1.838779999999999973e+03
7.300000000000000933e-02 6.518630000000000813e-01 3.499419999999999931e+01 1.351605000000000132e+02 1.839299999999999955e+03
7.399999999999999634e-02 6.521315000000000861e-01 3.481749999999999545e+01 1.367085000000000150e+02 1.839740000000000009e+03
7.499999999999999722e-02 6.523495000000000266e-01 3.451670000000000016e+01 1.379610000000000127e+02 1.840110000000000127e+03
7.599999999999999811e-02 6.525195000000000300e-01 3.410045000000000215e+01 1.389329999999999927e+02 1.840400000000000091e+03
7.699999999999999900e-02 6.526460000000000594e-01 3.358100000000000307e+01 1.396449999999999818e+02 1.840630000000000109e+03
7.799999999999999989e-02 6.527344999999999953e-01 3.297330000000000183e+01 1.401290000000000191e+02 1.840800000000000182e+03
7.900000000000000078e-02 6.527910000000000101e-01 3.229439999999999600e+01 1.404170000000000016e+02 1.840909999999999854e+03
8.000000000000000167e-02 6.528230000000000421e-01 3.156320000000000192e+01 1.405489999999999782e+02 1.840985000000000127e+03
8.100000000000000255e-02 6.528374999999999595e-01 3.079874999999999829e+01 1.405645000000000095e+02 1.841025000000000091e+03
8.200000000000000344e-02 6.528404999999999347e-01 3.002004999999999768e+01 1.405029999999999859e+02 1.841029999999999973e+03
8.300000000000000433e-02 6.528380000000000294e-01 2.924465000000000003e+01 1.403999999999999773e+02 1.841025000000000091e+03
8.400000000000000522e-02 6.528365000000000418e-01 2.848760000000000048e+01 1.402895000000000039e+02 1.841014999999999873e+03
8.500000000000000611e-02 6.528380000000000294e-01 2.776115000000000066e+01 1.401955000000000098e+02 1.840994999999999891e+03
8.600000000000000699e-02 6.528469999999999551e-01 2.707369999999999877e+01 1.401380000000000052e+02 1.840990000000000009e+03
8.700000000000000788e-02 6.528629999999999711e-01 2.642974999999999852e+01 1.401254999999999882e+02 1.840985000000000127e+03
8.800000000000000877e-02 6.528869999999999951e-01 2.583010000000000161e+01 1.401620000000000061e+02 1.840994999999999891e+03
8.899999999999999578e-02 6.529160000000000519e-01 2.527179999999999893e+01 1.402404999999999973e+02 1.841005000000000109e+03
8.999999999999999667e-02 6.529480000000000839e-01 2.474885000000000090e+01 1.403494999999999777e+02 1.841029999999999973e+03
9.099999999999999756e-02 6.529795000000000460e-01 2.425280000000000058e+01 1.404710000000000036e+02 1.841054999999999836e+03
9.199999999999999845e-02 6.530065000000000452e-01 2.377345000000000041e+01 1.405844999999999914e+02 1.841075000000000045e+03
9.299999999999999933e-02 6.530244999999998967e-01 2.329950000000000188e+01 1.406655000000000086e+02 1.841095000000000027e+03
9.400000000000000022e-02 6.530299999999999994e-01 2.281920000000000215e+01 1.406899999999999977e+02 1.841099999999999909e+03
9.500000000000000111e-02 6.530179999999999874e-01 2.232150000000000034e+01 1.406349999999999909e+02 1.841090000000000146e+03
9.600000000000000200e-02 6.529860000000000664e-01 2.179635000000000034e+01 1.404800000000000182e+02 1.841054999999999836e+03
9.700000000000000289e-02 6.529320000000000679e-01 2.123574999999999946e+01 1.402074999999999818e+02 1.840994999999999891e+03
9.800000000000000377e-02 6.528530000000000166e-01 2.063414999999999822e+01 1.398079999999999927e+02 1.840904999999999973e+03
9.900000000000000466e-02 6.527510000000000812e-01 1.998914999999999864e+01 1.392760000000000105e+02 1.840784999999999854e+03
1.000000000000000056e-01 6.526250000000000107e-01 1.930150000000000077e+01 1.386140000000000043e+02 1.840634999999999991e+03
1.010000000000000064e-01 6.524790000000000312e-01 1.857554999999999978e+01 1.378319999999999936e+02 1.840445000000000164e+03
1.020000000000000073e-01 6.523155000000000481e-01 1.781865000000000165e+01 1.369465000000000146e+02 1.840235000000000127e+03
1.030000000000000082e-01 6.521405000000000118e-01 1.704119999999999990e+01 1.359809999999999945e+02 1.840010000000000218e+03
1.040000000000000091e-01 6.519580000000000375e-01 1.625560000000000116e+01 1.349619999999999891e+02 1.839755000000000109e+03
1.050000000000000100e-01 6.517744999999999234e-01 1.547574999999999967e+01 1.339209999999999923e+02 1.839505000000000109e+03
1.059999999999999970e-01 6.515949999999999243e-01 1.471624999999999872e+01 1.328894999999999982e+02 1.839250000000000000e+03
1.069999999999999979e-01 6.514254999999999907e-01 1.399154500000000034e+01 1.319005000000000223e+02 1.838994999999999891e+03
1.079999999999999988e-01 6.512715000000000032e-01 1.331476499999999952e+01 1.309834999999999923e+02 1.838755000000000109e+03
1.089999999999999997e-01 6.511365000000000069e-01 1.269760999999999918e+01 1.301634999999999991e+02 1.838545000000000073e+03
1.100000000000000006e-01 6.510234999999999772e-01 1.214916000000000018e+01 1.294619999999999891e+02 1.838355000000000018e+03
1.110000000000000014e-01 6.509355000000000002e-01 1.167584000000000088e+01 1.288935000000000173e+02 1.838195000000000164e+03
1.120000000000000023e-01 6.508720000000000061e-01 1.128104499999999888e+01 1.284644999999999868e+02 1.838070000000000164e+03
1.130000000000000032e-01 6.508334999999999537e-01 1.096503500000000031e+01 1.281769999999999925e+02 1.837974999999999909e+03
1.140000000000000041e-01 6.508175000000000487e-01 1.072529000000000110e+01 1.280250000000000057e+02 1.837914999999999964e+03
1.150000000000000050e-01 6.508225000000000815e-01 1.055659999999999954e+01 1.279979999999999905e+02 1.837884999999999991e+03
1.160000000000000059e-01 6.508445000000000480e-01 1.045169999999999888e+01 1.280794999999999959e+02 1.837884999999999991e+03
1.170000000000000068e-01 6.508810000000000429e-01 1.040167500000000089e+01 1.282510000000000048e+02 1.837909999999999854e+03
1.180000000000000077e-01 6.509270000000000334e-01 1.039671500000000037e+01 1.284904999999999973e+02 1.837949999999999818e+03
1.190000000000000085e-01 6.509800000000000031e-01 1.042651000000000039e+01 1.287785000000000082e+02 1.838009999999999991e+03
1.200000000000000094e-01 6.510350000000000303e-01 1.048077999999999932e+01 1.290919999999999845e+02 1.838074999999999818e+03
1.209999999999999964e-01 6.510899999999999466e-01 1.054980000000000118e+01 1.294130000000000109e+02 1.838144999999999982e+03
1.219999999999999973e-01 6.511419999999999986e-01 1.062471500000000013e+01 1.297249999999999943e+02 1.838220000000000027e+03
1.229999999999999982e-01 6.511884999999999479e-01 1.069777500000000003e+01 1.300130000000000052e+02 1.838284999999999854e+03
1.239999999999999991e-01 6.512284999999999879e-01 1.076247000000000043e+01 1.302665000000000077e+02 1.838349999999999909e+03
1.250000000000000000e-01 6.512605000000000199e-01 1.081382999999999939e+01 1.304784999999999968e+02 1.838400000000000091e+03
1.260000000000000009e-01 6.512845000000000439e-01 1.084806999999999988e+01 1.306444999999999936e+02 1.838445000000000164e+03
1.270000000000000018e-01 6.512999999999999901e-01 1.086312999999999995e+01 1.307640000000000100e+02 1.838484999999999900e+03
1.280000000000000027e-01 6.513085000000000679e-01 1.085797499999999971e+01 1.308385000000000105e+02 1.838505000000000109e+03
1.290000000000000036e-01 6.513094999999999857e-01 1.083320499999999953e+01 1.308714999999999975e+02 1.838514999999999873e+03
1.300000000000000044e-01 6.513054999999999817e-01 1.079026999999999958e+01 1.308689999999999998e+02 1.838519999999999982e+03
1.310000000000000053e-01 6.512970000000000148e-01 1.073169500000000021e+01 1.308389999999999986e+02 1.838519999999999982e+03
1.320000000000000062e-01 6.512864999999999904e-01 1.066077999999999903e+01 1.307894999999999754e+02 1.838515000000000100e+03
1.330000000000000071e-01 6.512750000000000483e-01 1.058126500000000014e+01 1.307295000000000016e+02 1.838505000000000109e+03
1.340000000000000080e-01 6.512640000000000651e-01 1.049714999999999954e+01 1.306680000000000064e+02 1.838490000000000009e+03
1.350000000000000089e-01 6.512549999999999173e-01 1.041240499999999969e+01 1.306134999999999877e+02 1.838480000000000018e+03
1.360000000000000098e-01 6.512495000000000367e-01 1.033060000000000045e+01 1.305729999999999791e+02 1.838470000000000027e+03
1.370000000000000107e-01 6.512480000000000491e-01 1.025477500000000042e+01 1.305525000000000091e+02 1.838470000000000027e+03
1.380000000000000115e-01 6.512514999999999832e-01 1.018729499999999888e+01 1.305554999999999950e+02 1.838469999999999800e+03
1.390000000000000124e-01 6.512594999999999912e-01 1.012955000000000005e+01 1.305849999999999795e+02 1.838469999999999800e+03
1.400000000000000133e-01 6.512715000000000032e-01 1.008215500000000020e+01 1.306390000000000100e+02 1.838485000000000127e+03
1.410000000000000142e-01 6.512884999999999369e-01 1.004479999999999862e+01 1.307164999999999964e+02 1.838505000000000109e+03
1.420000000000000151e-01 6.513079999999999981e-01 1.001642000000000010e+01 1.308129999999999882e+02 1.838525000000000091e+03
1.430000000000000160e-01 6.513294999999998947e-01 9.995480000000000587e+00 1.309244999999999948e+02 1.838549999999999955e+03
1.440000000000000169e-01 6.513525000000000009e-01 9.979994999999998839e+00 1.310434999999999945e+02 1.838579999999999927e+03
1.450000000000000178e-01 6.513744999999999674e-01 9.967855000000000132e+00 1.311655000000000086e+02 1.838609999999999900e+03
1.459999999999999909e-01 6.513960000000000861e-01 9.957029999999999603e+00 1.312839999999999918e+02 1.838634999999999991e+03
1.469999999999999918e-01 6.514155000000000362e-01 9.945850000000000080e+00 1.313940000000000055e+02 1.838664999999999964e+03
1.479999999999999927e-01 6.514320000000000110e-01 9.932884999999998854e+00 1.314920000000000186e+02 1.838690000000000055e+03
1.489999999999999936e-01 6.514469999999999983e-01 9.917315000000000325e+00 1.315760000000000218e+02 1.838715000000000146e+03
1.499999999999999944e-01 6.514579999999999815e-01 9.898754999999999526e+00 1.316440000000000055e+02 1.838735000000000127e+03
1.509999999999999953e-01 6.514670000000000183e-01 9.877420000000000755e+00 1.316979999999999791e+02 1.838744999999999891e+03
1.519999999999999962e-01 6.514739999999999975e-01 9.853915000000000646e+00 1.317395000000000209e+02 1.838759999999999991e+03
1.529999999999999971e-01 6.514789999999999193e-01 9.829305000000001513e+00 1.317719999999999914e+02 1.838764999999999873e+03
1.539999999999999980e-01 6.514839999999999520e-01 9.804990000000000094e+00 1.317995000000000232e+02 1.838775000000000091e+03
1.549999999999999989e-01 6.514895000000000547e-01 9.782575000000001353e+00 1.318265000000000100e+02 1.838784999999999854e+03
1.559999999999999998e-01 6.514960000000000750e-01 9.763849999999999696e+00 1.318584999999999923e+02 1.838789999999999964e+03
1.570000000000000007e-01 6.515040000000000830e-01 9.750709999999999766e+00 1.319014999999999986e+02 1.838799999999999955e+03
1.580000000000000016e-01 6.515159999999999840e-01 9.744934999999999903e+00 1.319594999999999914e+02 1.838815000000000055e+03
1.590000000000000024e-01 6.515314999999999301e-01 9.748350000000000293e+00 1.320380000000000109e+02 1.838829999999999927e+03
