# t [s], A [cm^2], U [cm/s], P [cPa], c [cm/s]
1.000000000000000021e-03 2.091905000000000014e-01 3.954578999999999733e-01 9.855790000000000362e+01 2.042125000000000000e+03
2.000000000000000042e-03 2.091255000000000197e-01 2.080882499999999968e+00 9.493049999999999500e+01 2.041635000000000218e+03
3.000000000000000062e-03 2.089535000000000142e-01 4.130831499999999323e+00 8.998279999999999745e+01 2.040404999999999973e+03
4.000000000000000083e-03 2.087229999999999919e-01 6.426569999999999894e+00 8.476659999999999684e+01 2.038780000000000200e+03
5.000000000000000104e-03 2.084805000000000130e-01 8.875329999999999941e+00 8.025145000000000550e+01 2.037085000000000036e+03
6.000000000000000125e-03 2.082495000000000041e-01 1.125185499999999905e+01 7.662674999999998704e+01 2.035490000000000009e+03
7.000000000000000146e-03 2.080339999999999967e-01 1.332343000000000011e+01 7.352539999999999054e+01 2.034039999999999964e+03
8.000000000000000167e-03 2.078395000000000103e-01 1.503914999999999935e+01 7.073980000000000246e+01 2.032744999999999891e+03
9.000000000000001055e-03 2.076704999999999801e-01 1.645725000000000193e+01 6.837264999999999304e+01 2.031634999999999991e+03
1.000000000000000194e-02 2.075299999999999923e-01 1.761124999999999829e+01 6.647944999999999993e+01 2.030724999999999909e+03
1.099999999999999936e-02 2.074170000000000180e-01 1.852009999999999934e+01 6.501090000000000657e+01 2.029994999999999891e+03
1.200000000000000025e-02 2.073280000000000123e-01 1.920465000000000089e+01 6.389915000000000589e+01 2.029429999999999836e+03
1.300000000000000114e-02 2.072585000000000122e-01 1.967164999999999964e+01 6.303260000000000218e+01 2.029005000000000109e+03
1.400000000000000203e-02 2.072019999999999973e-01 1.994194999999999851e+01 6.229630000000000223e+01 2.028664999999999964e+03
1.499999999999999944e-02 2.071584999999999954e-01 2.010845000000000127e+01 6.174580000000000268e+01 2.028404999999999973e+03
1.600000000000000033e-02 2.071359999999999868e-01 2.033784999999999954e+01 6.169460000000000122e+01 2.028275000000000091e+03
1.700000000000000122e-02 2.071465000000000112e-01 2.079135000000000133e+01 6.255500000000000682e+01 2.028360000000000127e+03
1.800000000000000211e-02 2.071999999999999953e-01 2.152765000000000128e+01 6.454160000000000252e+01 2.028714999999999918e+03
1.900000000000000300e-02 2.072955000000000214e-01 2.246034999999999826e+01 6.746574999999999989e+01 2.029335000000000036e+03
2.000000000000000042e-02 2.074175000000000046e-01 2.339079999999999870e+01 7.075300000000000011e+01 2.030134999999999991e+03
2.100000000000000130e-02 2.075425000000000186e-01 2.409085000000000321e+01 7.365415000000000134e+01 2.030970000000000027e+03
2.200000000000000219e-02 2.076454999999999829e-01 2.439029999999999987e+01 7.552594999999999459e+01 2.031664999999999964e+03
2.299999999999999961e-02 2.077080000000000037e-01 2.423304999999999865e+01 7.605264999999999986e+01 2.032105000000000018e+03
2.400000000000000050e-02 2.077245000000000064e-01 2.368359999999999843e+01 7.532345000000000823e+01 2.032250000000000000e+03
2.500000000000000139e-02 2.077025000000000121e-01 2.288830000000000098e+01 7.375194999999999368e+01 2.032130000000000109e+03
2.600000000000000228e-02 2.076554999999999929e-01 2.201274999999999693e+01 7.188759999999999195e+01 2.031835000000000036e+03
2.700000000000000316e-02 2.076000000000000068e-01 2.118325000000000102e+01 7.020799999999999841e+01 2.031480000000000018e+03
2.800000000000000058e-02 2.075494999999999979e-01 2.045400000000000063e+01 6.897409999999999286e+01 2.031144999999999982e+03
2.900000000000000147e-02 2.075089999999999990e-01 1.980655000000000143e+01 6.818949999999999534e+01 2.030880000000000109e+03
3.000000000000000236e-02 2.074785000000000101e-01 1.917535000000000167e+01 6.765809999999999036e+01 2.030664999999999964e+03
3.099999999999999978e-02 2.074495000000000089e-01 1.848600000000000065e+01 6.710174999999999557e+01 2.030474999999999909e+03
3.200000000000000067e-02 2.074155000000000026e-01 1.769160000000000110e+01 6.628905000000000314e+01 2.030259999999999991e+03
3.300000000000000155e-02 2.073705000000000132e-01 1.679679999999999751e+01 6.513380000000000791e+01 2.029974999999999909e+03
3.400000000000000244e-02 2.073160000000000003e-01 1.586284999999999989e+01 6.373590000000000089e+01 2.029619999999999891e+03
3.500000000000000333e-02 2.072579999999999978e-01 1.499289999999999878e+01 6.235555000000000803e+01 2.029240000000000009e+03
3.600000000000000422e-02 2.072065000000000157e-01 1.430294999999999916e+01 6.133225000000000193e+01 2.028894999999999982e+03
3.700000000000000511e-02 2.071739999999999970e-01 1.388799999999999990e+01 6.097760000000000247e+01 2.028674999999999955e+03
3.799999999999999906e-02 2.071689999999999920e-01 1.379449999999999932e+01 6.147785000000000366e+01 2.028625000000000000e+03
3.899999999999999994e-02 2.071975000000000067e-01 1.400685000000000002e+01 6.283449999999999847e+01 2.028789999999999964e+03
4.000000000000000083e-02 2.072554999999999814e-01 1.444960000000000022e+01 6.485765000000000668e+01 2.029154999999999973e+03
4.100000000000000172e-02 2.073360000000000203e-01 1.500380000000000003e+01 6.720795000000001096e+01 2.029664999999999964e+03
4.200000000000000261e-02 2.074239999999999973e-01 1.553054999999999808e+01 6.946944999999999482e+01 2.030240000000000009e+03
4.300000000000000350e-02 2.075060000000000238e-01 1.589600000000000080e+01 7.123210000000000264e+01 2.030775000000000091e+03
4.400000000000000439e-02 2.075670000000000015e-01 1.599160000000000004e+01 7.216329999999999245e+01 2.031179999999999836e+03
4.499999999999999833e-02 2.075945000000000151e-01 1.574690000000000012e+01 7.205474999999999852e+01 2.031375000000000000e+03
4.599999999999999922e-02 2.075815000000000021e-01 1.513374999999999915e+01 7.083905000000000030e+01 2.031304999999999836e+03
4.700000000000000011e-02 2.075259999999999883e-01 1.416294999999999860e+01 6.857894999999999186e+01 2.030954999999999927e+03
4.800000000000000100e-02 2.074300000000000033e-01 1.287572000000000116e+01 6.543595000000000539e+01 2.030339999999999918e+03
4.900000000000000189e-02 2.072984999999999967e-01 1.133277499999999982e+01 6.162989999999999924e+01 2.029490000000000009e+03
5.000000000000000278e-02 2.071399999999999908e-01 9.604610000000000980e+00 5.740019999999999811e+01 2.028460000000000036e+03
5.100000000000000366e-02 2.069624999999999937e-01 7.763620000000000410e+00 5.297579999999999956e+01 2.027299999999999955e+03
5.200000000000000455e-02 2.067755000000000010e-01 5.879799999999999471e+00 4.855809999999999604e+01 2.026069999999999936e+03
5.300000000000000544e-02 2.065854999999999775e-01 4.018884499999999527e+00 4.431584999999999752e+01 2.024829999999999927e+03
5.399999999999999939e-02 2.064020000000000021e-01 2.242500000000000160e+00 4.038885000000000502e+01 2.023619999999999891e+03
5.500000000000000028e-02 2.062289999999999957e-01 6.090700000000000003e-01 3.689594999999999914e+01 2.022474999999999909e+03
5.600000000000000117e-02 2.060730000000000062e-01 -8.257550000000000168e-01 3.394275000000000375e+01 2.021444999999999936e+03
5.700000000000000205e-02 2.059394999999999976e-01 -2.009471999999999703e+00 3.162635000000000218e+01 2.020559999999999945e+03
5.800000000000000294e-02 2.058335000000000026e-01 -2.894395999999999969e+00 3.003524999999999778e+01 2.019840000000000146e+03
5.900000000000000383e-02 2.057579999999999965e-01 -3.440174999999999983e+00 2.924534999999999840e+01 2.019329999999999927e+03
6.000000000000000472e-02 2.057180000000000120e-01 -3.616830000000000211e+00 2.931279999999999930e+01 2.019045000000000073e+03
6.099999999999999867e-02 2.057144999999999946e-01 -3.407530000000000392e+00 3.026610000000000156e+01 2.019000000000000000e+03
6.199999999999999956e-02 2.057495000000000018e-01 -2.810599999999999987e+00 3.209975000000000023e+01 2.019200000000000045e+03
6.300000000000000044e-02 2.058224999999999916e-01 -1.840226999999999835e+00 3.477110000000000412e+01 2.019654999999999973e+03
6.400000000000000133e-02 2.059325000000000183e-01 -5.257899999999999796e-01 3.820120000000000005e+01 2.020345000000000027e+03
6.500000000000000222e-02 2.060750000000000082e-01 1.090134999999999854e+00 4.227955000000000041e+01 2.021264999999999873e+03
6.600000000000000311e-02 2.062464999999999993e-01 2.954685000000000006e+00 4.687210000000000321e+01 2.022365000000000009e+03
6.700000000000000400e-02 2.064420000000000144e-01 5.008164999999999978e+00 5.183095000000000141e+01 2.023634999999999991e+03
6.800000000000000488e-02 2.066540000000000044e-01 7.187599999999999767e+00 5.700419999999999732e+01 2.025015000000000100e+03
6.900000000000000577e-02 2.068769999999999776e-01 9.430109999999999104e+00 6.224509999999999366e+01 2.026480000000000018e+03
7.000000000000000666e-02 2.071054999999999979e-01 1.167575500000000055e+01 6.741949999999999932e+01 2.027980000000000018e+03
7.100000000000000755e-02 2.073329999999999895e-01 1.387022499999999958e+01 7.241214999999999691e+01 2.029480000000000018e+03
7.200000000000000844e-02 2.075545000000000029e-01 1.596689999999999898e+01 7.713075000000000614e+01 2.030954999999999927e+03
7.300000000000000933e-02 2.077669999999999795e-01 1.792839999999999989e+01 8.150884999999999536e+01 2.032365000000000009e+03
7.399999999999999634e-02 2.079664999999999986e-01 1.972800000000000153e+01 8.550754999999999484e+01 2.033700000000000045e+03
7.499999999999999722e-02 2.081514999999999893e-01 2.135020000000000095e+01 8.911549999999999727e+01 2.034940000000000055e+03
7.599999999999999811e-02 2.083214999999999928e-01 2.279079999999999728e+01 9.234815000000000396e+01 2.036089999999999918e+03
7.699999999999999900e-02 2.084759999999999946e-01 2.405604999999999905e+01 9.524424999999999386e+01 2.037134999999999991e+03
7.799999999999999989e-02 2.086175000000000113e-01 2.516169999999999973e+01 9.786214999999999975e+01 2.038095000000000027e+03
7.900000000000000078e-02 2.087479999999999891e-01 2.613060000000000116e+01 1.002740000000000009e+02 2.038980000000000018e+03
8.000000000000000167e-02 2.088700000000000001e-01 2.699069999999999681e+01 1.025595999999999890e+02 2.039809999999999945e+03
8.100000000000000255e-02 2.089860000000000051e-01 2.777224999999999966e+01 1.047985000000000042e+02 2.040599999999999909e+03
8.200000000000000344e-02 2.091000000000000081e-01 2.850534999999999997e+01 1.070635000000000048e+02 2.041369999999999891e+03
8.300000000000000433e-02 2.092144999999999977e-01 2.921705000000000041e+01 1.094175000000000040e+02 2.042154999999999973e+03
8.400000000000000522e-02 2.093325000000000047e-01 2.992999999999999972e+01 1.119045000000000130e+02 2.042945000000000164e+03
8.500000000000000611e-02 2.094550000000000023e-01 3.066019999999999968e+01 1.145515000000000043e+02 2.043775000000000091e+03
8.600000000000000699e-02 2.095835000000000059e-01 3.141665000000000063e+01 1.173624999999999972e+02 2.044639999999999873e+03
8.700000000000000788e-02 2.097180000000000155e-01 3.220074999999999932e+01 1.203220000000000027e+02 2.045545000000000073e+03
8.800000000000000877e-02 2.098579999999999890e-01 3.300674999999999670e+01 1.233969999999999914e+02 2.046490000000000009e+03
8.899999999999999578e-02 2.100020000000000220e-01 3.382224999999999682e+01 1.265379999999999967e+02 2.047460000000000036e+03
8.999999999999999667e-02 2.101480000000000015e-01 3.462980000000000302e+01 1.296859999999999786e+02 2.048444999999999709e+03
9.099999999999999756e-02 2.102940000000000087e-01 3.540800000000000125e+01 1.327744999999999891e+02 2.049429999999999836e+03
9.199999999999999845e-02 2.104369999999999852e-01 3.613335000000000008e+01 1.357344999999999970e+02 2.050390000000000327e+03
9.299999999999999933e-02 2.105739999999999834e-01 3.678170000000000073e+01 1.384985000000000070e+02 2.051324999999999818e+03
9.400000000000000022e-02 2.107020000000000004e-01 3.732979999999999876e+01 1.410060000000000002e+02 2.052195000000000164e+03
9.500000000000000111e-02 2.108194999999999930e-01 3.775674999999999670e+01 1.432055000000000007e+02 2.052989999999999782e+03
9.600000000000000200e-02 2.109234999999999860e-01 3.804505000000000337e+01 1.450550000000000068e+02 2.053699999999999818e+03
9.700000000000000289e-02 2.110120000000000051e-01 3.818169999999999931e+01 1.465269999999999868e+02 2.054309999999999945e+03
9.800000000000000377e-02 2.110845000000000082e-01 3.815850000000000364e+01 1.476059999999999945e+02 2.054815000000000055e+03
9.900000000000000466e-02 2.111405000000000087e-01 3.797274999999999778e+01 1.482914999999999850e+02 2.055204999999999927e+03
1.000000000000000056e-01 2.111784999999999912e-01 3.762715000000000032e+01 1.485960000000000036e+02 2.055475000000000364e+03
1.010000000000000064e-01 2.112005000000000132e-01 3.712975000000000136e+01 1.485439999999999827e+02 2.055635000000000218e+03
1.020000000000000073e-01 2.112065000000000192e-01 3.649309999999999832e+01 1.481700000000000159e+02 2.055684999999999945e+03
1.030000000000000082e-01 2.111979999999999968e-01 3.573400000000000176e+01 1.475169999999999959e+02 2.055639999999999873e+03
1.040000000000000091e-01 2.111764999999999892e-01 3.487245000000000061e+01 1.466349999999999909e+02 2.055509999999999764e+03
1.050000000000000100e-01 2.111449999999999994e-01 3.393070000000000164e+01 1.455759999999999934e+02 2.055305000000000291e+03
1.059999999999999970e-01 2.111049999999999871e-01 3.293219999999999459e+01 1.443960000000000150e+02 2.055039999999999964e+03
1.069999999999999979e-01 2.110585000000000100e-01 3.190075000000000216e+01 1.431460000000000150e+02 2.054739999999999782e+03
1.079999999999999988e-01 2.110084999999999877e-01 3.085920000000000130e+01 1.418774999999999977e+02 2.054404999999999745e+03
1.089999999999999997e-01 2.109564999999999912e-01 2.982874999999999943e+01 1.406345000000000027e+02 2.054050000000000182e+03
1.100000000000000006e-01 2.109044999999999948e-01 2.882824999999999704e+01 1.394540000000000077e+02 2.053704999999999927e+03
1.110000000000000014e-01 2.108545000000000003e-01 2.787330000000000041e+01 1.383670000000000186e+02 2.053364999999999782e+03
1.120000000000000023e-01 2.108074999999999810e-01 2.697590000000000288e+01 1.373940000000000055e+02 2.053045000000000073e+03
1.130000000000000032e-01 2.107649999999999801e-01 2.614420000000000144e+01 1.365469999999999970e+02 2.052755000000000109e+03
1.140000000000000041e-01 2.107269999999999976e-01 2.538220000000000098e+01 1.358285000000000196e+02 2.052489999999999782e+03
1.150000000000000050e-01 2.106930000000000192e-01 2.468975000000000009e+01 1.352314999999999827e+02 2.052264999999999873e+03
1.160000000000000059e-01 2.106649999999999912e-01 2.406309999999999860e+01 1.347425000000000068e+02 2.052065000000000055e+03
1.170000000000000068e-01 2.106399999999999939e-01 2.349470000000000169e+01 1.343385000000000105e+02 2.051894999999999982e+03
1.180000000000000077e-01 2.106190000000000007e-01 2.297444999999999737e+01 1.339919999999999902e+02 2.051744999999999891e+03
1.190000000000000085e-01 2.106000000000000094e-01 2.248975000000000080e+01 1.336714999999999804e+02 2.051615000000000236e+03
1.200000000000000094e-01 2.105819999999999914e-01 2.202655000000000030e+01 1.333425000000000011e+02 2.051485000000000127e+03
1.209999999999999964e-01 2.105640000000000012e-01 2.157005000000000194e+01 1.329694999999999823e+02 2.051360000000000127e+03
1.219999999999999973e-01 2.105434999999999945e-01 2.110555000000000092e+01 1.325204999999999984e+02 2.051219999999999800e+03
1.229999999999999982e-01 2.105204999999999993e-01 2.061955000000000027e+01 1.319639999999999986e+02 2.051059999999999945e+03
1.239999999999999991e-01 2.104924999999999990e-01 2.009984999999999999e+01 1.312764999999999986e+02 2.050869999999999891e+03
1.250000000000000000e-01 2.104590000000000072e-01 1.953699999999999903e+01 1.304385000000000048e+02 2.050644999999999982e+03
1.260000000000000009e-01 2.104189999999999949e-01 1.892419999999999902e+01 1.294399999999999977e+02 2.050375000000000000e+03
1.270000000000000018e-01 2.103725000000000178e-01 1.825825000000000031e+01 1.282779999999999916e+02 2.050065000000000055e+03
1.280000000000000027e-01 2.103189999999999782e-01 1.753920000000000101e+01 1.269590000000000032e+02 2.049704999999999927e+03
1.290000000000000036e-01 2.102594999999999881e-01 1.677084999999999937e+01 1.254964999999999975e+02 2.049305000000000291e+03
1.300000000000000044e-01 2.101930000000000187e-01 1.596030000000000015e+01 1.239140000000000015e+02 2.048864999999999782e+03
1.310000000000000053e-01 2.101219999999999755e-01 1.511769999999999925e+01 1.222400000000000091e+02 2.048385000000000218e+03
1.320000000000000062e-01 2.100470000000000115e-01 1.425559999999999938e+01 1.205084999999999980e+02 2.047880000000000109e+03
1.330000000000000071e-01 2.099690000000000167e-01 1.338850000000000051e+01 1.187570000000000050e+02 2.047364999999999782e+03
1.340000000000000080e-01 2.098905000000000076e-01 1.253190000000000026e+01 1.170250000000000057e+02 2.046835000000000036e+03
1.350000000000000089e-01 2.098125000000000129e-01 1.170169999999999888e+01 1.153509999999999991e+02 2.046309999999999945e+03
1.360000000000000098e-01 2.097364999999999924e-01 1.091332500000000039e+01 1.137710000000000008e+02 2.045799999999999955e+03
1.370000000000000107e-01 2.096644999999999759e-01 1.018117499999999964e+01 1.123199999999999932e+02 2.045315000000000055e+03
1.380000000000000115e-01 2.095980000000000065e-01 9.517665000000000930e+00 1.110235000000000127e+02 2.044860000000000127e+03
1.390000000000000124e-01 2.095380000000000020e-01 8.932964999999999378e+00 1.099039999999999964e+02 2.044454999999999927e+03
1.400000000000000133e-01 2.094854999999999912e-01 8.434689999999999799e+00 1.089759999999999991e+02 2.044094999999999800e+03
1.410000000000000142e-01 2.094405000000000017e-01 8.027380000000000848e+00 1.082469999999999999e+02 2.043789999999999964e+03
1.420000000000000151e-01 2.094040000000000068e-01 7.712595000000000312e+00 1.077160000000000082e+02 2.043539999999999964e+03
1.430000000000000160e-01 2.093764999999999932e-01 7.488989999999999370e+00 1.073785000000000025e+02 2.043345000000000027e+03
1.440000000000000169e-01 2.093570000000000153e-01 7.352450000000000152e+00 1.072195000000000107e+02 2.043210000000000036e+03
1.450000000000000178e-01 2.093455000000000177e-01 7.296429999999999971e+00 1.072229999999999990e+02 2.043125000000000000e+03
1.459999999999999909e-01 2.093415000000000137e-01 7.312314999999999898e+00 1.073665000000000020e+02 2.043090000000000146e+03
1.469999999999999918e-01 2.093440000000000023e-01 7.389890000000000292e+00 1.076250000000000000e+02 2.043095000000000255e+03
1.479999999999999927e-01 2.093504999999999949e-01 7.517815000000000580e+00 1.079719999999999942e+02 2.043139999999999873e+03
1.489999999999999936e-01 2.093625000000000069e-01 7.684124999999999872e+00 1.083814999999999884e+02 2.043210000000000036e+03
1.499999999999999944e-01 2.093769999999999798e-01 7.876675000000000537e+00 1.088255000000000052e+02 2.043305000000000064e+03
1.509999999999999953e-01 2.093939999999999968e-01 8.083649999999998670e+00 1.092804999999999893e+02 2.043414999999999964e+03
1.519999999999999962e-01 2.094110000000000138e-01 8.293894999999999129e+00 1.097220000000000084e+02 2.043530000000000200e+03
1.529999999999999971e-01 2.094285000000000174e-01 8.497315000000000396e+00 1.101315000000000026e+02 2.043644999999999982e+03
1.539999999999999980e-01 2.094449999999999923e-01 8.685145000000000337e+00 1.104929999999999950e+02 2.043750000000000000e+03
1.549999999999999989e-01 2.094599999999999795e-01 8.850165000000000504e+00 1.107924999999999898e+02 2.043849999999999909e+03
1.559999999999999998e-01 2.094725000000000059e-01 8.986869999999999692e+00 1.110229999999999961e+02 2.043934999999999945e+03
1.570000000000000007e-01 2.094820000000000015e-01 9.091529999999998779e+00 1.111790000000000020e+02 2.044005000000000109e+03
1.580000000000000016e-01 2.094889999999999808e-01 9.162214999999999776e+00 1.112595000000000027e+02 2.044049999999999955e+03
1.590000000000000024e-01 2.094929999999999848e-01 9.198734999999999218e+00 1.112684999999999889e+02 2.044080000000000155e+03
