# t [s], A [cm^2], U [cm/s], P [cPa], c [cm/s]
1.000000000000000021e-03 7.875434999999999519e-01 4.829899999999998084e-03 1.034729999999999990e+02 1.622069999999999936e+03
2.000000000000000042e-03 7.875334999999999974e-01 2.879760000000000306e-03 1.034465000000000003e+02 1.622059999999999945e+03
3.000000000000000062e-03 7.876179999999999293e-01 1.253853000000000051e-01 1.035794999999999959e+02 1.622089999999999918e+03
4.000000000000000083e-03 7.876680000000000348e-01 2.128992499999999843e-01 1.036844999999999999e+02 1.622125000000000000e+03
5.000000000000000104e-03 7.876080000000000858e-01 1.519969999999999932e-01 1.035604999999999905e+02 1.622095000000000027e+03
6.000000000000000125e-03 7.875140000000000473e-01 3.405399999999997318e-02 1.032734999999999985e+02 1.622029999999999973e+03
7.000000000000000146e-03 7.874185000000000212e-01 -9.684550000000002878e-02 1.028959999999999866e+02 1.621945000000000164e+03
8.000000000000000167e-03 7.872509999999999231e-01 -3.482049999999999867e-01 1.023045000000000044e+02 1.621809999999999945e+03
9.000000000000001055e-03 7.869895000000000085e-01 -7.522799999999999487e-01 1.014142499999999956e+02 1.621605000000000018e+03
1.000000000000000194e-02 7.866295000000000925e-01 -1.305439999999999934e+00 1.001821999999999946e+02 1.621320000000000164e+03
1.099999999999999936e-02 7.861409999999999787e-01 -2.032585000000000086e+00 9.852879999999998972e+01 1.620929999999999836e+03
1.200000000000000025e-02 7.855240000000000000e-01 -2.909704999999999764e+00 9.642804999999999893e+01 1.620420000000000073e+03
1.300000000000000114e-02 7.848494999999999777e-01 -3.798925000000000551e+00 9.401839999999999975e+01 1.619825000000000045e+03
1.400000000000000203e-02 7.842284999999999950e-01 -4.498598000000000319e+00 9.157220000000000937e+01 1.619195000000000164e+03
1.499999999999999944e-02 7.837414999999999798e-01 -4.848686000000000718e+00 8.936394999999998845e+01 1.618599999999999909e+03
1.600000000000000033e-02 7.834045000000000591e-01 -4.796781500000000698e+00 8.755134999999999934e+01 1.618075000000000045e+03
1.700000000000000122e-02 7.831755000000000244e-01 -4.399364999999999526e+00 8.613335000000000719e+01 1.617625000000000000e+03
1.800000000000000211e-02 7.829770000000000341e-01 -3.781124999999999847e+00 8.497814999999999941e+01 1.617230000000000018e+03
1.900000000000000300e-02 7.827374999999999750e-01 -3.079833999999999961e+00 8.389224999999999000e+01 1.616860000000000127e+03
2.000000000000000042e-02 7.824090000000000211e-01 -2.397058999999999607e+00 8.269925000000000637e+01 1.616470000000000027e+03
2.100000000000000130e-02 7.819855000000000000e-01 -1.770425000000000137e+00 8.130134999999999934e+01 1.616039999999999964e+03
2.200000000000000219e-02 7.814959999999999685e-01 -1.177030000000000021e+00 7.969919999999999050e+01 1.615565000000000055e+03
2.299999999999999961e-02 7.809829999999999828e-01 -5.634549999999998171e-01 7.796710000000000207e+01 1.615054999999999836e+03
2.400000000000000050e-02 7.804830000000000378e-01 1.151999999999997470e-01 7.620105000000000928e+01 1.614539999999999964e+03
2.500000000000000139e-02 7.800080000000000346e-01 8.656700000000001616e-01 7.446690000000000964e+01 1.614019999999999982e+03
2.600000000000000228e-02 7.795430000000000970e-01 1.645424999999999915e+00 7.276730000000000587e+01 1.613505000000000109e+03
2.700000000000000316e-02 7.790509999999999380e-01 2.369869999999999699e+00 7.103549999999999898e+01 1.612984999999999900e+03
2.800000000000000058e-02 7.784850000000000936e-01 2.932540000000000369e+00 6.915209999999999013e+01 1.612430000000000064e+03
2.900000000000000147e-02 7.777994999999999770e-01 3.231740000000000279e+00 6.697925000000000750e+01 1.611805000000000064e+03
3.000000000000000236e-02 7.769675000000000331e-01 3.196859999999999591e+00 6.440189999999999770e+01 1.611099999999999909e+03
3.099999999999999978e-02 7.759894999999999987e-01 2.807389999999999830e+00 6.136570000000000391e+01 1.610289999999999964e+03
3.200000000000000067e-02 7.748920000000000252e-01 2.099139999999999340e+00 5.789959999999999951e+01 1.609375000000000000e+03
3.300000000000000155e-02 7.737270000000000536e-01 1.155755000000000088e+00 5.411695000000000277e+01 1.608380000000000109e+03
3.400000000000000244e-02 7.725589999999999957e-01 9.034999999999993037e-02 5.019639999999999702e+01 1.607335000000000036e+03
3.500000000000000333e-02 7.714540000000000841e-01 -9.772250000000006764e-01 4.635065000000000168e+01 1.606299999999999955e+03
3.600000000000000422e-02 7.704685000000000006e-01 -1.939029999999999809e+00 4.279255000000000564e+01 1.605319999999999936e+03
3.700000000000000511e-02 7.696460000000000523e-01 -2.711839999999999584e+00 3.970714999999999861e+01 1.604440000000000055e+03
3.799999999999999906e-02 7.690114999999999590e-01 -3.241414999999999935e+00 3.723324999999999818e+01 1.603704999999999927e+03
3.899999999999999994e-02 7.685770000000000657e-01 -3.501093000000000011e+00 3.545600000000000307e+01 1.603134999999999991e+03
4.000000000000000083e-02 7.683415000000000106e-01 -3.485674999999999635e+00 3.440905000000000058e+01 1.602755000000000109e+03
4.100000000000000172e-02 7.682949999999999502e-01 -3.203554999999999708e+00 3.408384999999999820e+01 1.602554999999999836e+03
4.200000000000000261e-02 7.684254999999999836e-01 -2.669195000000000206e+00 3.444274999999999665e+01 1.602545000000000073e+03
4.300000000000000350e-02 7.687174999999999425e-01 -1.897810000000000219e+00 3.543205000000000382e+01 1.602704999999999927e+03
4.400000000000000439e-02 7.691565000000000207e-01 -9.031699999999998063e-01 3.699134999999999707e+01 1.603034999999999854e+03
4.499999999999999833e-02 7.697289999999999965e-01 3.016199999999997772e-01 3.905955000000000155e+01 1.603505000000000109e+03
4.599999999999999922e-02 7.704214999999999813e-01 1.701315000000000133e+00 4.157529999999999859e+01 1.604105000000000018e+03
4.700000000000000011e-02 7.712164999999999715e-01 3.275360000000000493e+00 4.447545000000000215e+01 1.604820000000000164e+03
4.800000000000000100e-02 7.720959999999998935e-01 4.995565000000000033e+00 4.769185000000000230e+01 1.605630000000000109e+03
4.900000000000000189e-02 7.730380000000000029e-01 6.825700000000000323e+00 5.115014999999999645e+01 1.606525000000000091e+03
5.000000000000000278e-02 7.740179999999999838e-01 8.722716000000000136e+00 5.477004999999999768e+01 1.607470000000000027e+03
5.100000000000000366e-02 7.750124999999999931e-01 1.063988499999999959e+01 5.846759999999999735e+01 1.608454999999999927e+03
5.200000000000000455e-02 7.759970000000000478e-01 1.253027000000000157e+01 6.216020000000000323e+01 1.609450000000000045e+03
5.300000000000000544e-02 7.769519999999999760e-01 1.435079499999999975e+01 6.577134999999999820e+01 1.610440000000000055e+03
5.399999999999999939e-02 7.778614999999999835e-01 1.606521000000000043e+01 6.923595000000000255e+01 1.611409999999999854e+03
5.500000000000000028e-02 7.787140000000000173e-01 1.764639999999999986e+01 7.250445000000000562e+01 1.612335000000000036e+03
5.600000000000000117e-02 7.795039999999999747e-01 1.907710000000000150e+01 7.554545000000000243e+01 1.613210000000000036e+03
5.700000000000000205e-02 7.802305000000000490e-01 2.035004999999999953e+01 7.834579999999999700e+01 1.614035000000000082e+03
5.800000000000000294e-02 7.808984999999999399e-01 2.146654999999999802e+01 8.090985000000000582e+01 1.614795000000000073e+03
5.900000000000000383e-02 7.815134999999999721e-01 2.243534999999999968e+01 8.325704999999999245e+01 1.615509999999999991e+03
6.000000000000000472e-02 7.820875000000000465e-01 2.327045000000000030e+01 8.541830000000000211e+01 1.616170000000000073e+03
6.099999999999999867e-02 7.826294999999999780e-01 2.398985000000000056e+01 8.743289999999998940e+01 1.616785000000000082e+03
6.199999999999999956e-02 7.831529999999999880e-01 2.461399999999999721e+01 8.934444999999999482e+01 1.617375000000000000e+03
6.300000000000000044e-02 7.836689999999999490e-01 2.516414999999999935e+01 9.119809999999999661e+01 1.617940000000000055e+03
6.400000000000000133e-02 7.841879999999999962e-01 2.566150000000000020e+01 9.303714999999999691e+01 1.618500000000000000e+03
6.500000000000000222e-02 7.847205000000000430e-01 2.612575000000000003e+01 9.490054999999999552e+01 1.619059999999999945e+03
6.600000000000000311e-02 7.852734999999999577e-01 2.657404999999999973e+01 9.682025000000000148e+01 1.619625000000000000e+03
6.700000000000000400e-02 7.858519999999999950e-01 2.701984999999999815e+01 9.881919999999999504e+01 1.620215000000000146e+03
6.800000000000000488e-02 7.864580000000001014e-01 2.747194999999999965e+01 1.009097999999999900e+02 1.620815000000000055e+03
6.900000000000000577e-02 7.870894999999999975e-01 2.793384999999999962e+01 1.030919999999999987e+02 1.621444999999999936e+03
7.000000000000000666e-02 7.877414999999999834e-01 2.840350000000000108e+01 1.053549999999999898e+02 1.622095000000000027e+03
7.100000000000000755e-02 7.884079999999999977e-01 2.887369999999999948e+01 1.076754999999999995e+02 1.622759999999999991e+03
7.200000000000000844e-02 7.890770000000000284e-01 2.933290000000000219e+01 1.100210000000000008e+02 1.623434999999999945e+03
7.300000000000000933e-02 7.897374999999999812e-01 2.976585000000000036e+01 1.123520000000000039e+02 1.624105000000000018e+03
7.399999999999999634e-02 7.903769999999999962e-01 3.015549999999999997e+01 1.146229999999999905e+02 1.624764999999999873e+03
7.499999999999999722e-02 7.909824999999999218e-01 3.048400000000000176e+01 1.167890000000000015e+02 1.625400000000000091e+03
7.599999999999999811e-02 7.915425000000000377e-01 3.073424999999999940e+01 1.188045000000000044e+02 1.625994999999999891e+03
7.699999999999999900e-02 7.920460000000000278e-01 3.089095000000000013e+01 1.206299999999999955e+02 1.626545000000000073e+03
7.799999999999999989e-02 7.924854999999999539e-01 3.094174999999999898e+01 1.222309999999999945e+02 1.627034999999999854e+03
7.900000000000000078e-02 7.928545000000000176e-01 3.087800000000000011e+01 1.235825000000000102e+02 1.627470000000000027e+03
8.000000000000000167e-02 7.931504999999999805e-01 3.069484999999999886e+01 1.246684999999999945e+02 1.627825000000000045e+03
8.100000000000000255e-02 7.933725000000000360e-01 3.039184999999999803e+01 1.254834999999999923e+02 1.628105000000000018e+03
8.200000000000000344e-02 7.935214999999999907e-01 2.997250000000000014e+01 1.260300000000000011e+02 1.628315000000000055e+03
8.300000000000000433e-02 7.936035000000000172e-01 2.944435000000000002e+01 1.263215000000000003e+02 1.628460000000000036e+03
8.400000000000000522e-02 7.936235000000000372e-01 2.881824999999999903e+01 1.263785000000000025e+02 1.628529999999999973e+03
8.500000000000000611e-02 7.935894999999999477e-01 2.810810000000000031e+01 1.262284999999999968e+02 1.628539999999999964e+03
8.600000000000000699e-02 7.935109999999999664e-01 2.732985000000000042e+01 1.259029999999999916e+02 1.628500000000000000e+03
8.700000000000000788e-02 7.933970000000000189e-01 2.650115000000000265e+01 1.254389999999999930e+02 1.628409999999999854e+03
8.800000000000000877e-02 7.932585000000000885e-01 2.564025000000000176e+01 1.248729999999999905e+02 1.628284999999999854e+03
8.899999999999999578e-02 7.931044999999999900e-01 2.476525000000000176e+01 1.242419999999999902e+02 1.628139999999999873e+03
8.999999999999999667e-02 7.929444999999999411e-01 2.389365000000000094e+01 1.235820000000000078e+02 1.627980000000000018e+03
9.099999999999999756e-02 7.927870000000000195e-01 2.304119999999999990e+01 1.229250000000000114e+02 1.627809999999999945e+03
9.199999999999999845e-02 7.926389999999999825e-01 2.222155000000000058e+01 1.222990000000000066e+02 1.627644999999999982e+03
9.299999999999999933e-02 7.925054999999999739e-01 2.144545000000000101e+01 1.217255000000000109e+02 1.627485000000000127e+03
9.400000000000000022e-02 7.923899999999999277e-01 2.072080000000000055e+01 1.212215000000000060e+02 1.627340000000000146e+03
9.500000000000000111e-02 7.922955000000000414e-01 2.005194999999999794e+01 1.207955000000000041e+02 1.627215000000000146e+03
9.600000000000000200e-02 7.922210000000000640e-01 1.944004999999999939e+01 1.204509999999999934e+02 1.627105000000000018e+03
9.700000000000000289e-02 7.921655000000000779e-01 1.888299999999999912e+01 1.201850000000000023e+02 1.627019999999999982e+03
9.800000000000000377e-02 7.921255000000000379e-01 1.837594999999999956e+01 1.199869999999999948e+02 1.626945000000000164e+03
9.900000000000000466e-02 7.920970000000000510e-01 1.791125000000000256e+01 1.198435000000000059e+02 1.626889999999999873e+03
1.000000000000000056e-01 7.920750000000000846e-01 1.747964999999999947e+01 1.197369999999999948e+02 1.626845000000000027e+03
1.010000000000000064e-01 7.920540000000000358e-01 1.707019999999999982e+01 1.196460000000000008e+02 1.626805000000000064e+03
1.020000000000000073e-01 7.920279999999999543e-01 1.667150000000000176e+01 1.195490000000000066e+02 1.626769999999999982e+03
1.030000000000000082e-01 7.919899999999999718e-01 1.627185000000000059e+01 1.194240000000000066e+02 1.626724999999999909e+03
1.040000000000000091e-01 7.919365000000000432e-01 1.586010000000000097e+01 1.192505000000000024e+02 1.626675000000000182e+03
1.050000000000000100e-01 7.918614999999999959e-01 1.542624999999999957e+01 1.190090000000000003e+02 1.626605000000000018e+03
1.059999999999999970e-01 7.917610000000000481e-01 1.496189999999999998e+01 1.186839999999999975e+02 1.626519999999999982e+03
1.069999999999999979e-01 7.916345000000000187e-01 1.446085000000000065e+01 1.182644999999999982e+02 1.626405000000000200e+03
1.079999999999999988e-01 7.914784999999999737e-01 1.391914999999999836e+01 1.177439999999999998e+02 1.626269999999999982e+03
1.089999999999999997e-01 7.912945000000000118e-01 1.333572500000000005e+01 1.171210000000000093e+02 1.626105000000000018e+03
1.100000000000000006e-01 7.910844999999999683e-01 1.271203500000000020e+01 1.163995000000000033e+02 1.625909999999999854e+03
1.110000000000000014e-01 7.908515000000000406e-01 1.205245999999999995e+01 1.155895000000000010e+02 1.625700000000000045e+03
1.120000000000000023e-01 7.905995000000000106e-01 1.136368500000000026e+01 1.147034999999999911e+02 1.625460000000000036e+03
1.130000000000000032e-01 7.903335000000000221e-01 1.065468500000000063e+01 1.137614999999999981e+02 1.625204999999999927e+03
1.140000000000000041e-01 7.900610000000000133e-01 9.936295000000001210e+00 1.127830000000000013e+02 1.624940000000000055e+03
1.150000000000000050e-01 7.897885000000000044e-01 9.220489999999999853e+00 1.117934999999999945e+02 1.624674999999999955e+03
1.160000000000000059e-01 7.895220000000000571e-01 8.520035000000000025e+00 1.108179999999999978e+02 1.624400000000000091e+03
1.170000000000000068e-01 7.892689999999999984e-01 7.847635000000000360e+00 1.098804999999999978e+02 1.624134999999999991e+03
1.180000000000000077e-01 7.890360000000000706e-01 7.215619999999999479e+00 1.090065000000000026e+02 1.623880000000000109e+03
1.190000000000000085e-01 7.888284999999999325e-01 6.635180000000000078e+00 1.082164999999999964e+02 1.623650000000000091e+03
1.200000000000000094e-01 7.886505000000000321e-01 6.115755000000000052e+00 1.075300000000000011e+02 1.623445000000000164e+03
1.209999999999999964e-01 7.885060000000000402e-01 5.664850000000000385e+00 1.069604999999999961e+02 1.623269999999999982e+03
1.219999999999999973e-01 7.883970000000000145e-01 5.287575000000000358e+00 1.065180000000000007e+02 1.623119999999999891e+03
1.229999999999999982e-01 7.883244999999999836e-01 4.986530000000000129e+00 1.062074999999999960e+02 1.623009999999999991e+03
1.239999999999999991e-01 7.882869999999999600e-01 4.761770000000000280e+00 1.060285000000000082e+02 1.622934999999999945e+03
1.250000000000000000e-01 7.882830000000000670e-01 4.610884999999999678e+00 1.059745000000000061e+02 1.622894999999999982e+03
1.260000000000000009e-01 7.883094999999999963e-01 4.529234999999999900e+00 1.060379999999999967e+02 1.622884999999999991e+03
1.270000000000000018e-01 7.883620000000000072e-01 4.510260000000000602e+00 1.062055000000000007e+02 1.622904999999999973e+03
1.280000000000000027e-01 7.884370000000000545e-01 4.545835000000000292e+00 1.064590000000000032e+02 1.622954999999999927e+03
1.290000000000000036e-01 7.885280000000000067e-01 4.626730000000000231e+00 1.067824999999999989e+02 1.623025000000000091e+03
1.300000000000000044e-01 7.886310000000000819e-01 4.742995000000000516e+00 1.071564999999999941e+02 1.623105000000000018e+03
1.310000000000000053e-01 7.887399999999999967e-01 4.884430000000000049e+00 1.075610000000000070e+02 1.623204999999999927e+03
1.320000000000000062e-01 7.888505000000000100e-01 5.040979999999999350e+00 1.079779999999999944e+02 1.623309999999999945e+03
1.330000000000000071e-01 7.889580000000000481e-01 5.203079999999999927e+00 1.083905000000000030e+02 1.623414999999999964e+03
1.340000000000000080e-01 7.890584999999999960e-01 5.362000000000000099e+00 1.087819999999999965e+02 1.623519999999999982e+03
1.350000000000000089e-01 7.891489999999999894e-01 5.510049999999999670e+00 1.091415000000000077e+02 1.623615000000000009e+03
1.360000000000000098e-01 7.892274999999999707e-01 5.640805000000000291e+00 1.094574999999999960e+02 1.623704999999999927e+03
1.370000000000000107e-01 7.892915000000000347e-01 5.749220000000000219e+00 1.097229999999999990e+02 1.623779999999999973e+03
1.380000000000000115e-01 7.893405000000000005e-01 5.831694999999999851e+00 1.099334999999999951e+02 1.623844999999999800e+03
1.390000000000000124e-01 7.893749999999999378e-01 5.886079999999999757e+00 1.100879999999999939e+02 1.623894999999999982e+03
1.400000000000000133e-01 7.893944999999999990e-01 5.911624999999999908e+00 1.101864999999999952e+02 1.623934999999999945e+03
1.410000000000000142e-01 7.894004999999999495e-01 5.908904999999999852e+00 1.102330000000000041e+02 1.623954999999999927e+03
1.420000000000000151e-01 7.893954999999999167e-01 5.879654999999999632e+00 1.102319999999999993e+02 1.623964999999999918e+03
1.430000000000000160e-01 7.893799999999999706e-01 5.826649999999999885e+00 1.101910000000000025e+02 1.623965000000000146e+03
1.440000000000000169e-01 7.893575000000000452e-01 5.753460000000000463e+00 1.101175000000000068e+02 1.623950000000000045e+03
1.450000000000000178e-01 7.893289999999999473e-01 5.664270000000000138e+00 1.100204999999999984e+02 1.623930000000000064e+03
1.459999999999999909e-01 7.892980000000000551e-01 5.563639999999999475e+00 1.099080000000000013e+02 1.623904999999999973e+03
1.469999999999999918e-01 7.892675000000000107e-01 5.456265000000000143e+00 1.097895000000000039e+02 1.623880000000000109e+03
1.479999999999999927e-01 7.892380000000001061e-01 5.346754999999999924e+00 1.096734999999999900e+02 1.623849999999999909e+03
1.489999999999999936e-01 7.892120000000000246e-01 5.239430000000000476e+00 1.095674999999999955e+02 1.623829999999999927e+03
1.499999999999999944e-01 7.891909999999999759e-01 5.138109999999999289e+00 1.094759999999999991e+02 1.623800000000000182e+03
1.509999999999999953e-01 7.891770000000000174e-01 5.045969999999999622e+00 1.094055000000000035e+02 1.623784999999999854e+03
1.519999999999999962e-01 7.891690000000000094e-01 4.965424999999999756e+00 1.093575000000000017e+02 1.623769999999999982e+03
1.529999999999999971e-01 7.891679999999999806e-01 4.898060000000000080e+00 1.093350000000000080e+02 1.623764999999999873e+03
1.539999999999999980e-01 7.891734999999999722e-01 4.844619999999999926e+00 1.093359999999999985e+02 1.623764999999999873e+03
1.549999999999999989e-01 7.891854999999999842e-01 4.805020000000000735e+00 1.093605000000000018e+02 1.623764999999999873e+03
1.559999999999999998e-01 7.892015000000000002e-01 4.778454999999999231e+00 1.094039999999999964e+02 1.623775000000000091e+03
1.570000000000000007e-01 7.892215000000000202e-01 4.763460000000000250e+00 1.094619999999999891e+02 1.623789999999999964e+03
1.580000000000000016e-01 7.892434999999999867e-01 4.758094999999999963e+00 1.095310000000000059e+02 1.623799999999999955e+03
1.590000000000000024e-01 7.892654999999999532e-01 4.760085000000000122e+00 1.096040000000000134e+02 1.623824999999999818e+03
