# t [s], A [cm^2], U [cm/s], P [cPa], c [cm/s]
1.000000000000000021e-03 7.108060000000000489e-01 6.481000000000000649e-03 1.052674999999999983e+02 1.824105000000000018e+03
2.000000000000000042e-03 7.107995000000000285e-01 8.260749999999998996e-03 1.052394999999999925e+02 1.824095000000000027e+03
3.000000000000000062e-03 7.108775000000000510e-01 1.524862499999999899e-01 1.054194999999999993e+02 1.824134999999999991e+03
4.000000000000000083e-03 7.109035000000000215e-01 2.239605000000000068e-01 1.055074999999999932e+02 1.824150000000000091e+03
5.000000000000000104e-03 7.108309999999999906e-01 1.248565000000000369e-01 1.052830000000000013e+02 1.824115000000000009e+03
6.000000000000000125e-03 7.107544999999999558e-01 7.466499999999987036e-03 1.049214999999999947e+02 1.824045000000000073e+03
7.000000000000000146e-03 7.106584999999999708e-01 -1.598949999999998983e-01 1.044180000000000064e+02 1.823940000000000055e+03
8.000000000000000167e-03 7.104824999999999058e-01 -4.948549999999999338e-01 1.035925000000000011e+02 1.823779999999999973e+03
9.000000000000001055e-03 7.102189999999999337e-01 -1.007765000000000022e+00 1.023689999999999998e+02 1.823539999999999964e+03
1.000000000000000194e-02 7.098435000000000716e-01 -1.729724999999999735e+00 1.006419999999999959e+02 1.823204999999999927e+03
1.099999999999999936e-02 7.093439999999999745e-01 -2.659174999999999844e+00 9.833889999999999532e+01 1.822740000000000009e+03
1.200000000000000025e-02 7.087845000000000395e-01 -3.645375000000000032e+00 9.561539999999999395e+01 1.822180000000000064e+03
1.300000000000000114e-02 7.082740000000000702e-01 -4.441695999999999422e+00 9.283674999999999500e+01 1.821585000000000036e+03
1.400000000000000203e-02 7.078889999999999905e-01 -4.857912500000000300e+00 9.036294999999999789e+01 1.821025000000000091e+03
1.499999999999999944e-02 7.076339999999999852e-01 -4.849385000000000723e+00 8.836844999999999573e+01 1.820539999999999964e+03
1.600000000000000033e-02 7.074540000000000273e-01 -4.504400000000000404e+00 8.680155000000000598e+01 1.820119999999999891e+03
1.700000000000000122e-02 7.072749999999999870e-01 -3.975245000000000140e+00 8.545680000000000121e+01 1.819750000000000000e+03
1.800000000000000211e-02 7.070385000000000142e-01 -3.401257000000000197e+00 8.409414999999999907e+01 1.819380000000000109e+03
1.900000000000000300e-02 7.067235000000000600e-01 -2.854477499999999779e+00 8.254855000000000587e+01 1.818980000000000018e+03
2.000000000000000042e-02 7.063485000000000458e-01 -2.326435000000000031e+00 8.078594999999999970e+01 1.818535000000000082e+03
2.100000000000000130e-02 7.059535000000000116e-01 -1.757814999999999905e+00 7.888640000000000896e+01 1.818070000000000164e+03
2.200000000000000219e-02 7.055744999999999933e-01 -1.090669999999999806e+00 7.697280000000000655e+01 1.817599999999999909e+03
2.299999999999999961e-02 7.052240000000000730e-01 -3.135349999999998971e-01 7.512864999999999327e+01 1.817134999999999991e+03
2.400000000000000050e-02 7.048845000000000249e-01 5.196250000000000036e-01 7.334465000000000146e+01 1.816674999999999955e+03
2.500000000000000139e-02 7.045150000000000023e-01 1.298950000000000271e+00 7.150924999999999443e+01 1.816210000000000036e+03
2.600000000000000228e-02 7.040649999999999409e-01 1.888910000000000089e+00 6.944039999999999679e+01 1.815704999999999927e+03
2.700000000000000316e-02 7.034920000000000062e-01 2.168115000000000236e+00 6.694474999999999909e+01 1.815115000000000009e+03
2.800000000000000058e-02 7.027775000000000549e-01 2.066370000000000040e+00 6.388535000000000252e+01 1.814420000000000073e+03
2.900000000000000147e-02 7.019344999999999057e-01 1.586650000000000560e+00 6.023569999999999425e+01 1.813615000000000009e+03
3.000000000000000236e-02 7.010054999999999481e-01 8.036899999999995714e-01 5.609855000000000302e+01 1.812704999999999927e+03
3.099999999999999978e-02 7.000509999999999788e-01 -1.588500000000001577e-01 5.168649999999999523e+01 1.811734999999999900e+03
3.200000000000000067e-02 6.991355000000000208e-01 -1.161209999999999631e+00 4.727295000000000158e+01 1.810744999999999891e+03
3.300000000000000155e-02 6.983129999999999615e-01 -2.077840000000000131e+00 4.313665000000000305e+01 1.809795000000000073e+03
3.400000000000000244e-02 6.976225000000000342e-01 -2.815919999999999757e+00 3.951524999999999466e+01 1.808940000000000055e+03
3.500000000000000333e-02 6.970849999999999547e-01 -3.321019999999999861e+00 3.657815000000000083e+01 1.808215000000000146e+03
3.600000000000000422e-02 6.967060000000000475e-01 -3.572359499999999688e+00 3.441890000000000072e+01 1.807650000000000091e+03
3.700000000000000511e-02 6.964810000000000167e-01 -3.571810000000000151e+00 3.306425000000000125e+01 1.807255000000000109e+03
3.799999999999999906e-02 6.964004999999999779e-01 -3.331294999999999895e+00 3.249320000000000164e+01 1.807034999999999854e+03
3.899999999999999994e-02 6.964540000000000175e-01 -2.862549999999999706e+00 3.265895000000000437e+01 1.806985000000000127e+03
4.000000000000000083e-02 6.966339999999999755e-01 -2.171784499999999785e+00 3.350700000000000500e+01 1.807090000000000146e+03
4.100000000000000172e-02 6.969330000000000247e-01 -1.260040000000000049e+00 3.498499999999999943e+01 1.807345000000000027e+03
4.200000000000000261e-02 6.973445000000000338e-01 -1.279250000000002885e-01 3.704404999999999859e+01 1.807740000000000009e+03
4.300000000000000350e-02 6.978610000000000646e-01 1.218025000000000357e+00 3.963329999999999842e+01 1.808255000000000109e+03
4.400000000000000439e-02 6.984690000000000065e-01 2.760064999999999991e+00 4.269290000000000163e+01 1.808889999999999873e+03
4.499999999999999833e-02 6.991530000000000244e-01 4.466949999999999754e+00 4.614800000000000324e+01 1.809619999999999891e+03
4.599999999999999922e-02 6.998919999999999586e-01 6.295065000000000133e+00 4.990809999999999746e+01 1.810434999999999945e+03
4.700000000000000011e-02 7.006630000000000358e-01 8.192465100000001499e+00 5.387015000000000242e+01 1.811299999999999955e+03
4.800000000000000100e-02 7.014434999999999976e-01 1.010433499999999896e+01 5.792604999999999649e+01 1.812204999999999927e+03
4.900000000000000189e-02 7.022125000000000172e-01 1.197904999999999909e+01 6.197180000000000177e+01 1.813125000000000000e+03
5.000000000000000278e-02 7.029555000000000664e-01 1.377256999999999998e+01 6.591649999999999920e+01 1.814029999999999973e+03
5.100000000000000366e-02 7.036599999999999522e-01 1.545198000000000071e+01 6.968970000000000198e+01 1.814914999999999964e+03
5.200000000000000455e-02 7.043200000000000571e-01 1.699649999999999750e+01 7.324535000000000196e+01 1.815764999999999873e+03
5.300000000000000544e-02 7.049354999999999372e-01 1.839705000000000013e+01 7.656300000000000239e+01 1.816565000000000055e+03
5.399999999999999939e-02 7.055095000000000116e-01 1.965474999999999994e+01 7.964584999999999582e+01 1.817320000000000164e+03
5.500000000000000028e-02 7.060484999999999678e-01 2.077859999999999729e+01 8.251659999999999684e+01 1.818029999999999973e+03
5.600000000000000117e-02 7.065609999999999946e-01 2.178340000000000032e+01 8.521259999999999479e+01 1.818699999999999818e+03
5.700000000000000205e-02 7.070559999999999068e-01 2.268715000000000259e+01 8.778034999999999854e+01 1.819340000000000146e+03
5.800000000000000294e-02 7.075434999999999919e-01 2.350945000000000107e+01 9.026980000000000359e+01 1.819960000000000036e+03
5.900000000000000383e-02 7.080324999999999536e-01 2.426919999999999789e+01 9.272934999999999661e+01 1.820570000000000164e+03
6.000000000000000472e-02 7.085295000000000343e-01 2.498324999999999818e+01 9.520089999999999009e+01 1.821179999999999836e+03
6.099999999999999867e-02 7.090389999999999748e-01 2.566474999999999795e+01 9.771629999999998972e+01 1.821795000000000073e+03
6.199999999999999956e-02 7.095635000000000137e-01 2.632185000000000130e+01 1.002930499999999938e+02 1.822420000000000073e+03
6.300000000000000044e-02 7.101020000000000110e-01 2.695745000000000147e+01 1.029353499999999997e+02 1.823055000000000064e+03
6.400000000000000133e-02 7.106500000000000039e-01 2.756875000000000142e+01 1.056310000000000002e+02 1.823710000000000036e+03
6.500000000000000222e-02 7.112020000000000008e-01 2.814835000000000065e+01 1.083549999999999898e+02 1.824365000000000009e+03
6.600000000000000311e-02 7.117489999999999650e-01 2.868504999999999683e+01 1.110699999999999932e+02 1.825014999999999873e+03
6.700000000000000400e-02 7.122829999999999995e-01 2.916544999999999987e+01 1.137330000000000041e+02 1.825664999999999964e+03
6.800000000000000488e-02 7.127930000000000099e-01 2.957529999999999859e+01 1.162965000000000089e+02 1.826289999999999964e+03
6.900000000000000577e-02 7.132720000000000171e-01 2.990090000000000003e+01 1.187145000000000010e+02 1.826884999999999991e+03
7.000000000000000666e-02 7.137115000000000542e-01 3.013029999999999831e+01 1.209454999999999956e+02 1.827445000000000164e+03
7.100000000000000755e-02 7.141049999999999898e-01 3.025404999999999944e+01 1.229525000000000006e+02 1.827950000000000045e+03
7.200000000000000844e-02 7.144490000000000007e-01 3.026559999999999917e+01 1.247094999999999914e+02 1.828400000000000091e+03
7.300000000000000933e-02 7.147390000000000132e-01 3.016205000000000069e+01 1.261974999999999909e+02 1.828795000000000073e+03
7.399999999999999634e-02 7.149760000000000559e-01 2.994379999999999953e+01 1.274089999999999918e+02 1.829125000000000000e+03
7.499999999999999722e-02 7.151600000000000179e-01 2.961485000000000412e+01 1.283470000000000084e+02 1.829400000000000091e+03
7.599999999999999811e-02 7.152944999999999443e-01 2.918284999999999840e+01 1.290225000000000080e+02 1.829599999999999909e+03
7.699999999999999900e-02 7.153829999999999911e-01 2.865850000000000364e+01 1.294544999999999959e+02 1.829750000000000000e+03
7.799999999999999989e-02 7.154314999999999980e-01 2.805519999999999925e+01 1.296694999999999993e+02 1.829845000000000027e+03
7.900000000000000078e-02 7.154464999999999852e-01 2.738875000000000171e+01 1.297019999999999982e+02 1.829890000000000100e+03
8.000000000000000167e-02 7.154350000000000431e-01 2.667634999999999934e+01 1.295860000000000127e+02 1.829900000000000091e+03
8.100000000000000255e-02 7.154039999999999289e-01 2.593599999999999994e+01 1.293609999999999900e+02 1.829880000000000109e+03
8.200000000000000344e-02 7.153620000000000534e-01 2.518534999999999968e+01 1.290654999999999859e+02 1.829829999999999927e+03
8.300000000000000433e-02 7.153145000000000753e-01 2.444075000000000131e+01 1.287344999999999970e+02 1.829775000000000091e+03
8.400000000000000522e-02 7.152680000000000149e-01 2.371665000000000134e+01 1.284004999999999939e+02 1.829710000000000036e+03
8.500000000000000611e-02 7.152264999999999873e-01 2.302449999999999974e+01 1.280894999999999868e+02 1.829644999999999982e+03
8.600000000000000699e-02 7.151935000000000375e-01 2.237230000000000274e+01 1.278199999999999932e+02 1.829585000000000036e+03
8.700000000000000788e-02 7.151695000000000135e-01 2.176449999999999818e+01 1.276040000000000134e+02 1.829535000000000082e+03
8.800000000000000877e-02 7.151549999999999851e-01 2.120159999999999911e+01 1.274439999999999884e+02 1.829490000000000009e+03
8.899999999999999578e-02 7.151490000000000347e-01 2.068094999999999928e+01 1.273354999999999961e+02 1.829460000000000036e+03
8.999999999999999667e-02 7.151475000000000470e-01 2.019664999999999822e+01 1.272669999999999959e+02 1.829434999999999945e+03
9.099999999999999756e-02 7.151480000000000059e-01 1.974029999999999774e+01 1.272229999999999990e+02 1.829420000000000073e+03
9.199999999999999845e-02 7.151460000000000594e-01 1.930199999999999960e+01 1.271804999999999950e+02 1.829404999999999973e+03
9.299999999999999933e-02 7.151369999999999116e-01 1.887059999999999960e+01 1.271184999999999974e+02 1.829384999999999991e+03
9.400000000000000022e-02 7.151155000000000150e-01 1.843479999999999919e+01 1.270130000000000052e+02 1.829355000000000018e+03
9.500000000000000111e-02 7.150784999999999503e-01 1.798385000000000034e+01 1.268404999999999916e+02 1.829315000000000055e+03
9.600000000000000200e-02 7.150229999999999642e-01 1.750830000000000197e+01 1.265815000000000055e+02 1.829259999999999991e+03
9.700000000000000289e-02 7.149449999999999417e-01 1.700035000000000096e+01 1.262210000000000036e+02 1.829174999999999955e+03
9.800000000000000377e-02 7.148440000000000349e-01 1.645490000000000208e+01 1.257479999999999905e+02 1.829074999999999818e+03
9.900000000000000466e-02 7.147194999999999521e-01 1.586934999999999896e+01 1.251585000000000036e+02 1.828944999999999936e+03
1.000000000000000056e-01 7.145719999999999850e-01 1.524429999999999907e+01 1.244530000000000030e+02 1.828789999999999964e+03
1.010000000000000064e-01 7.144049999999999567e-01 1.458350000000000080e+01 1.236419999999999959e+02 1.828615000000000009e+03
1.020000000000000073e-01 7.142215000000000646e-01 1.389344499999999982e+01 1.227399999999999949e+02 1.828414999999999964e+03
1.030000000000000082e-01 7.140260000000000495e-01 1.318327499999999830e+01 1.217680000000000007e+02 1.828194999999999936e+03
1.040000000000000091e-01 7.138234999999999442e-01 1.246427500000000066e+01 1.207505000000000024e+02 1.827965000000000146e+03
1.050000000000000100e-01 7.136204999999999909e-01 1.174912500000000115e+01 1.197169999999999987e+02 1.827730000000000018e+03
1.059999999999999970e-01 7.134225000000000705e-01 1.105131500000000067e+01 1.186955000000000098e+02 1.827490000000000009e+03
1.069999999999999979e-01 7.132350000000000634e-01 1.038418500000000044e+01 1.177185000000000059e+02 1.827259999999999991e+03
1.079999999999999988e-01 7.130644999999999900e-01 9.760410000000000252e+00 1.168120000000000118e+02 1.827045000000000073e+03
1.089999999999999997e-01 7.129140000000000477e-01 9.191124999999999545e+00 1.160020000000000095e+02 1.826844999999999800e+03
1.100000000000000006e-01 7.127875000000000183e-01 8.685534999999999783e+00 1.153079999999999927e+02 1.826670000000000073e+03
1.110000000000000014e-01 7.126879999999999882e-01 8.250130000000000408e+00 1.147450000000000045e+02 1.826519999999999982e+03
1.120000000000000023e-01 7.126155000000000683e-01 7.888864999999999128e+00 1.143215000000000003e+02 1.826404999999999973e+03
1.130000000000000032e-01 7.125704999999999956e-01 7.602594999999999104e+00 1.140399999999999920e+02 1.826315000000000055e+03
1.140000000000000041e-01 7.125524999999999221e-01 7.389609999999999346e+00 1.138954999999999984e+02 1.826264999999999873e+03
1.150000000000000050e-01 7.125569999999999959e-01 7.245575000000000543e+00 1.138785000000000025e+02 1.826235000000000127e+03
1.160000000000000059e-01 7.125829999999999664e-01 7.164070000000000604e+00 1.139754999999999967e+02 1.826240000000000009e+03
1.170000000000000068e-01 7.126254999999999118e-01 7.137030000000000207e+00 1.141684999999999945e+02 1.826264999999999873e+03
1.180000000000000077e-01 7.126810000000000089e-01 7.155285000000000117e+00 1.144375000000000000e+02 1.826309999999999945e+03
1.190000000000000085e-01 7.127455000000000318e-01 7.209105000000000096e+00 1.147605000000000075e+02 1.826369999999999891e+03
1.200000000000000094e-01 7.128144999999999065e-01 7.288669999999999760e+00 1.151185000000000116e+02 1.826440000000000055e+03
1.209999999999999964e-01 7.128844999999999210e-01 7.384565000000000268e+00 1.154915000000000020e+02 1.826514999999999873e+03
1.219999999999999973e-01 7.129535000000000178e-01 7.488104999999999123e+00 1.158619999999999948e+02 1.826590000000000146e+03
1.229999999999999982e-01 7.130179999999999296e-01 7.591639999999999944e+00 1.162159999999999940e+02 1.826675000000000182e+03
1.239999999999999991e-01 7.130769999999999609e-01 7.688734999999999431e+00 1.165415000000000134e+02 1.826744999999999891e+03
1.250000000000000000e-01 7.131275000000000253e-01 7.774305000000000021e+00 1.168310000000000031e+02 1.826815000000000055e+03
1.260000000000000009e-01 7.131704999999999295e-01 7.844644999999999868e+00 1.170794999999999959e+02 1.826869999999999891e+03
1.270000000000000018e-01 7.132054999999999367e-01 7.897439999999999571e+00 1.172849999999999966e+02 1.826920000000000073e+03
1.280000000000000027e-01 7.132324999999999360e-01 7.931675000000000253e+00 1.174490000000000123e+02 1.826965000000000146e+03
1.290000000000000036e-01 7.132529999999999148e-01 7.947549999999999670e+00 1.175750000000000028e+02 1.827000000000000000e+03
1.300000000000000044e-01 7.132674999999999432e-01 7.946310000000000429e+00 1.176675000000000040e+02 1.827025000000000091e+03
1.310000000000000053e-01 7.132784999999999265e-01 7.930085000000000051e+00 1.177334999999999923e+02 1.827049999999999955e+03
1.320000000000000062e-01 7.132855000000000167e-01 7.901669999999999305e+00 1.177810000000000059e+02 1.827065000000000055e+03
1.330000000000000071e-01 7.132924999999999960e-01 7.864270000000000316e+00 1.178170000000000073e+02 1.827079999999999927e+03
1.340000000000000080e-01 7.132989999999999053e-01 7.821304999999999730e+00 1.178499999999999943e+02 1.827090000000000146e+03
1.350000000000000089e-01 7.133074999999999832e-01 7.776110000000000078e+00 1.178874999999999886e+02 1.827099999999999909e+03
1.360000000000000098e-01 7.133184999999999665e-01 7.731774999999999842e+00 1.179360000000000070e+02 1.827115000000000009e+03
1.370000000000000107e-01 7.133335000000000647e-01 7.690905000000000769e+00 1.179994999999999976e+02 1.827134999999999991e+03
1.380000000000000115e-01 7.133525000000000560e-01 7.655479999999999841e+00 1.180815000000000055e+02 1.827150000000000091e+03
1.390000000000000124e-01 7.133754999999999402e-01 7.626780000000000115e+00 1.181829999999999927e+02 1.827174999999999955e+03
1.400000000000000133e-01 7.134024999999999395e-01 7.605344999999999800e+00 1.183044999999999902e+02 1.827199999999999818e+03
1.410000000000000142e-01 7.134319999999999551e-01 7.591009999999999813e+00 1.184435000000000002e+02 1.827230000000000018e+03
1.420000000000000151e-01 7.134650000000000158e-01 7.582989999999999675e+00 1.185964999999999918e+02 1.827269999999999982e+03
1.430000000000000160e-01 7.134994999999999532e-01 7.580009999999999692e+00 1.187595000000000027e+02 1.827304999999999836e+03
1.440000000000000169e-01 7.135335000000000427e-01 7.580485000000000362e+00 1.189260000000000019e+02 1.827345000000000027e+03
1.450000000000000178e-01 7.135670000000000623e-01 7.582684999999999675e+00 1.190914999999999964e+02 1.827384999999999991e+03
1.459999999999999909e-01 7.135994999999999422e-01 7.584889999999999688e+00 1.192510000000000048e+02 1.827420000000000073e+03
1.469999999999999918e-01 7.136289999999999578e-01 7.585555000000000270e+00 1.193990000000000009e+02 1.827460000000000036e+03
1.479999999999999927e-01 7.136554999999999982e-01 7.583445000000000213e+00 1.195324999999999989e+02 1.827490000000000009e+03
1.489999999999999936e-01 7.136780000000000346e-01 7.577695000000000292e+00 1.196494999999999891e+02 1.827519999999999982e+03
1.499999999999999944e-01 7.136974999999999847e-01 7.567870000000000097e+00 1.197479999999999905e+02 1.827545000000000073e+03
1.509999999999999953e-01 7.137130000000000418e-01 7.554000000000000270e+00 1.198285000000000053e+02 1.827565000000000055e+03
1.519999999999999962e-01 7.137255000000000127e-01 7.536540000000000461e+00 1.198925000000000125e+02 1.827585000000000036e+03
1.529999999999999971e-01 7.137355000000000782e-01 7.516365000000000407e+00 1.199414999999999907e+02 1.827595000000000027e+03
1.539999999999999980e-01 7.137435000000000862e-01 7.494670000000001053e+00 1.199805000000000064e+02 1.827605000000000018e+03
1.549999999999999989e-01 7.137504999999999544e-01 7.472955000000000680e+00 1.200134999999999934e+02 1.827619999999999891e+03
1.559999999999999998e-01 7.137575000000000447e-01 7.452920000000000655e+00 1.200444999999999993e+02 1.827625000000000000e+03
1.570000000000000007e-01 7.137655000000000527e-01 7.436404999999999710e+00 1.200799999999999983e+02 1.827634999999999991e+03
1.580000000000000016e-01 7.137755000000000072e-01 7.425279999999999880e+00 1.201235000000000070e+02 1.827639999999999873e+03
1.590000000000000024e-01 7.137885000000000479e-01 7.421419999999999462e+00 1.201814999999999998e+02 1.827659999999999854e+03
