# t [s], A [cm^2], U [cm/s], P [cPa], c [cm/s]
1.000000000000000021e-03 1.430764999999999953e-01 3.088994999999999935e-01 9.899835000000000207e+01 2.046625000000000000e+03
2.000000000000000042e-03 1.430420000000000025e-01 1.837333500000000175e+00 9.574155000000000371e+01 2.046250000000000000e+03
3.000000000000000062e-03 1.429414999999999991e-01 3.722322500000000201e+00 9.128425000000000011e+01 2.045215000000000146e+03
4.000000000000000083e-03 1.428004999999999969e-01 5.833580499999999169e+00 8.640540000000000020e+01 2.043789999999999964e+03
5.000000000000000104e-03 1.426465000000000094e-01 8.101630000000000109e+00 8.198390000000000555e+01 2.042240000000000009e+03
6.000000000000000125e-03 1.424964999999999982e-01 1.036351499999999959e+01 7.834749999999999659e+01 2.040744999999999891e+03
7.000000000000000146e-03 1.423544999999999949e-01 1.240886000000000067e+01 7.528499999999999659e+01 2.039365000000000009e+03
8.000000000000000167e-03 1.422245000000000037e-01 1.414002999999999943e+01 7.254265000000000896e+01 2.038110000000000127e+03
9.000000000000001055e-03 1.421084999999999987e-01 1.558634999999999948e+01 7.014265000000000327e+01 2.037014999999999873e+03
1.000000000000000194e-02 1.420095000000000107e-01 1.678654999999999831e+01 6.817045000000000243e+01 2.036089999999999918e+03
1.099999999999999936e-02 1.419279999999999986e-01 1.775744999999999862e+01 6.661580000000000723e+01 2.035335000000000036e+03
1.200000000000000025e-02 1.418625000000000025e-01 1.851285000000000025e+01 6.542090000000000316e+01 2.034744999999999891e+03
1.300000000000000114e-02 1.418105000000000060e-01 1.905904999999999916e+01 6.449604999999999677e+01 2.034279999999999973e+03
1.400000000000000203e-02 1.417694999999999927e-01 1.940210000000000079e+01 6.372539999999999338e+01 2.033909999999999854e+03
1.499999999999999944e-02 1.417355000000000143e-01 1.958760000000000190e+01 6.306765000000000043e+01 2.033619999999999891e+03
1.600000000000000033e-02 1.417104999999999893e-01 1.972545000000000215e+01 6.266894999999999527e+01 2.033414999999999964e+03
1.700000000000000122e-02 1.417015000000000080e-01 1.995769999999999911e+01 6.283559999999999945e+01 2.033345000000000027e+03
1.800000000000000211e-02 1.417134999999999923e-01 2.038904999999999745e+01 6.385569999999999879e+01 2.033470000000000027e+03
1.900000000000000300e-02 1.417510000000000159e-01 2.103065000000000140e+01 6.579939999999999145e+01 2.033825000000000045e+03
2.000000000000000042e-02 1.418109999999999926e-01 2.179165000000000063e+01 6.843104999999999905e+01 2.034384999999999991e+03
2.100000000000000130e-02 1.418834999999999957e-01 2.251719999999999899e+01 7.127344999999999686e+01 2.035069999999999936e+03
2.200000000000000219e-02 1.419575000000000142e-01 2.304919999999999902e+01 7.377684999999999604e+01 2.035780000000000200e+03
2.299999999999999961e-02 1.420195000000000207e-01 2.328049999999999997e+01 7.550475000000000136e+01 2.036384999999999991e+03
2.400000000000000050e-02 1.420629999999999948e-01 2.318430000000000035e+01 7.626149999999999807e+01 2.036819999999999936e+03
2.500000000000000139e-02 1.420845000000000025e-01 2.281105000000000160e+01 7.612295000000000300e+01 2.037050000000000182e+03
2.600000000000000228e-02 1.420869999999999911e-01 2.225955000000000084e+01 7.536930000000000973e+01 2.037095000000000027e+03
2.700000000000000316e-02 1.420770000000000088e-01 2.163560000000000016e+01 7.435894999999999300e+01 2.037009999999999991e+03
2.800000000000000058e-02 1.420605000000000062e-01 2.101614999999999966e+01 7.339730000000000132e+01 2.036869999999999891e+03
2.900000000000000147e-02 1.420444999999999902e-01 2.043005000000000138e+01 7.264679999999999893e+01 2.036715000000000146e+03
3.000000000000000236e-02 1.420299999999999896e-01 1.985960000000000036e+01 7.210354999999999848e+01 2.036579999999999927e+03
3.099999999999999978e-02 1.420164999999999900e-01 1.925844999999999985e+01 7.163564999999999827e+01 2.036454999999999927e+03
3.200000000000000067e-02 1.420009999999999883e-01 1.857710000000000150e+01 7.106049999999999045e+01 2.036309999999999945e+03
3.300000000000000155e-02 1.419805000000000095e-01 1.778815000000000168e+01 7.023134999999999195e+01 2.036119999999999891e+03
3.400000000000000244e-02 1.419524999999999815e-01 1.690245000000000175e+01 6.910499999999998977e+01 2.035865000000000009e+03
3.500000000000000333e-02 1.419179999999999886e-01 1.597269999999999968e+01 6.777160000000000650e+01 2.035550000000000182e+03
3.600000000000000422e-02 1.418810000000000071e-01 1.508285000000000053e+01 6.643840000000000146e+01 2.035204999999999927e+03
3.700000000000000511e-02 1.418475000000000152e-01 1.432744999999999891e+01 6.537449999999999761e+01 2.034884999999999991e+03
3.799999999999999906e-02 1.418230000000000046e-01 1.378725000000000023e+01 6.483514999999999873e+01 2.034644999999999982e+03
3.899999999999999994e-02 1.418130000000000224e-01 1.350849999999999973e+01 6.498959999999999582e+01 2.034545000000000073e+03
4.000000000000000083e-02 1.418214999999999892e-01 1.349194999999999922e+01 6.587385000000000446e+01 2.034605000000000018e+03
4.100000000000000172e-02 1.418474999999999875e-01 1.369279999999999831e+01 6.737999999999999545e+01 2.034840000000000146e+03
4.200000000000000261e-02 1.418885000000000007e-01 1.403120000000000012e+01 6.927989999999999782e+01 2.035210000000000036e+03
4.300000000000000350e-02 1.419380000000000086e-01 1.440824999999999889e+01 7.127420000000000755e+01 2.035664999999999964e+03
4.400000000000000439e-02 1.419885000000000175e-01 1.472409999999999997e+01 7.305100000000000193e+01 2.036130000000000109e+03
4.499999999999999833e-02 1.420319999999999916e-01 1.489300000000000068e+01 7.433934999999999604e+01 2.036545000000000073e+03
4.599999999999999922e-02 1.420635000000000092e-01 1.485379999999999967e+01 7.494830000000000325e+01 2.036840000000000146e+03
4.700000000000000011e-02 1.420764999999999945e-01 1.457385000000000019e+01 7.478450000000000841e+01 2.036980000000000018e+03
4.800000000000000100e-02 1.420700000000000018e-01 1.404809999999999981e+01 7.384995000000000687e+01 2.036929999999999836e+03
4.900000000000000189e-02 1.420434999999999892e-01 1.329335000000000022e+01 7.222374999999999545e+01 2.036695000000000164e+03
5.000000000000000278e-02 1.419984999999999997e-01 1.234168000000000021e+01 7.003549999999999898e+01 2.036279999999999973e+03
5.100000000000000366e-02 1.419384999999999952e-01 1.123306000000000004e+01 6.743729999999999336e+01 2.035719999999999800e+03
5.200000000000000455e-02 1.418659999999999921e-01 1.001013500000000001e+01 6.458110000000000639e+01 2.035039999999999964e+03
5.300000000000000544e-02 1.417849999999999944e-01 8.715004999999999669e+00 6.160455000000000325e+01 2.034284999999999854e+03
5.399999999999999939e-02 1.416995000000000060e-01 7.388389999999999347e+00 5.862584999999999980e+01 2.033485000000000127e+03
5.500000000000000028e-02 1.416129999999999889e-01 6.070050000000000168e+00 5.574595000000000056e+01 2.032670000000000073e+03
5.600000000000000117e-02 1.415279999999999871e-01 4.800214999999999677e+00 5.305459999999999354e+01 2.031865000000000009e+03
5.700000000000000205e-02 1.414475000000000038e-01 3.620520500000000030e+00 5.063774999999999693e+01 2.031099999999999909e+03
5.800000000000000294e-02 1.413745000000000140e-01 2.574411749999999888e+00 4.858235000000000525e+01 2.030410000000000082e+03
5.900000000000000383e-02 1.413119999999999932e-01 1.706429500000000044e+00 4.697865000000000180e+01 2.029809999999999945e+03
6.000000000000000472e-02 1.412625000000000131e-01 1.060447499999999987e+00 4.591779999999999973e+01 2.029329999999999927e+03
6.099999999999999867e-02 1.412285000000000068e-01 6.771649999999999059e-01 4.548680000000000234e+01 2.028994999999999891e+03
6.199999999999999956e-02 1.412134999999999918e-01 5.912824999999999331e-01 4.576129999999999853e+01 2.028840000000000146e+03
6.300000000000000044e-02 1.412194999999999978e-01 8.287815000000000598e-01 4.679784999999999684e+01 2.028875000000000000e+03
6.400000000000000133e-02 1.412479999999999847e-01 1.404834999999999834e+00 4.862765000000000271e+01 2.029125000000000000e+03
6.500000000000000222e-02 1.412995000000000223e-01 2.322498500000000021e+00 5.125244999999999607e+01 2.029590000000000146e+03
6.600000000000000311e-02 1.413739999999999997e-01 3.572417500000000246e+00 5.464320000000000022e+01 2.030269999999999982e+03
6.700000000000000400e-02 1.414715000000000000e-01 5.133470000000000866e+00 5.874184999999999945e+01 2.031170000000000073e+03
6.800000000000000488e-02 1.415905000000000080e-01 6.974115000000000286e+00 6.346484999999999843e+01 2.032269999999999982e+03
6.900000000000000577e-02 1.417284999999999795e-01 9.054459999999998843e+00 6.870969999999999800e+01 2.033554999999999836e+03
7.000000000000000666e-02 1.418824999999999947e-01 1.132840500000000006e+01 7.436095000000000255e+01 2.035000000000000000e+03
7.100000000000000755e-02 1.420490000000000086e-01 1.374639499999999970e+01 8.029785000000001105e+01 2.036565000000000055e+03
7.200000000000000844e-02 1.422255000000000047e-01 1.625769999999999982e+01 8.640094999999999459e+01 2.038235000000000127e+03
7.300000000000000933e-02 1.424079999999999790e-01 1.881305000000000049e+01 9.255844999999999345e+01 2.039965000000000146e+03
7.399999999999999634e-02 1.425935000000000119e-01 2.136674999999999969e+01 9.867249999999999943e+01 2.041724999999999909e+03
7.499999999999999722e-02 1.427795000000000036e-01 2.387855000000000061e+01 1.046612499999999955e+02 2.043505000000000109e+03
7.599999999999999811e-02 1.429630000000000067e-01 2.631519999999999726e+01 1.104655000000000058e+02 2.045259999999999991e+03
7.699999999999999900e-02 1.431429999999999925e-01 2.865119999999999933e+01 1.160465000000000089e+02 2.046994999999999891e+03
7.799999999999999989e-02 1.433180000000000009e-01 3.086909999999999599e+01 1.213865000000000123e+02 2.048675000000000182e+03
7.900000000000000078e-02 1.434864999999999891e-01 3.295929999999999893e+01 1.264890000000000043e+02 2.050304999999999836e+03
8.000000000000000167e-02 1.436494999999999855e-01 3.491870000000000118e+01 1.313704999999999927e+02 2.051885000000000218e+03
8.100000000000000255e-02 1.438059999999999894e-01 3.674994999999999834e+01 1.360595000000000141e+02 2.053414999999999964e+03
8.200000000000000344e-02 1.439584999999999892e-01 3.845945000000000391e+01 1.405914999999999964e+02 2.054894999999999982e+03
8.300000000000000433e-02 1.441060000000000119e-01 4.005589999999999407e+01 1.450014999999999930e+02 2.056329999999999927e+03
8.400000000000000522e-02 1.442499999999999893e-01 4.154860000000000042e+01 1.493204999999999814e+02 2.057739999999999782e+03
8.500000000000000611e-02 1.443915000000000060e-01 4.294634999999999536e+01 1.535740000000000123e+02 2.059125000000000000e+03
8.600000000000000699e-02 1.445310000000000206e-01 4.425624999999999432e+01 1.577769999999999868e+02 2.060484999999999673e+03
8.700000000000000788e-02 1.446685000000000054e-01 4.548300000000000409e+01 1.619350000000000023e+02 2.061829999999999927e+03
8.800000000000000877e-02 1.448039999999999883e-01 4.662869999999999493e+01 1.660409999999999968e+02 2.063159999999999854e+03
8.899999999999999578e-02 1.449380000000000113e-01 4.769275000000000375e+01 1.700819999999999936e+02 2.064470000000000255e+03
8.999999999999999667e-02 1.450690000000000035e-01 4.867184999999999917e+01 1.740335000000000036e+02 2.065755000000000109e+03
9.099999999999999756e-02 1.451974999999999794e-01 4.956069999999999709e+01 1.778679999999999950e+02 2.067015000000000327e+03
9.199999999999999845e-02 1.453220000000000067e-01 5.035229999999999961e+01 1.815534999999999854e+02 2.068244999999999891e+03
9.299999999999999933e-02 1.454415000000000013e-01 5.103849999999999909e+01 1.850550000000000068e+02 2.069425000000000182e+03
9.400000000000000022e-02 1.455555000000000043e-01 5.161064999999999969e+01 1.883385000000000105e+02 2.070545000000000073e+03
9.500000000000000111e-02 1.456625000000000003e-01 5.206010000000000559e+01 1.913729999999999905e+02 2.071605000000000018e+03
9.600000000000000200e-02 1.457625000000000171e-01 5.237890000000000157e+01 1.941279999999999859e+02 2.072599999999999909e+03
9.700000000000000289e-02 1.458539999999999837e-01 5.256009999999999849e+01 1.965805000000000007e+02 2.073505000000000109e+03
9.800000000000000377e-02 1.459360000000000102e-01 5.259855000000000302e+01 1.987104999999999961e+02 2.074320000000000164e+03
9.900000000000000466e-02 1.460084999999999855e-01 5.249094999999999800e+01 2.005045000000000073e+02 2.075039999999999964e+03
1.000000000000000056e-01 1.460704999999999920e-01 5.223669999999999902e+01 2.019574999999999818e+02 2.075664999999999964e+03
1.010000000000000064e-01 1.461220000000000019e-01 5.183769999999999811e+01 2.030699999999999932e+02 2.076180000000000291e+03
1.020000000000000073e-01 1.461635000000000018e-01 5.129890000000000327e+01 2.038514999999999873e+02 2.076600000000000364e+03
1.030000000000000082e-01 1.461945000000000050e-01 5.062800000000000011e+01 2.043170000000000073e+02 2.076920000000000073e+03
1.040000000000000091e-01 1.462160000000000126e-01 4.983559999999999945e+01 2.044904999999999973e+02 2.077144999999999982e+03
1.050000000000000100e-01 1.462279999999999969e-01 4.893469999999999942e+01 2.043990000000000009e+02 2.077275000000000091e+03
1.059999999999999970e-01 1.462324999999999875e-01 4.794044999999999845e+01 2.040774999999999864e+02 2.077329999999999927e+03
1.069999999999999979e-01 1.462289999999999979e-01 4.686945000000000050e+01 2.035625000000000000e+02 2.077305000000000291e+03
1.079999999999999988e-01 1.462195000000000022e-01 4.573930000000000007e+01 2.028924999999999841e+02 2.077224999999999909e+03
1.089999999999999997e-01 1.462049999999999739e-01 4.456780000000000541e+01 2.021065000000000111e+02 2.077085000000000036e+03
1.100000000000000006e-01 1.461859999999999826e-01 4.337229999999999563e+01 2.012414999999999736e+02 2.076904999999999745e+03
1.110000000000000014e-01 1.461639999999999884e-01 4.216930000000000689e+01 2.003319999999999936e+02 2.076690000000000055e+03
1.120000000000000023e-01 1.461399999999999921e-01 4.097360000000000468e+01 1.994085000000000036e+02 2.076460000000000036e+03
1.130000000000000032e-01 1.461149999999999949e-01 3.979795000000000016e+01 1.984950000000000045e+02 2.076215000000000146e+03
1.140000000000000041e-01 1.460895000000000110e-01 3.865295000000000414e+01 1.976119999999999948e+02 2.075965000000000146e+03
1.150000000000000050e-01 1.460644999999999860e-01 3.754639999999999844e+01 1.967715000000000032e+02 2.075720000000000255e+03
1.160000000000000059e-01 1.460400000000000031e-01 3.648355000000000103e+01 1.959814999999999827e+02 2.075480000000000018e+03
1.170000000000000068e-01 1.460164999999999935e-01 3.546670000000000300e+01 1.952404999999999973e+02 2.075244999999999891e+03
1.180000000000000077e-01 1.459940000000000127e-01 3.449569999999999936e+01 1.945455000000000041e+02 2.075019999999999982e+03
1.190000000000000085e-01 1.459725000000000050e-01 3.356790000000000163e+01 1.938849999999999909e+02 2.074804999999999836e+03
1.200000000000000094e-01 1.459515000000000118e-01 3.267865000000000464e+01 1.932454999999999927e+02 2.074590000000000146e+03
1.209999999999999964e-01 1.459310000000000052e-01 3.182135000000000247e+01 1.926084999999999923e+02 2.074385000000000218e+03
1.219999999999999973e-01 1.459099999999999842e-01 3.098819999999999908e+01 1.919555000000000007e+02 2.074180000000000291e+03
1.229999999999999982e-01 1.458889999999999909e-01 3.017054999999999865e+01 1.912640000000000100e+02 2.073965000000000146e+03
1.239999999999999991e-01 1.458665000000000100e-01 2.935934999999999917e+01 1.905140000000000100e+02 2.073739999999999782e+03
1.250000000000000000e-01 1.458415000000000128e-01 2.854560000000000031e+01 1.896850000000000023e+02 2.073500000000000000e+03
1.260000000000000009e-01 1.458150000000000002e-01 2.772115000000000151e+01 1.887605000000000075e+02 2.073234999999999673e+03
1.270000000000000018e-01 1.457855000000000123e-01 2.687870000000000203e+01 1.877259999999999991e+02 2.072944999999999709e+03
1.280000000000000027e-01 1.457525000000000071e-01 2.601250000000000284e+01 1.865699999999999932e+02 2.072619999999999891e+03
1.290000000000000036e-01 1.457164999999999988e-01 2.511860000000000070e+01 1.852889999999999873e+02 2.072264999999999873e+03
1.300000000000000044e-01 1.456764999999999866e-01 2.419494999999999862e+01 1.838810000000000002e+02 2.071875000000000000e+03
1.310000000000000053e-01 1.456324999999999981e-01 2.324170000000000158e+01 1.823505000000000109e+02 2.071444999999999709e+03
1.320000000000000062e-01 1.455854999999999788e-01 2.226135000000000019e+01 1.807090000000000032e+02 2.070984999999999673e+03
1.330000000000000071e-01 1.455345000000000111e-01 2.125840000000000174e+01 1.789705000000000155e+02 2.070494999999999891e+03
1.340000000000000080e-01 1.454810000000000270e-01 2.023930000000000007e+01 1.771544999999999845e+02 2.069970000000000255e+03
1.350000000000000089e-01 1.454254999999999853e-01 1.921244999999999692e+01 1.752849999999999966e+02 2.069425000000000182e+03
1.360000000000000098e-01 1.453679999999999972e-01 1.818735000000000213e+01 1.733874999999999886e+02 2.068864999999999782e+03
1.370000000000000107e-01 1.453094999999999803e-01 1.717459999999999809e+01 1.714890000000000043e+02 2.068295000000000073e+03
1.380000000000000115e-01 1.452510000000000190e-01 1.618499999999999872e+01 1.696175000000000068e+02 2.067724999999999909e+03
1.390000000000000124e-01 1.451925000000000021e-01 1.522960000000000136e+01 1.678000000000000114e+02 2.067154999999999745e+03
1.400000000000000133e-01 1.451359999999999872e-01 1.431859999999999999e+01 1.660620000000000118e+02 2.066605000000000018e+03
1.410000000000000142e-01 1.450819999999999887e-01 1.346124999999999972e+01 1.644250000000000114e+02 2.066065000000000055e+03
1.420000000000000151e-01 1.450299999999999923e-01 1.266554999999999964e+01 1.629064999999999941e+02 2.065559999999999945e+03
1.430000000000000160e-01 1.449819999999999998e-01 1.193758500000000033e+01 1.615199999999999818e+02 2.065090000000000146e+03
1.440000000000000169e-01 1.449374999999999969e-01 1.128150499999999923e+01 1.602740000000000009e+02 2.064650000000000091e+03
1.450000000000000178e-01 1.448969999999999980e-01 1.069954500000000053e+01 1.591709999999999923e+02 2.064244999999999891e+03
1.459999999999999909e-01 1.448605000000000032e-01 1.019179499999999905e+01 1.582094999999999914e+02 2.063885000000000218e+03
1.469999999999999918e-01 1.448274999999999979e-01 9.756429999999999936e+00 1.573824999999999932e+02 2.063565000000000055e+03
1.479999999999999927e-01 1.447994999999999977e-01 9.389860000000000539e+00 1.566809999999999832e+02 2.063279999999999745e+03
1.489999999999999936e-01 1.447749999999999870e-01 9.087009999999999366e+00 1.560914999999999964e+02 2.063034999999999854e+03
1.499999999999999944e-01 1.447534999999999794e-01 8.841554999999999609e+00 1.555974999999999966e+02 2.062820000000000164e+03
1.509999999999999953e-01 1.447350000000000025e-01 8.646440000000000126e+00 1.551834999999999809e+02 2.062635000000000218e+03
1.519999999999999962e-01 1.447195000000000009e-01 8.493879999999998986e+00 1.548309999999999889e+02 2.062475000000000364e+03
1.529999999999999971e-01 1.447050000000000003e-01 8.375985000000000014e+00 1.545229999999999961e+02 2.062335000000000036e+03
1.539999999999999980e-01 1.446930000000000160e-01 8.284914999999999807e+00 1.542444999999999879e+02 2.062210000000000036e+03
1.549999999999999989e-01 1.446820000000000050e-01 8.213174999999999670e+00 1.539789999999999850e+02 2.062095000000000255e+03
1.559999999999999998e-01 1.446715000000000084e-01 8.153864999999999696e+00 1.537144999999999868e+02 2.061989999999999782e+03
1.570000000000000007e-01 1.446609999999999840e-01 8.100799999999999557e+00 1.534399999999999977e+02 2.061890000000000327e+03
1.580000000000000016e-01 1.446509999999999740e-01 8.048709999999999809e+00 1.531465000000000032e+02 2.061784999999999854e+03
1.590000000000000024e-01 1.446399999999999908e-01 7.993280000000000385e+00 1.528290000000000077e+02 2.061680000000000291e+03
