# t [s], A [cm^2], U [cm/s], P [cPa], c [cm/s]
1.000000000000000021e-03 5.386440000000000117e-01 5.388200000000002710e-03 1.036899999999999977e+02 1.625644999999999982e+03
2.000000000000000042e-03 5.386349999999999749e-01 -1.370227000000000120e-03 1.036634999999999991e+02 1.625640000000000100e+03
3.000000000000000062e-03 5.386805000000000065e-01 9.194880000000001108e-02 1.037650000000000006e+02 1.625664999999999964e+03
4.000000000000000083e-03 5.387215000000000753e-01 1.865127500000000049e-01 1.038849999999999909e+02 1.625690000000000055e+03
5.000000000000000104e-03 5.387009999999999854e-01 1.627794999999999936e-01 1.038319999999999936e+02 1.625684999999999945e+03
6.000000000000000125e-03 5.386465000000000281e-01 6.516650000000001608e-02 1.036165000000000020e+02 1.625639999999999873e+03
7.000000000000000146e-03 5.385980000000000212e-01 -2.658399999999999652e-02 1.033404999999999916e+02 1.625579999999999927e+03
8.000000000000000167e-03 5.385245000000000726e-01 -1.821364999999999790e-01 1.029364999999999952e+02 1.625490000000000009e+03
9.000000000000001055e-03 5.384014999999999773e-01 -4.586350000000000149e-01 1.023130000000000024e+02 1.625359999999999900e+03
1.000000000000000194e-02 5.382234999999999658e-01 -8.594300000000000272e-01 1.014256000000000029e+02 1.625164999999999964e+03
1.099999999999999936e-02 5.379779999999999562e-01 -1.403340000000000032e+00 1.002114499999999992e+02 1.624900000000000091e+03
1.200000000000000025e-02 5.376540000000000763e-01 -2.094359999999999999e+00 9.861915000000000475e+01 1.624545000000000073e+03
1.300000000000000114e-02 5.372765000000000457e-01 -2.858175000000000132e+00 9.669965000000000543e+01 1.624105000000000018e+03
1.400000000000000203e-02 5.368984999999999452e-01 -3.550319999999999698e+00 9.462495000000001255e+01 1.623619999999999891e+03
1.499999999999999944e-02 5.365699999999999914e-01 -4.026659000000000432e+00 9.260939999999999372e+01 1.623125000000000000e+03
1.600000000000000033e-02 5.363160000000000149e-01 -4.206676550000000070e+00 9.081449999999999534e+01 1.622650000000000091e+03
1.700000000000000122e-02 5.361264999999999503e-01 -4.092349999999999710e+00 8.929695000000000960e+01 1.622230000000000018e+03
1.800000000000000211e-02 5.359705000000000163e-01 -3.749176999999999982e+00 8.801040000000000418e+01 1.621849999999999909e+03
1.900000000000000300e-02 5.358110000000000372e-01 -3.270220999999999822e+00 8.684340000000000259e+01 1.621490000000000009e+03
2.000000000000000042e-02 5.356190000000000673e-01 -2.739722350000000084e+00 8.567054999999999154e+01 1.621134999999999991e+03
2.100000000000000130e-02 5.353824999999999834e-01 -2.207149999999999945e+00 8.439939999999999998e+01 1.620759999999999991e+03
2.200000000000000219e-02 5.351055000000000117e-01 -1.678625000000000256e+00 8.299809999999999377e+01 1.620355000000000018e+03
2.299999999999999961e-02 5.348079999999999501e-01 -1.127310000000000256e+00 8.149459999999999127e+01 1.619930000000000064e+03
2.400000000000000050e-02 5.345104999999999995e-01 -5.166900000000000936e-01 7.995220000000000482e+01 1.619494999999999891e+03
2.500000000000000139e-02 5.342265000000000486e-01 1.748149999999997206e-01 7.843365000000000009e+01 1.619059999999999945e+03
2.600000000000000228e-02 5.339585000000000026e-01 9.376050000000002438e-01 7.697034999999999627e+01 1.618635000000000218e+03
2.700000000000000316e-02 5.336935000000000429e-01 1.727245000000000141e+00 7.554569999999999652e+01 1.618220000000000027e+03
2.800000000000000058e-02 5.334094999999999809e-01 2.472409999999999997e+00 7.409624999999999773e+01 1.617800000000000182e+03
2.900000000000000147e-02 5.330835000000000434e-01 3.090805000000000469e+00 7.252744999999998754e+01 1.617355000000000018e+03
3.000000000000000236e-02 5.326945000000000707e-01 3.508534999999999737e+00 7.073969999999999914e+01 1.616864999999999782e+03
3.099999999999999978e-02 5.322305000000000508e-01 3.678095000000000336e+00 6.865735000000000809e+01 1.616315000000000055e+03
3.200000000000000067e-02 5.316959999999999464e-01 3.590255000000000418e+00 6.625379999999999825e+01 1.615700000000000045e+03
3.300000000000000155e-02 5.311084999999999834e-01 3.276479999999999837e+00 6.356380000000000052e+01 1.615025000000000091e+03
3.400000000000000244e-02 5.304959999999999676e-01 2.801195000000000324e+00 6.068160000000000309e+01 1.614295000000000073e+03
3.500000000000000333e-02 5.298924999999999885e-01 2.247344999999999704e+00 5.774459999999999837e+01 1.613554999999999836e+03
3.600000000000000422e-02 5.293305000000000371e-01 1.700620000000000243e+00 5.491065000000000396e+01 1.612820000000000164e+03
3.700000000000000511e-02 5.288384999999999891e-01 1.236339999999999772e+00 5.233405000000000484e+01 1.612144999999999982e+03
3.799999999999999906e-02 5.284370000000000456e-01 9.114949999999999442e-01 5.014759999999999707e+01 1.611550000000000182e+03
3.899999999999999994e-02 5.281385000000000662e-01 7.626949999999999008e-01 4.845074999999999932e+01 1.611054999999999836e+03
4.000000000000000083e-02 5.279479999999999729e-01 8.083599999999999675e-01 4.730649999999999977e+01 1.610700000000000045e+03
4.100000000000000172e-02 5.278665000000000163e-01 1.053731500000000043e+00 4.674429999999999552e+01 1.610474999999999909e+03
4.200000000000000261e-02 5.278899999999999704e-01 1.496779999999999999e+00 4.676720000000000255e+01 1.610400000000000091e+03
4.300000000000000350e-02 5.280154999999999710e-01 2.133465999999999863e+00 4.736095000000000255e+01 1.610470000000000027e+03
4.400000000000000439e-02 5.282394999999999730e-01 2.961093899999999834e+00 4.850244999999999607e+01 1.610684999999999945e+03
4.499999999999999833e-02 5.285575000000000134e-01 3.979222500000000107e+00 5.016554999999999609e+01 1.611034999999999854e+03
4.599999999999999922e-02 5.289665000000000061e-01 5.188285999999999731e+00 5.232330000000000325e+01 1.611509999999999991e+03
4.700000000000000011e-02 5.294624999999999471e-01 6.586927000000000199e+00 5.494760000000000133e+01 1.612119999999999891e+03
4.800000000000000100e-02 5.300405000000000255e-01 8.168646999999999991e+00 5.800629999999999598e+01 1.612845000000000027e+03
4.900000000000000189e-02 5.306925000000000114e-01 9.919869999999999521e+00 6.146030000000000371e+01 1.613675000000000182e+03
5.000000000000000278e-02 5.314075000000000326e-01 1.181847499999999940e+01 6.526140000000000896e+01 1.614605000000000018e+03
5.100000000000000366e-02 5.321750000000000647e-01 1.383486000000000082e+01 6.935169999999999391e+01 1.615619999999999891e+03
5.200000000000000455e-02 5.329794999999999394e-01 1.593341999999999992e+01 7.366559999999999775e+01 1.616700000000000045e+03
5.300000000000000544e-02 5.338079999999999492e-01 1.807543000000000077e+01 7.813219999999999743e+01 1.617829999999999927e+03
5.399999999999999939e-02 5.346459999999999546e-01 2.022204999999999941e+01 8.268009999999999593e+01 1.619000000000000000e+03
5.500000000000000028e-02 5.354820000000000135e-01 2.233715000000000117e+01 8.724154999999998950e+01 1.620184999999999945e+03
5.600000000000000117e-02 5.363050000000000317e-01 2.438939999999999841e+01 9.175575000000000614e+01 1.621369999999999891e+03
5.700000000000000205e-02 5.371080000000000298e-01 2.635360000000000014e+01 9.617439999999999145e+01 1.622550000000000182e+03
5.800000000000000294e-02 5.378855000000000164e-01 2.821139999999999759e+01 1.004603000000000037e+02 1.623700000000000045e+03
5.900000000000000383e-02 5.386349999999999749e-01 2.995100000000000051e+01 1.045895999999999901e+02 1.624820000000000164e+03
6.000000000000000472e-02 5.393554999999999877e-01 3.156660000000000110e+01 1.085518000000000001e+02 1.625910000000000082e+03
6.099999999999999867e-02 5.400479999999999725e-01 3.305719999999999459e+01 1.123456500000000062e+02 1.626960000000000036e+03
6.199999999999999956e-02 5.407159999999999744e-01 3.442589999999999861e+01 1.159809999999999945e+02 1.627974999999999909e+03
6.300000000000000044e-02 5.413614999999999400e-01 3.567839999999999634e+01 1.194724999999999966e+02 1.628954999999999927e+03
6.400000000000000133e-02 5.419890000000000541e-01 3.682259999999999422e+01 1.228400000000000034e+02 1.629904999999999973e+03
6.500000000000000222e-02 5.426010000000000000e-01 3.786699999999999733e+01 1.261039999999999992e+02 1.630824999999999818e+03
6.600000000000000311e-02 5.432025000000000325e-01 3.882019999999999982e+01 1.292849999999999966e+02 1.631724999999999909e+03
6.700000000000000400e-02 5.437950000000000284e-01 3.968999999999999773e+01 1.324010000000000105e+02 1.632605000000000018e+03
6.800000000000000488e-02 5.443805000000000449e-01 4.048284999999999911e+01 1.354650000000000034e+02 1.633465000000000146e+03
6.900000000000000577e-02 5.449600000000000000e-01 4.120295000000000130e+01 1.384844999999999970e+02 1.634320000000000164e+03
7.000000000000000666e-02 5.455324999999999758e-01 4.185235000000000127e+01 1.414610000000000127e+02 1.635160000000000082e+03
7.100000000000000755e-02 5.460960000000000258e-01 4.243050000000000210e+01 1.443879999999999768e+02 1.635985000000000127e+03
7.200000000000000844e-02 5.466474999999999529e-01 4.293475000000000108e+01 1.472539999999999907e+02 1.636795000000000073e+03
7.300000000000000933e-02 5.471835000000000448e-01 4.336074999999999591e+01 1.500400000000000205e+02 1.637579999999999927e+03
7.399999999999999634e-02 5.476990000000000469e-01 4.370279999999999632e+01 1.527259999999999991e+02 1.638345000000000027e+03
7.499999999999999722e-02 5.481905000000000250e-01 4.395504999999999995e+01 1.552880000000000109e+02 1.639079999999999927e+03
7.599999999999999811e-02 5.486530000000000573e-01 4.411159999999999570e+01 1.577015000000000100e+02 1.639779999999999973e+03
7.699999999999999900e-02 5.490815000000000001e-01 4.416740000000000066e+01 1.599440000000000168e+02 1.640430000000000064e+03
7.799999999999999989e-02 5.494734999999999481e-01 4.411889999999999645e+01 1.619950000000000045e+02 1.641034999999999854e+03
7.900000000000000078e-02 5.498264999999999958e-01 4.396389999999999532e+01 1.638374999999999773e+02 1.641579999999999927e+03
8.000000000000000167e-02 5.501380000000000159e-01 4.370210000000000150e+01 1.654615000000000009e+02 1.642079999999999927e+03
8.100000000000000255e-02 5.504069999999999796e-01 4.333509999999999707e+01 1.668575000000000159e+02 1.642509999999999991e+03
8.200000000000000344e-02 5.506340000000000678e-01 4.286645000000000039e+01 1.680254999999999939e+02 1.642880000000000109e+03
8.300000000000000433e-02 5.508195000000000174e-01 4.230150000000000432e+01 1.689685000000000059e+02 1.643190000000000055e+03
8.400000000000000522e-02 5.509649999999999270e-01 4.164740000000000464e+01 1.696929999999999836e+02 1.643440000000000055e+03
8.500000000000000611e-02 5.510729999999999240e-01 4.091299999999999670e+01 1.702129999999999939e+02 1.643640000000000100e+03
8.600000000000000699e-02 5.511470000000000535e-01 4.010835000000000150e+01 1.705434999999999945e+02 1.643779999999999973e+03
8.700000000000000788e-02 5.511905000000000276e-01 3.924484999999999957e+01 1.707050000000000125e+02 1.643869999999999891e+03
8.800000000000000877e-02 5.512070000000000025e-01 3.833490000000000464e+01 1.707179999999999893e+02 1.643925000000000182e+03
8.899999999999999578e-02 5.512010000000000520e-01 3.739124999999999943e+01 1.706075000000000159e+02 1.643929999999999836e+03
8.999999999999999667e-02 5.511779999999999458e-01 3.642695000000000505e+01 1.703960000000000150e+02 1.643909999999999854e+03
9.099999999999999756e-02 5.511409999999999920e-01 3.545459999999999923e+01 1.701105000000000018e+02 1.643865000000000009e+03
9.199999999999999845e-02 5.510954999999999604e-01 3.448614999999999498e+01 1.697729999999999961e+02 1.643795000000000073e+03
9.299999999999999933e-02 5.510439999999999783e-01 3.353235000000000099e+01 1.694064999999999941e+02 1.643719999999999800e+03
9.400000000000000022e-02 5.509910000000000085e-01 3.260210000000000008e+01 1.690300000000000011e+02 1.643625000000000000e+03
9.500000000000000111e-02 5.509389999999999565e-01 3.170264999999999844e+01 1.686589999999999918e+02 1.643534999999999854e+03
9.600000000000000200e-02 5.508895000000000319e-01 3.083869999999999933e+01 1.683059999999999832e+02 1.643444999999999936e+03
9.700000000000000289e-02 5.508435000000000414e-01 3.001290000000000191e+01 1.679789999999999850e+02 1.643360000000000127e+03
9.800000000000000377e-02 5.508014999999999439e-01 2.922529999999999717e+01 1.676809999999999832e+02 1.643269999999999982e+03
9.900000000000000466e-02 5.507634999999999614e-01 2.847399999999999665e+01 1.674125000000000227e+02 1.643195000000000164e+03
1.000000000000000056e-01 5.507269999999999666e-01 2.775499999999999901e+01 1.671680000000000064e+02 1.643125000000000000e+03
1.010000000000000064e-01 5.506925000000000292e-01 2.706285000000000096e+01 1.669404999999999859e+02 1.643054999999999836e+03
1.020000000000000073e-01 5.506564999999999932e-01 2.639074999999999704e+01 1.667199999999999989e+02 1.642990000000000009e+03
1.030000000000000082e-01 5.506170000000000231e-01 2.573124999999999929e+01 1.664939999999999998e+02 1.642920000000000073e+03
1.040000000000000091e-01 5.505725000000000202e-01 2.507649999999999935e+01 1.662504999999999882e+02 1.642849999999999909e+03
1.050000000000000100e-01 5.505195000000000505e-01 2.441874999999999929e+01 1.659759999999999991e+02 1.642775000000000091e+03
1.059999999999999970e-01 5.504569999999999741e-01 2.375055000000000049e+01 1.656589999999999918e+02 1.642684999999999945e+03
1.069999999999999979e-01 5.503830000000000666e-01 2.306550000000000011e+01 1.652880000000000109e+02 1.642585000000000036e+03
1.079999999999999988e-01 5.502960000000000074e-01 2.235815000000000197e+01 1.648555000000000064e+02 1.642474999999999909e+03
1.089999999999999997e-01 5.501960000000000184e-01 2.162454999999999927e+01 1.643545000000000016e+02 1.642344999999999800e+03
1.100000000000000006e-01 5.500815000000000010e-01 2.086234999999999928e+01 1.637814999999999941e+02 1.642200000000000045e+03
1.110000000000000014e-01 5.499534999999999840e-01 2.007079999999999842e+01 1.631374999999999886e+02 1.642030000000000200e+03
1.120000000000000023e-01 5.498129999999999962e-01 1.925094999999999956e+01 1.624250000000000114e+02 1.641844999999999800e+03
1.130000000000000032e-01 5.496609999999999552e-01 1.840565000000000140e+01 1.616490000000000009e+02 1.641650000000000091e+03
1.140000000000000041e-01 5.495004999999999473e-01 1.753934999999999889e+01 1.608204999999999814e+02 1.641434999999999945e+03
1.150000000000000050e-01 5.493325000000000014e-01 1.665805000000000291e+01 1.599504999999999768e+02 1.641210000000000036e+03
1.160000000000000059e-01 5.491615000000000801e-01 1.576879999999999882e+01 1.590529999999999973e+02 1.640974999999999909e+03
1.170000000000000068e-01 5.489895000000000191e-01 1.487981000000000087e+01 1.581430000000000007e+02 1.640740000000000009e+03
1.180000000000000077e-01 5.488189999999999458e-01 1.399979500000000066e+01 1.572375000000000114e+02 1.640494999999999891e+03
1.190000000000000085e-01 5.486550000000000038e-01 1.313770999999999844e+01 1.563530000000000086e+02 1.640259999999999991e+03
1.200000000000000094e-01 5.484995000000000287e-01 1.230240499999999848e+01 1.555060000000000002e+02 1.640029999999999973e+03
1.209999999999999964e-01 5.483550000000000368e-01 1.150219000000000058e+01 1.547115000000000009e+02 1.639809999999999945e+03
1.219999999999999973e-01 5.482234999999999747e-01 1.074456499999999970e+01 1.539830000000000041e+02 1.639610000000000127e+03
1.229999999999999982e-01 5.481080000000000396e-01 1.003589999999999982e+01 1.533315000000000055e+02 1.639424999999999955e+03
1.239999999999999991e-01 5.480089999999999684e-01 9.381149999999999878e+00 1.527644999999999982e+02 1.639259999999999991e+03
1.250000000000000000e-01 5.479269999999999419e-01 8.783609999999999474e+00 1.522884999999999991e+02 1.639115000000000009e+03
1.260000000000000009e-01 5.478624999999999190e-01 8.245105000000000572e+00 1.519039999999999964e+02 1.638994999999999891e+03
1.270000000000000018e-01 5.478149999999999409e-01 7.765599999999999170e+00 1.516109999999999900e+02 1.638894999999999982e+03
1.280000000000000027e-01 5.477830000000000199e-01 7.343495000000000772e+00 1.514035000000000082e+02 1.638824999999999818e+03
1.290000000000000036e-01 5.477650000000000574e-01 6.975754999999999484e+00 1.512749999999999773e+02 1.638769999999999982e+03
1.300000000000000044e-01 5.477585000000000370e-01 6.658084999999999809e+00 1.512154999999999916e+02 1.638730000000000018e+03
1.310000000000000053e-01 5.477620000000000822e-01 6.385194999999999510e+00 1.512139999999999986e+02 1.638715000000000146e+03
1.320000000000000062e-01 5.477735000000000243e-01 6.151115000000000776e+00 1.512570000000000050e+02 1.638710000000000036e+03
1.330000000000000071e-01 5.477889999999999704e-01 5.949465000000000003e+00 1.513319999999999936e+02 1.638714999999999918e+03
1.340000000000000080e-01 5.478075000000000028e-01 5.773765000000000036e+00 1.514250000000000114e+02 1.638724999999999909e+03
1.350000000000000089e-01 5.478255000000000763e-01 5.617694999999999439e+00 1.515250000000000057e+02 1.638744999999999891e+03
1.360000000000000098e-01 5.478425000000000100e-01 5.475319999999999965e+00 1.516200000000000045e+02 1.638759999999999991e+03
1.370000000000000107e-01 5.478560000000000096e-01 5.341285000000000061e+00 1.516995000000000005e+02 1.638769999999999982e+03
1.380000000000000115e-01 5.478640000000000176e-01 5.210930000000000284e+00 1.517564999999999884e+02 1.638784999999999854e+03
1.390000000000000124e-01 5.478669999999999929e-01 5.080379999999999896e+00 1.517845000000000084e+02 1.638789999999999964e+03
1.400000000000000133e-01 5.478625000000000300e-01 4.946604999999999919e+00 1.517785000000000082e+02 1.638784999999999854e+03
1.410000000000000142e-01 5.478524999999999645e-01 4.807404999999999262e+00 1.517375000000000114e+02 1.638779999999999973e+03
1.420000000000000151e-01 5.478354999999999198e-01 4.661360000000000170e+00 1.516589999999999918e+02 1.638755000000000109e+03
1.430000000000000160e-01 5.478125000000000355e-01 4.507814999999999905e+00 1.515459999999999923e+02 1.638730000000000018e+03
1.440000000000000169e-01 5.477824999999999500e-01 4.346750000000000114e+00 1.513990000000000009e+02 1.638694999999999936e+03
1.450000000000000178e-01 5.477484999999999715e-01 4.178729999999999833e+00 1.512219999999999800e+02 1.638654999999999973e+03
1.459999999999999909e-01 5.477094999999999603e-01 4.004780000000000229e+00 1.510194999999999936e+02 1.638599999999999909e+03
1.469999999999999918e-01 5.476670000000000149e-01 3.826289999999999747e+00 1.507939999999999827e+02 1.638545000000000073e+03
1.479999999999999927e-01 5.476214999999999833e-01 3.644899999999999807e+00 1.505519999999999925e+02 1.638480000000000018e+03
1.489999999999999936e-01 5.475740000000000052e-01 3.462394999999999889e+00 1.502969999999999970e+02 1.638414999999999964e+03
1.499999999999999944e-01 5.475259999999999572e-01 3.280619999999999870e+00 1.500335000000000036e+02 1.638349999999999909e+03
1.509999999999999953e-01 5.474769999999999914e-01 3.101374999999999993e+00 1.497655000000000030e+02 1.638275000000000091e+03
1.519999999999999962e-01 5.474280000000000257e-01 2.926350000000000229e+00 1.494964999999999975e+02 1.638204999999999927e+03
1.529999999999999971e-01 5.473795000000000188e-01 2.757044999999999746e+00 1.492289999999999850e+02 1.638134999999999991e+03
1.539999999999999980e-01 5.473320000000000407e-01 2.594700000000000006e+00 1.489654999999999916e+02 1.638065000000000055e+03
1.549999999999999989e-01 5.472854999999999803e-01 2.440335000000000143e+00 1.487069999999999936e+02 1.637994999999999891e+03
1.559999999999999998e-01 5.472400000000000597e-01 2.294659999999999922e+00 1.484535000000000196e+02 1.637929999999999836e+03
1.570000000000000007e-01 5.471960000000000157e-01 2.158100000000000129e+00 1.482065000000000055e+02 1.637860000000000127e+03
1.580000000000000016e-01 5.471525000000000416e-01 2.030854999999999855e+00 1.479650000000000034e+02 1.637795000000000073e+03
1.590000000000000024e-01 5.471099999999999852e-01 1.912868999999999930e+00 1.477280000000000086e+02 1.637730000000000018e+03
