# t [s], A [cm^2], U [cm/s], P [cPa], c [cm/s]
1.000000000000000021e-03 6.605320000000000080e-01 5.410000000000005083e-03 9.791504999999999370e+01 1.762329999999999927e+03
2.000000000000000042e-03 6.605259999999999465e-01 7.791250000000000432e-03 9.788790000000000191e+01 1.762320000000000164e+03
3.000000000000000062e-03 6.605995000000000061e-01 1.505924000000000151e-01 9.805700000000000216e+01 1.762355000000000018e+03
4.000000000000000083e-03 6.606265000000000054e-01 2.253435000000000299e-01 9.814654999999999063e+01 1.762380000000000109e+03
5.000000000000000104e-03 6.605600000000000360e-01 1.313394999999999979e-01 9.794245000000000800e+01 1.762335000000000036e+03
6.000000000000000125e-03 6.604855000000000587e-01 8.679500000000006654e-03 9.759149999999999636e+01 1.762264999999999873e+03
7.000000000000000146e-03 6.603944999999999954e-01 -1.574150000000000826e-01 9.710800000000000409e+01 1.762160000000000082e+03
8.000000000000000167e-03 6.602284999999999959e-01 -4.849749999999999339e-01 9.632214999999999350e+01 1.761990000000000009e+03
9.000000000000001055e-03 6.599829999999999863e-01 -9.832350000000000811e-01 9.516319999999998913e+01 1.761744999999999891e+03
1.000000000000000194e-02 6.596370000000000289e-01 -1.674395000000000078e+00 9.354590000000000316e+01 1.761394999999999982e+03
1.099999999999999936e-02 6.591724999999999390e-01 -2.573315000000000019e+00 9.138515000000001010e+01 1.760914999999999964e+03
1.200000000000000025e-02 6.586345000000000116e-01 -3.564630000000000187e+00 8.878079999999999927e+01 1.760329999999999927e+03
1.300000000000000114e-02 6.581220000000000958e-01 -4.416603499999999904e+00 8.605304999999999893e+01 1.759684999999999945e+03
1.400000000000000203e-02 6.577215000000000700e-01 -4.918536500000000089e+00 8.357019999999999982e+01 1.759075000000000045e+03
1.499999999999999944e-02 6.574549999999999006e-01 -4.988370000000000637e+00 8.155849999999999511e+01 1.758539999999999964e+03
1.600000000000000033e-02 6.572845000000000493e-01 -4.684775000000000134e+00 8.002665000000000362e+01 1.758094999999999800e+03
1.700000000000000122e-02 6.571405000000000163e-01 -4.152854999999999741e+00 7.880525000000000091e+01 1.757710000000000036e+03
1.800000000000000211e-02 6.569570000000000132e-01 -3.549075000000000202e+00 7.764939999999999998e+01 1.757349999999999909e+03
1.900000000000000300e-02 6.566974999999999341e-01 -2.977599000000000107e+00 7.635089999999999577e+01 1.756960000000000036e+03
2.000000000000000042e-02 6.563654999999999351e-01 -2.460473000000000354e+00 7.481694999999999141e+01 1.756534999999999854e+03
2.100000000000000130e-02 6.559930000000000483e-01 -1.951445000000000096e+00 7.308294999999999675e+01 1.756065000000000055e+03
2.200000000000000219e-02 6.556195000000000217e-01 -1.381789999999999852e+00 7.126144999999999641e+01 1.755574999999999818e+03
2.299999999999999961e-02 6.552709999999999368e-01 -7.106049999999999311e-01 6.946389999999999532e+01 1.755079999999999927e+03
2.400000000000000050e-02 6.549445000000000405e-01 4.434499999999985675e-02 6.773420000000000130e+01 1.754599999999999909e+03
2.500000000000000139e-02 6.546125000000000416e-01 8.034099999999999575e-01 6.601949999999999363e+01 1.754114999999999782e+03
2.600000000000000228e-02 6.542314999999999658e-01 1.445250000000000146e+00 6.418044999999999334e+01 1.753605000000000018e+03
2.700000000000000316e-02 6.537539999999999463e-01 1.840969999999999551e+00 6.203389999999999560e+01 1.753039999999999964e+03
2.800000000000000058e-02 6.531504999999999672e-01 1.891870000000000385e+00 5.941285000000000593e+01 1.752375000000000000e+03
2.900000000000000147e-02 6.524140000000000494e-01 1.559479999999999755e+00 5.622565000000000168e+01 1.751589999999999918e+03
3.000000000000000236e-02 6.515684999999999949e-01 8.777000000000008129e-01 5.249484999999999957e+01 1.750690000000000055e+03
3.099999999999999978e-02 6.506600000000000161e-01 -5.670000000000019469e-02 4.836144999999999783e+01 1.749690000000000055e+03
3.200000000000000067e-02 6.497494999999999798e-01 -1.110294999999999810e+00 4.405630000000000024e+01 1.748634999999999991e+03
3.300000000000000155e-02 6.488964999999999872e-01 -2.144200000000000106e+00 3.985155000000000314e+01 1.747590000000000146e+03
3.400000000000000244e-02 6.481500000000000039e-01 -3.039554999999999563e+00 3.601104999999999734e+01 1.746610000000000127e+03
3.500000000000000333e-02 6.475429999999999797e-01 -3.712155000000000094e+00 3.275189999999999912e+01 1.745744999999999891e+03
3.600000000000000422e-02 6.470930000000000293e-01 -4.115075000000000038e+00 3.022285000000000110e+01 1.745039999999999964e+03
3.700000000000000511e-02 6.468034999999999757e-01 -4.233108999999999789e+00 2.850030000000000285e+01 1.744519999999999982e+03
3.799999999999999906e-02 6.466680000000000206e-01 -4.072210000000000107e+00 2.759799999999999898e+01 1.744190000000000055e+03
3.899999999999999994e-02 6.466769999999999463e-01 -3.647854999999999848e+00 2.748485000000000156e+01 1.744054999999999836e+03
4.000000000000000083e-02 6.468184999999999629e-01 -2.975867999999999736e+00 2.810560000000000258e+01 1.744105000000000018e+03
4.100000000000000172e-02 6.470830000000000748e-01 -2.067830000000000279e+00 2.939690000000000225e+01 1.744329999999999927e+03
4.200000000000000261e-02 6.474604999999999944e-01 -9.315250000000001585e-01 3.129660000000000153e+01 1.744715000000000146e+03
4.300000000000000350e-02 6.479440000000000754e-01 4.249700000000000699e-01 3.374524999999999864e+01 1.745244999999999891e+03
4.400000000000000439e-02 6.485214999999999730e-01 1.987814999999999888e+00 3.668209999999999837e+01 1.745905000000000200e+03
4.499999999999999833e-02 6.491799999999999793e-01 3.733119999999999994e+00 4.003934999999999889e+01 1.746684999999999945e+03
4.599999999999999922e-02 6.499025000000000496e-01 5.625225000000000364e+00 4.373810000000000286e+01 1.747554999999999836e+03
4.700000000000000011e-02 6.506689999999999419e-01 7.618305000000000327e+00 4.768755000000000166e+01 1.748500000000000000e+03
4.800000000000000100e-02 6.514584999999999404e-01 9.659994999999998555e+00 5.178865000000000407e+01 1.749500000000000000e+03
4.900000000000000189e-02 6.522499999999999964e-01 1.169667999999999886e+01 5.594039999999999679e+01 1.750525000000000091e+03
5.000000000000000278e-02 6.530255000000000365e-01 1.367880000000000074e+01 6.004800000000000182e+01 1.751559999999999945e+03
5.100000000000000366e-02 6.537709999999999910e-01 1.556500499999999931e+01 6.403079999999999927e+01 1.752575000000000045e+03
5.200000000000000455e-02 6.544769999999999754e-01 1.732499999999999929e+01 6.782815000000000794e+01 1.753565000000000055e+03
5.300000000000000544e-02 6.551389999999999159e-01 1.894055000000000177e+01 7.140274999999999750e+01 1.754505000000000109e+03
5.399999999999999939e-02 6.557574999999999932e-01 2.040480000000000160e+01 7.474115000000000464e+01 1.755400000000000091e+03
5.500000000000000028e-02 6.563369999999999482e-01 2.172095000000000198e+01 7.785195000000000221e+01 1.756244999999999891e+03
5.600000000000000117e-02 6.568834999999999535e-01 2.289979999999999905e+01 8.076165000000000305e+01 1.757039999999999964e+03
5.700000000000000205e-02 6.574065000000000047e-01 2.395779999999999887e+01 8.351040000000000418e+01 1.757800000000000182e+03
5.800000000000000294e-02 6.579150000000000276e-01 2.491485000000000127e+01 8.614644999999998731e+01 1.758525000000000091e+03
5.900000000000000383e-02 6.584185000000000176e-01 2.579234999999999900e+01 8.872149999999999181e+01 1.759230000000000018e+03
6.000000000000000472e-02 6.589274999999999993e-01 2.661164999999999736e+01 9.128605000000000302e+01 1.759934999999999945e+03
6.099999999999999867e-02 6.594489999999999519e-01 2.739209999999999923e+01 9.388474999999999682e+01 1.760639999999999873e+03
6.199999999999999956e-02 6.599880000000000191e-01 2.814970000000000283e+01 9.655330000000000723e+01 1.761360000000000127e+03
6.300000000000000044e-02 6.605479999999999130e-01 2.889560000000000173e+01 9.931405000000000882e+01 1.762099999999999909e+03
6.400000000000000133e-02 6.611295000000000366e-01 2.963534999999999897e+01 1.021750499999999988e+02 1.762855000000000018e+03
6.500000000000000222e-02 6.617284999999999417e-01 3.036829999999999785e+01 1.051297500000000014e+02 1.763634999999999991e+03
6.600000000000000311e-02 6.623404999999999987e-01 3.108785000000000309e+01 1.081554999999999893e+02 1.764434999999999945e+03
6.700000000000000400e-02 6.629564999999999486e-01 3.178255000000000052e+01 1.112175000000000011e+02 1.765244999999999891e+03
6.800000000000000488e-02 6.635674999999999768e-01 3.243699999999999761e+01 1.142694999999999936e+02 1.766059999999999945e+03
6.900000000000000577e-02 6.641624999999999890e-01 3.303370000000000317e+01 1.172620000000000005e+02 1.766855000000000018e+03
7.000000000000000666e-02 6.647319999999999895e-01 3.355474999999999852e+01 1.201405000000000030e+02 1.767630000000000109e+03
7.100000000000000755e-02 6.652654999999999541e-01 3.398300000000000409e+01 1.228539999999999992e+02 1.768369999999999891e+03
7.200000000000000844e-02 6.657554999999999445e-01 3.430365000000000464e+01 1.253564999999999969e+02 1.769054999999999836e+03
7.300000000000000933e-02 6.661945000000000228e-01 3.450515000000000043e+01 1.276115000000000066e+02 1.769690000000000055e+03
7.399999999999999634e-02 6.665794999999999915e-01 3.457970000000000255e+01 1.295900000000000034e+02 1.770255000000000109e+03
7.499999999999999722e-02 6.669069999999999165e-01 3.452379999999999427e+01 1.312754999999999939e+02 1.770750000000000000e+03
7.599999999999999811e-02 6.671770000000000200e-01 3.433830000000000382e+01 1.326624999999999943e+02 1.771164999999999964e+03
7.699999999999999900e-02 6.673915000000000264e-01 3.402835000000000321e+01 1.337565000000000168e+02 1.771505000000000109e+03
7.799999999999999989e-02 6.675534999999999108e-01 3.360304999999999609e+01 1.345734999999999957e+02 1.771780000000000200e+03
7.900000000000000078e-02 6.676684999999999981e-01 3.307520000000000238e+01 1.351374999999999886e+02 1.771980000000000018e+03
8.000000000000000167e-02 6.677435000000000453e-01 3.246030000000000371e+01 1.354800000000000182e+02 1.772125000000000000e+03
8.100000000000000255e-02 6.677850000000000730e-01 3.177615000000000123e+01 1.356384999999999934e+02 1.772215000000000146e+03
8.200000000000000344e-02 6.678005000000000191e-01 3.104194999999999993e+01 1.356514999999999986e+02 1.772259999999999991e+03
8.300000000000000433e-02 6.677990000000000315e-01 3.027710000000000079e+01 1.355610000000000070e+02 1.772275000000000091e+03
8.400000000000000522e-02 6.677859999999999907e-01 2.950059999999999860e+01 1.354064999999999941e+02 1.772264999999999873e+03
8.500000000000000611e-02 6.677705000000000446e-01 2.872979999999999734e+01 1.352249999999999943e+02 1.772244999999999891e+03
8.600000000000000699e-02 6.677560000000000162e-01 2.797974999999999923e+01 1.350469999999999970e+02 1.772210000000000036e+03
8.700000000000000788e-02 6.677480000000000082e-01 2.726250000000000284e+01 1.348990000000000009e+02 1.772184999999999945e+03
8.800000000000000877e-02 6.677489999999999259e-01 2.658639999999999759e+01 1.347980000000000018e+02 1.772164999999999964e+03
8.899999999999999578e-02 6.677604999999999791e-01 2.595599999999999952e+01 1.347545000000000073e+02 1.772150000000000091e+03
8.999999999999999667e-02 6.677809999999999580e-01 2.537219999999999942e+01 1.347690000000000055e+02 1.772155000000000200e+03
9.099999999999999756e-02 6.678109999999999324e-01 2.483220000000000027e+01 1.348369999999999891e+02 1.772170000000000073e+03
9.199999999999999845e-02 6.678450000000000220e-01 2.433019999999999783e+01 1.349454999999999814e+02 1.772190000000000055e+03
9.299999999999999933e-02 6.678815000000000168e-01 2.385764999999999958e+01 1.350760000000000218e+02 1.772214999999999918e+03
9.400000000000000022e-02 6.679144999999999666e-01 2.340424999999999756e+01 1.352074999999999818e+02 1.772240000000000009e+03
9.500000000000000111e-02 6.679399999999999782e-01 2.295855000000000246e+01 1.353149999999999977e+02 1.772269999999999982e+03
9.600000000000000200e-02 6.679524999999999491e-01 2.250880000000000081e+01 1.353740000000000236e+02 1.772279999999999973e+03
9.700000000000000289e-02 6.679490000000000149e-01 2.204354999999999976e+01 1.353605000000000018e+02 1.772279999999999973e+03
9.800000000000000377e-02 6.679245000000000321e-01 2.155259999999999820e+01 1.352535000000000025e+02 1.772259999999999991e+03
9.900000000000000466e-02 6.678770000000000540e-01 2.102740000000000009e+01 1.350355000000000132e+02 1.772210000000000036e+03
1.000000000000000056e-01 6.678040000000000642e-01 2.046195000000000164e+01 1.346940000000000168e+02 1.772134999999999991e+03
1.010000000000000064e-01 6.677049999999999930e-01 1.985300000000000153e+01 1.342239999999999895e+02 1.772019999999999982e+03
1.020000000000000073e-01 6.675809999999999800e-01 1.920015000000000072e+01 1.336254999999999882e+02 1.771880000000000109e+03
1.030000000000000082e-01 6.674335000000000129e-01 1.850639999999999930e+01 1.329050000000000011e+02 1.771710000000000036e+03
1.040000000000000091e-01 6.672664999999999846e-01 1.777765000000000128e+01 1.320759999999999934e+02 1.771509999999999991e+03
1.050000000000000100e-01 6.670830000000000926e-01 1.702250000000000085e+01 1.311589999999999918e+02 1.771284999999999854e+03
1.059999999999999970e-01 6.668895000000000239e-01 1.625189999999999912e+01 1.301759999999999877e+02 1.771045000000000073e+03
1.069999999999999979e-01 6.666900000000000048e-01 1.547855000000000203e+01 1.291564999999999941e+02 1.770789999999999964e+03
1.079999999999999988e-01 6.664919999999999733e-01 1.471608499999999964e+01 1.281289999999999907e+02 1.770530000000000200e+03
1.089999999999999997e-01 6.663004999999999622e-01 1.397847000000000151e+01 1.271250000000000000e+02 1.770269999999999982e+03
1.100000000000000006e-01 6.661215000000000330e-01 1.327907000000000082e+01 1.261730000000000018e+02 1.770019999999999982e+03
1.110000000000000014e-01 6.659589999999999677e-01 1.263023000000000096e+01 1.252994999999999948e+02 1.769785000000000082e+03
1.120000000000000023e-01 6.658185000000000908e-01 1.204230000000000089e+01 1.245269999999999868e+02 1.769574999999999818e+03
1.130000000000000032e-01 6.657014999999999461e-01 1.152338999999999913e+01 1.238735000000000070e+02 1.769389999999999873e+03
1.140000000000000041e-01 6.656100000000000350e-01 1.107892500000000169e+01 1.233504999999999967e+02 1.769240000000000009e+03
1.150000000000000050e-01 6.655450000000000532e-01 1.071142000000000039e+01 1.229634999999999962e+02 1.769114999999999782e+03
1.160000000000000059e-01 6.655054999999999721e-01 1.042061999999999955e+01 1.227115000000000009e+02 1.769025000000000091e+03
1.170000000000000068e-01 6.654904999999999848e-01 1.020350000000000001e+01 1.225879999999999939e+02 1.768969999999999800e+03
1.180000000000000077e-01 6.654964999999999353e-01 1.005470000000000041e+01 1.225829999999999984e+02 1.768945000000000164e+03
1.190000000000000085e-01 6.655214999999999881e-01 9.966969999999999885e+00 1.226790000000000020e+02 1.768945000000000164e+03
1.200000000000000094e-01 6.655599999999999294e-01 9.931560000000001054e+00 1.228594999999999970e+02 1.768970000000000027e+03
1.209999999999999964e-01 6.656090000000000062e-01 9.938750000000000639e+00 1.231040000000000134e+02 1.769009999999999991e+03
1.219999999999999973e-01 6.656655000000000211e-01 9.978584999999998928e+00 1.233915000000000077e+02 1.769069999999999936e+03
1.229999999999999982e-01 6.657245000000000523e-01 1.004102499999999942e+01 1.237030000000000030e+02 1.769139999999999873e+03
1.239999999999999991e-01 6.657830000000000137e-01 1.011670000000000158e+01 1.240194999999999936e+02 1.769210000000000036e+03
1.250000000000000000e-01 6.658379999999999299e-01 1.019692000000000043e+01 1.243259999999999934e+02 1.769280000000000200e+03
1.260000000000000009e-01 6.658880000000000354e-01 1.027430000000000021e+01 1.246090000000000089e+02 1.769349999999999909e+03
1.270000000000000018e-01 6.659304999999999808e-01 1.034261499999999856e+01 1.248584999999999923e+02 1.769409999999999854e+03
1.280000000000000027e-01 6.659660000000000579e-01 1.039716500000000110e+01 1.250674999999999955e+02 1.769465000000000146e+03
1.290000000000000036e-01 6.659924999999999873e-01 1.043457499999999882e+01 1.252330000000000041e+02 1.769505000000000109e+03
1.300000000000000044e-01 6.660105000000000608e-01 1.045297499999999857e+01 1.253550000000000040e+02 1.769545000000000073e+03
1.310000000000000053e-01 6.660215000000000440e-01 1.045180500000000023e+01 1.254350000000000023e+02 1.769570000000000164e+03
1.320000000000000062e-01 6.660249999999999782e-01 1.043163000000000018e+01 1.254770000000000039e+02 1.769585000000000036e+03
1.330000000000000071e-01 6.660239999999999494e-01 1.039418500000000023e+01 1.254875000000000114e+02 1.769594999999999800e+03
1.340000000000000080e-01 6.660190000000000277e-01 1.034189999999999898e+01 1.254739999999999895e+02 1.769595000000000027e+03
1.350000000000000089e-01 6.660110000000000197e-01 1.027793000000000134e+01 1.254449999999999932e+02 1.769595000000000027e+03
1.360000000000000098e-01 6.660034999999999705e-01 1.020578000000000074e+01 1.254074999999999989e+02 1.769590000000000146e+03
1.370000000000000107e-01 6.659964999999999913e-01 1.012912499999999838e+01 1.253709999999999951e+02 1.769579999999999927e+03
1.380000000000000115e-01 6.659919999999999174e-01 1.005170000000000030e+01 1.253419999999999987e+02 1.769579999999999927e+03
1.390000000000000124e-01 6.659904999999999298e-01 9.976704999999999046e+00 1.253284999999999911e+02 1.769575000000000045e+03
1.400000000000000133e-01 6.659935000000000160e-01 9.907160000000001077e+00 1.253340000000000032e+02 1.769579999999999927e+03
1.410000000000000142e-01 6.660014999999999130e-01 9.845214999999999606e+00 1.253625000000000114e+02 1.769590000000000146e+03
1.420000000000000151e-01 6.660150000000000237e-01 9.792455000000000354e+00 1.254170000000000016e+02 1.769599999999999909e+03
1.430000000000000160e-01 6.660329999999999862e-01 9.749700000000000699e+00 1.254959999999999951e+02 1.769619999999999891e+03
1.440000000000000169e-01 6.660559999999999814e-01 9.716954999999998677e+00 1.255985000000000014e+02 1.769644999999999982e+03
1.450000000000000178e-01 6.660825000000000218e-01 9.693599999999999994e+00 1.257224999999999966e+02 1.769670000000000073e+03
1.459999999999999909e-01 6.661120000000000374e-01 9.678470000000000795e+00 1.258619999999999948e+02 1.769704999999999927e+03
1.469999999999999918e-01 6.661429999999999296e-01 9.669950000000000045e+00 1.260139999999999958e+02 1.769744999999999891e+03
1.479999999999999927e-01 6.661749999999999616e-01 9.666084999999998928e+00 1.261709999999999923e+02 1.769784999999999854e+03
1.489999999999999936e-01 6.662069999999999936e-01 9.664975000000000094e+00 1.263294999999999959e+02 1.769825000000000045e+03
1.499999999999999944e-01 6.662369999999999681e-01 9.664735000000000298e+00 1.264840000000000089e+02 1.769865000000000009e+03
1.509999999999999953e-01 6.662660000000000249e-01 9.663714999999999833e+00 1.266295000000000073e+02 1.769904999999999973e+03
1.519999999999999962e-01 6.662915000000000365e-01 9.660524999999999807e+00 1.267630000000000052e+02 1.769940000000000055e+03
1.529999999999999971e-01 6.663149999999999906e-01 9.654234999999999900e+00 1.268834999999999980e+02 1.769970000000000027e+03
1.539999999999999980e-01 6.663350000000000106e-01 9.644339999999999691e+00 1.269890000000000043e+02 1.770000000000000000e+03
1.549999999999999989e-01 6.663520000000000554e-01 9.630745000000000999e+00 1.270805000000000007e+02 1.770025000000000091e+03
1.559999999999999998e-01 6.663675000000000015e-01 9.613839999999999719e+00 1.271589999999999918e+02 1.770049999999999955e+03
1.570000000000000007e-01 6.663799999999999724e-01 9.594359999999999999e+00 1.272265000000000015e+02 1.770069999999999936e+03
1.580000000000000016e-01 6.663924999999999432e-01 9.573319999999998942e+00 1.272874999999999943e+02 1.770079999999999927e+03
1.590000000000000024e-01 6.664039999999999964e-01 9.552019999999998845e+00 1.273454999999999870e+02 1.770099999999999909e+03
