# t [s], A [cm^2], U [cm/s], P [cPa], c [cm/s]
1.000000000000000021e-03 1.563974999999999949e-01 3.732580000000000342e-01 8.805455000000000609e+01 1.754775000000000091e+03
2.000000000000000042e-03 1.563599999999999990e-01 1.950793500000000069e+00 8.509385000000000332e+01 1.754460000000000036e+03
3.000000000000000062e-03 1.562414999999999776e-01 3.840030999999999750e+00 8.121449999999998681e+01 1.753514999999999873e+03
4.000000000000000083e-03 1.560715000000000019e-01 5.918786500000000395e+00 7.703604999999998881e+01 1.752174999999999955e+03
5.000000000000000104e-03 1.558820000000000205e-01 8.135395000000000820e+00 7.328315000000000623e+01 1.750700000000000045e+03
6.000000000000000125e-03 1.556950000000000001e-01 1.035845999999999911e+01 7.023689999999999145e+01 1.749250000000000000e+03
7.000000000000000146e-03 1.555179999999999896e-01 1.240789000000000009e+01 6.774179999999999779e+01 1.747894999999999982e+03
8.000000000000000167e-03 1.553530000000000189e-01 1.417535499999999971e+01 6.554359999999999786e+01 1.746654999999999973e+03
9.000000000000001055e-03 1.552034999999999942e-01 1.567014999999999958e+01 6.358689999999999998e+01 1.745550000000000182e+03
1.000000000000000194e-02 1.550725000000000020e-01 1.693475000000000108e+01 6.193779999999999575e+01 1.744589999999999918e+03
1.099999999999999936e-02 1.549619999999999886e-01 1.798760000000000048e+01 6.060519999999999641e+01 1.743784999999999854e+03
1.200000000000000025e-02 1.548694999999999933e-01 1.884025000000000105e+01 5.954495000000000005e+01 1.743125000000000000e+03
1.300000000000000114e-02 1.547939999999999872e-01 1.951085000000000136e+01 5.871739999999999782e+01 1.742589999999999918e+03
1.400000000000000203e-02 1.547340000000000104e-01 2.001249999999999929e+01 5.807724999999999937e+01 1.742174999999999955e+03
1.499999999999999944e-02 1.546859999999999902e-01 2.035629999999999740e+01 5.756369999999999720e+01 1.741845000000000027e+03
1.600000000000000033e-02 1.546474999999999933e-01 2.057764999999999844e+01 5.715520000000000067e+01 1.741589999999999918e+03
1.700000000000000122e-02 1.546190000000000064e-01 2.075650000000000261e+01 5.694095000000000084e+01 1.741409999999999854e+03
1.800000000000000211e-02 1.546065000000000078e-01 2.100099999999999767e+01 5.711860000000000070e+01 1.741335000000000036e+03
1.900000000000000300e-02 1.546155000000000168e-01 2.140184999999999960e+01 5.789705000000000013e+01 1.741414999999999964e+03
2.000000000000000042e-02 1.546520000000000117e-01 2.198745000000000260e+01 5.936750000000000682e+01 1.741684999999999945e+03
2.100000000000000130e-02 1.547144999999999770e-01 2.270560000000000045e+01 6.142119999999999891e+01 1.742144999999999982e+03
2.200000000000000219e-02 1.547970000000000179e-01 2.343890000000000029e+01 6.375719999999999743e+01 1.742744999999999891e+03
2.299999999999999961e-02 1.548869999999999969e-01 2.404350000000000165e+01 6.596769999999999357e+01 1.743414999999999964e+03
2.400000000000000050e-02 1.549710000000000254e-01 2.439399999999999835e+01 6.766049999999999898e+01 1.744034999999999854e+03
2.500000000000000139e-02 1.550365000000000215e-01 2.441854999999999976e+01 6.857034999999999059e+01 1.744534999999999854e+03
2.600000000000000228e-02 1.550745000000000040e-01 2.411455000000000126e+01 6.862424999999998931e+01 1.744844999999999800e+03
2.700000000000000316e-02 1.550854999999999873e-01 2.354224999999999923e+01 6.794364999999999100e+01 1.744945000000000164e+03
2.800000000000000058e-02 1.550725000000000020e-01 2.280089999999999861e+01 6.678960000000000719e+01 1.744869999999999891e+03
2.900000000000000147e-02 1.550429999999999864e-01 2.199669999999999703e+01 6.547374999999999545e+01 1.744670000000000073e+03
3.000000000000000236e-02 1.550064999999999915e-01 2.121430000000000149e+01 6.426760000000000161e+01 1.744409999999999854e+03
3.099999999999999978e-02 1.549719999999999986e-01 2.049990000000000023e+01 6.333865000000000123e+01 1.744160000000000082e+03
3.200000000000000067e-02 1.549420000000000242e-01 1.985835000000000150e+01 6.272679999999999723e+01 1.743945000000000164e+03
3.300000000000000155e-02 1.549200000000000021e-01 1.926245000000000118e+01 6.236159999999999570e+01 1.743779999999999973e+03
3.400000000000000244e-02 1.549024999999999985e-01 1.866989999999999839e+01 6.210689999999999600e+01 1.743655000000000200e+03
3.500000000000000333e-02 1.548875000000000113e-01 1.804175000000000040e+01 6.181615000000000038e+01 1.743534999999999854e+03
3.600000000000000422e-02 1.548690000000000067e-01 1.735784999999999911e+01 6.138304999999999723e+01 1.743404999999999973e+03
3.700000000000000511e-02 1.548459999999999837e-01 1.662525000000000119e+01 6.077570000000000050e+01 1.743250000000000000e+03
3.799999999999999906e-02 1.548185000000000255e-01 1.587930000000000064e+01 6.004670000000000130e+01 1.743049999999999955e+03
3.899999999999999994e-02 1.547884999999999955e-01 1.517664999999999864e+01 5.932085000000000008e+01 1.742829999999999927e+03
4.000000000000000083e-02 1.547609999999999819e-01 1.458190000000000097e+01 5.876205000000000211e+01 1.742630000000000109e+03
4.100000000000000172e-02 1.547415000000000040e-01 1.415299999999999869e+01 5.853125000000000000e+01 1.742485000000000127e+03
4.200000000000000261e-02 1.547350000000000114e-01 1.392675000000000018e+01 5.874445000000000050e+01 1.742424999999999955e+03
4.300000000000000350e-02 1.547449999999999937e-01 1.391015000000000157e+01 5.944245000000000090e+01 1.742490000000000009e+03
4.400000000000000439e-02 1.547724999999999795e-01 1.407734999999999914e+01 6.057779999999999632e+01 1.742674999999999955e+03
4.499999999999999833e-02 1.548160000000000092e-01 1.437354999999999983e+01 6.202100000000000080e+01 1.742984999999999900e+03
4.599999999999999922e-02 1.548700000000000077e-01 1.472330000000000005e+01 6.358189999999999742e+01 1.743369999999999891e+03
4.700000000000000011e-02 1.549289999999999834e-01 1.504224999999999923e+01 6.504124999999999091e+01 1.743789999999999964e+03
4.800000000000000100e-02 1.549834999999999963e-01 1.524804999999999922e+01 6.618425000000000580e+01 1.744184999999999945e+03
4.900000000000000189e-02 1.550265000000000115e-01 1.527064999999999984e+01 6.682990000000000919e+01 1.744509999999999991e+03
5.000000000000000278e-02 1.550515000000000088e-01 1.505904999999999916e+01 6.685184999999999889e+01 1.744695000000000164e+03
5.100000000000000366e-02 1.550535000000000108e-01 1.458469999999999978e+01 6.618874999999999886e+01 1.744714999999999918e+03
5.200000000000000455e-02 1.550290000000000001e-01 1.384159999999999968e+01 6.484359999999999502e+01 1.744549999999999955e+03
5.300000000000000544e-02 1.549780000000000046e-01 1.284379999999999988e+01 6.287514999999999787e+01 1.744184999999999945e+03
5.399999999999999939e-02 1.549019999999999841e-01 1.162118500000000054e+01 6.038354999999999961e+01 1.743634999999999991e+03
5.500000000000000028e-02 1.548039999999999972e-01 1.021472500000000139e+01 5.749415000000000475e+01 1.742929999999999836e+03
5.600000000000000117e-02 1.546879999999999922e-01 8.672074999999999534e+00 5.434250000000000114e+01 1.742090000000000146e+03
5.700000000000000205e-02 1.545584999999999876e-01 7.043784999999999741e+00 5.106210000000000093e+01 1.741150000000000091e+03
5.800000000000000294e-02 1.544214999999999893e-01 5.380970000000000475e+00 4.777740000000000009e+01 1.740150000000000091e+03
5.900000000000000383e-02 1.542815000000000158e-01 3.733649999999999913e+00 4.459960000000000235e+01 1.739125000000000000e+03
6.000000000000000472e-02 1.541430000000000022e-01 2.150180000000000202e+00 4.162704999999999700e+01 1.738115000000000009e+03
6.099999999999999867e-02 1.540104999999999946e-01 6.769800000000001372e-01 3.894650000000000034e+01 1.737144999999999982e+03
6.199999999999999956e-02 1.538879999999999970e-01 -6.416749999999999954e-01 3.663550000000000040e+01 1.736250000000000000e+03
6.300000000000000044e-02 1.537800000000000000e-01 -1.763989999999999947e+00 3.476415000000000077e+01 1.735449999999999818e+03
6.400000000000000133e-02 1.536890000000000200e-01 -2.651501500000000178e+00 3.339560000000000173e+01 1.734779999999999973e+03
6.500000000000000222e-02 1.536184999999999912e-01 -3.270154999999999923e+00 3.258514999999999873e+01 1.734250000000000000e+03
6.600000000000000311e-02 1.535714999999999997e-01 -3.591820000000000235e+00 3.237774999999999892e+01 1.733894999999999982e+03
6.700000000000000400e-02 1.535495000000000054e-01 -3.595825000000000049e+00 3.280499999999999972e+01 1.733715000000000146e+03
6.800000000000000488e-02 1.535544999999999827e-01 -3.270405000000000229e+00 3.388195000000000334e+01 1.733730000000000018e+03
6.900000000000000577e-02 1.535880000000000023e-01 -2.613719999999999821e+00 3.560430000000000206e+01 1.733954999999999927e+03
7.000000000000000666e-02 1.536490000000000078e-01 -1.634348999999999830e+00 3.794700000000000273e+01 1.734380000000000109e+03
7.100000000000000755e-02 1.537379999999999858e-01 -3.510800000000000587e-01 4.086440000000000339e+01 1.735009999999999991e+03
7.200000000000000844e-02 1.538530000000000175e-01 1.207969999999999988e+00 4.429210000000000491e+01 1.735824999999999818e+03
7.300000000000000933e-02 1.539909999999999890e-01 3.006835000000000147e+00 4.815035000000000309e+01 1.736815000000000055e+03
7.399999999999999634e-02 1.541489999999999805e-01 5.003548999999999580e+00 5.234855000000000302e+01 1.737954999999999927e+03
7.499999999999999722e-02 1.543244999999999756e-01 7.152274999999999494e+00 5.679030000000000200e+01 1.739219999999999800e+03
7.599999999999999811e-02 1.545130000000000114e-01 9.405419999999999447e+00 6.137855000000000416e+01 1.740590000000000146e+03
7.699999999999999900e-02 1.547100000000000142e-01 1.171549500000000066e+01 6.601990000000000691e+01 1.742029999999999973e+03
7.799999999999999989e-02 1.549125000000000085e-01 1.403694499999999934e+01 7.062860000000000582e+01 1.743514999999999873e+03
7.900000000000000078e-02 1.551164999999999905e-01 1.632760000000000034e+01 7.512940000000000396e+01 1.745009999999999991e+03
8.000000000000000167e-02 1.553189999999999849e-01 1.854964999999999975e+01 7.945929999999999893e+01 1.746500000000000000e+03
8.100000000000000255e-02 1.555159999999999876e-01 2.067085000000000150e+01 8.356874999999999432e+01 1.747965000000000146e+03
8.200000000000000344e-02 1.557060000000000111e-01 2.266499999999999915e+01 8.742249999999999943e+01 1.749375000000000000e+03
8.300000000000000433e-02 1.558864999999999834e-01 2.451265000000000072e+01 9.099954999999999927e+01 1.750724999999999909e+03
8.400000000000000522e-02 1.560570000000000013e-01 2.620110000000000028e+01 9.429330000000000211e+01 1.751994999999999891e+03
8.500000000000000611e-02 1.562169999999999948e-01 2.772494999999999976e+01 9.730924999999999159e+01 1.753194999999999936e+03
8.600000000000000699e-02 1.563660000000000050e-01 2.908520000000000039e+01 1.000674999999999955e+02 1.754319999999999936e+03
8.700000000000000788e-02 1.565040000000000042e-01 3.028934999999999889e+01 1.025966499999999968e+02 1.755360000000000127e+03
8.800000000000000877e-02 1.566330000000000222e-01 3.135014999999999930e+01 1.049354999999999905e+02 1.756335000000000036e+03
8.899999999999999578e-02 1.567530000000000034e-01 3.228495000000000203e+01 1.071280000000000001e+02 1.757244999999999891e+03
8.999999999999999667e-02 1.568664999999999921e-01 3.311410000000000053e+01 1.092224999999999966e+02 1.758110000000000127e+03
9.099999999999999756e-02 1.569754999999999900e-01 3.385965000000000202e+01 1.112669999999999959e+02 1.758940000000000055e+03
9.199999999999999845e-02 1.570814999999999850e-01 3.454399999999999693e+01 1.133075000000000045e+02 1.759744999999999891e+03
9.299999999999999933e-02 1.571865000000000068e-01 3.518860000000000099e+01 1.153845000000000027e+02 1.760539999999999964e+03
9.400000000000000022e-02 1.572915000000000008e-01 3.581234999999999502e+01 1.175305000000000035e+02 1.761339999999999918e+03
9.500000000000000111e-02 1.573990000000000111e-01 3.643099999999999739e+01 1.197690000000000055e+02 1.762154999999999973e+03
9.600000000000000200e-02 1.575094999999999967e-01 3.705584999999999951e+01 1.221125000000000114e+02 1.762990000000000009e+03
9.700000000000000289e-02 1.576234999999999997e-01 3.769379999999999598e+01 1.245635000000000048e+02 1.763855000000000018e+03
9.800000000000000377e-02 1.577414999999999790e-01 3.834680000000000177e+01 1.271109999999999900e+02 1.764744999999999891e+03
9.900000000000000466e-02 1.578630000000000033e-01 3.901205000000000211e+01 1.297369999999999948e+02 1.765659999999999854e+03
1.000000000000000056e-01 1.579869999999999886e-01 3.968234999999999957e+01 1.324119999999999777e+02 1.766599999999999909e+03
1.010000000000000064e-01 1.581130000000000035e-01 4.034669999999999845e+01 1.351020000000000039e+02 1.767555000000000064e+03
1.020000000000000073e-01 1.582399999999999918e-01 4.099119999999999919e+01 1.377654999999999745e+02 1.768509999999999991e+03
1.030000000000000082e-01 1.583650000000000058e-01 4.159980000000000189e+01 1.403614999999999782e+02 1.769460000000000036e+03
1.040000000000000091e-01 1.584880000000000178e-01 4.215505000000000280e+01 1.428455000000000155e+02 1.770390000000000100e+03
1.050000000000000100e-01 1.586064999999999836e-01 4.263944999999999652e+01 1.451754999999999995e+02 1.771289999999999964e+03
1.059999999999999970e-01 1.587189999999999990e-01 4.303605000000000302e+01 1.473125000000000000e+02 1.772139999999999873e+03
1.069999999999999979e-01 1.588229999999999920e-01 4.332925000000000182e+01 1.492244999999999777e+02 1.772934999999999945e+03
1.079999999999999988e-01 1.589180000000000037e-01 4.350554999999999950e+01 1.508820000000000050e+02 1.773660000000000082e+03
1.089999999999999997e-01 1.590020000000000044e-01 4.355424999999999613e+01 1.522649999999999864e+02 1.774305000000000064e+03
1.100000000000000006e-01 1.590745000000000076e-01 4.346760000000000446e+01 1.533594999999999970e+02 1.774860000000000127e+03
1.110000000000000014e-01 1.591345000000000121e-01 4.324130000000000251e+01 1.541595000000000084e+02 1.775329999999999927e+03
1.120000000000000023e-01 1.591814999999999758e-01 4.287470000000000425e+01 1.546675000000000182e+02 1.775700000000000045e+03
1.130000000000000032e-01 1.592155000000000098e-01 4.237049999999999983e+01 1.548919999999999959e+02 1.775965000000000146e+03
1.140000000000000041e-01 1.592370000000000174e-01 4.173490000000000322e+01 1.548475000000000250e+02 1.776144999999999982e+03
1.150000000000000050e-01 1.592469999999999997e-01 4.097724999999999795e+01 1.545575000000000045e+02 1.776230000000000018e+03
1.160000000000000059e-01 1.592455000000000120e-01 4.010965000000000202e+01 1.540464999999999804e+02 1.776224999999999909e+03
1.170000000000000068e-01 1.592335000000000000e-01 3.914670000000000272e+01 1.533455000000000155e+02 1.776144999999999982e+03
1.180000000000000077e-01 1.592119999999999924e-01 3.810450000000000159e+01 1.524875000000000114e+02 1.775990000000000009e+03
1.190000000000000085e-01 1.591835000000000055e-01 3.700074999999999648e+01 1.515064999999999884e+02 1.775780000000000200e+03
1.200000000000000094e-01 1.591474999999999973e-01 3.585349999999999682e+01 1.504375000000000000e+02 1.775519999999999982e+03
1.209999999999999964e-01 1.591069999999999984e-01 3.468115000000000236e+01 1.493149999999999977e+02 1.775215000000000146e+03
1.219999999999999973e-01 1.590630000000000099e-01 3.350150000000000006e+01 1.481714999999999804e+02 1.774889999999999873e+03
1.229999999999999982e-01 1.590165000000000051e-01 3.233124999999999716e+01 1.470369999999999777e+02 1.774539999999999964e+03
1.239999999999999991e-01 1.589700000000000002e-01 3.118580000000000041e+01 1.459370000000000118e+02 1.774190000000000055e+03
1.250000000000000000e-01 1.589229999999999809e-01 3.007835000000000036e+01 1.448950000000000102e+02 1.773835000000000036e+03
1.260000000000000009e-01 1.588780000000000192e-01 2.902009999999999934e+01 1.439265000000000043e+02 1.773490000000000009e+03
1.270000000000000018e-01 1.588350000000000040e-01 2.801955000000000240e+01 1.430450000000000159e+02 1.773164999999999964e+03
1.280000000000000027e-01 1.587945000000000051e-01 2.708274999999999721e+01 1.422574999999999932e+02 1.772855000000000018e+03
1.290000000000000036e-01 1.587580000000000102e-01 2.621280000000000143e+01 1.415660000000000025e+02 1.772575000000000045e+03
1.300000000000000044e-01 1.587244999999999906e-01 2.541024999999999778e+01 1.409669999999999845e+02 1.772315000000000055e+03
1.310000000000000053e-01 1.586950000000000027e-01 2.467305000000000348e+01 1.404530000000000030e+02 1.772085000000000036e+03
1.320000000000000062e-01 1.586684999999999901e-01 2.399680000000000035e+01 1.400120000000000005e+02 1.771884999999999991e+03
1.330000000000000071e-01 1.586454999999999949e-01 2.337490000000000023e+01 1.396285000000000025e+02 1.771700000000000045e+03
1.340000000000000080e-01 1.586245000000000016e-01 2.279934999999999690e+01 1.392835000000000036e+02 1.771534999999999854e+03
1.350000000000000089e-01 1.586049999999999960e-01 2.226060000000000016e+01 1.389585000000000150e+02 1.771384999999999991e+03
1.360000000000000098e-01 1.585870000000000057e-01 2.174830000000000041e+01 1.386315000000000168e+02 1.771240000000000009e+03
1.370000000000000107e-01 1.585685000000000011e-01 2.125179999999999936e+01 1.382820000000000107e+02 1.771099999999999909e+03
1.380000000000000115e-01 1.585499999999999965e-01 2.076035000000000252e+01 1.378899999999999864e+02 1.770950000000000045e+03
1.390000000000000124e-01 1.585294999999999899e-01 2.026379999999999981e+01 1.374359999999999786e+02 1.770795000000000073e+03
1.400000000000000133e-01 1.585070000000000090e-01 1.975274999999999892e+01 1.369044999999999845e+02 1.770619999999999891e+03
1.410000000000000142e-01 1.584814999999999974e-01 1.921924999999999883e+01 1.362824999999999989e+02 1.770424999999999955e+03
1.420000000000000151e-01 1.584520000000000095e-01 1.865679999999999694e+01 1.355604999999999905e+02 1.770204999999999927e+03
1.430000000000000160e-01 1.584190000000000043e-01 1.806085000000000207e+01 1.347330000000000041e+02 1.769949999999999818e+03
1.440000000000000169e-01 1.583809999999999940e-01 1.742869999999999919e+01 1.337989999999999782e+02 1.769664999999999964e+03
1.450000000000000178e-01 1.583390000000000075e-01 1.675990000000000180e+01 1.327610000000000241e+02 1.769349999999999909e+03
1.459999999999999909e-01 1.582925000000000026e-01 1.605610000000000070e+01 1.316274999999999977e+02 1.769000000000000000e+03
1.469999999999999918e-01 1.582419999999999938e-01 1.532094999999999985e+01 1.304085000000000036e+02 1.768619999999999891e+03
1.479999999999999927e-01 1.581874999999999809e-01 1.455995000000000061e+01 1.291200000000000045e+02 1.768210000000000036e+03
1.489999999999999936e-01 1.581299999999999928e-01 1.378049999999999997e+01 1.277794999999999845e+02 1.767779999999999973e+03
1.499999999999999944e-01 1.580699999999999883e-01 1.299115000000000109e+01 1.264064999999999941e+02 1.767324999999999818e+03
1.509999999999999953e-01 1.580080000000000096e-01 1.220144499999999965e+01 1.250234999999999985e+02 1.766865000000000009e+03
1.519999999999999962e-01 1.579450000000000021e-01 1.142174999999999940e+01 1.236525000000000034e+02 1.766390000000000100e+03
1.529999999999999971e-01 1.578829999999999956e-01 1.066260000000000119e+01 1.223149999999999977e+02 1.765914999999999964e+03
1.539999999999999980e-01 1.578209999999999891e-01 9.934305000000000163e+00 1.210330000000000013e+02 1.765454999999999927e+03
1.549999999999999989e-01 1.577614999999999990e-01 9.246764999999999901e+00 1.198255000000000052e+02 1.765009999999999991e+03
1.559999999999999998e-01 1.577049999999999841e-01 8.608830000000001093e+00 1.187104999999999961e+02 1.764575000000000045e+03
1.570000000000000007e-01 1.576515000000000000e-01 8.028275000000000716e+00 1.177015000000000100e+02 1.764174999999999955e+03
1.580000000000000016e-01 1.576025000000000065e-01 7.511384999999999756e+00 1.168100000000000023e+02 1.763800000000000182e+03
1.590000000000000024e-01 1.575584999999999902e-01 7.062770000000000437e+00 1.160425000000000040e+02 1.763465000000000146e+03
