# t [s], A [cm^2], U [cm/s], P [cPa], c [cm/s]
1.000000000000000021e-03 5.887630000000000363e-01 2.734250000000000569e-03 9.277629999999999200e+01 1.393775000000000091e+03
2.000000000000000042e-03 5.887539999999999996e-01 -8.362550000000001579e-04 9.275655000000000427e+01 1.393764999999999873e+03
3.000000000000000062e-03 5.888044999999999529e-01 8.229539999999999078e-02 9.282685000000000741e+01 1.393789999999999964e+03
4.000000000000000083e-03 5.888594999999999802e-01 1.778078499999999895e-01 9.292969999999999686e+01 1.393815000000000055e+03
5.000000000000000104e-03 5.888495000000000257e-01 1.728319999999999856e-01 9.291389999999999816e+01 1.393815000000000055e+03
6.000000000000000125e-03 5.887890000000000068e-01 8.323849999999999305e-02 9.275485000000000468e+01 1.393779999999999973e+03
7.000000000000000146e-03 5.887255000000000127e-01 -1.761350000000000415e-02 9.251975000000000193e+01 1.393724999999999909e+03
8.000000000000000167e-03 5.886440000000000561e-01 -1.556754999999999667e-01 9.219450000000000500e+01 1.393650000000000091e+03
9.000000000000001055e-03 5.885059999999999736e-01 -3.970449999999999813e-01 9.170015000000000782e+01 1.393525000000000091e+03
1.000000000000000194e-02 5.883049999999999669e-01 -7.496750000000000913e-01 9.099654999999999916e+01 1.393360000000000127e+03
1.099999999999999936e-02 5.880400000000000071e-01 -1.205934999999999979e+00 9.006149999999999523e+01 1.393125000000000000e+03
1.200000000000000025e-02 5.876955000000000373e-01 -1.776145000000000085e+00 8.885665000000000191e+01 1.392819999999999936e+03
1.300000000000000114e-02 5.872629999999999795e-01 -2.454995000000000260e+00 8.735710000000000264e+01 1.392424999999999955e+03
1.400000000000000203e-02 5.867685000000000262e-01 -3.180204999999999949e+00 8.560464999999999236e+01 1.391960000000000036e+03
1.499999999999999944e-02 5.862644999999999662e-01 -3.835824999999999818e+00 8.372200000000000841e+01 1.391445000000000164e+03
1.600000000000000033e-02 5.858100000000000529e-01 -4.296804999999999986e+00 8.187354999999999450e+01 1.390920000000000073e+03
1.700000000000000122e-02 5.854424999999999768e-01 -4.477045999999999637e+00 8.020539999999999736e+01 1.390420000000000073e+03
1.800000000000000211e-02 5.851680000000000215e-01 -4.353514999999999802e+00 7.880084999999999695e+01 1.389964999999999918e+03
1.900000000000000300e-02 5.849649999999999572e-01 -3.963931000000000093e+00 7.766435000000001310e+01 1.389574999999999818e+03
2.000000000000000042e-02 5.847944999999999949e-01 -3.387158499999999961e+00 7.673210000000000264e+01 1.389224999999999909e+03
2.100000000000000130e-02 5.846145000000000369e-01 -2.716275500000000065e+00 7.589930000000001087e+01 1.388904999999999973e+03
2.200000000000000219e-02 5.843920000000000226e-01 -2.031989999999999963e+00 7.505475000000001273e+01 1.388579999999999927e+03
2.299999999999999961e-02 5.841110000000000468e-01 -1.383409999999999807e+00 7.411340000000001282e+01 1.388250000000000000e+03
2.400000000000000050e-02 5.837744999999999740e-01 -7.816650000000000542e-01 7.303579999999999472e+01 1.387884999999999991e+03
2.500000000000000139e-02 5.833994999999999598e-01 -2.079699999999999882e-01 7.182959999999999923e+01 1.387484999999999900e+03
2.600000000000000228e-02 5.830079999999999707e-01 3.687749999999998529e-01 7.053489999999999327e+01 1.387065000000000055e+03
2.700000000000000316e-02 5.826175000000000104e-01 9.726550000000000473e-01 6.920044999999998936e+01 1.386634999999999991e+03
2.800000000000000058e-02 5.822355000000000169e-01 1.606684999999999919e+00 6.786175000000000068e+01 1.386200000000000045e+03
2.900000000000000147e-02 5.818564999999999987e-01 2.247274999999999689e+00 6.652620000000000289e+01 1.385755000000000109e+03
3.000000000000000236e-02 5.814635000000000220e-01 2.846910000000000274e+00 6.516830000000000211e+01 1.385309999999999945e+03
3.099999999999999978e-02 5.810340000000000504e-01 3.343004999999999782e+00 6.373465000000000202e+01 1.384845000000000027e+03
3.200000000000000067e-02 5.805424999999999613e-01 3.670369999999999244e+00 6.215565000000000140e+01 1.384345000000000027e+03
3.300000000000000155e-02 5.799710000000000143e-01 3.774540000000000006e+00 6.036270000000000380e+01 1.383789999999999964e+03
3.400000000000000244e-02 5.793085000000000040e-01 3.623145000000000060e+00 5.830519999999999925e+01 1.383180000000000064e+03
3.500000000000000333e-02 5.785595000000000043e-01 3.213544999999999874e+00 5.596555000000000035e+01 1.382494999999999891e+03
3.600000000000000422e-02 5.777394999999999614e-01 2.573999999999999844e+00 5.336704999999999899e+01 1.381740000000000009e+03
3.700000000000000511e-02 5.768774999999999320e-01 1.759764999999999802e+00 5.057460000000000377e+01 1.380940000000000055e+03
3.799999999999999906e-02 5.760080000000000755e-01 8.439149999999999707e-01 4.768690000000000140e+01 1.380095000000000027e+03
3.899999999999999994e-02 5.751695000000000002e-01 -9.284999999999943299e-02 4.482465000000000543e+01 1.379255000000000109e+03
4.000000000000000083e-02 5.743985000000000340e-01 -9.726350000000003604e-01 4.211554999999999893e+01 1.378449999999999818e+03
4.100000000000000172e-02 5.737240000000000117e-01 -1.727815000000000101e+00 3.968099999999999739e+01 1.377700000000000045e+03
4.200000000000000261e-02 5.731709999999999861e-01 -2.305735000000000312e+00 3.762510000000000332e+01 1.377039999999999964e+03
4.300000000000000350e-02 5.727554999999999730e-01 -2.670130000000000337e+00 3.602765000000000128e+01 1.376500000000000000e+03
4.400000000000000439e-02 5.724854999999999805e-01 -2.800251999999999963e+00 3.494124999999999659e+01 1.376094999999999800e+03
4.499999999999999833e-02 5.723629999999999551e-01 -2.688124500000000250e+00 3.439175000000000182e+01 1.375835000000000036e+03
4.599999999999999922e-02 5.723854999999999915e-01 -2.335129999999999928e+00 3.438185000000000002e+01 1.375730000000000018e+03
4.700000000000000011e-02 5.725459999999999994e-01 -1.748537999999999926e+00 3.489594999999999914e+01 1.375775000000000091e+03
4.800000000000000100e-02 5.728374999999999995e-01 -9.388750000000001261e-01 3.590559999999999974e+01 1.375965000000000146e+03
4.900000000000000189e-02 5.732494999999999674e-01 8.169500000000029516e-02 3.737425000000000352e+01 1.376299999999999955e+03
5.000000000000000278e-02 5.737719999999999487e-01 1.299690000000000012e+00 3.926050000000000040e+01 1.376759999999999991e+03
5.100000000000000366e-02 5.743940000000000712e-01 2.699800000000000200e+00 4.152029999999999887e+01 1.377345000000000027e+03
5.200000000000000455e-02 5.751039999999999486e-01 4.263754999999999740e+00 4.410710000000000264e+01 1.378030000000000200e+03
5.300000000000000544e-02 5.758879999999999555e-01 5.969380000000000130e+00 4.697214999999999918e+01 1.378815000000000055e+03
5.399999999999999939e-02 5.767330000000000512e-01 7.790215000000000778e+00 5.006360000000000809e+01 1.379674999999999955e+03
5.500000000000000028e-02 5.776219999999999688e-01 9.695372499999999505e+00 5.332699999999999818e+01 1.380595000000000027e+03
5.600000000000000117e-02 5.785400000000000542e-01 1.165081999999999951e+01 5.670555000000000234e+01 1.381565000000000055e+03
5.700000000000000205e-02 5.794694999999999707e-01 1.362054999999999971e+01 6.014189999999999969e+01 1.382570000000000164e+03
5.800000000000000294e-02 5.803964999999999819e-01 1.556891000000000069e+01 6.357969999999999544e+01 1.383585000000000036e+03
5.900000000000000383e-02 5.813049999999999606e-01 1.746213999999999800e+01 6.696630000000000393e+01 1.384599999999999909e+03
6.000000000000000472e-02 5.821840000000000348e-01 1.927040000000000219e+01 7.025509999999999877e+01 1.385599999999999909e+03
6.099999999999999867e-02 5.830235000000000278e-01 2.096905000000000285e+01 7.340739999999999554e+01 1.386574999999999818e+03
6.199999999999999956e-02 5.838174999999999892e-01 2.253960000000000008e+01 7.639419999999999789e+01 1.387514999999999873e+03
6.300000000000000044e-02 5.845624999999999849e-01 2.396979999999999933e+01 7.919675000000000864e+01 1.388409999999999854e+03
6.400000000000000133e-02 5.852574999999999861e-01 2.525384999999999991e+01 8.180689999999999884e+01 1.389250000000000000e+03
6.500000000000000222e-02 5.859039999999999804e-01 2.639160000000000039e+01 8.422624999999999318e+01 1.390050000000000182e+03
6.600000000000000311e-02 5.865065000000000417e-01 2.738795000000000002e+01 8.646514999999999418e+01 1.390795000000000073e+03
6.700000000000000400e-02 5.870699999999999807e-01 2.825175000000000125e+01 8.854105000000001269e+01 1.391490000000000009e+03
6.800000000000000488e-02 5.876010000000000399e-01 2.899499999999999744e+01 9.047695000000000221e+01 1.392150000000000091e+03
6.900000000000000577e-02 5.881075000000000053e-01 2.963215000000000288e+01 9.229945000000000732e+01 1.392775000000000091e+03
7.000000000000000666e-02 5.885964999999999669e-01 3.017909999999999826e+01 9.403740000000000521e+01 1.393369999999999891e+03
7.100000000000000755e-02 5.890750000000000153e-01 3.065240000000000009e+01 9.571994999999999720e+01 1.393945000000000164e+03
7.200000000000000844e-02 5.895515000000000061e-01 3.106900000000000261e+01 9.737560000000000571e+01 1.394509999999999991e+03
7.300000000000000933e-02 5.900320000000000009e-01 3.144530000000000314e+01 9.903085000000000093e+01 1.395065000000000055e+03
7.399999999999999634e-02 5.905224999999999502e-01 3.179639999999999844e+01 1.007082499999999925e+02 1.395625000000000000e+03
7.499999999999999722e-02 5.910265000000000102e-01 3.213564999999999827e+01 1.024275000000000091e+02 1.396190000000000055e+03
7.599999999999999811e-02 5.915489999999999915e-01 3.247375000000000256e+01 1.042015000000000100e+02 1.396764999999999873e+03
7.699999999999999900e-02 5.920889999999999764e-01 3.281850000000000023e+01 1.060374999999999943e+02 1.397360000000000127e+03
7.799999999999999989e-02 5.926474999999999937e-01 3.317405000000000115e+01 1.079370000000000118e+02 1.397965000000000146e+03
7.900000000000000078e-02 5.932220000000000271e-01 3.354084999999999894e+01 1.098940000000000055e+02 1.398590000000000146e+03
8.000000000000000167e-02 5.938075000000000436e-01 3.391564999999999941e+01 1.118969999999999914e+02 1.399224999999999909e+03
8.100000000000000255e-02 5.943979999999999819e-01 3.429175000000000040e+01 1.139270000000000067e+02 1.399869999999999891e+03
8.200000000000000344e-02 5.949884999999999202e-01 3.465964999999999918e+01 1.159609999999999985e+02 1.400514999999999873e+03
8.300000000000000433e-02 5.955684999999999452e-01 3.500744999999999862e+01 1.179710000000000036e+02 1.401154999999999973e+03
8.400000000000000522e-02 5.961315000000000364e-01 3.532179999999999609e+01 1.199279999999999973e+02 1.401789999999999964e+03
8.500000000000000611e-02 5.966675000000000173e-01 3.558879999999999910e+01 1.218009999999999877e+02 1.402394999999999982e+03
8.600000000000000699e-02 5.971690000000000609e-01 3.579460000000000264e+01 1.235594999999999999e+02 1.402970000000000027e+03
8.700000000000000788e-02 5.976289999999999658e-01 3.592640000000000100e+01 1.251754999999999995e+02 1.403505000000000109e+03
8.800000000000000877e-02 5.980400000000000160e-01 3.597294999999999732e+01 1.266250000000000000e+02 1.403994999999999891e+03
8.899999999999999578e-02 5.983975000000000266e-01 3.592515000000000214e+01 1.278870000000000005e+02 1.404440000000000055e+03
8.999999999999999667e-02 5.986985000000000223e-01 3.577649999999999864e+01 1.289465000000000146e+02 1.404820000000000164e+03
9.099999999999999756e-02 5.989400000000000279e-01 3.552320000000000277e+01 1.297950000000000159e+02 1.405134999999999991e+03
9.199999999999999845e-02 5.991219999999999324e-01 3.516445000000000221e+01 1.304284999999999854e+02 1.405389999999999873e+03
9.299999999999999933e-02 5.992459999999999454e-01 3.470219999999999771e+01 1.308489999999999895e+02 1.405575000000000045e+03
9.400000000000000022e-02 5.993144999999999722e-01 3.414135000000000275e+01 1.310654999999999859e+02 1.405704999999999927e+03
9.500000000000000111e-02 5.993304999999999882e-01 3.348930000000000007e+01 1.310904999999999916e+02 1.405775000000000091e+03
9.600000000000000200e-02 5.992999999999999439e-01 3.275560000000000116e+01 1.309414999999999907e+02 1.405785000000000082e+03
9.700000000000000289e-02 5.992284999999999417e-01 3.195179999999999865e+01 1.306399999999999864e+02 1.405744999999999891e+03
9.800000000000000377e-02 5.991230000000000722e-01 3.109085000000000321e+01 1.302094999999999914e+02 1.405660000000000082e+03
9.900000000000000466e-02 5.989904999999999813e-01 3.018665000000000020e+01 1.296765000000000043e+02 1.405539999999999964e+03
1.000000000000000056e-01 5.988374999999999115e-01 2.925384999999999991e+01 1.290664999999999907e+02 1.405394999999999982e+03
1.010000000000000064e-01 5.986719999999999819e-01 2.830695000000000050e+01 1.284064999999999941e+02 1.405220000000000027e+03
1.020000000000000073e-01 5.985005000000001019e-01 2.736004999999999754e+01 1.277224999999999966e+02 1.405029999999999973e+03
1.030000000000000082e-01 5.983289999999999997e-01 2.642640000000000100e+01 1.270375000000000085e+02 1.404839999999999918e+03
1.040000000000000091e-01 5.981640000000000290e-01 2.551789999999999736e+01 1.263739999999999952e+02 1.404650000000000091e+03
1.050000000000000100e-01 5.980094999999999716e-01 2.464474999999999838e+01 1.257500000000000000e+02 1.404460000000000036e+03
1.059999999999999970e-01 5.978695000000000537e-01 2.381524999999999892e+01 1.251800000000000068e+02 1.404279999999999973e+03
1.069999999999999979e-01 5.977464999999999584e-01 2.303544999999999732e+01 1.246754999999999995e+02 1.404119999999999891e+03
1.079999999999999988e-01 5.976425000000000765e-01 2.230915000000000248e+01 1.242434999999999974e+02 1.403974999999999909e+03
1.089999999999999997e-01 5.975574999999999637e-01 2.163785000000000025e+01 1.238859999999999957e+02 1.403849999999999909e+03
1.100000000000000006e-01 5.974915000000000642e-01 2.102060000000000173e+01 1.236024999999999920e+02 1.403744999999999891e+03
1.110000000000000014e-01 5.974420000000000286e-01 2.045454999999999757e+01 1.233884999999999934e+02 1.403659999999999854e+03
1.120000000000000023e-01 5.974074999999999802e-01 1.993495000000000061e+01 1.232360000000000042e+02 1.403595000000000027e+03
1.130000000000000032e-01 5.973850000000000549e-01 1.945524999999999949e+01 1.231334999999999980e+02 1.403545000000000073e+03
1.140000000000000041e-01 5.973700000000000676e-01 1.900779999999999959e+01 1.230689999999999884e+02 1.403505000000000109e+03
1.150000000000000050e-01 5.973595000000000432e-01 1.858395000000000152e+01 1.230280000000000058e+02 1.403474999999999909e+03
1.160000000000000059e-01 5.973479999999999901e-01 1.817454999999999998e+01 1.229944999999999879e+02 1.403450000000000045e+03
1.170000000000000068e-01 5.973334999999999617e-01 1.777029999999999887e+01 1.229534999999999911e+02 1.403430000000000064e+03
1.180000000000000077e-01 5.973100000000000076e-01 1.736220000000000141e+01 1.228905000000000030e+02 1.403400000000000091e+03
1.190000000000000085e-01 5.972755000000000702e-01 1.694185000000000230e+01 1.227920000000000016e+02 1.403360000000000127e+03
1.200000000000000094e-01 5.972269999999999524e-01 1.650179999999999936e+01 1.226449999999999960e+02 1.403315000000000055e+03
1.209999999999999964e-01 5.971604999999999830e-01 1.603580000000000183e+01 1.224410000000000025e+02 1.403250000000000000e+03
1.219999999999999973e-01 5.970759999999999401e-01 1.553909999999999947e+01 1.221709999999999923e+02 1.403174999999999955e+03
1.229999999999999982e-01 5.969720000000000582e-01 1.500864999999999938e+01 1.218319999999999936e+02 1.403079999999999927e+03
1.239999999999999991e-01 5.968480000000000452e-01 1.444304999999999950e+01 1.214224999999999994e+02 1.402960000000000036e+03
1.250000000000000000e-01 5.967059999999999587e-01 1.384282999999999930e+01 1.209430000000000121e+02 1.402820000000000164e+03
1.260000000000000009e-01 5.965464999999999796e-01 1.321016999999999975e+01 1.203990000000000009e+02 1.402670000000000073e+03
1.270000000000000018e-01 5.963720000000000132e-01 1.254895999999999923e+01 1.197969999999999970e+02 1.402490000000000009e+03
1.280000000000000027e-01 5.961859999999999937e-01 1.186460500000000096e+01 1.191469999999999914e+02 1.402304999999999836e+03
1.290000000000000036e-01 5.959915000000000074e-01 1.116395499999999963e+01 1.184609999999999985e+02 1.402105000000000018e+03
1.300000000000000044e-01 5.957915000000000294e-01 1.045477999999999952e+01 1.177514999999999930e+02 1.401894999999999982e+03
1.310000000000000053e-01 5.955920000000000103e-01 9.745684999999999931e+00 1.170345000000000084e+02 1.401674999999999955e+03
1.320000000000000062e-01 5.953960000000000363e-01 9.045769999999999200e+00 1.163245000000000005e+02 1.401460000000000036e+03
1.330000000000000071e-01 5.952075000000000005e-01 8.364224999999999355e+00 1.156359999999999957e+02 1.401250000000000000e+03
1.340000000000000080e-01 5.950305000000000177e-01 7.709970000000000212e+00 1.149844999999999970e+02 1.401045000000000073e+03
1.350000000000000089e-01 5.948689999999999811e-01 7.091524999999999856e+00 1.143834999999999980e+02 1.400855000000000018e+03
1.360000000000000098e-01 5.947260000000000879e-01 6.516459999999999475e+00 1.138449999999999989e+02 1.400674999999999955e+03
1.370000000000000107e-01 5.946044999999999803e-01 5.991209999999999702e+00 1.133785000000000025e+02 1.400525000000000091e+03
1.380000000000000115e-01 5.945055000000000200e-01 5.520950000000000024e+00 1.129925000000000068e+02 1.400389999999999873e+03
1.390000000000000124e-01 5.944300000000000139e-01 5.109329999999999927e+00 1.126920000000000073e+02 1.400275000000000091e+03
1.400000000000000133e-01 5.943800000000000194e-01 4.758435000000000414e+00 1.124784999999999968e+02 1.400194999999999936e+03
1.410000000000000142e-01 5.943530000000000202e-01 4.468735000000000568e+00 1.123530000000000086e+02 1.400130000000000109e+03
1.420000000000000151e-01 5.943490000000000162e-01 4.239105000000000345e+00 1.123125000000000000e+02 1.400099999999999909e+03
1.430000000000000160e-01 5.943660000000000609e-01 4.066969999999999530e+00 1.123504999999999967e+02 1.400085000000000036e+03
1.440000000000000169e-01 5.944019999999999859e-01 3.948399999999999910e+00 1.124604999999999961e+02 1.400094999999999800e+03
1.450000000000000178e-01 5.944540000000000379e-01 3.878339999999999677e+00 1.126329999999999956e+02 1.400125000000000000e+03
1.459999999999999909e-01 5.945194999999999785e-01 3.850780000000000314e+00 1.128569999999999993e+02 1.400170000000000073e+03
1.469999999999999918e-01 5.945940000000000669e-01 3.859049999999999869e+00 1.131214999999999975e+02 1.400234999999999900e+03
1.479999999999999927e-01 5.946759999999999824e-01 3.896029999999999660e+00 1.134140000000000015e+02 1.400309999999999945e+03
1.489999999999999936e-01 5.947609999999999841e-01 3.954399999999999693e+00 1.137224999999999966e+02 1.400389999999999873e+03
1.499999999999999944e-01 5.948455000000000270e-01 4.026894999999999669e+00 1.140349999999999966e+02 1.400474999999999909e+03
1.509999999999999953e-01 5.949275000000000535e-01 4.106484999999999275e+00 1.143404999999999916e+02 1.400559999999999945e+03
1.519999999999999962e-01 5.950039999999999774e-01 4.186595000000000510e+00 1.146289999999999907e+02 1.400639999999999873e+03
1.529999999999999971e-01 5.950720000000000454e-01 4.261269999999999669e+00 1.148915000000000077e+02 1.400719999999999800e+03
1.539999999999999980e-01 5.951309999999999656e-01 4.325274999999999537e+00 1.151204999999999927e+02 1.400789999999999964e+03
1.549999999999999989e-01 5.951784999999999437e-01 4.374204999999999899e+00 1.153105000000000047e+02 1.400849999999999909e+03
1.559999999999999998e-01 5.952144999999999797e-01 4.404584999999999972e+00 1.154574999999999960e+02 1.400900000000000091e+03
1.570000000000000007e-01 5.952379999999999338e-01 4.413834999999999731e+00 1.155585000000000093e+02 1.400934999999999945e+03
1.580000000000000016e-01 5.952479999999999993e-01 4.400330000000000297e+00 1.156125000000000114e+02 1.400960000000000036e+03
1.590000000000000024e-01 5.952469999999999706e-01 4.363329999999999487e+00 1.156204999999999927e+02 1.400970000000000027e+03
