# t [s], A [cm^2], U [cm/s], P [cPa], c [cm/s]
1.000000000000000021e-03 1.866845000000000032e-01 3.515114999999999768e-01 1.002815500000000100e+02 2.006099999999999909e+03
2.000000000000000042e-03 1.866300000000000181e-01 2.011067499999999786e+00 9.681935000000000002e+01 2.005650000000000091e+03
3.000000000000000062e-03 1.864799999999999791e-01 4.049844000000000221e+00 9.205410000000000537e+01 2.004444999999999936e+03
4.000000000000000083e-03 1.862734999999999808e-01 6.335523000000000238e+00 8.689289999999999736e+01 2.002829999999999927e+03
5.000000000000000104e-03 1.860509999999999942e-01 8.787679999999999936e+00 8.228409999999999513e+01 2.001099999999999909e+03
6.000000000000000125e-03 1.858370000000000022e-01 1.121203500000000020e+01 7.852280000000000371e+01 1.999450000000000045e+03
7.000000000000000146e-03 1.856364999999999821e-01 1.337603999999999971e+01 7.533350000000000080e+01 1.997934999999999945e+03
8.000000000000000167e-03 1.854534999999999934e-01 1.519201499999999960e+01 7.246365000000000123e+01 1.996569999999999936e+03
9.000000000000001055e-03 1.852914999999999979e-01 1.670420000000000016e+01 6.996885000000000332e+01 1.995394999999999982e+03
1.000000000000000194e-02 1.851550000000000140e-01 1.795289999999999964e+01 6.793085000000000662e+01 1.994404999999999973e+03
1.099999999999999936e-02 1.850434999999999997e-01 1.895759999999999934e+01 6.632484999999999786e+01 1.993605000000000018e+03
1.200000000000000025e-02 1.849544999999999939e-01 1.973989999999999867e+01 6.509569999999999368e+01 1.992974999999999909e+03
1.300000000000000114e-02 1.848845000000000072e-01 2.031085000000000207e+01 6.415725000000000477e+01 1.992490000000000009e+03
1.400000000000000203e-02 1.848294999999999799e-01 2.067790000000000106e+01 6.338689999999999714e+01 1.992115000000000009e+03
1.499999999999999944e-02 1.847850000000000048e-01 2.089509999999999934e+01 6.274824999999999875e+01 1.991820000000000164e+03
1.600000000000000033e-02 1.847544999999999882e-01 2.109109999999999729e+01 6.242194999999999538e+01 1.991625000000000000e+03
1.700000000000000122e-02 1.847475000000000089e-01 2.142650000000000077e+01 6.276044999999999874e+01 1.991594999999999800e+03
1.800000000000000211e-02 1.847745000000000082e-01 2.200820000000000221e+01 6.406640000000000157e+01 1.991795000000000073e+03
1.900000000000000300e-02 1.848385000000000167e-01 2.282495000000000118e+01 6.636234999999999218e+01 1.992259999999999991e+03
2.000000000000000042e-02 1.849335000000000007e-01 2.374530000000000030e+01 6.930825000000000102e+01 1.992950000000000045e+03
2.100000000000000130e-02 1.850419999999999843e-01 2.457049999999999912e+01 7.230334999999999468e+01 1.993744999999999891e+03
2.200000000000000219e-02 1.851455000000000184e-01 2.511185000000000045e+01 7.470329999999999870e+01 1.994514999999999873e+03
2.299999999999999961e-02 1.852229999999999988e-01 2.525634999999999764e+01 7.604444999999999766e+01 1.995110000000000127e+03
2.400000000000000050e-02 1.852650000000000130e-01 2.499810000000000088e+01 7.618415000000000248e+01 1.995449999999999818e+03
2.500000000000000139e-02 1.852705000000000046e-01 2.442685000000000173e+01 7.531380000000000052e+01 1.995519999999999982e+03
2.600000000000000228e-02 1.852475000000000094e-01 2.368534999999999968e+01 7.385139999999999816e+01 1.995369999999999891e+03
2.700000000000000316e-02 1.852084999999999981e-01 2.291385000000000005e+01 7.227094999999999914e+01 1.995099999999999909e+03
2.800000000000000058e-02 1.851665000000000116e-01 2.220570000000000022e+01 7.093905000000000882e+01 1.994800000000000182e+03
2.900000000000000147e-02 1.851300000000000168e-01 2.158774999999999977e+01 7.001709999999999923e+01 1.994529999999999973e+03
3.000000000000000236e-02 1.851025000000000031e-01 2.102689999999999770e+01 6.945154999999999745e+01 1.994320000000000164e+03
3.099999999999999978e-02 1.850805000000000089e-01 2.045619999999999905e+01 6.903794999999999504e+01 1.994154999999999973e+03
3.200000000000000067e-02 1.850580000000000003e-01 1.980884999999999962e+01 6.852584999999999127e+01 1.993990000000000009e+03
3.300000000000000155e-02 1.850284999999999846e-01 1.904850000000000065e+01 6.772599999999999909e+01 1.993789999999999964e+03
3.400000000000000244e-02 1.849895000000000012e-01 1.818795000000000073e+01 6.658774999999999977e+01 1.993505000000000109e+03
3.500000000000000333e-02 1.849405000000000077e-01 1.729095000000000226e+01 6.522579999999999245e+01 1.993160000000000082e+03
3.600000000000000422e-02 1.848894999999999844e-01 1.645720000000000027e+01 6.389185000000000514e+01 1.992784999999999854e+03
3.700000000000000511e-02 1.848434999999999939e-01 1.579565000000000019e+01 6.290085000000000548e+01 1.992445000000000164e+03
3.799999999999999906e-02 1.848144999999999927e-01 1.539434999999999931e+01 6.253759999999999764e+01 1.992224999999999909e+03
3.899999999999999994e-02 1.848090000000000011e-01 1.529690000000000083e+01 6.297295000000000442e+01 1.992170000000000073e+03
4.000000000000000083e-02 1.848325000000000107e-01 1.549054999999999893e+01 6.421359999999999957e+01 1.992315000000000055e+03
4.100000000000000172e-02 1.848819999999999908e-01 1.590835000000000043e+01 6.609655000000000769e+01 1.992659999999999854e+03
4.200000000000000261e-02 1.849510000000000043e-01 1.644399999999999906e+01 6.832464999999999122e+01 1.993154999999999973e+03
4.300000000000000350e-02 1.850295000000000134e-01 1.697194999999999965e+01 7.052879999999998972e+01 1.993720000000000027e+03
4.400000000000000439e-02 1.851045000000000051e-01 1.736970000000000169e+01 7.233915000000000362e+01 1.994264999999999873e+03
4.499999999999999833e-02 1.851634999999999809e-01 1.753604999999999947e+01 7.344785000000000252e+01 1.994700000000000045e+03
4.599999999999999922e-02 1.851970000000000005e-01 1.740265000000000128e+01 7.365209999999999013e+01 1.994954999999999927e+03
4.700000000000000011e-02 1.851980000000000015e-01 1.693874999999999886e+01 7.287129999999999086e+01 1.994974999999999909e+03
4.800000000000000100e-02 1.851635000000000086e-01 1.614855000000000018e+01 7.114114999999999611e+01 1.994740000000000009e+03
4.900000000000000189e-02 1.850954999999999961e-01 1.506424999999999947e+01 6.858834999999999127e+01 1.994259999999999991e+03
5.000000000000000278e-02 1.849974999999999814e-01 1.373654999999999937e+01 6.539685000000000059e+01 1.993554999999999836e+03
5.100000000000000366e-02 1.848750000000000115e-01 1.222574499999999986e+01 6.177299999999999613e+01 1.992670000000000073e+03
5.200000000000000455e-02 1.847349999999999826e-01 1.059440000000000026e+01 5.791809999999999548e+01 1.991660000000000082e+03
5.300000000000000544e-02 1.845849999999999991e-01 8.903114999999999668e+00 5.401094999999999402e+01 1.990565000000000055e+03
5.399999999999999939e-02 1.844304999999999972e-01 7.208624999999999616e+00 5.020204999999999984e+01 1.989440000000000055e+03
5.500000000000000028e-02 1.842785000000000117e-01 5.564255000000000173e+00 4.661525000000000318e+01 1.988325000000000045e+03
5.600000000000000117e-02 1.841335000000000055e-01 4.020664000000000016e+00 4.335529999999999973e+01 1.987259999999999991e+03
5.700000000000000205e-02 1.839994999999999825e-01 2.627055999999999614e+00 4.051579999999999870e+01 1.986279999999999973e+03
5.800000000000000294e-02 1.838815000000000033e-01 1.431269999999999820e+00 3.818455000000000155e+01 1.985404999999999973e+03
5.900000000000000383e-02 1.837834999999999885e-01 4.788949999999999596e-01 3.644590000000000174e+01 1.984675000000000182e+03
6.000000000000000472e-02 1.837090000000000112e-01 -1.886849999999999916e-01 3.537834999999999752e+01 1.984115000000000009e+03
6.099999999999999867e-02 1.836614999999999776e-01 -5.369380000000000264e-01 3.504895000000000493e+01 1.983744999999999891e+03
6.199999999999999956e-02 1.836430000000000007e-01 -5.409895000000000120e-01 3.550615000000000521e+01 1.983590000000000146e+03
6.300000000000000044e-02 1.836570000000000147e-01 -1.880069999999999797e-01 3.677254999999999541e+01 1.983670000000000073e+03
6.400000000000000133e-02 1.837030000000000052e-01 5.212930000000000064e-01 3.884005000000000507e+01 1.983980000000000018e+03
6.500000000000000222e-02 1.837809999999999999e-01 1.572310499999999944e+00 4.166764999999999475e+01 1.984525000000000091e+03
6.600000000000000311e-02 1.838899999999999979e-01 2.937435649999999843e+00 4.518334999999999724e+01 1.985300000000000182e+03
6.700000000000000400e-02 1.840269999999999961e-01 4.577900000000000524e+00 4.928865000000000407e+01 1.986275000000000091e+03
6.800000000000000488e-02 1.841879999999999906e-01 6.446369999999999933e+00 5.386565000000000225e+01 1.987434999999999945e+03
6.900000000000000577e-02 1.843695000000000195e-01 8.489919999999999689e+00 5.878509999999999991e+01 1.988744999999999891e+03
7.000000000000000666e-02 1.845660000000000078e-01 1.065275000000000105e+01 6.391474999999999795e+01 1.990170000000000073e+03
7.100000000000000755e-02 1.847715000000000052e-01 1.287929499999999905e+01 6.912640000000000384e+01 1.991670000000000073e+03
7.200000000000000844e-02 1.849824999999999942e-01 1.511645000000000039e+01 7.430270000000000152e+01 1.993220000000000027e+03
7.300000000000000933e-02 1.851939999999999975e-01 1.731579999999999941e+01 7.934165000000000134e+01 1.994775000000000091e+03
7.399999999999999634e-02 1.854020000000000112e-01 1.943560000000000088e+01 8.416084999999999638e+01 1.996309999999999945e+03
7.499999999999999722e-02 1.856029999999999902e-01 2.144225000000000136e+01 8.870000000000000284e+01 1.997804999999999836e+03
7.599999999999999811e-02 1.857945000000000013e-01 2.331129999999999924e+01 9.292265000000000441e+01 1.999230000000000018e+03
7.699999999999999900e-02 1.859750000000000014e-01 2.502810000000000201e+01 9.681624999999999659e+01 2.000575000000000045e+03
7.799999999999999989e-02 1.861435000000000173e-01 2.658765000000000001e+01 1.003916499999999985e+02 2.001839999999999918e+03
7.900000000000000078e-02 1.863009999999999944e-01 2.799435000000000073e+01 1.036796999999999969e+02 2.003025000000000091e+03
8.000000000000000167e-02 1.864480000000000026e-01 2.926030000000000086e+01 1.067280000000000086e+02 2.004130000000000109e+03
8.100000000000000255e-02 1.865855000000000152e-01 3.040375000000000227e+01 1.095955000000000013e+02 2.005175000000000182e+03
8.200000000000000344e-02 1.867170000000000218e-01 3.144715000000000060e+01 1.123469999999999942e+02 2.006159999999999854e+03
8.300000000000000433e-02 1.868440000000000101e-01 3.241454999999999842e+01 1.150480000000000018e+02 2.007119999999999891e+03
8.400000000000000522e-02 1.869679999999999953e-01 3.332975000000000421e+01 1.177560000000000002e+02 2.008059999999999945e+03
8.500000000000000611e-02 1.870924999999999949e-01 3.421394999999999698e+01 1.205190000000000055e+02 2.008994999999999891e+03
8.600000000000000699e-02 1.872185000000000099e-01 3.508445000000000391e+01 1.233714999999999975e+02 2.009949999999999818e+03
8.700000000000000788e-02 1.873469999999999858e-01 3.595304999999999751e+01 1.263309999999999889e+02 2.010914999999999964e+03
8.800000000000000877e-02 1.874784999999999924e-01 3.682590000000000430e+01 1.293969999999999914e+02 2.011909999999999854e+03
8.899999999999999578e-02 1.876145000000000174e-01 3.770279999999999632e+01 1.325544999999999902e+02 2.012924999999999955e+03
8.999999999999999667e-02 1.877524999999999888e-01 3.857789999999999964e+01 1.357710000000000150e+02 2.013969999999999800e+03
9.099999999999999756e-02 1.878925000000000178e-01 3.944020000000000437e+01 1.390054999999999836e+02 2.015019999999999982e+03
9.199999999999999845e-02 1.880324999999999913e-01 4.027459999999999951e+01 1.422050000000000125e+02 2.016075000000000045e+03
9.299999999999999933e-02 1.881704999999999905e-01 4.106305000000000405e+01 1.453145000000000095e+02 2.017115000000000009e+03
9.400000000000000022e-02 1.883050000000000002e-01 4.178605000000000302e+01 1.482755000000000223e+02 2.018134999999999991e+03
9.500000000000000111e-02 1.884325000000000028e-01 4.242354999999999876e+01 1.510330000000000155e+02 2.019099999999999909e+03
9.600000000000000200e-02 1.885519999999999974e-01 4.295645000000000380e+01 1.535349999999999966e+02 2.020009999999999991e+03
9.700000000000000289e-02 1.886615000000000097e-01 4.336755000000000138e+01 1.557390000000000043e+02 2.020839999999999918e+03
9.800000000000000377e-02 1.887579999999999814e-01 4.364249999999999829e+01 1.576105000000000018e+02 2.021585000000000036e+03
9.900000000000000466e-02 1.888420000000000099e-01 4.377074999999999960e+01 1.591254999999999882e+02 2.022224999999999909e+03
1.000000000000000056e-01 1.889115000000000100e-01 4.374559999999999604e+01 1.602710000000000150e+02 2.022759999999999991e+03
1.010000000000000064e-01 1.889655000000000085e-01 4.356520000000000437e+01 1.610459999999999923e+02 2.023184999999999945e+03
1.020000000000000073e-01 1.890054999999999930e-01 4.323199999999999932e+01 1.614600000000000080e+02 2.023494999999999891e+03
1.030000000000000082e-01 1.890299999999999758e-01 4.275294999999999845e+01 1.615330000000000155e+02 2.023694999999999936e+03
1.040000000000000091e-01 1.890410000000000146e-01 4.213924999999999699e+01 1.612944999999999993e+02 2.023789999999999964e+03
1.050000000000000100e-01 1.890384999999999982e-01 4.140550000000000352e+01 1.607814999999999941e+02 2.023784999999999854e+03
1.059999999999999970e-01 1.890249999999999986e-01 4.056929999999999836e+01 1.600360000000000014e+02 2.023690000000000055e+03
1.069999999999999979e-01 1.890009999999999746e-01 3.965040000000000475e+01 1.591039999999999850e+02 2.023525000000000091e+03
1.079999999999999988e-01 1.889695000000000125e-01 3.866960000000000264e+01 1.580330000000000155e+02 2.023289999999999964e+03
1.089999999999999997e-01 1.889310000000000156e-01 3.764825000000000443e+01 1.568714999999999975e+02 2.023014999999999873e+03
1.100000000000000006e-01 1.888890000000000013e-01 3.660705000000000098e+01 1.556639999999999873e+02 2.022695000000000164e+03
1.110000000000000014e-01 1.888434999999999975e-01 3.556555000000000177e+01 1.544499999999999886e+02 2.022360000000000127e+03
1.120000000000000023e-01 1.887969999999999926e-01 3.454120000000000346e+01 1.532669999999999959e+02 2.022009999999999991e+03
1.130000000000000032e-01 1.887504999999999877e-01 3.354909999999999570e+01 1.521424999999999841e+02 2.021659999999999854e+03
1.140000000000000041e-01 1.887064999999999992e-01 3.260110000000000241e+01 1.510989999999999895e+02 2.021325000000000045e+03
1.150000000000000050e-01 1.886639999999999984e-01 3.170589999999999975e+01 1.501514999999999986e+02 2.021000000000000000e+03
1.160000000000000059e-01 1.886249999999999871e-01 3.086880000000000024e+01 1.493050000000000068e+02 2.020704999999999927e+03
1.170000000000000068e-01 1.885895000000000210e-01 3.009145000000000181e+01 1.485575000000000045e+02 2.020434999999999945e+03
1.180000000000000077e-01 1.885574999999999890e-01 2.937219999999999942e+01 1.479025000000000034e+02 2.020184999999999945e+03
1.190000000000000085e-01 1.885284999999999878e-01 2.870635000000000048e+01 1.473235000000000241e+02 2.019964999999999918e+03
1.200000000000000094e-01 1.885020000000000029e-01 2.808650000000000091e+01 1.468000000000000114e+02 2.019759999999999991e+03
1.209999999999999964e-01 1.884775000000000200e-01 2.750294999999999845e+01 1.463075000000000045e+02 2.019565000000000055e+03
1.219999999999999973e-01 1.884544999999999970e-01 2.694445000000000334e+01 1.458185000000000002e+02 2.019384999999999991e+03
1.229999999999999982e-01 1.884310000000000151e-01 2.639869999999999806e+01 1.453040000000000020e+02 2.019204999999999927e+03
1.239999999999999991e-01 1.884065000000000045e-01 2.585320000000000107e+01 1.447364999999999782e+02 2.019019999999999982e+03
1.250000000000000000e-01 1.883799999999999919e-01 2.529565000000000197e+01 1.440869999999999891e+02 2.018815000000000055e+03
1.260000000000000009e-01 1.883495000000000030e-01 2.471499999999999986e+01 1.433340000000000032e+02 2.018589999999999918e+03
1.270000000000000018e-01 1.883159999999999834e-01 2.410170000000000101e+01 1.424569999999999936e+02 2.018335000000000036e+03
1.280000000000000027e-01 1.882769999999999999e-01 2.344839999999999947e+01 1.414440000000000168e+02 2.018045000000000073e+03
1.290000000000000036e-01 1.882329999999999837e-01 2.275025000000000119e+01 1.402870000000000061e+02 2.017715000000000146e+03
1.300000000000000044e-01 1.881835000000000035e-01 2.200545000000000329e+01 1.389859999999999900e+02 2.017345000000000027e+03
1.310000000000000053e-01 1.881285000000000041e-01 2.121499999999999986e+01 1.375495000000000232e+02 2.016934999999999945e+03
1.320000000000000062e-01 1.880680000000000129e-01 2.038305000000000078e+01 1.359909999999999854e+02 2.016480000000000018e+03
1.330000000000000071e-01 1.880030000000000034e-01 1.951634999999999920e+01 1.343305000000000007e+02 2.015990000000000009e+03
1.340000000000000080e-01 1.879335000000000033e-01 1.862429999999999808e+01 1.325949999999999989e+02 2.015470000000000027e+03
1.350000000000000089e-01 1.878610000000000002e-01 1.771840000000000259e+01 1.308135000000000048e+02 2.014930000000000064e+03
1.360000000000000098e-01 1.877865000000000228e-01 1.681145000000000067e+01 1.290194999999999936e+02 2.014369999999999891e+03
1.370000000000000107e-01 1.877115000000000034e-01 1.591729999999999912e+01 1.272475000000000023e+02 2.013809999999999945e+03
1.380000000000000115e-01 1.876375000000000126e-01 1.504994999999999905e+01 1.255304999999999893e+02 2.013255000000000109e+03
1.390000000000000124e-01 1.875649999999999817e-01 1.422309999999999874e+01 1.239010000000000105e+02 2.012710000000000036e+03
1.400000000000000133e-01 1.874959999999999960e-01 1.344920000000000115e+01 1.223880000000000052e+02 2.012190000000000055e+03
1.410000000000000142e-01 1.874315000000000009e-01 1.273944999999999972e+01 1.210144999999999982e+02 2.011704999999999927e+03
1.420000000000000151e-01 1.873724999999999974e-01 1.210275999999999996e+01 1.198015000000000043e+02 2.011260000000000218e+03
1.430000000000000160e-01 1.873194999999999999e-01 1.154594499999999968e+01 1.187609999999999957e+02 2.010860000000000127e+03
1.440000000000000169e-01 1.872734999999999816e-01 1.107319999999999993e+01 1.179000000000000057e+02 2.010505000000000109e+03
1.450000000000000178e-01 1.872344999999999982e-01 1.068613500000000016e+01 1.172199999999999989e+02 2.010204999999999927e+03
1.459999999999999909e-01 1.872030000000000083e-01 1.038386000000000031e+01 1.167154999999999916e+02 2.009960000000000036e+03
1.469999999999999918e-01 1.871780000000000110e-01 1.016314999999999991e+01 1.163764999999999930e+02 2.009769999999999982e+03
1.479999999999999927e-01 1.871599999999999930e-01 1.001866000000000057e+01 1.161894999999999953e+02 2.009625000000000000e+03
1.489999999999999936e-01 1.871479999999999810e-01 9.943214999999998582e+00 1.161355000000000075e+02 2.009525000000000091e+03
1.499999999999999944e-01 1.871415000000000162e-01 9.928325000000000955e+00 1.161945000000000050e+02 2.009474999999999909e+03
1.509999999999999953e-01 1.871399999999999730e-01 9.964375000000000426e+00 1.163444999999999965e+02 2.009454999999999927e+03
1.519999999999999962e-01 1.871424999999999894e-01 1.004139999999999944e+01 1.165629999999999882e+02 2.009465000000000146e+03
1.529999999999999971e-01 1.871475000000000222e-01 1.014902999999999977e+01 1.168275000000000006e+02 2.009500000000000000e+03
1.539999999999999980e-01 1.871555000000000024e-01 1.027715500000000048e+01 1.171170000000000044e+02 2.009555000000000064e+03
1.549999999999999989e-01 1.871645000000000114e-01 1.041615000000000002e+01 1.174114999999999895e+02 2.009619999999999891e+03
1.559999999999999998e-01 1.871745000000000214e-01 1.055724999999999980e+01 1.176949999999999932e+02 2.009690000000000055e+03
1.570000000000000007e-01 1.871839999999999893e-01 1.069259999999999877e+01 1.179525000000000006e+02 2.009759999999999991e+03
1.580000000000000016e-01 1.871929999999999983e-01 1.081559999999999988e+01 1.181724999999999994e+02 2.009829999999999927e+03
1.590000000000000024e-01 1.872010000000000063e-01 1.092105000000000103e+01 1.183464999999999918e+02 2.009889999999999873e+03
