# t [s], A [cm^2], U [cm/s], P [cPa], c [cm/s]
1.000000000000000021e-03 4.689204999999999623e-01 3.094550000000001466e-03 9.901460000000000150e+01 1.642565000000000055e+03
2.000000000000000042e-03 4.689174999999999871e-01 1.139694999999999944e-02 9.899594999999999345e+01 1.642559999999999945e+03
3.000000000000000062e-03 4.689725000000000144e-01 1.487114999999999965e-01 9.914644999999998731e+01 1.642599999999999909e+03
4.000000000000000083e-03 4.689940000000000220e-01 2.177825000000000177e-01 9.923175000000000523e+01 1.642619999999999891e+03
5.000000000000000104e-03 4.689530000000000087e-01 1.345130000000000214e-01 9.906954999999999245e+01 1.642585000000000036e+03
6.000000000000000125e-03 4.688984999999999959e-01 8.091999999999988091e-03 9.875119999999999720e+01 1.642510000000000218e+03
7.000000000000000146e-03 4.688324999999999854e-01 -1.589700000000000557e-01 9.829959999999999809e+01 1.642404999999999973e+03
8.000000000000000167e-03 4.687144999999999784e-01 -4.695250000000000812e-01 9.757650000000001000e+01 1.642230000000000018e+03
9.000000000000001055e-03 4.685369999999999813e-01 -9.385749999999999371e-01 9.650925000000000864e+01 1.641965000000000146e+03
1.000000000000000194e-02 4.682920000000000416e-01 -1.571644999999999737e+00 9.504080000000000439e+01 1.641595000000000027e+03
1.099999999999999936e-02 4.679625000000000035e-01 -2.388429999999999609e+00 9.309489999999999554e+01 1.641095000000000027e+03
1.200000000000000025e-02 4.675629999999999509e-01 -3.328064999999999607e+00 9.069665000000000532e+01 1.640464999999999918e+03
1.300000000000000114e-02 4.671490000000000364e-01 -4.214660000000000295e+00 8.805580000000000496e+01 1.639744999999999891e+03
1.400000000000000203e-02 4.667864999999999931e-01 -4.839819500000000829e+00 8.549139999999999873e+01 1.639019999999999982e+03
1.499999999999999944e-02 4.665159999999999862e-01 -5.069512500000000088e+00 8.327859999999999729e+01 1.638344999999999800e+03
1.600000000000000033e-02 4.663349999999999995e-01 -4.892459999999999809e+00 8.153909999999999059e+01 1.637769999999999982e+03
1.700000000000000122e-02 4.662085000000000257e-01 -4.402555000000000440e+00 8.022075000000000955e+01 1.637285000000000082e+03
1.800000000000000211e-02 4.660895000000000454e-01 -3.745649999999999924e+00 7.914664999999999395e+01 1.636865000000000009e+03
1.900000000000000300e-02 4.659375000000000044e-01 -3.058947499999999931e+00 7.809975000000000023e+01 1.636460000000000036e+03
2.000000000000000042e-02 4.657319999999999793e-01 -2.424807500000000005e+00 7.690834999999999866e+01 1.636035000000000082e+03
2.100000000000000130e-02 4.654769999999999741e-01 -1.854769999999999808e+00 7.549864999999999782e+01 1.635565000000000055e+03
2.200000000000000219e-02 4.651925000000000088e-01 -1.307690000000000241e+00 7.389724999999999966e+01 1.635045000000000073e+03
2.299999999999999961e-02 4.649024999999999963e-01 -7.288049999999999251e-01 7.218885000000000218e+01 1.634494999999999891e+03
2.400000000000000050e-02 4.646204999999999918e-01 -8.834499999999989583e-02 7.045734999999999104e+01 1.633940000000000055e+03
2.500000000000000139e-02 4.643470000000000097e-01 5.962450000000001360e-01 6.873770000000000380e+01 1.633375000000000000e+03
2.600000000000000228e-02 4.640634999999999621e-01 1.259055000000000035e+00 6.699405000000000143e+01 1.632799999999999955e+03
2.700000000000000316e-02 4.637454999999999772e-01 1.801629999999999843e+00 6.512610000000000809e+01 1.632190000000000055e+03
2.800000000000000058e-02 4.633660000000000001e-01 2.118920000000000137e+00 6.299779999999999802e+01 1.631529999999999973e+03
2.900000000000000147e-02 4.629035000000000233e-01 2.127554999999999641e+00 6.047915000000000418e+01 1.630765000000000100e+03
3.000000000000000236e-02 4.623515000000000263e-01 1.788959999999999884e+00 5.748910000000000053e+01 1.629890000000000100e+03
3.099999999999999978e-02 4.617204999999999782e-01 1.120870000000000033e+00 5.402680000000000149e+01 1.628889999999999873e+03
3.200000000000000067e-02 4.610360000000000014e-01 1.942500000000002558e-01 5.018224999999999625e+01 1.627795000000000073e+03
3.300000000000000155e-02 4.603340000000000209e-01 -8.824499999999995126e-01 4.612415000000000020e+01 1.626625000000000000e+03
3.400000000000000244e-02 4.596549999999999803e-01 -1.985414999999999708e+00 4.207104999999999961e+01 1.625440000000000055e+03
3.500000000000000333e-02 4.590359999999999996e-01 -2.996430000000000149e+00 3.825570000000000448e+01 1.624295000000000073e+03
3.600000000000000422e-02 4.585084999999999855e-01 -3.818854999999999666e+00 3.489204999999999757e+01 1.623259999999999991e+03
3.700000000000000511e-02 4.580925000000000136e-01 -4.385225000000000151e+00 3.215084999999999837e+01 1.622369999999999891e+03
3.799999999999999906e-02 4.577990000000000115e-01 -4.657850500000000338e+00 3.014669999999999916e+01 1.621674999999999955e+03
3.899999999999999994e-02 4.576320000000000388e-01 -4.624245000000000161e+00 2.893650000000000233e+01 1.621190000000000055e+03
4.000000000000000083e-02 4.575869999999999660e-01 -4.289419999999999789e+00 2.852645000000000053e+01 1.620924999999999955e+03
4.100000000000000172e-02 4.576580000000000092e-01 -3.668115000000000236e+00 2.888465000000000060e+01 1.620884999999999991e+03
4.200000000000000261e-02 4.578355000000000063e-01 -2.778686500000000059e+00 2.995510000000000161e+01 1.621059999999999945e+03
4.300000000000000350e-02 4.581089999999999884e-01 -1.639980000000000215e+00 3.166929999999999978e+01 1.621434999999999945e+03
4.400000000000000439e-02 4.584699999999999886e-01 -2.712200000000000166e-01 3.395394999999999897e+01 1.621985000000000127e+03
4.499999999999999833e-02 4.589069999999999538e-01 1.305954999999999977e+00 3.673359999999999559e+01 1.622695000000000164e+03
4.599999999999999922e-02 4.594080000000000386e-01 3.064810000000000034e+00 3.993049999999999500e+01 1.623549999999999955e+03
4.700000000000000011e-02 4.599609999999999532e-01 4.971629999999999328e+00 4.346269999999999811e+01 1.624509999999999991e+03
4.800000000000000100e-02 4.605509999999999882e-01 6.985244999999999038e+00 4.724344999999999573e+01 1.625565000000000055e+03
4.900000000000000189e-02 4.611635000000000040e-01 9.058754499999999155e+00 5.118169999999999931e+01 1.626684999999999945e+03
5.000000000000000278e-02 4.617824999999999847e-01 1.114228999999999914e+01 5.518510000000000559e+01 1.627844999999999800e+03
5.100000000000000366e-02 4.623950000000000005e-01 1.318699000000000154e+01 5.916465000000000174e+01 1.629014999999999873e+03
5.200000000000000455e-02 4.629874999999999963e-01 1.514863500000000052e+01 6.304009999999999536e+01 1.630175000000000182e+03
5.300000000000000544e-02 4.635510000000000463e-01 1.699096499999999921e+01 6.674549999999999272e+01 1.631309999999999945e+03
5.399999999999999939e-02 4.640794999999999781e-01 1.868769999999999953e+01 7.023265000000000668e+01 1.632394999999999982e+03
5.500000000000000028e-02 4.645704999999999973e-01 2.022334999999999994e+01 7.347390000000000043e+01 1.633420000000000073e+03
5.600000000000000117e-02 4.650239999999999929e-01 2.159295000000000186e+01 7.646224999999999739e+01 1.634384999999999991e+03
5.700000000000000205e-02 4.654430000000000511e-01 2.280085000000000051e+01 7.920945000000000391e+01 1.635284999999999854e+03
5.800000000000000294e-02 4.658339999999999703e-01 2.385900000000000176e+01 8.174344999999999573e+01 1.636125000000000000e+03
5.900000000000000383e-02 4.662020000000000053e-01 2.478500000000000014e+01 8.410439999999999827e+01 1.636914999999999964e+03
6.000000000000000472e-02 4.665565000000000406e-01 2.560025000000000261e+01 8.633994999999998754e+01 1.637670000000000073e+03
6.099999999999999867e-02 4.669039999999999857e-01 2.632809999999999917e+01 8.850180000000000291e+01 1.638394999999999982e+03
6.199999999999999956e-02 4.672534999999999883e-01 2.699239999999999995e+01 9.064119999999999777e+01 1.639109999999999900e+03
6.300000000000000044e-02 4.676105000000000400e-01 2.761605000000000132e+01 9.280594999999999573e+01 1.639825000000000045e+03
6.400000000000000133e-02 4.679814999999999392e-01 2.821965000000000146e+01 9.503674999999999784e+01 1.640549999999999955e+03
6.500000000000000222e-02 4.683709999999999818e-01 2.882010000000000005e+01 9.736545000000000982e+01 1.641295000000000073e+03
6.600000000000000311e-02 4.687799999999999745e-01 2.942974999999999852e+01 9.981130000000000280e+01 1.642069999999999936e+03
6.700000000000000400e-02 4.692095000000000016e-01 3.005530000000000257e+01 1.023815999999999917e+02 1.642884999999999991e+03
6.800000000000000488e-02 4.696579999999999644e-01 3.069729999999999848e+01 1.050695000000000050e+02 1.643730000000000018e+03
6.900000000000000577e-02 4.701200000000000379e-01 3.135024999999999906e+01 1.078545000000000016e+02 1.644599999999999909e+03
7.000000000000000666e-02 4.705909999999999815e-01 3.200300000000000011e+01 1.107030000000000030e+02 1.645490000000000009e+03
7.100000000000000755e-02 4.710624999999999951e-01 3.263980000000000103e+01 1.135724999999999909e+02 1.646389999999999873e+03
7.200000000000000844e-02 4.715274999999999883e-01 3.324150000000000205e+01 1.164134999999999991e+02 1.647284999999999854e+03
7.300000000000000933e-02 4.719760000000000066e-01 3.378710000000000235e+01 1.191705000000000041e+02 1.648159999999999854e+03
7.399999999999999634e-02 4.724000000000000421e-01 3.425549999999999784e+01 1.217884999999999991e+02 1.649005000000000109e+03
7.499999999999999722e-02 4.727915000000000312e-01 3.462690000000000623e+01 1.242175000000000011e+02 1.649799999999999955e+03
7.599999999999999811e-02 4.731440000000000090e-01 3.488410000000000366e+01 1.264115000000000038e+02 1.650529999999999973e+03
7.699999999999999900e-02 4.734524999999999983e-01 3.501364999999999839e+01 1.283329999999999984e+02 1.651184999999999945e+03
7.799999999999999989e-02 4.737124999999999808e-01 3.500650000000000261e+01 1.299579999999999984e+02 1.651755000000000109e+03
7.900000000000000078e-02 4.739240000000000119e-01 3.485864999999999725e+01 1.312704999999999984e+02 1.652235000000000127e+03
8.000000000000000167e-02 4.740860000000000074e-01 3.457085000000000008e+01 1.322690000000000055e+02 1.652625000000000000e+03
8.100000000000000255e-02 4.742005000000000248e-01 3.414880000000000138e+01 1.329615000000000009e+02 1.652920000000000073e+03
8.200000000000000344e-02 4.742709999999999981e-01 3.360275000000000034e+01 1.333669999999999902e+02 1.653125000000000000e+03
8.300000000000000433e-02 4.743020000000000014e-01 3.294660000000000366e+01 1.335140000000000100e+02 1.653244999999999891e+03
8.400000000000000522e-02 4.742994999999999850e-01 3.219744999999999635e+01 1.334379999999999882e+02 1.653299999999999955e+03
8.500000000000000611e-02 4.742695000000000105e-01 3.137480000000000047e+01 1.331779999999999973e+02 1.653284999999999854e+03
8.600000000000000699e-02 4.742189999999999461e-01 3.049934999999999974e+01 1.327770000000000152e+02 1.653220000000000027e+03
8.700000000000000788e-02 4.741539999999999644e-01 2.959240000000000137e+01 1.322789999999999964e+02 1.653115000000000009e+03
8.800000000000000877e-02 4.740814999999999890e-01 2.867464999999999975e+01 1.317264999999999873e+02 1.652985000000000127e+03
8.899999999999999578e-02 4.740079999999999849e-01 2.776539999999999964e+01 1.311589999999999918e+02 1.652845000000000027e+03
8.999999999999999667e-02 4.739375000000000115e-01 2.688179999999999836e+01 1.306100000000000136e+02 1.652700000000000045e+03
9.099999999999999756e-02 4.738744999999999763e-01 2.603810000000000002e+01 1.301084999999999923e+02 1.652555000000000064e+03
9.199999999999999845e-02 4.738215000000000066e-01 2.524510000000000076e+01 1.296754999999999995e+02 1.652425000000000182e+03
9.299999999999999933e-02 4.737810000000000077e-01 2.450985000000000014e+01 1.293259999999999934e+02 1.652320000000000164e+03
9.400000000000000022e-02 4.737534999999999941e-01 2.383559999999999945e+01 1.290635000000000048e+02 1.652224999999999909e+03
9.500000000000000111e-02 4.737379999999999924e-01 2.322180000000000177e+01 1.288870000000000005e+02 1.652160000000000082e+03
9.600000000000000200e-02 4.737325000000000008e-01 2.266414999999999935e+01 1.287884999999999991e+02 1.652110000000000127e+03
9.700000000000000289e-02 4.737350000000000172e-01 2.215565000000000140e+01 1.287510000000000048e+02 1.652079999999999927e+03
9.800000000000000377e-02 4.737415000000000376e-01 2.168654999999999688e+01 1.287555000000000121e+02 1.652065000000000055e+03
9.900000000000000466e-02 4.737495000000000456e-01 2.124530000000000030e+01 1.287789999999999964e+02 1.652059999999999945e+03
1.000000000000000056e-01 4.737540000000000084e-01 2.081929999999999836e+01 1.287959999999999923e+02 1.652049999999999955e+03
1.010000000000000064e-01 4.737509999999999777e-01 2.039549999999999841e+01 1.287800000000000011e+02 1.652039999999999964e+03
1.020000000000000073e-01 4.737374999999999781e-01 1.996144999999999925e+01 1.287065000000000055e+02 1.652009999999999991e+03
1.030000000000000082e-01 4.737100000000000199e-01 1.950564999999999927e+01 1.285545000000000186e+02 1.651965000000000146e+03
1.040000000000000091e-01 4.736655000000000171e-01 1.901849999999999952e+01 1.283050000000000068e+02 1.651894999999999982e+03
1.050000000000000100e-01 4.736034999999999551e-01 1.849244999999999806e+01 1.279445000000000050e+02 1.651789999999999964e+03
1.059999999999999970e-01 4.735209999999999697e-01 1.792285000000000039e+01 1.274650000000000034e+02 1.651654999999999973e+03
1.069999999999999979e-01 4.734200000000000075e-01 1.730770000000000053e+01 1.268644999999999925e+02 1.651485000000000127e+03
1.079999999999999988e-01 4.733005000000000129e-01 1.664825000000000088e+01 1.261465000000000032e+02 1.651284999999999854e+03
1.089999999999999997e-01 4.731640000000000290e-01 1.594875000000000043e+01 1.253220000000000027e+02 1.651049999999999955e+03
1.100000000000000006e-01 4.730149999999999633e-01 1.521604999999999919e+01 1.244055000000000035e+02 1.650784999999999854e+03
1.110000000000000014e-01 4.728550000000000253e-01 1.445955999999999975e+01 1.234179999999999922e+02 1.650494999999999891e+03
1.120000000000000023e-01 4.726894999999999847e-01 1.369079499999999960e+01 1.223834999999999980e+02 1.650190000000000055e+03
1.130000000000000032e-01 4.725219999999999976e-01 1.292248500000000000e+01 1.213280000000000030e+02 1.649875000000000000e+03
1.140000000000000041e-01 4.723564999999999570e-01 1.216837999999999909e+01 1.202800000000000011e+02 1.649559999999999945e+03
1.150000000000000050e-01 4.721984999999999655e-01 1.144229499999999966e+01 1.192680000000000007e+02 1.649250000000000000e+03
1.160000000000000059e-01 4.720519999999999716e-01 1.075739000000000090e+01 1.183179999999999978e+02 1.648949999999999818e+03
1.170000000000000068e-01 4.719194999999999363e-01 1.012580499999999972e+01 1.174550000000000125e+02 1.648675000000000182e+03
1.180000000000000077e-01 4.718049999999999744e-01 9.557880000000000820e+00 1.166989999999999981e+02 1.648424999999999955e+03
1.190000000000000085e-01 4.717104999999999770e-01 9.061675000000001035e+00 1.160655000000000001e+02 1.648210000000000036e+03
1.200000000000000094e-01 4.716374999999999873e-01 8.642780000000000129e+00 1.155660000000000025e+02 1.648029999999999973e+03
1.209999999999999964e-01 4.715860000000000052e-01 8.303990000000000649e+00 1.152055000000000007e+02 1.647889999999999873e+03
1.219999999999999973e-01 4.715564999999999896e-01 8.045410000000000394e+00 1.149830000000000041e+02 1.647784999999999854e+03
1.229999999999999982e-01 4.715464999999999796e-01 7.864399999999999835e+00 1.148930000000000007e+02 1.647730000000000018e+03
1.239999999999999991e-01 4.715555000000000163e-01 7.755995000000000417e+00 1.149254999999999995e+02 1.647704999999999927e+03
1.250000000000000000e-01 4.715799999999999992e-01 7.713165000000000049e+00 1.150655000000000001e+02 1.647715000000000146e+03
1.260000000000000009e-01 4.716179999999999817e-01 7.727270000000000749e+00 1.152955000000000041e+02 1.647755000000000109e+03
1.270000000000000018e-01 4.716655000000000153e-01 7.788489999999999469e+00 1.155960000000000036e+02 1.647815000000000055e+03
1.280000000000000027e-01 4.717204999999999870e-01 7.886355000000000004e+00 1.159465000000000003e+02 1.647900000000000091e+03
1.290000000000000036e-01 4.717784999999999895e-01 8.010194999999999510e+00 1.163280000000000030e+02 1.647994999999999891e+03
1.300000000000000044e-01 4.718374999999999653e-01 8.149589999999999890e+00 1.167195000000000107e+02 1.648099999999999909e+03
1.310000000000000053e-01 4.718944999999999945e-01 8.294710000000000250e+00 1.171039999999999992e+02 1.648199999999999818e+03
1.320000000000000062e-01 4.719479999999999786e-01 8.436734999999998763e+00 1.174664999999999964e+02 1.648305000000000064e+03
1.330000000000000071e-01 4.719949999999999979e-01 8.568014999999999048e+00 1.177940000000000111e+02 1.648400000000000091e+03
1.340000000000000080e-01 4.720345000000000235e-01 8.682315000000000893e+00 1.180764999999999958e+02 1.648490000000000009e+03
1.350000000000000089e-01 4.720670000000000144e-01 8.774895000000000778e+00 1.183094999999999999e+02 1.648559999999999945e+03
1.360000000000000098e-01 4.720904999999999685e-01 8.842584999999999695e+00 1.184885000000000019e+02 1.648619999999999891e+03
1.370000000000000107e-01 4.721060000000000256e-01 8.883700000000001040e+00 1.186129999999999995e+02 1.648670000000000073e+03
1.380000000000000115e-01 4.721140000000000336e-01 8.898089999999999833e+00 1.186864999999999952e+02 1.648700000000000045e+03
1.390000000000000124e-01 4.721149999999999514e-01 8.886789999999999523e+00 1.187134999999999962e+02 1.648719999999999800e+03
1.400000000000000133e-01 4.721110000000000584e-01 8.852104999999999890e+00 1.187005000000000052e+02 1.648724999999999909e+03
1.410000000000000142e-01 4.721019999999999661e-01 8.797264999999999446e+00 1.186550000000000011e+02 1.648720000000000027e+03
1.420000000000000151e-01 4.720900000000000096e-01 8.726105000000000445e+00 1.185865000000000009e+02 1.648710000000000036e+03
1.430000000000000160e-01 4.720770000000000244e-01 8.643069999999999808e+00 1.185045000000000073e+02 1.648694999999999936e+03
1.440000000000000169e-01 4.720639999999999836e-01 8.552635000000000431e+00 1.184175000000000040e+02 1.648674999999999955e+03
1.450000000000000178e-01 4.720514999999999572e-01 8.459414999999999907e+00 1.183344999999999914e+02 1.648654999999999973e+03
1.459999999999999909e-01 4.720419999999999616e-01 8.367560000000000997e+00 1.182630000000000052e+02 1.648639999999999873e+03
1.469999999999999918e-01 4.720354999999999968e-01 8.280899999999999039e+00 1.182090000000000032e+02 1.648619999999999891e+03
1.479999999999999927e-01 4.720330000000000359e-01 8.202519999999999811e+00 1.181779999999999973e+02 1.648615000000000009e+03
1.489999999999999936e-01 4.720349999999999824e-01 8.134785000000000821e+00 1.181715000000000089e+02 1.648615000000000009e+03
1.499999999999999944e-01 4.720404999999999740e-01 8.079200000000000159e+00 1.181920000000000073e+02 1.648615000000000009e+03
1.509999999999999953e-01 4.720505000000000395e-01 8.036445000000000505e+00 1.182390000000000043e+02 1.648630000000000109e+03
1.519999999999999962e-01 4.720639999999999836e-01 8.006384999999999863e+00 1.183094999999999999e+02 1.648650000000000091e+03
1.529999999999999971e-01 4.720805000000000140e-01 7.988144999999999385e+00 1.184010000000000105e+02 1.648670000000000073e+03
1.539999999999999980e-01 4.720995000000000053e-01 7.980229999999999713e+00 1.185074999999999932e+02 1.648699999999999818e+03
1.549999999999999989e-01 4.721195000000000253e-01 7.980660000000000309e+00 1.186239999999999952e+02 1.648730000000000018e+03
1.559999999999999998e-01 4.721400000000000041e-01 7.987140000000000128e+00 1.187454999999999927e+02 1.648769999999999982e+03
1.570000000000000007e-01 4.721600000000000241e-01 7.997184999999999988e+00 1.188654999999999973e+02 1.648805000000000064e+03
1.580000000000000016e-01 4.721779999999999866e-01 8.008330000000000837e+00 1.189784999999999968e+02 1.648835000000000036e+03
1.590000000000000024e-01 4.721944999999999615e-01 8.018225000000001046e+00 1.190794999999999959e+02 1.648865000000000009e+03
