# t [s], A [cm^2], U [cm/s], P [cPa], c [cm/s]
1.000000000000000021e-03 2.164860000000000118e-01 2.539485000000000214e-01 9.305264999999999986e+01 2.090730000000000018e+03
2.000000000000000042e-03 2.164360000000000173e-01 1.646644500000000066e+00 9.003460000000001173e+01 2.090385000000000218e+03
3.000000000000000062e-03 2.162930000000000130e-01 3.387878000000000167e+00 8.581000000000000227e+01 2.089460000000000036e+03
4.000000000000000083e-03 2.160940000000000083e-01 5.355405000000000193e+00 8.112709999999999866e+01 2.088184999999999945e+03
5.000000000000000104e-03 2.158774999999999999e-01 7.485854999999999926e+00 7.685589999999999122e+01 2.086815000000000055e+03
6.000000000000000125e-03 2.156679999999999986e-01 9.618690000000000850e+00 7.333214999999999861e+01 2.085500000000000000e+03
7.000000000000000146e-03 2.154714999999999825e-01 1.154109000000000052e+01 7.034649999999999181e+01 2.084289999999999964e+03
8.000000000000000167e-03 2.152910000000000101e-01 1.315759999999999863e+01 6.765739999999999554e+01 2.083194999999999709e+03
9.000000000000001055e-03 2.151309999999999889e-01 1.449920000000000009e+01 6.530299999999999727e+01 2.082239999999999782e+03
1.000000000000000194e-02 2.149955000000000060e-01 1.560345000000000049e+01 6.337225000000000108e+01 2.081449999999999818e+03
1.099999999999999936e-02 2.148849999999999927e-01 1.648685000000000045e+01 6.185589999999999833e+01 2.080805000000000291e+03
1.200000000000000025e-02 2.147970000000000157e-01 1.716179999999999950e+01 6.069395000000000095e+01 2.080300000000000182e+03
1.300000000000000114e-02 2.147275000000000156e-01 1.763100000000000023e+01 5.978520000000000323e+01 2.079905000000000200e+03
1.400000000000000203e-02 2.146710000000000007e-01 1.790119999999999933e+01 5.900674999999999670e+01 2.079590000000000146e+03
1.499999999999999944e-02 2.146250000000000102e-01 1.802839999999999776e+01 5.833749999999999858e+01 2.079344999999999800e+03
1.600000000000000033e-02 2.145929999999999782e-01 1.813694999999999879e+01 5.796764999999999901e+01 2.079175000000000182e+03
1.700000000000000122e-02 2.145855000000000123e-01 1.837575000000000003e+01 5.823935000000000173e+01 2.079144999999999982e+03
1.800000000000000211e-02 2.146129999999999982e-01 1.884169999999999945e+01 5.943795000000000073e+01 2.079309999999999945e+03
1.900000000000000300e-02 2.146779999999999800e-01 1.952609999999999957e+01 6.158660000000000423e+01 2.079694999999999709e+03
2.000000000000000042e-02 2.147749999999999937e-01 2.031555000000000177e+01 6.438009999999999877e+01 2.080269999999999982e+03
2.100000000000000130e-02 2.148875000000000091e-01 2.104015000000000057e+01 6.728159999999999741e+01 2.080940000000000055e+03
2.200000000000000219e-02 2.149949999999999917e-01 2.153950000000000031e+01 6.971635000000000559e+01 2.081595000000000255e+03
2.299999999999999961e-02 2.150814999999999810e-01 2.171685000000000088e+01 7.126574999999999704e+01 2.082130000000000109e+03
2.400000000000000050e-02 2.151350000000000207e-01 2.156295000000000073e+01 7.178540000000000987e+01 2.082475000000000364e+03
2.500000000000000139e-02 2.151554999999999995e-01 2.114500000000000313e+01 7.141204999999999359e+01 2.082619999999999891e+03
2.600000000000000228e-02 2.151484999999999925e-01 2.057104999999999961e+01 7.047204999999999586e+01 2.082595000000000255e+03
2.700000000000000316e-02 2.151244999999999963e-01 1.994555000000000078e+01 6.933899999999999864e+01 2.082470000000000255e+03
2.800000000000000058e-02 2.150944999999999940e-01 1.933509999999999707e+01 6.830004999999999882e+01 2.082295000000000073e+03
2.900000000000000147e-02 2.150654999999999928e-01 1.875435000000000230e+01 6.747804999999999609e+01 2.082119999999999891e+03
3.000000000000000236e-02 2.150389999999999802e-01 1.817325000000000301e+01 6.682609999999999673e+01 2.081960000000000036e+03
3.099999999999999978e-02 2.150115000000000220e-01 1.754015000000000057e+01 6.618425000000000580e+01 2.081795000000000073e+03
3.200000000000000067e-02 2.149789999999999757e-01 1.680984999999999729e+01 6.536910000000000309e+01 2.081605000000000018e+03
3.300000000000000155e-02 2.149375000000000036e-01 1.596790000000000020e+01 6.426335000000000264e+01 2.081359999999999673e+03
3.400000000000000244e-02 2.148844999999999783e-01 1.504384999999999906e+01 6.287619999999999720e+01 2.081055000000000291e+03
3.500000000000000333e-02 2.148245000000000016e-01 1.410855000000000103e+01 6.135799999999999699e+01 2.080699999999999818e+03
3.600000000000000422e-02 2.147644999999999971e-01 1.325839999999999996e+01 5.996439999999999770e+01 2.080344999999999800e+03
3.700000000000000511e-02 2.147140000000000160e-01 1.258970000000000056e+01 5.898505000000000109e+01 2.080039999999999964e+03
3.799999999999999906e-02 2.146830000000000127e-01 1.217379999999999995e+01 5.865975000000000250e+01 2.079845000000000255e+03
3.899999999999999994e-02 2.146790000000000087e-01 1.203819999999999979e+01 5.910979999999999990e+01 2.079805000000000291e+03
4.000000000000000083e-02 2.147045000000000203e-01 1.216060000000000052e+01 6.030295000000000272e+01 2.079934999999999945e+03
4.100000000000000172e-02 2.147550000000000014e-01 1.247439999999999927e+01 6.205969999999999942e+01 2.080224999999999909e+03
4.200000000000000261e-02 2.148239999999999872e-01 1.288309999999999889e+01 6.409349999999999170e+01 2.080619999999999891e+03
4.300000000000000350e-02 2.149000000000000077e-01 1.327965000000000018e+01 6.607009999999999650e+01 2.081070000000000164e+03
4.400000000000000439e-02 2.149710000000000232e-01 1.356429999999999936e+01 6.767109999999999559e+01 2.081494999999999891e+03
4.499999999999999833e-02 2.150265000000000093e-01 1.365869999999999962e+01 6.864500000000001023e+01 2.081824999999999818e+03
4.599999999999999922e-02 2.150569999999999982e-01 1.351370000000000005e+01 6.883814999999999884e+01 2.082015000000000327e+03
4.700000000000000011e-02 2.150575000000000125e-01 1.311040000000000028e+01 6.820300000000000296e+01 2.082034999999999854e+03
4.800000000000000100e-02 2.150269999999999959e-01 1.245615000000000094e+01 6.678549999999999898e+01 2.081864999999999782e+03
4.900000000000000189e-02 2.149665000000000048e-01 1.157761999999999958e+01 6.469955000000000211e+01 2.081515000000000327e+03
5.000000000000000278e-02 2.148795000000000011e-01 1.051263999999999932e+01 6.209595000000000198e+01 2.081005000000000109e+03
5.100000000000000366e-02 2.147719999999999907e-01 9.303584999999999994e+00 5.913459999999999894e+01 2.080369999999999891e+03
5.200000000000000455e-02 2.146484999999999921e-01 7.992734999999999701e+00 5.596420000000000528e+01 2.079644999999999982e+03
5.300000000000000544e-02 2.145154999999999978e-01 6.620404999999999873e+00 5.271259999999999479e+01 2.078850000000000364e+03
5.399999999999999939e-02 2.143774999999999986e-01 5.224834999999999674e+00 4.948550000000000182e+01 2.078029999999999745e+03
5.500000000000000028e-02 2.142384999999999984e-01 3.843626999999999683e+00 4.637245000000000061e+01 2.077199999999999818e+03
5.600000000000000117e-02 2.141035000000000021e-01 2.515110500000000027e+00 4.345439999999999969e+01 2.076394999999999982e+03
5.700000000000000205e-02 2.139759999999999995e-01 1.279339999999999922e+00 4.081125000000000114e+01 2.075630000000000109e+03
5.800000000000000294e-02 2.138595000000000079e-01 1.780100000000000016e-01 3.852595000000000169e+01 2.074930000000000291e+03
5.900000000000000383e-02 2.137590000000000046e-01 -7.467650000000000121e-01 3.668460000000000321e+01 2.074315000000000055e+03
6.000000000000000472e-02 2.136775000000000202e-01 -1.454656500000000019e+00 3.537259999999999849e+01 2.073815000000000055e+03
6.099999999999999867e-02 2.136184999999999889e-01 -1.909812500000000135e+00 3.466825000000000045e+01 2.073454999999999927e+03
6.199999999999999956e-02 2.135865000000000125e-01 -2.083709999999999951e+00 3.463465000000000060e+01 2.073244999999999891e+03
6.300000000000000044e-02 2.135835000000000095e-01 -1.957520000000000149e+00 3.531265000000000498e+01 2.073204999999999927e+03
6.400000000000000133e-02 2.136100000000000221e-01 -1.523724500000000148e+00 3.671564999999999657e+01 2.073345000000000255e+03
6.500000000000000222e-02 2.136679999999999968e-01 -7.867550000000000932e-01 3.882685000000000031e+01 2.073670000000000073e+03
6.600000000000000311e-02 2.137565000000000159e-01 2.373450000000001392e-01 4.160009999999999764e+01 2.074180000000000291e+03
6.700000000000000400e-02 2.138729999999999798e-01 1.522069999999999812e+00 4.496290000000000475e+01 2.074855000000000018e+03
6.800000000000000488e-02 2.140150000000000108e-01 3.032316499999999859e+00 4.882205000000000439e+01 2.075690000000000055e+03
6.900000000000000577e-02 2.141794999999999949e-01 4.726639999999999731e+00 5.307000000000000028e+01 2.076650000000000091e+03
7.000000000000000666e-02 2.143605000000000094e-01 6.559705000000000119e+00 5.759220000000000539e+01 2.077724999999999909e+03
7.100000000000000755e-02 2.145544999999999813e-01 8.484909999999999286e+00 6.227445000000000164e+01 2.078875000000000000e+03
7.200000000000000844e-02 2.147569999999999757e-01 1.045683999999999969e+01 6.700929999999999609e+01 2.080079999999999927e+03
7.300000000000000933e-02 2.149625000000000008e-01 1.243340000000000067e+01 7.170220000000000482e+01 2.081310000000000400e+03
7.399999999999999634e-02 2.151679999999999982e-01 1.437805000000000000e+01 7.627615000000000123e+01 2.082550000000000182e+03
7.499999999999999722e-02 2.153705000000000203e-01 1.626095000000000113e+01 8.067474999999998886e+01 2.083769999999999982e+03
7.599999999999999811e-02 2.155670000000000086e-01 1.806005000000000038e+01 8.486374999999999602e+01 2.084949999999999818e+03
7.699999999999999900e-02 2.157560000000000033e-01 1.976109999999999900e+01 8.883054999999998813e+01 2.086099999999999909e+03
7.799999999999999989e-02 2.159375000000000044e-01 2.135764999999999958e+01 9.258224999999998772e+01 2.087204999999999927e+03
7.900000000000000078e-02 2.161104999999999832e-01 2.284965000000000046e+01 9.614189999999999259e+01 2.088260000000000218e+03
8.000000000000000167e-02 2.162769999999999970e-01 2.424239999999999995e+01 9.954290000000000305e+01 2.089275000000000091e+03
8.100000000000000255e-02 2.164369999999999905e-01 2.554495000000000005e+01 1.028258000000000010e+02 2.090255000000000109e+03
8.200000000000000344e-02 2.165929999999999800e-01 2.676820000000000022e+01 1.060314999999999941e+02 2.091210000000000036e+03
8.300000000000000433e-02 2.167454999999999798e-01 2.792354999999999876e+01 1.091965000000000003e+02 2.092144999999999982e+03
8.400000000000000522e-02 2.168964999999999921e-01 2.902150000000000318e+01 1.123505000000000109e+02 2.093069999999999709e+03
8.500000000000000611e-02 2.170469999999999899e-01 3.007059999999999889e+01 1.155134999999999934e+02 2.093989999999999782e+03
8.600000000000000699e-02 2.171965000000000146e-01 3.107674999999999699e+01 1.186945000000000050e+02 2.094909999999999854e+03
8.700000000000000788e-02 2.173474999999999990e-01 3.204279999999999973e+01 1.218919999999999959e+02 2.095829999999999927e+03
8.800000000000000877e-02 2.174985000000000113e-01 3.296859999999999502e+01 1.250939999999999941e+02 2.096755000000000109e+03
8.899999999999999578e-02 2.176484999999999947e-01 3.385105000000000075e+01 1.282800000000000011e+02 2.097675000000000182e+03
8.999999999999999667e-02 2.177975000000000050e-01 3.468439999999999657e+01 1.314219999999999970e+02 2.098590000000000146e+03
9.099999999999999756e-02 2.179444999999999855e-01 3.546079999999999899e+01 1.344879999999999995e+02 2.099489999999999782e+03
9.199999999999999845e-02 2.180869999999999753e-01 3.617074999999999818e+01 1.374430000000000121e+02 2.100364999999999782e+03
9.299999999999999933e-02 2.182250000000000023e-01 3.680369999999999919e+01 1.402500000000000000e+02 2.101215000000000146e+03
9.400000000000000022e-02 2.183559999999999945e-01 3.734879999999999711e+01 1.428729999999999905e+02 2.102019999999999982e+03
9.500000000000000111e-02 2.184785000000000199e-01 3.779520000000000124e+01 1.452794999999999845e+02 2.102784999999999854e+03
9.600000000000000200e-02 2.185920000000000085e-01 3.813304999999999723e+01 1.474389999999999930e+02 2.103480000000000018e+03
9.700000000000000289e-02 2.186939999999999995e-01 3.835374999999999801e+01 1.493260000000000218e+02 2.104114999999999782e+03
9.800000000000000377e-02 2.187840000000000062e-01 3.845085000000000264e+01 1.509219999999999970e+02 2.104675000000000182e+03
9.900000000000000466e-02 2.188614999999999866e-01 3.842020000000000124e+01 1.522150000000000034e+02 2.105159999999999854e+03
1.000000000000000056e-01 2.189260000000000095e-01 3.826054999999999495e+01 1.532005000000000052e+02 2.105565000000000055e+03
1.010000000000000064e-01 2.189765000000000184e-01 3.797384999999999877e+01 1.538824999999999932e+02 2.105885000000000218e+03
1.020000000000000073e-01 2.190134999999999998e-01 3.756499999999999773e+01 1.542724999999999795e+02 2.106125000000000000e+03
1.030000000000000082e-01 2.190380000000000105e-01 3.704224999999999568e+01 1.543909999999999911e+02 2.106284999999999854e+03
1.040000000000000091e-01 2.190499999999999947e-01 3.641639999999999588e+01 1.542635000000000218e+02 2.106364999999999782e+03
1.050000000000000100e-01 2.190515000000000101e-01 3.570080000000000098e+01 1.539230000000000018e+02 2.106385000000000218e+03
1.059999999999999970e-01 2.190429999999999877e-01 3.491060000000000230e+01 1.534039999999999964e+02 2.106340000000000146e+03
1.069999999999999979e-01 2.190265000000000128e-01 3.406199999999999761e+01 1.527445000000000164e+02 2.106244999999999891e+03
1.079999999999999988e-01 2.190030000000000032e-01 3.317170000000000130e+01 1.519834999999999923e+02 2.106110000000000127e+03
1.089999999999999997e-01 2.189745000000000164e-01 3.225634999999999764e+01 1.511569999999999823e+02 2.105945000000000164e+03
1.100000000000000006e-01 2.189429999999999987e-01 3.133149999999999835e+01 1.502995000000000232e+02 2.105750000000000000e+03
1.110000000000000014e-01 2.189095000000000069e-01 3.041145000000000209e+01 1.494410000000000025e+02 2.105550000000000182e+03
1.120000000000000023e-01 2.188744999999999996e-01 2.950845000000000340e+01 1.486064999999999827e+02 2.105335000000000036e+03
1.130000000000000032e-01 2.188404999999999934e-01 2.863264999999999816e+01 1.478140000000000214e+02 2.105125000000000000e+03
1.140000000000000041e-01 2.188074999999999881e-01 2.779144999999999754e+01 1.470765000000000100e+02 2.104920000000000073e+03
1.150000000000000050e-01 2.187759999999999982e-01 2.698969999999999914e+01 1.463994999999999891e+02 2.104730000000000018e+03
1.160000000000000059e-01 2.187459999999999960e-01 2.622950000000000159e+01 1.457819999999999823e+02 2.104545000000000073e+03
1.170000000000000068e-01 2.187185000000000101e-01 2.551014999999999944e+01 1.452189999999999941e+02 2.104375000000000000e+03
1.180000000000000077e-01 2.186925000000000119e-01 2.482874999999999943e+01 1.446984999999999957e+02 2.104210000000000036e+03
1.190000000000000085e-01 2.186684999999999879e-01 2.418025000000000091e+01 1.442034999999999911e+02 2.104055000000000291e+03
1.200000000000000094e-01 2.186450000000000060e-01 2.355790000000000006e+01 1.437164999999999964e+02 2.103909999999999854e+03
1.209999999999999964e-01 2.186214999999999964e-01 2.295354999999999990e+01 1.432160000000000082e+02 2.103760000000000218e+03
1.219999999999999973e-01 2.185964999999999991e-01 2.235849999999999937e+01 1.426790000000000020e+02 2.103610000000000127e+03
1.229999999999999982e-01 2.185705000000000009e-01 2.176384999999999792e+01 1.420844999999999914e+02 2.103449999999999818e+03
1.239999999999999991e-01 2.185420000000000140e-01 2.116094999999999970e+01 1.414134999999999991e+02 2.103269999999999982e+03
1.250000000000000000e-01 2.185099999999999820e-01 2.054220000000000113e+01 1.406479999999999961e+02 2.103074999999999818e+03
1.260000000000000009e-01 2.184734999999999872e-01 1.990119999999999933e+01 1.397760000000000105e+02 2.102849999999999909e+03
1.270000000000000018e-01 2.184329999999999883e-01 1.923335000000000150e+01 1.387895000000000039e+02 2.102605000000000018e+03
1.280000000000000027e-01 2.183875000000000122e-01 1.853614999999999924e+01 1.376859999999999786e+02 2.102324999999999818e+03
1.290000000000000036e-01 2.183370000000000033e-01 1.780910000000000082e+01 1.364689999999999941e+02 2.102019999999999982e+03
1.300000000000000044e-01 2.182814999999999894e-01 1.705424999999999969e+01 1.351475000000000080e+02 2.101680000000000291e+03
1.310000000000000053e-01 2.182219999999999993e-01 1.627575000000000216e+01 1.337355000000000018e+02 2.101319999999999709e+03
1.320000000000000062e-01 2.181579999999999908e-01 1.547985000000000078e+01 1.322524999999999977e+02 2.100934999999999945e+03
1.330000000000000071e-01 2.180914999999999937e-01 1.467450000000000010e+01 1.307214999999999918e+02 2.100529999999999745e+03
1.340000000000000080e-01 2.180235000000000090e-01 1.386919999999999931e+01 1.291684999999999945e+02 2.100110000000000127e+03
1.350000000000000089e-01 2.179534999999999945e-01 1.307414999999999949e+01 1.276214999999999975e+02 2.099684999999999945e+03
1.360000000000000098e-01 2.178844999999999810e-01 1.230012999999999934e+01 1.261075000000000017e+02 2.099260000000000218e+03
1.370000000000000107e-01 2.178165000000000240e-01 1.155766999999999989e+01 1.246544999999999987e+02 2.098845000000000255e+03
1.380000000000000115e-01 2.177505000000000135e-01 1.085685499999999948e+01 1.232860000000000014e+02 2.098445000000000164e+03
1.390000000000000124e-01 2.176889999999999936e-01 1.020656999999999925e+01 1.220240000000000009e+02 2.098059999999999945e+03
1.400000000000000133e-01 2.176309999999999911e-01 9.614359999999999573e+00 1.208849999999999909e+02 2.097710000000000036e+03
1.410000000000000142e-01 2.175790000000000224e-01 9.085974999999999469e+00 1.198820000000000050e+02 2.097385000000000218e+03
1.420000000000000151e-01 2.175320000000000031e-01 8.625339999999999563e+00 1.190219999999999914e+02 2.097095000000000255e+03
1.430000000000000160e-01 2.174909999999999899e-01 8.234329999999999927e+00 1.183075000000000045e+02 2.096845000000000255e+03
1.440000000000000169e-01 2.174570000000000114e-01 7.912879999999999470e+00 1.177369999999999948e+02 2.096625000000000000e+03
1.450000000000000178e-01 2.174284999999999968e-01 7.659089999999999954e+00 1.173025000000000091e+02 2.096449999999999818e+03
1.459999999999999909e-01 2.174059999999999881e-01 7.469395000000000451e+00 1.169939999999999998e+02 2.096304999999999836e+03
1.469999999999999918e-01 2.173889999999999989e-01 7.338800000000000878e+00 1.167984999999999900e+02 2.096194999999999709e+03
1.479999999999999927e-01 2.173765000000000003e-01 7.261155000000000470e+00 1.167009999999999934e+02 2.096119999999999891e+03
1.489999999999999936e-01 2.173690000000000067e-01 7.229495000000000005e+00 1.166835000000000093e+02 2.096065000000000055e+03
1.499999999999999944e-01 2.173650000000000027e-01 7.236279999999999824e+00 1.167305000000000064e+02 2.096034999999999854e+03
1.509999999999999953e-01 2.173640000000000017e-01 7.273719999999999963e+00 1.168239999999999981e+02 2.096019999999999982e+03
1.519999999999999962e-01 2.173650000000000027e-01 7.334035000000000082e+00 1.169470000000000027e+02 2.096025000000000091e+03
1.529999999999999971e-01 2.173680000000000057e-01 7.409720000000000084e+00 1.170840000000000032e+02 2.096045000000000073e+03
1.539999999999999980e-01 2.173714999999999953e-01 7.493724999999999525e+00 1.172214999999999918e+02 2.096065000000000055e+03
1.549999999999999989e-01 2.173754999999999993e-01 7.579665000000000319e+00 1.173480000000000132e+02 2.096079999999999927e+03
1.559999999999999998e-01 2.173789999999999889e-01 7.661934999999999718e+00 1.174530000000000030e+02 2.096105000000000018e+03
1.570000000000000007e-01 2.173825000000000063e-01 7.735834999999999795e+00 1.175279999999999916e+02 2.096119999999999891e+03
1.580000000000000016e-01 2.173845000000000083e-01 7.797654999999999781e+00 1.175685000000000002e+02 2.096135000000000218e+03
1.590000000000000024e-01 2.173855000000000093e-01 7.844664999999999111e+00 1.175709999999999980e+02 2.096140000000000327e+03
