# t [s], A [cm^2], U [cm/s], P [cPa], c [cm/s]
1.000000000000000021e-03 5.648590000000000000e-01 3.391000000000005121e-03 1.048149999999999977e+02 1.385440000000000055e+03
2.000000000000000042e-03 5.648509999999999920e-01 3.634050000000001298e-04 1.048004999999999995e+02 1.385434999999999945e+03
3.000000000000000062e-03 5.648805000000000076e-01 4.621119999999999395e-02 1.048395000000000010e+02 1.385444999999999936e+03
4.000000000000000083e-03 5.649325000000000596e-01 1.290438999999999892e-01 1.049339999999999975e+02 1.385474999999999909e+03
5.000000000000000104e-03 5.649470000000000880e-01 1.550427000000000055e-01 1.049685000000000059e+02 1.385490000000000009e+03
6.000000000000000125e-03 5.649170000000000025e-01 1.089572000000000040e-01 1.048965000000000032e+02 1.385474999999999909e+03
7.000000000000000146e-03 5.648739999999999872e-01 4.011849999999997363e-02 1.047524999999999977e+02 1.385444999999999936e+03
8.000000000000000167e-03 5.648320000000000007e-01 -3.076550000000000118e-02 1.045649999999999977e+02 1.385404999999999973e+03
9.000000000000001055e-03 5.647664999999999491e-01 -1.461474999999999858e-01 1.042934999999999945e+02 1.385344999999999800e+03
1.000000000000000194e-02 5.646594999999999809e-01 -3.386200000000000321e-01 1.038900000000000006e+02 1.385250000000000000e+03
1.099999999999999936e-02 5.645065000000000222e-01 -6.126850000000001462e-01 1.033269999999999982e+02 1.385115000000000009e+03
1.200000000000000025e-02 5.642989999999999950e-01 -9.733999999999999320e-01 1.025745000000000005e+02 1.384934999999999945e+03
1.300000000000000114e-02 5.640279999999999738e-01 -1.426550000000000207e+00 1.016026499999999970e+02 1.384694999999999936e+03
1.400000000000000203e-02 5.636944999999999872e-01 -1.954064999999999941e+00 1.004032499999999999e+02 1.384394999999999982e+03
1.499999999999999944e-02 5.633209999999999607e-01 -2.500664999999999694e+00 9.901705000000001178e+01 1.384034999999999854e+03
1.600000000000000033e-02 5.629419999999999424e-01 -2.986769999999999925e+00 9.752535000000000309e+01 1.383639999999999873e+03
1.700000000000000122e-02 5.625875000000000181e-01 -3.335884999999999767e+00 9.602570000000000050e+01 1.383224999999999909e+03
1.800000000000000211e-02 5.622785000000000144e-01 -3.497650499999999774e+00 9.459999999999999432e+01 1.382815000000000055e+03
1.900000000000000300e-02 5.620155000000000012e-01 -3.457365000000000244e+00 9.329479999999999507e+01 1.382425000000000182e+03
2.000000000000000042e-02 5.617874999999999952e-01 -3.232692500000000191e+00 9.211695000000000277e+01 1.382045000000000073e+03
2.100000000000000130e-02 5.615740000000000176e-01 -2.862760999999999889e+00 9.103954999999999131e+01 1.381690000000000055e+03
2.200000000000000219e-02 5.613539999999999086e-01 -2.394625000000000004e+00 9.001564999999999372e+01 1.381339999999999918e+03
2.299999999999999961e-02 5.611114999999999853e-01 -1.870665000000000244e+00 8.899420000000000641e+01 1.380989999999999782e+03
2.400000000000000050e-02 5.608379999999999477e-01 -1.319664999999999866e+00 8.793415000000000248e+01 1.380630000000000109e+03
2.500000000000000139e-02 5.605335000000000178e-01 -7.532950000000002699e-01 8.681385000000000218e+01 1.380255000000000109e+03
2.600000000000000228e-02 5.602050000000000640e-01 -1.685899999999995735e-01 8.563294999999999391e+01 1.379869999999999891e+03
2.700000000000000316e-02 5.598640000000000283e-01 4.450500000000001677e-01 8.440735000000000809e+01 1.379465000000000146e+03
2.800000000000000058e-02 5.595189999999999886e-01 1.097099999999999742e+00 8.315995000000000914e+01 1.379059999999999945e+03
2.900000000000000147e-02 5.591770000000000351e-01 1.788455000000000128e+00 8.190999999999999659e+01 1.378650000000000091e+03
3.000000000000000236e-02 5.588359999999999994e-01 2.507170000000000343e+00 8.066530000000000200e+01 1.378235000000000127e+03
3.099999999999999978e-02 5.584894999999999721e-01 3.228089999999999904e+00 7.941804999999999382e+01 1.377825000000000045e+03
3.200000000000000067e-02 5.581264999999999699e-01 3.915915000000000035e+00 7.814519999999998845e+01 1.377400000000000091e+03
3.300000000000000155e-02 5.577345000000000219e-01 4.530539999999999345e+00 7.681255000000000166e+01 1.376965000000000146e+03
3.400000000000000244e-02 5.573010000000000463e-01 5.033704999999999430e+00 7.538235000000000241e+01 1.376509999999999991e+03
3.500000000000000333e-02 5.568184999999999940e-01 5.395520000000000316e+00 7.382094999999999629e+01 1.376025000000000091e+03
3.600000000000000422e-02 5.562840000000000007e-01 5.599354999999999194e+00 7.210750000000000171e+01 1.375505000000000109e+03
3.700000000000000511e-02 5.557024999999999881e-01 5.644719999999999516e+00 7.023939999999998918e+01 1.374945000000000164e+03
3.799999999999999906e-02 5.550844999999999807e-01 5.547410000000000174e+00 6.823554999999998927e+01 1.374355000000000018e+03
3.899999999999999994e-02 5.544474999999999820e-01 5.336574999999999847e+00 6.613540000000000418e+01 1.373740000000000009e+03
4.000000000000000083e-02 5.538099999999999135e-01 5.050499999999999545e+00 6.399469999999999459e+01 1.373105000000000018e+03
4.100000000000000172e-02 5.531935000000000047e-01 4.731230000000000047e+00 6.187984999999999758e+01 1.372480000000000018e+03
4.200000000000000261e-02 5.526165000000000660e-01 4.419689999999999230e+00 5.986034999999999684e+01 1.371875000000000000e+03
4.300000000000000350e-02 5.520964999999999900e-01 4.151904999999999291e+00 5.800270000000000437e+01 1.371305000000000064e+03
4.400000000000000439e-02 5.516465000000000396e-01 3.956994999999999596e+00 5.636530000000000484e+01 1.370789999999999964e+03
4.499999999999999833e-02 5.512755000000000294e-01 3.856184999999999974e+00 5.499495000000000289e+01 1.370345000000000027e+03
4.599999999999999922e-02 5.509899999999999798e-01 3.863325000000000564e+00 5.392544999999999789e+01 1.369974999999999909e+03
4.700000000000000011e-02 5.507925000000000182e-01 3.986543349999999819e+00 5.317810000000000059e+01 1.369695000000000164e+03
4.800000000000000100e-02 5.506830000000000336e-01 4.229664999999999786e+00 5.276304999999999978e+01 1.369509999999999991e+03
4.900000000000000189e-02 5.506615000000000260e-01 4.594059999999999810e+00 5.268139999999999645e+01 1.369414999999999964e+03
5.000000000000000278e-02 5.507260000000000488e-01 5.080009999999999692e+00 5.292795000000000272e+01 1.369414999999999964e+03
5.100000000000000366e-02 5.508735000000000159e-01 5.687429999999999986e+00 5.349320000000000164e+01 1.369509999999999991e+03
5.200000000000000455e-02 5.511019999999999808e-01 6.416080000000000005e+00 5.436464999999999748e+01 1.369700000000000045e+03
5.300000000000000544e-02 5.514080000000000092e-01 7.265145000000000408e+00 5.552814999999999657e+01 1.369974999999999909e+03
5.399999999999999939e-02 5.517885000000000151e-01 8.232545000000000002e+00 5.696774999999999523e+01 1.370335000000000036e+03
5.500000000000000028e-02 5.522380000000000067e-01 9.314095000000000013e+00 5.866534999999999656e+01 1.370775000000000091e+03
5.600000000000000117e-02 5.527520000000000211e-01 1.050272499999999987e+01 6.060040000000000049e+01 1.371284999999999854e+03
5.700000000000000205e-02 5.533234999999999681e-01 1.178828999999999994e+01 6.274940000000000140e+01 1.371869999999999891e+03
5.800000000000000294e-02 5.539439999999999920e-01 1.315739000000000125e+01 6.508570000000000277e+01 1.372514999999999873e+03
5.900000000000000383e-02 5.546065000000000023e-01 1.459385499999999958e+01 6.757984999999999332e+01 1.373214999999999918e+03
6.000000000000000472e-02 5.553010000000000446e-01 1.607934500000000000e+01 7.020000000000000284e+01 1.373950000000000045e+03
6.099999999999999867e-02 5.560175000000000534e-01 1.759447000000000116e+01 7.291335000000000832e+01 1.374730000000000018e+03
6.199999999999999956e-02 5.567484999999999795e-01 1.911955000000000027e+01 7.568675000000000352e+01 1.375534999999999854e+03
6.300000000000000044e-02 5.574850000000000083e-01 2.063595000000000113e+01 7.848855000000000359e+01 1.376355000000000018e+03
6.400000000000000133e-02 5.582194999999999796e-01 2.212645000000000195e+01 8.128969999999999629e+01 1.377184999999999945e+03
6.500000000000000222e-02 5.589450000000000252e-01 2.357634999999999792e+01 8.406470000000000198e+01 1.378014999999999873e+03
6.600000000000000311e-02 5.596584999999999477e-01 2.497354999999999947e+01 8.679255000000000564e+01 1.378845000000000027e+03
6.700000000000000400e-02 5.603549999999999365e-01 2.630904999999999916e+01 8.945744999999999436e+01 1.379659999999999854e+03
6.800000000000000488e-02 5.610340000000000327e-01 2.757654999999999745e+01 9.204789999999999850e+01 1.380460000000000036e+03
6.900000000000000577e-02 5.616929999999999978e-01 2.877234999999999943e+01 9.455819999999999936e+01 1.381244999999999891e+03
7.000000000000000666e-02 5.623329999999999718e-01 2.989535000000000053e+01 9.698640000000000327e+01 1.382009999999999991e+03
7.100000000000000755e-02 5.629560000000000120e-01 3.094610000000000127e+01 9.933584999999999354e+01 1.382755000000000109e+03
7.200000000000000844e-02 5.635620000000000074e-01 3.192699999999999960e+01 1.016107000000000085e+02 1.383480000000000018e+03
7.300000000000000933e-02 5.641540000000000443e-01 3.284125000000000227e+01 1.038185500000000019e+02 1.384190000000000055e+03
7.399999999999999634e-02 5.647339999999999582e-01 3.369290000000000163e+01 1.059694499999999948e+02 1.384880000000000109e+03
7.499999999999999722e-02 5.653049999999999464e-01 3.448619999999999663e+01 1.080709999999999980e+02 1.385559999999999945e+03
7.599999999999999811e-02 5.658684999999999965e-01 3.522549999999999670e+01 1.101340000000000003e+02 1.386224999999999909e+03
7.699999999999999900e-02 5.664259999999999851e-01 3.591460000000000008e+01 1.121645000000000039e+02 1.386880000000000109e+03
7.799999999999999989e-02 5.669794999999999696e-01 3.655675000000000097e+01 1.141709999999999923e+02 1.387529999999999973e+03
7.900000000000000078e-02 5.675284999999999913e-01 3.715439999999999543e+01 1.161560000000000059e+02 1.388170000000000073e+03
8.000000000000000167e-02 5.680739999999999679e-01 3.770884999999999820e+01 1.181219999999999999e+02 1.388804999999999836e+03
8.100000000000000255e-02 5.686149999999999816e-01 3.822039999999999793e+01 1.200674999999999955e+02 1.389434999999999945e+03
8.200000000000000344e-02 5.691494999999999749e-01 3.868824999999999648e+01 1.219894999999999925e+02 1.390054999999999836e+03
8.300000000000000433e-02 5.696765000000000301e-01 3.911060000000000514e+01 1.238810000000000002e+02 1.390664999999999964e+03
8.400000000000000522e-02 5.701920000000000321e-01 3.948470000000000368e+01 1.257344999999999970e+02 1.391264999999999873e+03
8.500000000000000611e-02 5.706944999999999935e-01 3.980719999999999459e+01 1.275390000000000015e+02 1.391855000000000018e+03
8.600000000000000699e-02 5.711795000000000622e-01 4.007420000000000471e+01 1.292839999999999918e+02 1.392424999999999955e+03
8.700000000000000788e-02 5.716440000000000410e-01 4.028175000000000239e+01 1.309560000000000173e+02 1.392974999999999909e+03
8.800000000000000877e-02 5.720849999999999547e-01 4.042589999999999861e+01 1.325430000000000064e+02 1.393500000000000000e+03
8.899999999999999578e-02 5.724995000000000500e-01 4.050314999999999799e+01 1.340330000000000155e+02 1.394000000000000000e+03
8.999999999999999667e-02 5.728839999999999488e-01 4.051035000000000252e+01 1.354149999999999920e+02 1.394465000000000146e+03
9.099999999999999756e-02 5.732364999999999267e-01 4.044514999999999816e+01 1.366790000000000020e+02 1.394900000000000091e+03
9.199999999999999845e-02 5.735550000000000370e-01 4.030625000000000568e+01 1.378179999999999836e+02 1.395299999999999955e+03
9.299999999999999933e-02 5.738375000000000004e-01 4.009310000000000684e+01 1.388245000000000005e+02 1.395654999999999973e+03
9.400000000000000022e-02 5.740844999999999976e-01 3.980625000000000568e+01 1.396959999999999980e+02 1.395974999999999909e+03
9.500000000000000111e-02 5.742940000000000822e-01 3.944735000000000014e+01 1.404310000000000116e+02 1.396244999999999891e+03
9.600000000000000200e-02 5.744685000000000485e-01 3.901910000000000167e+01 1.410294999999999845e+02 1.396480000000000018e+03
9.700000000000000289e-02 5.746069999999999789e-01 3.852519999999999811e+01 1.414959999999999809e+02 1.396679999999999836e+03
9.800000000000000377e-02 5.747124999999999595e-01 3.797025000000000006e+01 1.418344999999999914e+02 1.396829999999999927e+03
9.900000000000000466e-02 5.747860000000000191e-01 3.735974999999999824e+01 1.420529999999999973e+02 1.396950000000000045e+03
1.000000000000000056e-01 5.748305000000000220e-01 3.670005000000000450e+01 1.421599999999999966e+02 1.397025000000000091e+03
1.010000000000000064e-01 5.748474999999999557e-01 3.599800000000000466e+01 1.421645000000000039e+02 1.397069999999999936e+03
1.020000000000000073e-01 5.748415000000000052e-01 3.526080000000000325e+01 1.420794999999999959e+02 1.397085000000000036e+03
1.030000000000000082e-01 5.748149999999999649e-01 3.449609999999999843e+01 1.419159999999999968e+02 1.397074999999999818e+03
1.040000000000000091e-01 5.747704999999999620e-01 3.371159999999999712e+01 1.416865000000000236e+02 1.397034999999999854e+03
1.050000000000000100e-01 5.747130000000000294e-01 3.291490000000000293e+01 1.414035000000000082e+02 1.396980000000000018e+03
1.059999999999999970e-01 5.746434999999999738e-01 3.211330000000000240e+01 1.410790000000000077e+02 1.396904999999999973e+03
1.069999999999999979e-01 5.745664999999999800e-01 3.131370000000000076e+01 1.407239999999999895e+02 1.396820000000000164e+03
1.079999999999999988e-01 5.744839999999999947e-01 3.052230000000000132e+01 1.403509999999999991e+02 1.396719999999999800e+03
1.089999999999999997e-01 5.743989999999999929e-01 2.974450000000000216e+01 1.399679999999999893e+02 1.396619999999999891e+03
1.100000000000000006e-01 5.743130000000000734e-01 2.898465000000000202e+01 1.395840000000000032e+02 1.396509999999999991e+03
1.110000000000000014e-01 5.742270000000000429e-01 2.824620000000000175e+01 1.392044999999999959e+02 1.396400000000000091e+03
1.120000000000000023e-01 5.741425000000000001e-01 2.753144999999999953e+01 1.388350000000000080e+02 1.396295000000000073e+03
1.130000000000000032e-01 5.740609999999999324e-01 2.684140000000000015e+01 1.384774999999999920e+02 1.396184999999999945e+03
1.140000000000000041e-01 5.739809999999999635e-01 2.617620000000000147e+01 1.381340000000000146e+02 1.396074999999999818e+03
1.150000000000000050e-01 5.739030000000000520e-01 2.553474999999999895e+01 1.378025000000000091e+02 1.395969999999999800e+03
1.160000000000000059e-01 5.738265000000000171e-01 2.491519999999999868e+01 1.374824999999999875e+02 1.395869999999999891e+03
1.170000000000000068e-01 5.737499999999999822e-01 2.431474999999999653e+01 1.371694999999999993e+02 1.395764999999999873e+03
1.180000000000000077e-01 5.736719999999999597e-01 2.373015000000000185e+01 1.368589999999999804e+02 1.395664999999999964e+03
1.190000000000000085e-01 5.735919999999999908e-01 2.315755000000000052e+01 1.365459999999999923e+02 1.395565000000000055e+03
1.200000000000000094e-01 5.735075000000000589e-01 2.259295000000000186e+01 1.362235000000000014e+02 1.395460000000000036e+03
1.209999999999999964e-01 5.734175000000000244e-01 2.203229999999999933e+01 1.358865000000000123e+02 1.395349999999999909e+03
1.219999999999999973e-01 5.733205000000000107e-01 2.147169999999999845e+01 1.355295000000000130e+02 1.395240000000000009e+03
1.229999999999999982e-01 5.732154999999999889e-01 2.090729999999999933e+01 1.351460000000000150e+02 1.395115000000000009e+03
1.239999999999999991e-01 5.731005000000000127e-01 2.033595000000000041e+01 1.347319999999999993e+02 1.394990000000000009e+03
1.250000000000000000e-01 5.729754999999999709e-01 1.975485000000000113e+01 1.342839999999999918e+02 1.394855000000000018e+03
1.260000000000000009e-01 5.728400000000000158e-01 1.916199999999999903e+01 1.337984999999999900e+02 1.394704999999999927e+03
1.270000000000000018e-01 5.726934999999999665e-01 1.855590000000000117e+01 1.332744999999999891e+02 1.394549999999999955e+03
1.280000000000000027e-01 5.725359999999999339e-01 1.793609999999999971e+01 1.327119999999999891e+02 1.394380000000000109e+03
1.290000000000000036e-01 5.723690000000000166e-01 1.730274999999999963e+01 1.321125000000000114e+02 1.394199999999999818e+03
1.300000000000000044e-01 5.721924999999999928e-01 1.665680000000000049e+01 1.314764999999999873e+02 1.394009999999999991e+03
1.310000000000000053e-01 5.720075000000000021e-01 1.600005000000000166e+01 1.308095000000000141e+02 1.393809999999999945e+03
1.320000000000000062e-01 5.718159999999999910e-01 1.533484999999999943e+01 1.301159999999999854e+02 1.393599999999999909e+03
1.330000000000000071e-01 5.716194999999999471e-01 1.466450999999999993e+01 1.294010000000000105e+02 1.393389999999999873e+03
1.340000000000000080e-01 5.714194999999999691e-01 1.399256500000000081e+01 1.286719999999999970e+02 1.393170000000000073e+03
1.350000000000000089e-01 5.712184999999999624e-01 1.332317500000000088e+01 1.279360000000000070e+02 1.392940000000000055e+03
1.360000000000000098e-01 5.710189999999999433e-01 1.266077499999999922e+01 1.272005000000000052e+02 1.392720000000000027e+03
1.370000000000000107e-01 5.708219999999999406e-01 1.201013000000000019e+01 1.264729999999999990e+02 1.392494999999999891e+03
1.380000000000000115e-01 5.706309999999999993e-01 1.137584000000000017e+01 1.257630000000000052e+02 1.392275000000000091e+03
1.390000000000000124e-01 5.704470000000000374e-01 1.076269999999999882e+01 1.250769999999999982e+02 1.392059999999999945e+03
1.400000000000000133e-01 5.702720000000000011e-01 1.017514500000000055e+01 1.244224999999999994e+02 1.391855000000000018e+03
1.410000000000000142e-01 5.701085000000000180e-01 9.617319999999999425e+00 1.238070000000000022e+02 1.391659999999999854e+03
1.420000000000000151e-01 5.699575000000000058e-01 9.092929999999999069e+00 1.232355000000000018e+02 1.391470000000000027e+03
1.430000000000000160e-01 5.698205000000000631e-01 8.605085000000000761e+00 1.227139999999999986e+02 1.391299999999999955e+03
1.440000000000000169e-01 5.696980000000000377e-01 8.156325000000000713e+00 1.222454999999999927e+02 1.391139999999999873e+03
1.450000000000000178e-01 5.695904999999999996e-01 7.748465000000000380e+00 1.218319999999999936e+02 1.391000000000000000e+03
1.459999999999999909e-01 5.694989999999999775e-01 7.382559999999999789e+00 1.214770000000000039e+02 1.390875000000000000e+03
1.469999999999999918e-01 5.694219999999999837e-01 7.058910000000000018e+00 1.211779999999999973e+02 1.390764999999999873e+03
1.479999999999999927e-01 5.693605000000000471e-01 6.777089999999999392e+00 1.209360000000000070e+02 1.390674999999999955e+03
1.489999999999999936e-01 5.693124999999999991e-01 6.535944999999999894e+00 1.207475000000000023e+02 1.390595000000000027e+03
1.499999999999999944e-01 5.692779999999999507e-01 6.333689999999999820e+00 1.206099999999999994e+02 1.390534999999999854e+03
1.509999999999999953e-01 5.692555000000000254e-01 6.167949999999999378e+00 1.205185000000000031e+02 1.390485000000000127e+03
1.519999999999999962e-01 5.692429999999999435e-01 6.035885000000000389e+00 1.204680000000000035e+02 1.390454999999999927e+03
1.529999999999999971e-01 5.692399999999999682e-01 5.934285000000000032e+00 1.204540000000000077e+02 1.390434999999999945e+03
1.539999999999999980e-01 5.692435000000000134e-01 5.859659999999999869e+00 1.204699999999999989e+02 1.390420000000000073e+03
1.549999999999999989e-01 5.692535000000000789e-01 5.808390000000000164e+00 1.205095000000000027e+02 1.390420000000000073e+03
1.559999999999999998e-01 5.692675000000000374e-01 5.776794999999999902e+00 1.205670000000000073e+02 1.390420000000000073e+03
1.570000000000000007e-01 5.692844999999999711e-01 5.761280000000000179e+00 1.206365000000000123e+02 1.390429999999999836e+03
1.580000000000000016e-01 5.693024999999999336e-01 5.758370000000000211e+00 1.207129999999999939e+02 1.390444999999999936e+03
1.590000000000000024e-01 5.693200000000000482e-01 5.764834999999999710e+00 1.207914999999999992e+02 1.390460000000000036e+03
