# t [s], A [cm^2], U [cm/s], P [cPa], c [cm/s]
1.000000000000000021e-03 1.500559999999999949e-01 2.783204999999999707e-01 9.984544999999999959e+01 1.744329999999999927e+03
2.000000000000000042e-03 1.500334999999999863e-01 1.810165000000000024e+00 9.699465000000000714e+01 1.744130000000000109e+03
3.000000000000000062e-03 1.499360000000000137e-01 3.696977999999999653e+00 9.331470000000000198e+01 1.743329999999999927e+03
4.000000000000000083e-03 1.497850000000000015e-01 5.783334850000000138e+00 8.914435000000000286e+01 1.742105000000000018e+03
5.000000000000000104e-03 1.496060000000000167e-01 8.019735000000000724e+00 8.512104999999999677e+01 1.740670000000000073e+03
6.000000000000000125e-03 1.494189999999999963e-01 1.031863500000000045e+01 8.162375000000000114e+01 1.739184999999999945e+03
7.000000000000000146e-03 1.492370000000000085e-01 1.254293499999999995e+01 7.868594999999999118e+01 1.737755000000000109e+03
8.000000000000000167e-03 1.490624999999999867e-01 1.456816999999999851e+01 7.614209999999999923e+01 1.736400000000000091e+03
9.000000000000001055e-03 1.489000000000000046e-01 1.634669999999999845e+01 7.386359999999999104e+01 1.735154999999999973e+03
1.000000000000000194e-02 1.487515000000000087e-01 1.789365000000000094e+01 7.184879999999999711e+01 1.734035000000000082e+03
1.099999999999999936e-02 1.486210000000000031e-01 1.923254999999999981e+01 7.013094999999999857e+01 1.733049999999999955e+03
1.200000000000000025e-02 1.485070000000000001e-01 2.037525000000000119e+01 6.870390000000000441e+01 1.732210000000000036e+03
1.300000000000000114e-02 1.484099999999999864e-01 2.133084999999999809e+01 6.753284999999999627e+01 1.731500000000000000e+03
1.400000000000000203e-02 1.483289999999999886e-01 2.210820000000000007e+01 6.657484999999999786e+01 1.730909999999999854e+03
1.499999999999999944e-02 1.482604999999999895e-01 2.271484999999999843e+01 6.577885000000000559e+01 1.730420000000000073e+03
1.600000000000000033e-02 1.482034999999999880e-01 2.316420000000000101e+01 6.509789999999999566e+01 1.730019999999999982e+03
1.700000000000000122e-02 1.481560000000000099e-01 2.349070000000000036e+01 6.452655000000000030e+01 1.729684999999999945e+03
1.800000000000000211e-02 1.481179999999999997e-01 2.375609999999999999e+01 6.413254999999999484e+01 1.729429999999999836e+03
1.900000000000000300e-02 1.480940000000000034e-01 2.403699999999999903e+01 6.404619999999999891e+01 1.729269999999999982e+03
2.000000000000000042e-02 1.480859999999999954e-01 2.439954999999999785e+01 6.440524999999999523e+01 1.729230000000000018e+03
2.100000000000000130e-02 1.480985000000000218e-01 2.487514999999999787e+01 6.528565000000000396e+01 1.729335000000000036e+03
2.200000000000000219e-02 1.481319999999999859e-01 2.544930000000000092e+01 6.665440000000000964e+01 1.729585000000000036e+03
2.299999999999999961e-02 1.481830000000000092e-01 2.606680000000000064e+01 6.836455000000000837e+01 1.729974999999999909e+03
2.400000000000000050e-02 1.482459999999999889e-01 2.664945000000000164e+01 7.019034999999999513e+01 1.730454999999999927e+03
2.500000000000000139e-02 1.483134999999999870e-01 2.711865000000000236e+01 7.188549999999999329e+01 1.730964999999999918e+03
2.600000000000000228e-02 1.483769999999999811e-01 2.741550000000000153e+01 7.324260000000001014e+01 1.731454999999999927e+03
2.700000000000000316e-02 1.484310000000000074e-01 2.751275000000000048e+01 7.413759999999999195e+01 1.731869999999999891e+03
2.800000000000000058e-02 1.484709999999999919e-01 2.741725000000000279e+01 7.454720000000000368e+01 1.732190000000000055e+03
2.900000000000000147e-02 1.484960000000000169e-01 2.716319999999999979e+01 7.453919999999999391e+01 1.732394999999999982e+03
3.000000000000000236e-02 1.485084999999999877e-01 2.679919999999999902e+01 7.424089999999999634e+01 1.732500000000000000e+03
3.099999999999999978e-02 1.485104999999999897e-01 2.637420000000000186e+01 7.379765000000000441e+01 1.732529999999999973e+03
3.200000000000000067e-02 1.485070000000000001e-01 2.592564999999999742e+01 7.333414999999999395e+01 1.732514999999999873e+03
3.300000000000000155e-02 1.485000000000000209e-01 2.547305000000000064e+01 7.292759999999999820e+01 1.732469999999999800e+03
3.400000000000000244e-02 1.484924999999999995e-01 2.501789999999999736e+01 7.259929999999999950e+01 1.732420000000000073e+03
3.500000000000000333e-02 1.484845000000000192e-01 2.454824999999999946e+01 7.232224999999999682e+01 1.732365000000000009e+03
3.600000000000000422e-02 1.484765000000000112e-01 2.404664999999999964e+01 7.204095000000000937e+01 1.732304999999999836e+03
3.700000000000000511e-02 1.484655000000000002e-01 2.349864999999999782e+01 7.169589999999999463e+01 1.732230000000000018e+03
3.799999999999999906e-02 1.484515000000000140e-01 2.289990000000000236e+01 7.124694999999999823e+01 1.732130000000000109e+03
3.899999999999999994e-02 1.484340000000000104e-01 2.226035000000000252e+01 7.068954999999999700e+01 1.732000000000000000e+03
4.000000000000000083e-02 1.484119999999999884e-01 2.160439999999999827e+01 7.006045000000000300e+01 1.731845000000000027e+03
4.100000000000000172e-02 1.483884999999999788e-01 2.096795000000000186e+01 6.943325000000000102e+01 1.731670000000000073e+03
4.200000000000000261e-02 1.483649999999999969e-01 2.039170000000000016e+01 6.890420000000000300e+01 1.731494999999999891e+03
4.300000000000000350e-02 1.483464999999999923e-01 1.991434999999999889e+01 6.857189999999999941e+01 1.731355000000000018e+03
4.400000000000000439e-02 1.483349999999999946e-01 1.956479999999999819e+01 6.851709999999999923e+01 1.731269999999999982e+03
4.499999999999999833e-02 1.483335000000000070e-01 1.935689999999999955e+01 6.878489999999999327e+01 1.731250000000000000e+03
4.599999999999999922e-02 1.483440000000000036e-01 1.928679999999999950e+01 6.937514999999999077e+01 1.731320000000000164e+03
4.700000000000000011e-02 1.483649999999999969e-01 1.933364999999999867e+01 7.024094999999999800e+01 1.731470000000000027e+03
4.800000000000000100e-02 1.483960000000000001e-01 1.946240000000000236e+01 7.129550000000000409e+01 1.731690000000000055e+03
4.900000000000000189e-02 1.484340000000000104e-01 1.962910000000000110e+01 7.242504999999999882e+01 1.731970000000000027e+03
5.000000000000000278e-02 1.484754999999999825e-01 1.978630000000000067e+01 7.350495000000000800e+01 1.732269999999999982e+03
5.100000000000000366e-02 1.485150000000000081e-01 1.988895000000000124e+01 7.441570000000000107e+01 1.732565000000000055e+03
5.200000000000000455e-02 1.485500000000000154e-01 1.989860000000000184e+01 7.505684999999999718e+01 1.732829999999999927e+03
5.300000000000000544e-02 1.485754999999999992e-01 1.978650000000000020e+01 7.535595000000000709e+01 1.733019999999999982e+03
5.399999999999999939e-02 1.485894999999999855e-01 1.953500000000000014e+01 7.527309999999999945e+01 1.733125000000000000e+03
5.500000000000000028e-02 1.485889999999999989e-01 1.913734999999999786e+01 7.480065000000000452e+01 1.733134999999999991e+03
5.600000000000000117e-02 1.485750000000000126e-01 1.859644999999999726e+01 7.395895000000000152e+01 1.733029999999999973e+03
5.700000000000000205e-02 1.485464999999999980e-01 1.792289999999999850e+01 7.278940000000000055e+01 1.732825000000000045e+03
5.800000000000000294e-02 1.485049999999999981e-01 1.713279999999999959e+01 7.134749999999999659e+01 1.732519999999999982e+03
5.900000000000000383e-02 1.484515000000000140e-01 1.624579999999999913e+01 6.969540000000000646e+01 1.732125000000000000e+03
6.000000000000000472e-02 1.483885000000000065e-01 1.528350000000000009e+01 6.789634999999999820e+01 1.731660000000000082e+03
6.099999999999999867e-02 1.483184999999999920e-01 1.426839999999999975e+01 6.601095000000000823e+01 1.731139999999999873e+03
6.199999999999999956e-02 1.482424999999999993e-01 1.322336500000000115e+01 6.409550000000000125e+01 1.730579999999999927e+03
6.300000000000000044e-02 1.481645000000000045e-01 1.217138500000000079e+01 6.220154999999999745e+01 1.729994999999999891e+03
6.400000000000000133e-02 1.480849999999999944e-01 1.113585000000000136e+01 6.037700000000000244e+01 1.729404999999999973e+03
6.500000000000000222e-02 1.480075000000000141e-01 1.014043000000000028e+01 5.866729999999999734e+01 1.728820000000000164e+03
6.600000000000000311e-02 1.479325000000000223e-01 9.209205000000000751e+00 5.711659999999999826e+01 1.728259999999999991e+03
6.700000000000000400e-02 1.478629999999999944e-01 8.366519999999999513e+00 5.576869999999999550e+01 1.727740000000000009e+03
6.800000000000000488e-02 1.478015000000000023e-01 7.636445000000000149e+00 5.466660000000000252e+01 1.727275000000000091e+03
6.900000000000000577e-02 1.477489999999999915e-01 7.042125000000000412e+00 5.385200000000000387e+01 1.726875000000000000e+03
7.000000000000000666e-02 1.477074999999999916e-01 6.605014999999999858e+00 5.336395000000000266e+01 1.726554999999999836e+03
7.100000000000000755e-02 1.476790000000000047e-01 6.343869999999999898e+00 5.323635000000000161e+01 1.726335000000000036e+03
7.200000000000000844e-02 1.476655000000000051e-01 6.273859999999999992e+00 5.349660000000000082e+01 1.726224999999999909e+03
7.300000000000000933e-02 1.476669999999999927e-01 6.405780000000000030e+00 5.416310000000000002e+01 1.726219999999999800e+03
7.399999999999999634e-02 1.476854999999999973e-01 6.745434999999999626e+00 5.524419999999999931e+01 1.726355000000000018e+03
7.499999999999999722e-02 1.477215000000000056e-01 7.293325000000000280e+00 5.673704999999999643e+01 1.726605000000000018e+03
7.599999999999999811e-02 1.477744999999999753e-01 8.044584999999999653e+00 5.862760000000000105e+01 1.726990000000000009e+03
7.699999999999999900e-02 1.478450000000000042e-01 8.989225000000001131e+00 6.089119999999999777e+01 1.727500000000000000e+03
7.799999999999999989e-02 1.479314999999999936e-01 1.011262499999999953e+01 6.349370000000000402e+01 1.728134999999999991e+03
7.900000000000000078e-02 1.480334999999999845e-01 1.139622999999999919e+01 6.639310000000000400e+01 1.728884999999999991e+03
8.000000000000000167e-02 1.481490000000000029e-01 1.281837499999999963e+01 6.954200000000000159e+01 1.729735000000000127e+03
8.100000000000000255e-02 1.482765000000000055e-01 1.435519999999999996e+01 7.288939999999999486e+01 1.730680000000000064e+03
8.200000000000000344e-02 1.484135000000000038e-01 1.598160000000000025e+01 7.638325000000000387e+01 1.731704999999999927e+03
8.300000000000000433e-02 1.485589999999999966e-01 1.767235000000000156e+01 7.997275000000000489e+01 1.732789999999999964e+03
8.400000000000000522e-02 1.487105000000000232e-01 1.940279999999999916e+01 8.361009999999998854e+01 1.733914999999999964e+03
8.500000000000000611e-02 1.488654999999999839e-01 2.114959999999999951e+01 8.725229999999999109e+01 1.735079999999999927e+03
8.600000000000000699e-02 1.490235000000000032e-01 2.289175000000000182e+01 9.086254999999999882e+01 1.736264999999999873e+03
8.700000000000000788e-02 1.491810000000000080e-01 2.461084999999999923e+01 9.441120000000000800e+01 1.737460000000000036e+03
8.800000000000000877e-02 1.493379999999999985e-01 2.629155000000000086e+01 9.787534999999999741e+01 1.738650000000000091e+03
8.899999999999999578e-02 1.494929999999999870e-01 2.792174999999999940e+01 1.012415000000000020e+02 1.739819999999999936e+03
8.999999999999999667e-02 1.496460000000000012e-01 2.949269999999999925e+01 1.045026000000000010e+02 1.740985000000000127e+03
9.099999999999999756e-02 1.497950000000000115e-01 3.099889999999999901e+01 1.076570000000000107e+02 1.742119999999999891e+03
9.199999999999999845e-02 1.499409999999999910e-01 3.243744999999999834e+01 1.107115000000000009e+02 1.743235000000000127e+03
9.299999999999999933e-02 1.500829999999999942e-01 3.380819999999999936e+01 1.136735000000000042e+02 1.744320000000000164e+03
9.400000000000000022e-02 1.502219999999999944e-01 3.511280000000000001e+01 1.165564999999999998e+02 1.745384999999999991e+03
9.500000000000000111e-02 1.503575000000000050e-01 3.635419999999999874e+01 1.193739999999999952e+02 1.746424999999999955e+03
9.600000000000000200e-02 1.504904999999999993e-01 3.753624999999999545e+01 1.221394999999999982e+02 1.747449999999999818e+03
9.700000000000000289e-02 1.506220000000000059e-01 3.866315000000000168e+01 1.248650000000000091e+02 1.748460000000000036e+03
9.800000000000000377e-02 1.507509999999999961e-01 3.973869999999999436e+01 1.275600000000000023e+02 1.749454999999999927e+03
9.900000000000000466e-02 1.508784999999999987e-01 4.076630000000000109e+01 1.302319999999999993e+02 1.750440000000000055e+03
1.000000000000000056e-01 1.510050000000000003e-01 4.174810000000000088e+01 1.328829999999999814e+02 1.751420000000000073e+03
1.010000000000000064e-01 1.511305000000000009e-01 4.268519999999999470e+01 1.355134999999999934e+02 1.752384999999999991e+03
1.020000000000000073e-01 1.512550000000000006e-01 4.357765000000000555e+01 1.381175000000000068e+02 1.753345000000000027e+03
1.030000000000000082e-01 1.513774999999999982e-01 4.442395000000000493e+01 1.406864999999999952e+02 1.754295000000000073e+03
1.040000000000000091e-01 1.514989999999999948e-01 4.522140000000000271e+01 1.432105000000000246e+02 1.755230000000000018e+03
1.050000000000000100e-01 1.516180000000000028e-01 4.596634999999999849e+01 1.456740000000000066e+02 1.756159999999999854e+03
1.059999999999999970e-01 1.517344999999999944e-01 4.665409999999999968e+01 1.480620000000000118e+02 1.757059999999999945e+03
1.069999999999999979e-01 1.518479999999999830e-01 4.727939999999999543e+01 1.503575000000000159e+02 1.757944999999999936e+03
1.079999999999999988e-01 1.519574999999999954e-01 4.783660000000000423e+01 1.525430000000000064e+02 1.758789999999999964e+03
1.089999999999999997e-01 1.520624999999999893e-01 4.831995000000000573e+01 1.546009999999999991e+02 1.759605000000000018e+03
1.100000000000000006e-01 1.521620000000000195e-01 4.872370000000000090e+01 1.565159999999999911e+02 1.760384999999999991e+03
1.110000000000000014e-01 1.522560000000000024e-01 4.904269999999999641e+01 1.582724999999999795e+02 1.761115000000000009e+03
1.120000000000000023e-01 1.523424999999999918e-01 4.927210000000000178e+01 1.598584999999999923e+02 1.761799999999999955e+03
1.130000000000000032e-01 1.524225000000000163e-01 4.940824999999999534e+01 1.612624999999999886e+02 1.762420000000000073e+03
1.140000000000000041e-01 1.524945000000000050e-01 4.944825000000000159e+01 1.624769999999999754e+02 1.762990000000000009e+03
1.150000000000000050e-01 1.525584999999999858e-01 4.939050000000000296e+01 1.634970000000000141e+02 1.763490000000000009e+03
1.160000000000000059e-01 1.526139999999999997e-01 4.923460000000000036e+01 1.643199999999999932e+02 1.763930000000000064e+03
1.170000000000000068e-01 1.526609999999999912e-01 4.898165000000000191e+01 1.649479999999999791e+02 1.764305000000000064e+03
1.180000000000000077e-01 1.526994999999999880e-01 4.863410000000000366e+01 1.653834999999999980e+02 1.764610000000000127e+03
1.190000000000000085e-01 1.527294999999999903e-01 4.819585000000000008e+01 1.656349999999999909e+02 1.764855000000000018e+03
1.200000000000000094e-01 1.527514999999999845e-01 4.767215000000000202e+01 1.657110000000000127e+02 1.765034999999999854e+03
1.209999999999999964e-01 1.527654999999999985e-01 4.706954999999999956e+01 1.656250000000000000e+02 1.765144999999999982e+03
1.219999999999999973e-01 1.527715000000000045e-01 4.639570000000000505e+01 1.653919999999999959e+02 1.765204999999999927e+03
1.229999999999999982e-01 1.527709999999999901e-01 4.565905000000000058e+01 1.650275000000000034e+02 1.765210000000000036e+03
1.239999999999999991e-01 1.527640000000000109e-01 4.486905000000000143e+01 1.645495000000000232e+02 1.765159999999999854e+03
1.250000000000000000e-01 1.527514999999999845e-01 4.403529999999999944e+01 1.639759999999999991e+02 1.765070000000000164e+03
1.260000000000000009e-01 1.527339999999999809e-01 4.316779999999999973e+01 1.633265000000000100e+02 1.764945000000000164e+03
1.270000000000000018e-01 1.527125000000000010e-01 4.227615000000000123e+01 1.626189999999999998e+02 1.764779999999999973e+03
1.280000000000000027e-01 1.526875000000000038e-01 4.137000000000000455e+01 1.618700000000000045e+02 1.764590000000000146e+03
1.290000000000000036e-01 1.526600000000000179e-01 4.045810000000000173e+01 1.610944999999999823e+02 1.764380000000000109e+03
1.300000000000000044e-01 1.526305000000000023e-01 3.954840000000000089e+01 1.603079999999999927e+02 1.764154999999999973e+03
1.310000000000000053e-01 1.525994999999999990e-01 3.864804999999999779e+01 1.595209999999999866e+02 1.763914999999999964e+03
1.320000000000000062e-01 1.525675000000000225e-01 3.776279999999999859e+01 1.587429999999999950e+02 1.763670000000000073e+03
1.330000000000000071e-01 1.525354999999999905e-01 3.689740000000000464e+01 1.579809999999999945e+02 1.763420000000000073e+03
1.340000000000000080e-01 1.525035000000000140e-01 3.605514999999999759e+01 1.572384999999999877e+02 1.763170000000000073e+03
1.350000000000000089e-01 1.524714999999999820e-01 3.523819999999999908e+01 1.565174999999999841e+02 1.762924999999999955e+03
1.360000000000000098e-01 1.524399999999999922e-01 3.444729999999999848e+01 1.558170000000000073e+02 1.762679999999999836e+03
1.370000000000000107e-01 1.524089999999999889e-01 3.368220000000000169e+01 1.551340000000000146e+02 1.762434999999999945e+03
1.380000000000000115e-01 1.523780000000000134e-01 3.294140000000000157e+01 1.544644999999999868e+02 1.762194999999999936e+03
1.390000000000000124e-01 1.523475000000000246e-01 3.222270000000000323e+01 1.538020000000000209e+02 1.761954999999999927e+03
1.400000000000000133e-01 1.523170000000000079e-01 3.152304999999999779e+01 1.531384999999999934e+02 1.761720000000000027e+03
1.410000000000000142e-01 1.522864999999999913e-01 3.083865000000000123e+01 1.524664999999999964e+02 1.761474999999999909e+03
1.420000000000000151e-01 1.522554999999999881e-01 3.016564999999999941e+01 1.517774999999999750e+02 1.761235000000000127e+03
1.430000000000000160e-01 1.522235000000000116e-01 2.949965000000000259e+01 1.510629999999999882e+02 1.760990000000000009e+03
1.440000000000000169e-01 1.521910000000000207e-01 2.883650000000000091e+01 1.503140000000000214e+02 1.760730000000000018e+03
1.450000000000000178e-01 1.521565000000000001e-01 2.817215000000000202e+01 1.495244999999999891e+02 1.760464999999999918e+03
1.459999999999999909e-01 1.521204999999999918e-01 2.750280000000000058e+01 1.486864999999999952e+02 1.760184999999999945e+03
1.469999999999999918e-01 1.520830000000000237e-01 2.682509999999999906e+01 1.477964999999999804e+02 1.759894999999999982e+03
1.479999999999999927e-01 1.520424999999999971e-01 2.613644999999999996e+01 1.468494999999999777e+02 1.759579999999999927e+03
1.489999999999999936e-01 1.520004999999999828e-01 2.543495000000000061e+01 1.458439999999999941e+02 1.759250000000000000e+03
1.499999999999999944e-01 1.519555000000000211e-01 2.471950000000000003e+01 1.447800000000000011e+02 1.758904999999999973e+03
1.509999999999999953e-01 1.519079999999999875e-01 2.398985000000000056e+01 1.436579999999999870e+02 1.758539999999999964e+03
1.519999999999999962e-01 1.518589999999999940e-01 2.324654999999999916e+01 1.424825000000000159e+02 1.758160000000000082e+03
1.529999999999999971e-01 1.518065000000000109e-01 2.249130000000000251e+01 1.412584999999999980e+02 1.757759999999999991e+03
1.539999999999999980e-01 1.517529999999999990e-01 2.172639999999999816e+01 1.399929999999999950e+02 1.757339999999999918e+03
1.549999999999999989e-01 1.516965000000000119e-01 2.095524999999999949e+01 1.386940000000000168e+02 1.756909999999999854e+03
1.559999999999999998e-01 1.516385000000000094e-01 2.018165000000000120e+01 1.373720000000000141e+02 1.756465000000000146e+03
1.570000000000000007e-01 1.515799999999999925e-01 1.941029999999999944e+01 1.360374999999999943e+02 1.756014999999999873e+03
1.580000000000000016e-01 1.515205000000000024e-01 1.864614999999999867e+01 1.347015000000000100e+02 1.755554999999999836e+03
1.590000000000000024e-01 1.514604999999999979e-01 1.789464999999999861e+01 1.333770000000000095e+02 1.755094999999999800e+03
