# t [s], A [cm^2], U [cm/s], P [cPa], c [cm/s]
1.000000000000000021e-03 1.271335000000000104e-01 2.234134999999999871e-01 9.873445000000000960e+01 1.967920000000000073e+03
2.000000000000000042e-03 1.271095000000000141e-01 1.643108000000000013e+00 9.584610000000000696e+01 1.967579999999999927e+03
3.000000000000000062e-03 1.270280000000000020e-01 3.433155500000000249e+00 9.188435000000001196e+01 1.966474999999999909e+03
4.000000000000000083e-03 1.269079999999999930e-01 5.448286149999999495e+00 8.735034999999999172e+01 1.964875000000000000e+03
5.000000000000000104e-03 1.267710000000000226e-01 7.632830000000000226e+00 8.300325000000000841e+01 1.963065000000000055e+03
6.000000000000000125e-03 1.266329999999999956e-01 9.874700000000000699e+00 7.926120000000000232e+01 1.961259999999999991e+03
7.000000000000000146e-03 1.265010000000000023e-01 1.199908999999999892e+01 7.609539999999999793e+01 1.959559999999999945e+03
8.000000000000000167e-03 1.263759999999999883e-01 1.387172499999999964e+01 7.327760000000000673e+01 1.957984999999999900e+03
9.000000000000001055e-03 1.262619999999999854e-01 1.547435000000000116e+01 7.072830000000000439e+01 1.956559999999999945e+03
1.000000000000000194e-02 1.261609999999999954e-01 1.684100000000000108e+01 6.851430000000000575e+01 1.955315000000000055e+03
1.099999999999999936e-02 1.260739999999999916e-01 1.799445000000000050e+01 6.667440000000000566e+01 1.954259999999999991e+03
1.200000000000000025e-02 1.260014999999999885e-01 1.894869999999999877e+01 6.518824999999999648e+01 1.953380000000000109e+03
1.300000000000000114e-02 1.259424999999999850e-01 1.971434999999999960e+01 6.400780000000000314e+01 1.952674999999999955e+03
1.400000000000000203e-02 1.258940000000000059e-01 2.029285000000000139e+01 6.305104999999999649e+01 1.952105000000000018e+03
1.499999999999999944e-02 1.258529999999999927e-01 2.069035000000000224e+01 6.222220000000000084e+01 1.951639999999999873e+03
1.600000000000000033e-02 1.258195000000000008e-01 2.095025000000000048e+01 6.149860000000000326e+01 1.951255000000000109e+03
1.700000000000000122e-02 1.257935000000000025e-01 2.116604999999999848e+01 6.100325000000000131e+01 1.950969999999999800e+03
1.800000000000000211e-02 1.257800000000000029e-01 2.145400000000000063e+01 6.097440000000000282e+01 1.950825000000000045e+03
1.900000000000000300e-02 1.257840000000000069e-01 2.190145000000000053e+01 6.163790000000000191e+01 1.950880000000000109e+03
2.000000000000000042e-02 1.258080000000000032e-01 2.252559999999999718e+01 6.306759999999999877e+01 1.951180000000000064e+03
2.100000000000000130e-02 1.258500000000000174e-01 2.326500000000000057e+01 6.511660000000000537e+01 1.951695000000000164e+03
2.200000000000000219e-02 1.259055000000000035e-01 2.400379999999999825e+01 6.744999999999998863e+01 1.952369999999999891e+03
2.299999999999999961e-02 1.259635000000000060e-01 2.461449999999999960e+01 6.965160000000000196e+01 1.953105000000000018e+03
2.400000000000000050e-02 1.260169999999999901e-01 2.499909999999999854e+01 7.135439999999999827e+01 1.953775000000000091e+03
2.500000000000000139e-02 1.260585000000000178e-01 2.511565000000000225e+01 7.234149999999999636e+01 1.954305000000000064e+03
2.600000000000000228e-02 1.260835000000000150e-01 2.498264999999999958e+01 7.258944999999999936e+01 1.954650000000000091e+03
2.700000000000000316e-02 1.260934999999999973e-01 2.466510000000000247e+01 7.224575000000000102e+01 1.954799999999999955e+03
2.800000000000000058e-02 1.260914999999999953e-01 2.424694999999999823e+01 7.155844999999999345e+01 1.954795000000000073e+03
2.900000000000000147e-02 1.260824999999999863e-01 2.380359999999999943e+01 7.078555000000000064e+01 1.954704999999999927e+03
3.000000000000000236e-02 1.260720000000000174e-01 2.338119999999999976e+01 7.011734999999998763e+01 1.954569999999999936e+03
3.099999999999999978e-02 1.260614999999999930e-01 2.298874999999999957e+01 6.963259999999999650e+01 1.954445000000000164e+03
3.200000000000000067e-02 1.260529999999999984e-01 2.260329999999999728e+01 6.929630000000000223e+01 1.954340000000000146e+03
3.300000000000000155e-02 1.260445000000000038e-01 2.218395000000000294e+01 6.899299999999999500e+01 1.954240000000000009e+03
3.400000000000000244e-02 1.260344999999999938e-01 2.169059999999999988e+01 6.858035000000000991e+01 1.954115000000000009e+03
3.500000000000000333e-02 1.260195000000000065e-01 2.110030000000000072e+01 6.794589999999999463e+01 1.953940000000000055e+03
3.600000000000000422e-02 1.259989999999999999e-01 2.041904999999999859e+01 6.705144999999998845e+01 1.953694999999999936e+03
3.700000000000000511e-02 1.259724999999999873e-01 1.968404999999999916e+01 6.595374999999999943e+01 1.953380000000000109e+03
3.799999999999999906e-02 1.259429999999999994e-01 1.895734999999999815e+01 6.479585000000000150e+01 1.953019999999999982e+03
3.899999999999999994e-02 1.259139999999999981e-01 1.831179999999999808e+01 6.377364999999999640e+01 1.952664999999999964e+03
4.000000000000000083e-02 1.258900000000000019e-01 1.781484999999999985e+01 6.308709999999999951e+01 1.952365000000000009e+03
4.100000000000000172e-02 1.258750000000000147e-01 1.751259999999999906e+01 6.289019999999999300e+01 1.952175000000000182e+03
4.200000000000000261e-02 1.258734999999999993e-01 1.742040000000000077e+01 6.325414999999999566e+01 1.952130000000000109e+03
4.300000000000000350e-02 1.258845000000000103e-01 1.752029999999999887e+01 6.415120000000000289e+01 1.952255000000000109e+03
4.400000000000000439e-02 1.259085000000000065e-01 1.776520000000000010e+01 6.546115000000000350e+01 1.952530000000000200e+03
4.499999999999999833e-02 1.259415000000000118e-01 1.808865000000000123e+01 6.699665000000000248e+01 1.952920000000000073e+03
4.599999999999999922e-02 1.259790000000000076e-01 1.841649999999999920e+01 6.853860000000000241e+01 1.953375000000000000e+03
4.700000000000000011e-02 1.260165000000000035e-01 1.867844999999999800e+01 6.987335000000000207e+01 1.953829999999999927e+03
4.800000000000000100e-02 1.260479999999999934e-01 1.881705000000000183e+01 7.082435000000000969e+01 1.954224999999999909e+03
4.900000000000000189e-02 1.260705000000000020e-01 1.879314999999999714e+01 7.127275000000000205e+01 1.954509999999999991e+03
5.000000000000000278e-02 1.260809999999999986e-01 1.858774999999999977e+01 7.116530000000000200e+01 1.954639999999999873e+03
5.100000000000000366e-02 1.260769999999999946e-01 1.819989999999999952e+01 7.051019999999999754e+01 1.954610000000000127e+03
5.200000000000000455e-02 1.260600000000000054e-01 1.764300000000000068e+01 6.936440000000000339e+01 1.954409999999999854e+03
5.300000000000000544e-02 1.260300000000000031e-01 1.694000000000000128e+01 6.781595000000000084e+01 1.954054999999999836e+03
5.399999999999999939e-02 1.259890000000000176e-01 1.611829999999999785e+01 6.596609999999999729e+01 1.953565000000000055e+03
5.500000000000000028e-02 1.259399999999999964e-01 1.520645000000000024e+01 6.391514999999999702e+01 1.952965000000000146e+03
5.600000000000000117e-02 1.258849999999999969e-01 1.423205000000000098e+01 6.175315000000000509e+01 1.952289999999999964e+03
5.700000000000000205e-02 1.258254999999999790e-01 1.322139999999999915e+01 5.955684999999999718e+01 1.951559999999999945e+03
5.800000000000000294e-02 1.257639999999999869e-01 1.219980999999999938e+01 5.739074999999999704e+01 1.950809999999999945e+03
5.900000000000000383e-02 1.257024999999999948e-01 1.119290499999999966e+01 5.531184999999999974e+01 1.950055000000000064e+03
6.000000000000000472e-02 1.256430000000000047e-01 1.022769999999999868e+01 5.337470000000000425e+01 1.949315000000000055e+03
6.099999999999999867e-02 1.255864999999999898e-01 9.333325000000000315e+00 5.163609999999999900e+01 1.948619999999999891e+03
6.199999999999999956e-02 1.255354999999999943e-01 8.541035000000000821e+00 5.015760000000000218e+01 1.947984999999999900e+03
6.300000000000000044e-02 1.254910000000000192e-01 7.883250000000000313e+00 4.900520000000000209e+01 1.947434999999999945e+03
6.400000000000000133e-02 1.254570000000000130e-01 7.392374999999999474e+00 4.824705000000000155e+01 1.947000000000000000e+03
6.500000000000000222e-02 1.254329999999999889e-01 7.098675000000000068e+00 4.794899999999999807e+01 1.946695000000000164e+03
6.600000000000000311e-02 1.254224999999999923e-01 7.028325000000000600e+00 4.816920000000000357e+01 1.946550000000000182e+03
6.700000000000000400e-02 1.254264999999999963e-01 7.201505000000000045e+00 4.895289999999999964e+01 1.946585000000000036e+03
6.800000000000000488e-02 1.254470000000000030e-01 7.630984999999999907e+00 5.032800000000000296e+01 1.946809999999999945e+03
6.900000000000000577e-02 1.254834999999999978e-01 8.321155000000000967e+00 5.230219999999999914e+01 1.947240000000000009e+03
7.000000000000000666e-02 1.255374999999999963e-01 9.267834999999999823e+00 5.486209999999999809e+01 1.947880000000000109e+03
7.100000000000000755e-02 1.256079999999999974e-01 1.045870999999999995e+01 5.797414999999999452e+01 1.948730000000000018e+03
7.200000000000000844e-02 1.256944999999999868e-01 1.187398500000000112e+01 6.158679999999999666e+01 1.949775000000000091e+03
7.300000000000000933e-02 1.257955000000000045e-01 1.348790500000000137e+01 6.563439999999999941e+01 1.951000000000000000e+03
7.399999999999999634e-02 1.259089999999999931e-01 1.527025000000000077e+01 7.004139999999999588e+01 1.952389999999999873e+03
7.499999999999999722e-02 1.260339999999999794e-01 1.718779999999999930e+01 7.472700000000000387e+01 1.953924999999999955e+03
7.599999999999999811e-02 1.261680000000000024e-01 1.920639999999999858e+01 7.960999999999999943e+01 1.955565000000000055e+03
7.699999999999999900e-02 1.263080000000000036e-01 2.129209999999999781e+01 8.461270000000000380e+01 1.957299999999999955e+03
7.799999999999999989e-02 1.264529999999999821e-01 2.341319999999999979e+01 8.966495000000000459e+01 1.959095000000000027e+03
7.900000000000000078e-02 1.266005000000000047e-01 2.554100000000000037e+01 9.470669999999999789e+01 1.960934999999999945e+03
8.000000000000000167e-02 1.267490000000000006e-01 2.765105000000000146e+01 9.969149999999999068e+01 1.962789999999999964e+03
8.100000000000000255e-02 1.268970000000000098e-01 2.972355000000000302e+01 1.045842499999999973e+02 1.964639999999999873e+03
8.200000000000000344e-02 1.270435000000000036e-01 3.174369999999999692e+01 1.093654999999999973e+02 1.966485000000000127e+03
8.300000000000000433e-02 1.271875000000000089e-01 3.370139999999999958e+01 1.140264999999999986e+02 1.968305000000000064e+03
8.400000000000000522e-02 1.273294999999999844e-01 3.559090000000000487e+01 1.185685000000000002e+02 1.970099999999999909e+03
8.500000000000000611e-02 1.274684999999999846e-01 3.740975000000000250e+01 1.230020000000000095e+02 1.971860000000000127e+03
8.600000000000000699e-02 1.276049999999999962e-01 3.915824999999999534e+01 1.273400000000000034e+02 1.973595000000000027e+03
8.700000000000000788e-02 1.277389999999999914e-01 4.083820000000000050e+01 1.315985000000000014e+02 1.975304999999999836e+03
8.800000000000000877e-02 1.278710000000000124e-01 4.245194999999999652e+01 1.357909999999999968e+02 1.976990000000000009e+03
8.899999999999999578e-02 1.280014999999999903e-01 4.400175000000000125e+01 1.399289999999999736e+02 1.978660000000000082e+03
8.999999999999999667e-02 1.281299999999999939e-01 4.548904999999999887e+01 1.440165000000000077e+02 1.980305000000000064e+03
9.099999999999999756e-02 1.282574999999999965e-01 4.691400000000000148e+01 1.480540000000000020e+02 1.981934999999999945e+03
9.199999999999999845e-02 1.283825000000000105e-01 4.827540000000000475e+01 1.520344999999999800e+02 1.983550000000000182e+03
9.299999999999999933e-02 1.285064999999999957e-01 4.957045000000000101e+01 1.559465000000000146e+02 1.985134999999999991e+03
9.400000000000000022e-02 1.286279999999999923e-01 5.079505000000000337e+01 1.597715000000000032e+02 1.986704999999999927e+03
9.500000000000000111e-02 1.287470000000000003e-01 5.194365000000000521e+01 1.634900000000000091e+02 1.988235000000000127e+03
9.600000000000000200e-02 1.288624999999999909e-01 5.301010000000000133e+01 1.670780000000000030e+02 1.989730000000000018e+03
9.700000000000000289e-02 1.289735000000000187e-01 5.398749999999999716e+01 1.705109999999999957e+02 1.991180000000000064e+03
9.800000000000000377e-02 1.290810000000000013e-01 5.486870000000000402e+01 1.737649999999999864e+02 1.992565000000000055e+03
9.900000000000000466e-02 1.291829999999999923e-01 5.564664999999999395e+01 1.768149999999999977e+02 1.993889999999999873e+03
1.000000000000000056e-01 1.292784999999999906e-01 5.631465000000000032e+01 1.796394999999999982e+02 1.995134999999999991e+03
1.010000000000000064e-01 1.293674999999999964e-01 5.686669999999999447e+01 1.822189999999999941e+02 1.996300000000000182e+03
1.020000000000000073e-01 1.294494999999999951e-01 5.729764999999999731e+01 1.845364999999999895e+02 1.997375000000000000e+03
1.030000000000000082e-01 1.295240000000000002e-01 5.760370000000000346e+01 1.865790000000000077e+02 1.998355000000000018e+03
1.040000000000000091e-01 1.295904999999999974e-01 5.778239999999999554e+01 1.883375000000000057e+02 1.999224999999999909e+03
1.050000000000000100e-01 1.296484999999999999e-01 5.783305000000000007e+01 1.898064999999999998e+02 1.999994999999999891e+03
1.059999999999999970e-01 1.296980000000000077e-01 5.775690000000000168e+01 1.909875000000000114e+02 2.000654999999999973e+03
1.069999999999999979e-01 1.297395000000000076e-01 5.755700000000000216e+01 1.918845000000000027e+02 2.001210000000000036e+03
1.079999999999999988e-01 1.297719999999999985e-01 5.723865000000000691e+01 1.925084999999999980e+02 2.001650000000000091e+03
1.089999999999999997e-01 1.297969999999999957e-01 5.680910000000000082e+01 1.928735000000000070e+02 2.001980000000000018e+03
1.100000000000000006e-01 1.298139999999999850e-01 5.627754999999999797e+01 1.929989999999999952e+02 2.002220000000000027e+03
1.110000000000000014e-01 1.298239999999999950e-01 5.565470000000000539e+01 1.929094999999999800e+02 2.002360000000000127e+03
1.120000000000000023e-01 1.298269999999999980e-01 5.495275000000000176e+01 1.926304999999999836e+02 2.002420000000000073e+03
1.130000000000000032e-01 1.298245000000000093e-01 5.418455000000000155e+01 1.921910000000000025e+02 2.002394999999999982e+03
1.140000000000000041e-01 1.298175000000000023e-01 5.336364999999999981e+01 1.916200000000000045e+02 2.002309999999999945e+03
1.150000000000000050e-01 1.298054999999999903e-01 5.250350000000000250e+01 1.909470000000000027e+02 2.002159999999999854e+03
1.160000000000000059e-01 1.297899999999999887e-01 5.161709999999999354e+01 1.901990000000000123e+02 2.001965000000000146e+03
1.170000000000000068e-01 1.297719999999999985e-01 5.071654999999999802e+01 1.894025000000000034e+02 2.001740000000000009e+03
1.180000000000000077e-01 1.297520000000000062e-01 4.981295000000000073e+01 1.885799999999999841e+02 2.001484999999999900e+03
1.190000000000000085e-01 1.297304999999999986e-01 4.891559999999999775e+01 1.877489999999999952e+02 2.001204999999999927e+03
1.200000000000000094e-01 1.297085000000000043e-01 4.803225000000000477e+01 1.869250000000000114e+02 2.000924999999999955e+03
1.209999999999999964e-01 1.296859999999999957e-01 4.716875000000000284e+01 1.861179999999999950e+02 2.000630000000000109e+03
1.219999999999999973e-01 1.296635000000000149e-01 4.632904999999999518e+01 1.853344999999999914e+02 2.000340000000000146e+03
1.229999999999999982e-01 1.296410000000000062e-01 4.551524999999999466e+01 1.845754999999999768e+02 2.000045000000000073e+03
1.239999999999999991e-01 1.296189999999999842e-01 4.472750000000000625e+01 1.838389999999999986e+02 1.999759999999999991e+03
1.250000000000000000e-01 1.295970000000000177e-01 4.396429999999999438e+01 1.831189999999999998e+02 1.999470000000000027e+03
1.260000000000000009e-01 1.295755000000000101e-01 4.322275000000000489e+01 1.824074999999999989e+02 1.999190000000000055e+03
1.270000000000000018e-01 1.295540000000000025e-01 4.249864999999999782e+01 1.816924999999999955e+02 1.998905000000000200e+03
1.280000000000000027e-01 1.295320000000000082e-01 4.178690000000000282e+01 1.809619999999999891e+02 1.998619999999999891e+03
1.290000000000000036e-01 1.295100000000000140e-01 4.108174999999999955e+01 1.802019999999999982e+02 1.998329999999999927e+03
1.300000000000000044e-01 1.294865000000000044e-01 4.037709999999999866e+01 1.793990000000000009e+02 1.998019999999999982e+03
1.310000000000000053e-01 1.294620000000000215e-01 3.966689999999999827e+01 1.785399999999999920e+02 1.997694999999999936e+03
1.320000000000000062e-01 1.294354999999999811e-01 3.894539999999999935e+01 1.776125000000000114e+02 1.997355000000000018e+03
1.330000000000000071e-01 1.294069999999999943e-01 3.820770000000000266e+01 1.766064999999999827e+02 1.996990000000000009e+03
1.340000000000000080e-01 1.293765000000000054e-01 3.744939999999999714e+01 1.755149999999999864e+02 1.996595000000000027e+03
1.350000000000000089e-01 1.293435000000000001e-01 3.666769999999999641e+01 1.743329999999999984e+02 1.996170000000000073e+03
1.360000000000000098e-01 1.293084999999999929e-01 3.586079999999999757e+01 1.730589999999999975e+02 1.995715000000000146e+03
1.370000000000000107e-01 1.292705000000000104e-01 3.502830000000000155e+01 1.716949999999999932e+02 1.995224999999999909e+03
1.380000000000000115e-01 1.292294999999999972e-01 3.417145000000000010e+01 1.702465000000000259e+02 1.994704999999999927e+03
1.390000000000000124e-01 1.291864999999999819e-01 3.329285000000000139e+01 1.687224999999999966e+02 1.994150000000000091e+03
1.400000000000000133e-01 1.291414999999999924e-01 3.239645000000000152e+01 1.671345000000000027e+02 1.993570000000000164e+03
1.410000000000000142e-01 1.290950000000000153e-01 3.148754999999999882e+01 1.654975000000000023e+02 1.992965000000000146e+03
1.420000000000000151e-01 1.290459999999999940e-01 3.057244999999999635e+01 1.638274999999999864e+02 1.992340000000000146e+03
1.430000000000000160e-01 1.289965000000000139e-01 2.965814999999999912e+01 1.621434999999999889e+02 1.991704999999999927e+03
1.440000000000000169e-01 1.289470000000000061e-01 2.875229999999999819e+01 1.604644999999999868e+02 1.991065000000000055e+03
1.450000000000000178e-01 1.288970000000000116e-01 2.786280000000000001e+01 1.588089999999999975e+02 1.990420000000000073e+03
1.459999999999999909e-01 1.288475000000000037e-01 2.699729999999999919e+01 1.571965000000000146e+02 1.989784999999999854e+03
1.469999999999999918e-01 1.287989999999999968e-01 2.616310000000000002e+01 1.556440000000000055e+02 1.989159999999999854e+03
1.479999999999999927e-01 1.287524999999999920e-01 2.536690000000000111e+01 1.541664999999999850e+02 1.988559999999999945e+03
1.489999999999999936e-01 1.287075000000000025e-01 2.461449999999999960e+01 1.527764999999999986e+02 1.987974999999999909e+03
1.499999999999999944e-01 1.286650000000000016e-01 2.391049999999999898e+01 1.514844999999999970e+02 1.987425000000000182e+03
1.509999999999999953e-01 1.286249999999999893e-01 2.325835000000000008e+01 1.502975000000000136e+02 1.986909999999999854e+03
1.519999999999999962e-01 1.285874999999999935e-01 2.266024999999999778e+01 1.492185000000000059e+02 1.986429999999999836e+03
1.529999999999999971e-01 1.285534999999999872e-01 2.211714999999999876e+01 1.482489999999999952e+02 1.985990000000000009e+03
1.539999999999999980e-01 1.285229999999999984e-01 2.162875000000000014e+01 1.473870000000000005e+02 1.985585000000000036e+03
1.549999999999999989e-01 1.284945000000000115e-01 2.119375000000000142e+01 1.466279999999999859e+02 1.985219999999999800e+03
1.559999999999999998e-01 1.284700000000000009e-01 2.080985000000000085e+01 1.459660000000000082e+02 1.984894999999999982e+03
1.570000000000000007e-01 1.284474999999999922e-01 2.047409999999999997e+01 1.453935000000000173e+02 1.984605000000000018e+03
1.580000000000000016e-01 1.284279999999999866e-01 2.018284999999999840e+01 1.449019999999999868e+02 1.984345000000000027e+03
1.590000000000000024e-01 1.284104999999999830e-01 1.993215000000000003e+01 1.444819999999999993e+02 1.984119999999999891e+03
