# t [s], A [cm^2], U [cm/s], P [cPa], c [cm/s]
1.000000000000000021e-03 5.366834999999999800e-01 3.113350000000000839e-03 1.001490000000000009e+02 1.490304999999999836e+03
2.000000000000000042e-03 5.366754999999999720e-01 2.193999999999998035e-04 1.001320000000000050e+02 1.490299999999999955e+03
3.000000000000000062e-03 5.367115000000000080e-01 6.692970000000000863e-02 1.001955499999999972e+02 1.490320000000000164e+03
4.000000000000000083e-03 5.367574999999999985e-01 1.527390499999999873e-01 1.002997500000000031e+02 1.490349999999999909e+03
5.000000000000000104e-03 5.367574999999999985e-01 1.586644999999999861e-01 1.003076499999999953e+02 1.490355000000000018e+03
6.000000000000000125e-03 5.367204999999999337e-01 9.386949999999999461e-02 1.001906500000000051e+02 1.490335000000000036e+03
7.000000000000000146e-03 5.366809999999999636e-01 2.011449999999997962e-02 1.000078500000000048e+02 1.490289999999999964e+03
8.000000000000000167e-03 5.366334999999999855e-01 -7.411349999999999882e-02 9.975630000000001019e+01 1.490235000000000127e+03
9.000000000000001055e-03 5.365514999999999590e-01 -2.435069999999999735e-01 9.937090000000000600e+01 1.490139999999999873e+03
1.000000000000000194e-02 5.364234999999999420e-01 -5.084600000000001341e-01 9.880340000000001055e+01 1.490009999999999991e+03
1.099999999999999936e-02 5.362430000000000252e-01 -8.754550000000000942e-01 9.801779999999999404e+01 1.489825000000000045e+03
1.200000000000000025e-02 5.359994999999999621e-01 -1.355364999999999931e+00 9.697119999999999607e+01 1.489565000000000055e+03
1.300000000000000114e-02 5.356920000000000570e-01 -1.935939999999999994e+00 9.564664999999999395e+01 1.489235000000000127e+03
1.400000000000000203e-02 5.353404999999999969e-01 -2.557425000000000281e+00 9.408735000000000070e+01 1.488835000000000036e+03
1.499999999999999944e-02 5.349814999999999987e-01 -3.125024999999999942e+00 9.239945000000000164e+01 1.488390000000000100e+03
1.600000000000000033e-02 5.346524999999999750e-01 -3.545504999999999463e+00 9.071179999999999666e+01 1.487929999999999836e+03
1.700000000000000122e-02 5.343710000000000404e-01 -3.759233500000000561e+00 8.913179999999999836e+01 1.487474999999999909e+03
1.800000000000000211e-02 5.341390000000000304e-01 -3.752435999999999883e+00 8.771715000000000373e+01 1.487039999999999964e+03
1.900000000000000300e-02 5.339420000000000277e-01 -3.551330549999999864e+00 8.646985000000000809e+01 1.486640000000000100e+03
2.000000000000000042e-02 5.337585000000000246e-01 -3.206070650000000022e+00 8.534825000000000728e+01 1.486259999999999991e+03
2.100000000000000130e-02 5.335670000000000135e-01 -2.772212499999999746e+00 8.428829999999999245e+01 1.485894999999999982e+03
2.200000000000000219e-02 5.333529999999999660e-01 -2.294923499999999894e+00 8.322594999999999743e+01 1.485529999999999973e+03
2.299999999999999961e-02 5.331099999999999728e-01 -1.799574999999999925e+00 8.211634999999999707e+01 1.485159999999999854e+03
2.400000000000000050e-02 5.328424999999999967e-01 -1.290639999999999787e+00 8.094219999999999970e+01 1.484764999999999873e+03
2.500000000000000139e-02 5.325594999999999635e-01 -7.582800000000000651e-01 7.971205000000000496e+01 1.484365000000000009e+03
2.600000000000000228e-02 5.322715000000000085e-01 -1.892900000000001803e-01 7.844925000000000637e+01 1.483949999999999818e+03
2.700000000000000316e-02 5.319840000000000124e-01 4.220000000000001528e-01 7.717779999999999063e+01 1.483529999999999973e+03
2.800000000000000058e-02 5.316994999999999916e-01 1.066555000000000142e+00 7.590919999999999845e+01 1.483115000000000009e+03
2.900000000000000147e-02 5.314094999999999791e-01 1.718745000000000189e+00 7.463540000000000418e+01 1.482694999999999936e+03
3.000000000000000236e-02 5.311044999999999794e-01 2.339495000000000324e+00 7.332794999999998709e+01 1.482264999999999873e+03
3.099999999999999978e-02 5.307699999999999640e-01 2.883090000000000153e+00 7.194360000000000355e+01 1.481815000000000055e+03
3.200000000000000067e-02 5.303934999999999622e-01 3.305699999999999861e+00 7.043385000000000673e+01 1.481340000000000146e+03
3.300000000000000155e-02 5.299665000000000070e-01 3.573865000000000069e+00 6.875690000000000168e+01 1.480824999999999818e+03
3.400000000000000244e-02 5.294879999999999587e-01 3.670825000000000227e+00 6.688849999999999341e+01 1.480264999999999873e+03
3.500000000000000333e-02 5.289635000000000309e-01 3.599885000000000002e+00 6.482985000000000753e+01 1.479654999999999973e+03
3.600000000000000422e-02 5.284050000000000136e-01 3.383434999999999970e+00 6.261079999999999757e+01 1.479005000000000109e+03
3.700000000000000511e-02 5.278310000000000501e-01 3.059025000000000105e+00 6.028709999999999525e+01 1.478329999999999927e+03
3.799999999999999906e-02 5.272620000000000084e-01 2.672880000000000145e+00 5.793384999999999962e+01 1.477644999999999982e+03
3.899999999999999994e-02 5.267184999999999784e-01 2.273300000000000320e+00 5.563609999999999900e+01 1.476960000000000036e+03
4.000000000000000083e-02 5.262199999999999100e-01 1.904884999999999717e+00 5.347934999999999661e+01 1.476315000000000055e+03
4.100000000000000172e-02 5.257804999999999840e-01 1.604605000000000281e+00 5.154160000000000252e+01 1.475715000000000146e+03
4.200000000000000261e-02 5.254130000000000189e-01 1.400144999999999751e+00 4.988719999999999999e+01 1.475190000000000055e+03
4.300000000000000350e-02 5.251225000000000476e-01 1.310050000000000159e+00 4.856425000000000125e+01 1.474744999999999891e+03
4.400000000000000439e-02 5.249144999999999506e-01 1.345215000000000272e+00 4.760420000000000584e+01 1.474400000000000091e+03
4.499999999999999833e-02 5.247895000000000199e-01 1.511099999999999888e+00 4.702360000000000184e+01 1.474160000000000082e+03
4.599999999999999922e-02 5.247474999999999223e-01 1.809941499999999870e+00 4.682690000000000197e+01 1.474025000000000091e+03
4.700000000000000011e-02 5.247870000000000035e-01 2.242524999999999658e+00 4.700979999999999848e+01 1.474000000000000000e+03
4.800000000000000100e-02 5.249064999999999426e-01 2.809199999999999697e+00 4.756224999999999881e+01 1.474085000000000036e+03
4.900000000000000189e-02 5.251025000000000276e-01 3.509995999999999672e+00 4.847039999999999793e+01 1.474275000000000091e+03
5.000000000000000278e-02 5.253729999999999789e-01 4.344064499999999995e+00 4.971744999999999948e+01 1.474565000000000055e+03
5.100000000000000366e-02 5.257140000000000146e-01 5.308686999999999934e+00 5.128410000000000224e+01 1.474954999999999927e+03
5.200000000000000455e-02 5.261204999999999909e-01 6.398111000000000104e+00 5.314754999999999541e+01 1.475429999999999836e+03
5.300000000000000544e-02 5.265869999999999163e-01 7.603055000000000341e+00 5.528140000000000498e+01 1.475994999999999891e+03
5.399999999999999939e-02 5.271055000000000046e-01 8.909959999999999880e+00 5.765469999999999828e+01 1.476639999999999873e+03
5.500000000000000028e-02 5.276680000000000259e-01 1.030161000000000016e+01 6.023229999999999507e+01 1.477344999999999800e+03
5.600000000000000117e-02 5.282655000000000545e-01 1.175755999999999979e+01 6.297540000000000759e+01 1.478105000000000018e+03
5.700000000000000205e-02 5.288884999999999836e-01 1.325545499999999954e+01 6.584255000000000280e+01 1.478920000000000073e+03
5.800000000000000294e-02 5.295265000000000111e-01 1.477218000000000053e+01 6.879185000000001082e+01 1.479759999999999991e+03
5.900000000000000383e-02 5.301715000000000177e-01 1.628527000000000058e+01 7.178225000000000477e+01 1.480625000000000000e+03
6.000000000000000472e-02 5.308154999999999957e-01 1.777404999999999902e+01 7.477570000000000050e+01 1.481510000000000218e+03
6.099999999999999867e-02 5.314510000000000067e-01 1.922059999999999746e+01 7.773869999999999436e+01 1.482390000000000100e+03
6.199999999999999956e-02 5.320734999999999770e-01 2.061035000000000039e+01 8.064369999999999550e+01 1.483264999999999873e+03
6.300000000000000044e-02 5.326790000000000136e-01 2.193220000000000169e+01 8.346970000000000312e+01 1.484125000000000000e+03
6.400000000000000133e-02 5.332654999999999479e-01 2.317880000000000251e+01 8.620265000000000555e+01 1.484969999999999800e+03
6.500000000000000222e-02 5.338315000000000143e-01 2.434615000000000151e+01 8.883500000000000796e+01 1.485784999999999854e+03
6.600000000000000311e-02 5.343784999999999785e-01 2.543299999999999983e+01 9.136554999999999893e+01 1.486579999999999927e+03
6.700000000000000400e-02 5.349064999999999515e-01 2.644055000000000177e+01 9.379765000000000441e+01 1.487349999999999909e+03
6.800000000000000488e-02 5.354189999999999783e-01 2.737199999999999989e+01 9.613935000000000741e+01 1.488099999999999909e+03
6.900000000000000577e-02 5.359174999999999356e-01 2.823140000000000072e+01 9.840059999999999718e+01 1.488824999999999818e+03
7.000000000000000666e-02 5.364039999999999919e-01 2.902380000000000138e+01 1.005934500000000043e+02 1.489529999999999973e+03
7.100000000000000755e-02 5.368810000000000526e-01 2.975424999999999898e+01 1.027300500000000056e+02 1.490220000000000027e+03
7.200000000000000844e-02 5.373514999999999819e-01 3.042734999999999701e+01 1.048210499999999996e+02 1.490894999999999982e+03
7.300000000000000933e-02 5.378159999999999608e-01 3.104735000000000156e+01 1.068760000000000048e+02 1.491559999999999945e+03
7.399999999999999634e-02 5.382765000000000466e-01 3.161720000000000397e+01 1.089004999999999939e+02 1.492215000000000146e+03
7.499999999999999722e-02 5.387315000000000298e-01 3.213880000000000337e+01 1.108984999999999985e+02 1.492860000000000127e+03
7.599999999999999811e-02 5.391820000000000501e-01 3.261274999999999835e+01 1.128700000000000045e+02 1.493494999999999891e+03
7.699999999999999900e-02 5.396254999999999802e-01 3.303849999999999909e+01 1.148104999999999905e+02 1.494119999999999891e+03
7.799999999999999989e-02 5.400610000000000133e-01 3.341414999999999935e+01 1.167139999999999986e+02 1.494740000000000009e+03
7.900000000000000078e-02 5.404860000000000220e-01 3.373699999999999477e+01 1.185695000000000050e+02 1.495335000000000036e+03
8.000000000000000167e-02 5.408969999999999612e-01 3.400379999999999825e+01 1.203659999999999997e+02 1.495925000000000182e+03
8.100000000000000255e-02 5.412909999999999666e-01 3.421065000000000111e+01 1.220895000000000010e+02 1.496489999999999782e+03
8.200000000000000344e-02 5.416650000000000631e-01 3.435379999999999967e+01 1.237265000000000015e+02 1.497029999999999973e+03
8.300000000000000433e-02 5.420165000000000122e-01 3.442969999999999686e+01 1.252630000000000052e+02 1.497539999999999964e+03
8.400000000000000522e-02 5.423419999999999908e-01 3.443529999999999802e+01 1.266844999999999999e+02 1.498019999999999982e+03
8.500000000000000611e-02 5.426394999999999413e-01 3.436820000000000164e+01 1.279805000000000064e+02 1.498465000000000146e+03
8.600000000000000699e-02 5.429064999999999586e-01 3.422695000000000221e+01 1.291410000000000196e+02 1.498865000000000009e+03
8.700000000000000788e-02 5.431420000000000137e-01 3.401125000000000398e+01 1.301585000000000036e+02 1.499230000000000018e+03
8.800000000000000877e-02 5.433449999999999669e-01 3.372155000000000058e+01 1.310285000000000082e+02 1.499545000000000073e+03
8.899999999999999578e-02 5.435149999999999704e-01 3.335984999999999445e+01 1.317485000000000070e+02 1.499820000000000164e+03
8.999999999999999667e-02 5.436530000000000529e-01 3.292895000000000039e+01 1.323195000000000050e+02 1.500050000000000182e+03
9.099999999999999756e-02 5.437589999999999923e-01 3.243285000000000196e+01 1.327445000000000164e+02 1.500230000000000018e+03
9.199999999999999845e-02 5.438350000000000684e-01 3.187669999999999959e+01 1.330300000000000011e+02 1.500365000000000009e+03
9.299999999999999933e-02 5.438819999999999766e-01 3.126630000000000109e+01 1.331829999999999927e+02 1.500464999999999918e+03
9.400000000000000022e-02 5.439030000000000253e-01 3.060844999999999771e+01 1.332154999999999916e+02 1.500525000000000091e+03
9.500000000000000111e-02 5.439005000000000090e-01 2.991065000000000396e+01 1.331374999999999886e+02 1.500539999999999964e+03
9.600000000000000200e-02 5.438764999999999850e-01 2.918064999999999998e+01 1.329639999999999986e+02 1.500529999999999973e+03
9.700000000000000289e-02 5.438355000000000272e-01 2.842660000000000053e+01 1.327069999999999936e+02 1.500490000000000009e+03
9.800000000000000377e-02 5.437794999999999712e-01 2.765670000000000073e+01 1.323820000000000050e+02 1.500424999999999955e+03
9.900000000000000466e-02 5.437115000000000142e-01 2.687899999999999778e+01 1.320035000000000025e+02 1.500335000000000036e+03
1.000000000000000056e-01 5.436354999999999382e-01 2.610105000000000075e+01 1.315860000000000127e+02 1.500235000000000127e+03
1.010000000000000064e-01 5.435529999999999529e-01 2.532989999999999853e+01 1.311409999999999911e+02 1.500119999999999891e+03
1.020000000000000073e-01 5.434664999999999635e-01 2.457159999999999656e+01 1.306819999999999879e+02 1.499994999999999891e+03
1.030000000000000082e-01 5.433795000000000153e-01 2.383135000000000048e+01 1.302189999999999941e+02 1.499865000000000009e+03
1.040000000000000091e-01 5.432919999999999972e-01 2.311309999999999931e+01 1.297599999999999909e+02 1.499735000000000127e+03
1.050000000000000100e-01 5.432065000000000365e-01 2.241955000000000098e+01 1.293125000000000000e+02 1.499595000000000027e+03
1.059999999999999970e-01 5.431224999999999525e-01 2.175220000000000198e+01 1.288795000000000073e+02 1.499465000000000146e+03
1.069999999999999979e-01 5.430420000000000247e-01 2.111110000000000042e+01 1.284635000000000105e+02 1.499339999999999918e+03
1.079999999999999988e-01 5.429629999999999734e-01 2.049540000000000006e+01 1.280654999999999859e+02 1.499210000000000036e+03
1.089999999999999997e-01 5.428855000000000208e-01 1.990305000000000035e+01 1.276814999999999998e+02 1.499090000000000146e+03
1.100000000000000006e-01 5.428094999999999448e-01 1.933105000000000118e+01 1.273094999999999999e+02 1.498965000000000146e+03
1.110000000000000014e-01 5.427330000000000210e-01 1.877580000000000027e+01 1.269445000000000050e+02 1.498849999999999909e+03
1.120000000000000023e-01 5.426545000000000396e-01 1.823320000000000007e+01 1.265794999999999959e+02 1.498730000000000018e+03
1.130000000000000032e-01 5.425735000000000419e-01 1.769879999999999853e+01 1.262090000000000032e+02 1.498610000000000127e+03
1.140000000000000041e-01 5.424879999999999702e-01 1.716825000000000045e+01 1.258259999999999934e+02 1.498490000000000009e+03
1.150000000000000050e-01 5.423974999999999769e-01 1.663725000000000165e+01 1.254249999999999972e+02 1.498360000000000127e+03
1.160000000000000059e-01 5.423000000000000043e-01 1.610170000000000101e+01 1.249989999999999952e+02 1.498224999999999909e+03
1.170000000000000068e-01 5.421955000000000524e-01 1.555830000000000091e+01 1.245434999999999945e+02 1.498085000000000036e+03
1.180000000000000077e-01 5.420819999999999528e-01 1.500414999999999921e+01 1.240545000000000044e+02 1.497934999999999945e+03
1.190000000000000085e-01 5.419605000000000672e-01 1.443715000000000082e+01 1.235294999999999987e+02 1.497775000000000091e+03
1.200000000000000094e-01 5.418304999999999927e-01 1.385613999999999990e+01 1.229675000000000011e+02 1.497605000000000018e+03
1.209999999999999964e-01 5.416925000000000212e-01 1.326071999999999917e+01 1.223689999999999998e+02 1.497429999999999836e+03
1.219999999999999973e-01 5.415459999999999718e-01 1.265138499999999944e+01 1.217355000000000018e+02 1.497235000000000127e+03
1.229999999999999982e-01 5.413935000000000830e-01 1.202967500000000101e+01 1.210709999999999980e+02 1.497039999999999964e+03
1.239999999999999991e-01 5.412350000000000216e-01 1.139785000000000004e+01 1.203804999999999978e+02 1.496829999999999927e+03
1.250000000000000000e-01 5.410730000000000262e-01 1.075904500000000041e+01 1.196689999999999969e+02 1.496619999999999891e+03
1.260000000000000009e-01 5.409095000000000431e-01 1.011697000000000024e+01 1.189449999999999932e+02 1.496394999999999982e+03
1.270000000000000018e-01 5.407450000000000312e-01 9.476039999999999353e+00 1.182169999999999987e+02 1.496179999999999836e+03
1.280000000000000027e-01 5.405824999999999658e-01 8.841034999999999755e+00 1.174925000000000068e+02 1.495954999999999927e+03
1.290000000000000036e-01 5.404240000000000155e-01 8.216985000000001094e+00 1.167820000000000107e+02 1.495740000000000009e+03
1.300000000000000044e-01 5.402704999999999869e-01 7.609079999999999622e+00 1.160935000000000059e+02 1.495529999999999973e+03
1.310000000000000053e-01 5.401255000000000361e-01 7.022375000000000256e+00 1.154369999999999976e+02 1.495319999999999936e+03
1.320000000000000062e-01 5.399899999999999700e-01 6.461745000000000516e+00 1.148199999999999932e+02 1.495125000000000000e+03
1.330000000000000071e-01 5.398659999999999570e-01 5.931559999999999278e+00 1.142500000000000000e+02 1.494944999999999936e+03
1.340000000000000080e-01 5.397539999999999560e-01 5.435664999999999303e+00 1.137344999999999970e+02 1.494775000000000091e+03
1.350000000000000089e-01 5.396555000000000657e-01 4.977215000000000167e+00 1.132780000000000058e+02 1.494619999999999891e+03
1.360000000000000098e-01 5.395719999999999406e-01 4.558544999999999625e+00 1.128839999999999861e+02 1.494485000000000127e+03
1.370000000000000107e-01 5.395020000000000371e-01 4.181134999999999380e+00 1.125540000000000020e+02 1.494369999999999891e+03
1.380000000000000115e-01 5.394464999999999399e-01 3.845555000000000057e+00 1.122890000000000015e+02 1.494275000000000091e+03
1.390000000000000124e-01 5.394044999999999535e-01 3.551499999999999879e+00 1.120875000000000057e+02 1.494190000000000055e+03
1.400000000000000133e-01 5.393759999999999666e-01 3.297789999999999999e+00 1.119470000000000027e+02 1.494130000000000109e+03
1.410000000000000142e-01 5.393590000000000328e-01 3.082494999999999763e+00 1.118619999999999948e+02 1.494085000000000036e+03
1.420000000000000151e-01 5.393535000000000412e-01 2.902989999999999959e+00 1.118285000000000053e+02 1.494055000000000064e+03
1.430000000000000160e-01 5.393570000000000864e-01 2.756130000000000191e+00 1.118395000000000010e+02 1.494039999999999964e+03
1.440000000000000169e-01 5.393679999999999586e-01 2.638325000000000031e+00 1.118875000000000028e+02 1.494039999999999964e+03
1.450000000000000178e-01 5.393855000000000732e-01 2.545734999999999637e+00 1.119660000000000082e+02 1.494045000000000073e+03
1.459999999999999909e-01 5.394065000000000110e-01 2.474380000000000024e+00 1.120664999999999907e+02 1.494065000000000055e+03
1.469999999999999918e-01 5.394309999999999938e-01 2.420284999999999798e+00 1.121825000000000045e+02 1.494085000000000036e+03
1.479999999999999927e-01 5.394569999999999643e-01 2.379585000000000061e+00 1.123060000000000116e+02 1.494110000000000127e+03
1.489999999999999936e-01 5.394824999999999759e-01 2.348650000000000126e+00 1.124309999999999974e+02 1.494139999999999873e+03
1.499999999999999944e-01 5.395069999999999588e-01 2.324135000000000062e+00 1.125519999999999925e+02 1.494170000000000073e+03
1.509999999999999953e-01 5.395290000000000363e-01 2.303074999999999761e+00 1.126640000000000015e+02 1.494199999999999818e+03
1.519999999999999962e-01 5.395480000000000276e-01 2.282910000000000217e+00 1.127625000000000028e+02 1.494224999999999909e+03
1.529999999999999971e-01 5.395639999999999326e-01 2.261490000000000222e+00 1.128449999999999989e+02 1.494250000000000000e+03
1.539999999999999980e-01 5.395760000000000556e-01 2.237119999999999997e+00 1.129085000000000036e+02 1.494269999999999982e+03
1.549999999999999989e-01 5.395839999999999526e-01 2.208495000000000097e+00 1.129534999999999911e+02 1.494279999999999973e+03
1.559999999999999998e-01 5.395874999999999977e-01 2.174735000000000085e+00 1.129780000000000086e+02 1.494289999999999964e+03
1.570000000000000007e-01 5.395864999999999689e-01 2.135314999999999852e+00 1.129819999999999993e+02 1.494289999999999964e+03
1.580000000000000016e-01 5.395820000000000061e-01 2.090035000000000309e+00 1.129675000000000011e+02 1.494289999999999964e+03
1.590000000000000024e-01 5.395739999999999981e-01 2.038980000000000015e+00 1.129350000000000023e+02 1.494284999999999854e+03
