# t [s], A [cm^2], U [cm/s], P [cPa], c [cm/s]
1.000000000000000021e-03 1.425624999999999809e-01 3.162805000000000200e-01 9.519595000000001050e+01 1.876309999999999945e+03
2.000000000000000042e-03 1.425374999999999837e-01 1.787675999999999821e+00 9.223390000000000555e+01 1.876050000000000182e+03
3.000000000000000062e-03 1.424489999999999923e-01 3.574648499999999895e+00 8.838235000000000241e+01 1.875170000000000073e+03
4.000000000000000083e-03 1.423174999999999857e-01 5.549892500000000339e+00 8.415434999999999377e+01 1.873875000000000000e+03
5.000000000000000104e-03 1.421669999999999878e-01 7.661880000000000024e+00 8.023920000000001096e+01 1.872410000000000082e+03
6.000000000000000125e-03 1.420140000000000013e-01 9.801339999999999719e+00 7.695879999999999654e+01 1.870934999999999945e+03
7.000000000000000146e-03 1.418670000000000209e-01 1.181348000000000020e+01 7.423319999999999652e+01 1.869525000000000091e+03
8.000000000000000167e-03 1.417280000000000206e-01 1.359122499999999967e+01 7.184505000000000052e+01 1.868224999999999909e+03
9.000000000000001055e-03 1.415994999999999893e-01 1.512350999999999956e+01 6.971649999999999636e+01 1.867034999999999854e+03
1.000000000000000194e-02 1.414854999999999863e-01 1.643950000000000244e+01 6.789079999999999870e+01 1.865990000000000009e+03
1.099999999999999936e-02 1.413864999999999983e-01 1.755614999999999881e+01 6.638554999999999495e+01 1.865094999999999800e+03
1.200000000000000025e-02 1.413030000000000119e-01 1.848035000000000139e+01 6.516455000000000553e+01 1.864344999999999800e+03
1.300000000000000114e-02 1.412329999999999974e-01 1.921835000000000093e+01 6.417255000000000109e+01 1.863720000000000027e+03
1.400000000000000203e-02 1.411744999999999806e-01 1.977469999999999928e+01 6.334345000000000425e+01 1.863214999999999918e+03
1.499999999999999944e-02 1.411250000000000004e-01 2.016169999999999973e+01 6.261610000000000298e+01 1.862789999999999964e+03
1.600000000000000033e-02 1.410839999999999872e-01 2.041874999999999929e+01 6.198694999999999311e+01 1.862440000000000055e+03
1.700000000000000122e-02 1.410514999999999963e-01 2.062095000000000056e+01 6.155564999999999998e+01 1.862170000000000073e+03
1.800000000000000211e-02 1.410310000000000175e-01 2.086090000000000089e+01 6.150549999999999784e+01 1.862005000000000109e+03
1.900000000000000300e-02 1.410275000000000001e-01 2.121365000000000123e+01 6.201715000000000089e+01 1.861990000000000009e+03
2.000000000000000042e-02 1.410440000000000027e-01 2.170514999999999972e+01 6.316904999999999859e+01 1.862150000000000091e+03
2.100000000000000130e-02 1.410810000000000120e-01 2.230239999999999867e+01 6.488020000000000209e+01 1.862490000000000009e+03
2.200000000000000219e-02 1.411334999999999951e-01 2.292620000000000147e+01 6.692095000000000482e+01 1.862970000000000027e+03
2.299999999999999961e-02 1.411945000000000006e-01 2.347814999999999941e+01 6.897894999999999754e+01 1.863539999999999964e+03
2.400000000000000050e-02 1.412565000000000071e-01 2.387100000000000222e+01 7.074869999999999948e+01 1.864115000000000009e+03
2.500000000000000139e-02 1.413115000000000065e-01 2.405114999999999981e+01 7.201044999999999163e+01 1.864630000000000109e+03
2.600000000000000228e-02 1.413540000000000074e-01 2.400795000000000101e+01 7.267525000000000546e+01 1.865034999999999854e+03
2.700000000000000316e-02 1.413814999999999933e-01 2.376955000000000240e+01 7.278655000000000541e+01 1.865304999999999836e+03
2.800000000000000058e-02 1.413955000000000073e-01 2.338804999999999978e+01 7.248564999999999259e+01 1.865450000000000045e+03
2.900000000000000147e-02 1.413980000000000237e-01 2.292114999999999725e+01 7.195454999999999757e+01 1.865490000000000009e+03
3.000000000000000236e-02 1.413935000000000053e-01 2.241535000000000011e+01 7.135894999999999300e+01 1.865460000000000036e+03
3.099999999999999978e-02 1.413849999999999829e-01 2.189649999999999963e+01 7.080705000000000382e+01 1.865389999999999873e+03
3.200000000000000067e-02 1.413754999999999873e-01 2.136834999999999951e+01 7.033375000000000909e+01 1.865304999999999836e+03
3.300000000000000155e-02 1.413654999999999773e-01 2.081864999999999810e+01 6.991020000000000323e+01 1.865220000000000027e+03
3.400000000000000244e-02 1.413535000000000208e-01 2.022879999999999967e+01 6.947095000000000198e+01 1.865115000000000009e+03
3.500000000000000333e-02 1.413395000000000068e-01 1.958514999999999873e+01 6.894865000000000066e+01 1.864990000000000009e+03
3.600000000000000422e-02 1.413220000000000032e-01 1.888745000000000118e+01 6.830469999999999686e+01 1.864835000000000036e+03
3.700000000000000511e-02 1.413004999999999955e-01 1.815319999999999823e+01 6.754990000000000805e+01 1.864644999999999982e+03
3.799999999999999906e-02 1.412760000000000127e-01 1.741655000000000086e+01 6.674809999999999377e+01 1.864429999999999836e+03
3.899999999999999994e-02 1.412505000000000011e-01 1.672279999999999944e+01 6.600499999999999545e+01 1.864200000000000045e+03
4.000000000000000083e-02 1.412284999999999791e-01 1.611935000000000073e+01 6.544450000000000500e+01 1.864000000000000000e+03
4.100000000000000172e-02 1.412120000000000042e-01 1.564595000000000091e+01 6.517969999999999686e+01 1.863849999999999909e+03
4.200000000000000261e-02 1.412045000000000106e-01 1.532649999999999935e+01 6.528619999999999379e+01 1.863775000000000091e+03
4.300000000000000350e-02 1.412074999999999858e-01 1.516424999999999912e+01 6.578374999999999773e+01 1.863795000000000073e+03
4.400000000000000439e-02 1.412225000000000008e-01 1.514079999999999870e+01 6.663009999999999877e+01 1.863914999999999964e+03
4.499999999999999833e-02 1.412470000000000114e-01 1.521945000000000014e+01 6.772769999999999868e+01 1.864130000000000109e+03
4.599999999999999922e-02 1.412795000000000023e-01 1.535125000000000028e+01 6.893960000000001287e+01 1.864414999999999964e+03
4.700000000000000011e-02 1.413149999999999962e-01 1.548195000000000121e+01 7.011175000000000068e+01 1.864735000000000127e+03
4.800000000000000100e-02 1.413499999999999757e-01 1.555945000000000000e+01 7.109499999999999886e+01 1.865045000000000073e+03
4.900000000000000189e-02 1.413794999999999913e-01 1.553955000000000020e+01 7.176444999999999652e+01 1.865320000000000164e+03
5.000000000000000278e-02 1.414009999999999989e-01 1.538935000000000031e+01 7.203194999999999482e+01 1.865514999999999873e+03
5.100000000000000366e-02 1.414110000000000089e-01 1.508949999999999925e+01 7.185169999999999391e+01 1.865610000000000127e+03
5.200000000000000455e-02 1.414080000000000059e-01 1.463330000000000020e+01 7.121890000000000498e+01 1.865590000000000146e+03
5.300000000000000544e-02 1.413905000000000023e-01 1.402510000000000012e+01 7.016315000000000168e+01 1.865434999999999945e+03
5.399999999999999939e-02 1.413599999999999857e-01 1.327764999999999951e+01 6.873900000000000432e+01 1.865164999999999964e+03
5.500000000000000028e-02 1.413169999999999982e-01 1.240959999999999930e+01 6.701574999999999704e+01 1.864780000000000200e+03
5.600000000000000117e-02 1.412634999999999863e-01 1.144315500000000085e+01 6.506860000000000355e+01 1.864299999999999955e+03
5.700000000000000205e-02 1.412015000000000076e-01 1.040237499999999926e+01 6.297230000000000416e+01 1.863739999999999782e+03
5.800000000000000294e-02 1.411330000000000084e-01 9.312419999999999476e+00 6.079725000000000534e+01 1.863115000000000009e+03
5.900000000000000383e-02 1.410599999999999909e-01 8.199099999999999611e+00 5.860869999999999891e+01 1.862460000000000036e+03
6.000000000000000472e-02 1.409860000000000002e-01 7.088770000000000238e+00 5.646729999999999450e+01 1.861785000000000082e+03
6.099999999999999867e-02 1.409110000000000085e-01 6.008720000000000283e+00 5.443064999999999998e+01 1.861105000000000018e+03
6.199999999999999956e-02 1.408389999999999920e-01 4.987025000000000041e+00 5.255519999999999925e+01 1.860445000000000164e+03
6.300000000000000044e-02 1.407709999999999795e-01 4.052285000000000359e+00 5.089690000000000225e+01 1.859824999999999818e+03
6.400000000000000133e-02 1.407094999999999874e-01 3.233105500000000188e+00 4.951135000000000019e+01 1.859264999999999873e+03
6.500000000000000222e-02 1.406560000000000032e-01 2.557160500000000170e+00 4.845239999999999725e+01 1.858775000000000091e+03
6.600000000000000311e-02 1.406135000000000024e-01 2.050082999999999878e+00 4.777009999999999934e+01 1.858375000000000000e+03
6.700000000000000400e-02 1.405835000000000001e-01 1.734198499999999976e+00 4.750799999999999557e+01 1.858094999999999800e+03
6.800000000000000488e-02 1.405669999999999975e-01 1.627329999999999943e+00 4.770009999999999906e+01 1.857929999999999836e+03
6.900000000000000577e-02 1.405655000000000099e-01 1.741759999999999975e+00 4.836825000000000330e+01 1.857904999999999973e+03
7.000000000000000666e-02 1.405804999999999971e-01 2.083499999999999908e+00 4.952049999999999841e+01 1.858025000000000091e+03
7.100000000000000755e-02 1.406115000000000004e-01 2.651914999999999800e+00 5.114990000000000236e+01 1.858289999999999964e+03
7.200000000000000844e-02 1.406594999999999929e-01 3.439759999999999707e+00 5.323444999999999538e+01 1.858710000000000036e+03
7.300000000000000933e-02 1.407235000000000014e-01 4.433569999999999567e+00 5.573855000000000359e+01 1.859279999999999973e+03
7.399999999999999634e-02 1.408024999999999971e-01 5.614395000000000024e+00 5.861480000000000246e+01 1.859980000000000018e+03
7.499999999999999722e-02 1.408949999999999925e-01 6.958854999999999791e+00 6.180674999999999386e+01 1.860809999999999945e+03
7.599999999999999811e-02 1.409994999999999998e-01 8.440134999999999721e+00 6.525194999999999368e+01 1.861750000000000000e+03
7.699999999999999900e-02 1.411149999999999904e-01 1.002959500000000048e+01 6.888550000000000750e+01 1.862789999999999964e+03
7.799999999999999989e-02 1.412380000000000024e-01 1.169767500000000027e+01 7.264284999999999570e+01 1.863904999999999973e+03
7.900000000000000078e-02 1.413669999999999927e-01 1.341536999999999935e+01 7.646325000000000216e+01 1.865079999999999927e+03
8.000000000000000167e-02 1.415000000000000147e-01 1.515545000000000009e+01 8.029230000000001155e+01 1.866289999999999964e+03
8.100000000000000255e-02 1.416350000000000109e-01 1.689300000000000068e+01 8.408360000000000412e+01 1.867525000000000091e+03
8.200000000000000344e-02 1.417704999999999937e-01 1.860660000000000025e+01 8.780049999999999955e+01 1.868764999999999873e+03
8.300000000000000433e-02 1.419055000000000177e-01 2.027864999999999895e+01 9.141665000000000418e+01 1.870005000000000109e+03
8.400000000000000522e-02 1.420379999999999976e-01 2.189544999999999675e+01 9.491570000000000107e+01 1.871230000000000018e+03
8.500000000000000611e-02 1.421675000000000022e-01 2.344729999999999848e+01 9.829185000000001082e+01 1.872430000000000064e+03
8.600000000000000699e-02 1.422940000000000038e-01 2.492830000000000013e+01 1.015465499999999963e+02 1.873605000000000018e+03
8.700000000000000788e-02 1.424175000000000024e-01 2.633590000000000231e+01 1.046876499999999908e+02 1.874755000000000109e+03
8.800000000000000877e-02 1.425374999999999837e-01 2.766995000000000005e+01 1.077295000000000016e+02 1.875869999999999891e+03
8.899999999999999578e-02 1.426550000000000040e-01 2.893274999999999864e+01 1.106870000000000118e+02 1.876965000000000146e+03
8.999999999999999667e-02 1.427694999999999936e-01 3.012740000000000151e+01 1.135764999999999958e+02 1.878034999999999854e+03
9.099999999999999756e-02 1.428814999999999946e-01 3.125795000000000101e+01 1.164134999999999991e+02 1.879079999999999927e+03
9.199999999999999845e-02 1.429920000000000080e-01 3.232840000000000202e+01 1.192104999999999961e+02 1.880115000000000009e+03
9.299999999999999933e-02 1.431004999999999916e-01 3.334205000000000041e+01 1.219755000000000109e+02 1.881134999999999991e+03
9.400000000000000022e-02 1.432080000000000020e-01 3.430154999999999887e+01 1.247139999999999986e+02 1.882144999999999982e+03
9.500000000000000111e-02 1.433139999999999969e-01 3.520815000000000339e+01 1.274240000000000066e+02 1.883139999999999873e+03
9.600000000000000200e-02 1.434190000000000187e-01 3.606184999999999974e+01 1.301014999999999873e+02 1.884130000000000109e+03
9.700000000000000289e-02 1.435230000000000117e-01 3.686129999999999995e+01 1.327369999999999948e+02 1.885105000000000018e+03
9.800000000000000377e-02 1.436250000000000027e-01 3.760399999999999920e+01 1.353174999999999955e+02 1.886070000000000164e+03
9.900000000000000466e-02 1.437255000000000060e-01 3.828620000000000090e+01 1.378269999999999982e+02 1.887014999999999873e+03
1.000000000000000056e-01 1.438230000000000064e-01 3.890319999999999823e+01 1.402470000000000141e+02 1.887934999999999945e+03
1.010000000000000064e-01 1.439174999999999760e-01 3.944984999999999786e+01 1.425600000000000023e+02 1.888829999999999927e+03
1.020000000000000073e-01 1.440079999999999971e-01 3.992060000000000031e+01 1.447454999999999927e+02 1.889690000000000055e+03
1.030000000000000082e-01 1.440945000000000142e-01 4.030979999999999563e+01 1.467855000000000132e+02 1.890505000000000109e+03
1.040000000000000091e-01 1.441755000000000120e-01 4.061204999999999643e+01 1.486624999999999943e+02 1.891279999999999973e+03
1.050000000000000100e-01 1.442519999999999913e-01 4.082250000000000512e+01 1.503605000000000018e+02 1.892000000000000000e+03
1.059999999999999970e-01 1.443214999999999915e-01 4.093699999999999761e+01 1.518675000000000068e+02 1.892659999999999854e+03
1.069999999999999979e-01 1.443844999999999990e-01 4.095255000000000223e+01 1.531719999999999970e+02 1.893264999999999873e+03
1.079999999999999988e-01 1.444400000000000128e-01 4.086724999999999852e+01 1.542685000000000173e+02 1.893800000000000182e+03
1.089999999999999997e-01 1.444884999999999919e-01 4.068050000000000210e+01 1.551530000000000200e+02 1.894264999999999873e+03
1.100000000000000006e-01 1.445294999999999774e-01 4.039350000000000307e+01 1.558249999999999886e+02 1.894659999999999854e+03
1.110000000000000014e-01 1.445629999999999971e-01 4.000870000000000459e+01 1.562900000000000205e+02 1.894980000000000018e+03
1.120000000000000023e-01 1.445885000000000087e-01 3.953034999999999854e+01 1.565545000000000186e+02 1.895235000000000127e+03
1.130000000000000032e-01 1.446069999999999856e-01 3.896420000000000528e+01 1.566310000000000002e+02 1.895420000000000073e+03
1.140000000000000041e-01 1.446184999999999832e-01 3.831735000000000468e+01 1.565324999999999989e+02 1.895539999999999964e+03
1.150000000000000050e-01 1.446235000000000159e-01 3.759815000000000396e+01 1.562760000000000105e+02 1.895590000000000146e+03
1.160000000000000059e-01 1.446220000000000006e-01 3.681609999999999872e+01 1.558814999999999884e+02 1.895585000000000036e+03
1.170000000000000068e-01 1.446155000000000079e-01 3.598125000000000284e+01 1.553684999999999832e+02 1.895530000000000200e+03
1.180000000000000077e-01 1.446040000000000103e-01 3.510415000000000418e+01 1.547585000000000264e+02 1.895434999999999945e+03
1.190000000000000085e-01 1.445885000000000087e-01 3.419559999999999889e+01 1.540720000000000027e+02 1.895289999999999964e+03
1.200000000000000094e-01 1.445695000000000174e-01 3.326595000000000368e+01 1.533294999999999959e+02 1.895115000000000009e+03
1.209999999999999964e-01 1.445474999999999954e-01 3.232529999999999859e+01 1.525504999999999995e+02 1.894914999999999964e+03
1.219999999999999973e-01 1.445239999999999858e-01 3.138279999999999603e+01 1.517504999999999882e+02 1.894695000000000164e+03
1.229999999999999982e-01 1.444985000000000019e-01 3.044664999999999822e+01 1.509445000000000050e+02 1.894460000000000036e+03
1.239999999999999991e-01 1.444719999999999893e-01 2.952384999999999948e+01 1.501444999999999936e+02 1.894215000000000146e+03
1.250000000000000000e-01 1.444455000000000044e-01 2.862015000000000242e+01 1.493589999999999804e+02 1.893960000000000036e+03
1.260000000000000009e-01 1.444190000000000196e-01 2.773980000000000246e+01 1.485935000000000059e+02 1.893710000000000036e+03
1.270000000000000018e-01 1.443920000000000203e-01 2.688579999999999970e+01 1.478505000000000109e+02 1.893454999999999927e+03
1.280000000000000027e-01 1.443654999999999800e-01 2.605944999999999823e+01 1.471310000000000002e+02 1.893204999999999927e+03
1.290000000000000036e-01 1.443395000000000095e-01 2.526105000000000089e+01 1.464309999999999832e+02 1.892954999999999927e+03
1.300000000000000044e-01 1.443139999999999978e-01 2.448944999999999794e+01 1.457459999999999809e+02 1.892714999999999918e+03
1.310000000000000053e-01 1.442879999999999996e-01 2.374255000000000138e+01 1.450695000000000050e+02 1.892474999999999909e+03
1.320000000000000062e-01 1.442629999999999746e-01 2.301739999999999853e+01 1.443929999999999723e+02 1.892230000000000018e+03
1.330000000000000071e-01 1.442374999999999907e-01 2.231020000000000181e+01 1.437069999999999936e+02 1.891985000000000127e+03
1.340000000000000080e-01 1.442114999999999925e-01 2.161690000000000111e+01 1.430024999999999977e+02 1.891740000000000009e+03
1.350000000000000089e-01 1.441850000000000076e-01 2.093285000000000196e+01 1.422694999999999936e+02 1.891490000000000009e+03
1.360000000000000098e-01 1.441574999999999940e-01 2.025370000000000203e+01 1.414984999999999786e+02 1.891224999999999909e+03
1.370000000000000107e-01 1.441284999999999927e-01 1.957509999999999906e+01 1.406809999999999832e+02 1.890954999999999927e+03
1.380000000000000115e-01 1.440980000000000039e-01 1.889314999999999856e+01 1.398104999999999905e+02 1.890659999999999854e+03
1.390000000000000124e-01 1.440659999999999996e-01 1.820435000000000159e+01 1.388799999999999955e+02 1.890360000000000127e+03
1.400000000000000133e-01 1.440310000000000201e-01 1.750604999999999833e+01 1.378870000000000005e+02 1.890034999999999854e+03
1.410000000000000142e-01 1.439949999999999841e-01 1.679654999999999987e+01 1.368290000000000077e+02 1.889690000000000055e+03
1.420000000000000151e-01 1.439564999999999872e-01 1.607485000000000142e+01 1.357065000000000055e+02 1.889329999999999927e+03
1.430000000000000160e-01 1.439155000000000018e-01 1.534130000000000038e+01 1.345235000000000127e+02 1.888945000000000164e+03
1.440000000000000169e-01 1.438725000000000143e-01 1.459710000000000107e+01 1.332844999999999800e+02 1.888539999999999964e+03
1.450000000000000178e-01 1.438274999999999970e-01 1.384464999999999968e+01 1.319975000000000023e+02 1.888119999999999891e+03
1.459999999999999909e-01 1.437804999999999778e-01 1.308725000000000094e+01 1.306715000000000089e+02 1.887684999999999945e+03
1.469999999999999918e-01 1.437324999999999853e-01 1.232916499999999971e+01 1.293190000000000168e+02 1.887230000000000018e+03
1.479999999999999927e-01 1.436835000000000195e-01 1.157537500000000108e+01 1.279530000000000030e+02 1.886769999999999982e+03
1.489999999999999936e-01 1.436330000000000107e-01 1.083136999999999972e+01 1.265865000000000009e+02 1.886299999999999955e+03
1.499999999999999944e-01 1.435825000000000018e-01 1.010313000000000017e+01 1.252344999999999970e+02 1.885829999999999927e+03
1.509999999999999953e-01 1.435330000000000217e-01 9.396709999999998786e+00 1.239114999999999895e+02 1.885359999999999900e+03
1.519999999999999962e-01 1.434834999999999861e-01 8.718170000000000641e+00 1.226315000000000026e+02 1.884900000000000091e+03
1.529999999999999971e-01 1.434354999999999936e-01 8.073225000000000762e+00 1.214074999999999989e+02 1.884445000000000164e+03
1.539999999999999980e-01 1.433895000000000031e-01 7.467039999999999900e+00 1.202504999999999882e+02 1.884009999999999991e+03
1.549999999999999989e-01 1.433450000000000002e-01 6.904149999999999565e+00 1.191700000000000017e+02 1.883590000000000146e+03
1.559999999999999998e-01 1.433024999999999993e-01 6.388249999999999318e+00 1.181740000000000066e+02 1.883199999999999818e+03
1.570000000000000007e-01 1.432634999999999881e-01 5.922074999999999534e+00 1.172674999999999983e+02 1.882829999999999927e+03
1.580000000000000016e-01 1.432269999999999932e-01 5.507360000000000255e+00 1.164534999999999911e+02 1.882490000000000009e+03
1.590000000000000024e-01 1.431945000000000023e-01 5.144770000000000287e+00 1.157325000000000017e+02 1.882174999999999955e+03
