# t [s], A [cm^2], U [cm/s], P [cPa], c [cm/s]
1.000000000000000021e-03 2.120299999999999963e-01 1.911634999999999862e-01 9.539619999999999322e+01 2.224925000000000182e+03
2.000000000000000042e-03 2.119805000000000161e-01 1.515299500000000021e+00 9.237805000000000177e+01 2.224595000000000255e+03
3.000000000000000062e-03 2.118450000000000055e-01 3.220538499999999971e+00 8.799410000000000309e+01 2.223715000000000146e+03
4.000000000000000083e-03 2.116580000000000128e-01 5.175740949999999785e+00 8.303454999999999586e+01 2.222525000000000091e+03
5.000000000000000104e-03 2.114564999999999917e-01 7.311664999999999637e+00 7.844679999999999609e+01 2.221255000000000109e+03
6.000000000000000125e-03 2.112634999999999930e-01 9.455970000000000653e+00 7.462375000000000114e+01 2.220050000000000182e+03
7.000000000000000146e-03 2.110834999999999795e-01 1.137349000000000032e+01 7.134555000000000291e+01 2.218949999999999818e+03
8.000000000000000167e-03 2.109179999999999944e-01 1.296642500000000098e+01 6.837749999999999773e+01 2.217960000000000036e+03
9.000000000000001055e-03 2.107740000000000169e-01 1.427229999999999954e+01 6.579630000000000223e+01 2.217110000000000127e+03
1.000000000000000194e-02 2.106540000000000079e-01 1.532889999999999908e+01 6.370024999999999693e+01 2.216409999999999854e+03
1.099999999999999936e-02 2.105575000000000085e-01 1.615634999999999977e+01 6.207900000000000063e+01 2.215855000000000018e+03
1.200000000000000025e-02 2.104824999999999890e-01 1.676859999999999928e+01 6.086355000000000359e+01 2.215429999999999836e+03
1.300000000000000114e-02 2.104245000000000143e-01 1.716315000000000168e+01 5.991570000000000107e+01 2.215110000000000127e+03
1.400000000000000203e-02 2.103765000000000218e-01 1.735265000000000057e+01 5.908894999999999698e+01 2.214850000000000364e+03
1.499999999999999944e-02 2.103384999999999838e-01 1.742285000000000039e+01 5.841490000000000293e+01 2.214650000000000091e+03
1.600000000000000033e-02 2.103185000000000193e-01 1.753425000000000011e+01 5.819490000000000407e+01 2.214545000000000073e+03
1.700000000000000122e-02 2.103264999999999996e-01 1.784625000000000128e+01 5.884490000000000265e+01 2.214600000000000364e+03
1.800000000000000211e-02 2.103725000000000178e-01 1.842565000000000097e+01 6.060399999999999920e+01 2.214869999999999891e+03
1.900000000000000300e-02 2.104535000000000156e-01 1.920640000000000214e+01 6.333180000000000121e+01 2.215340000000000146e+03
2.000000000000000042e-02 2.105580000000000229e-01 2.002100000000000080e+01 6.652035000000000764e+01 2.215954999999999927e+03
2.100000000000000130e-02 2.106649999999999912e-01 2.067569999999999908e+01 6.949179999999999779e+01 2.216599999999999909e+03
2.200000000000000219e-02 2.107565000000000133e-01 2.102734999999999843e+01 7.165709999999999980e+01 2.217154999999999745e+03
2.299999999999999961e-02 2.108180000000000054e-01 2.102870000000000061e+01 7.271450000000000102e+01 2.217545000000000073e+03
2.400000000000000050e-02 2.108464999999999923e-01 2.073055000000000092e+01 7.271264999999999645e+01 2.217739999999999782e+03
2.500000000000000139e-02 2.108470000000000066e-01 2.024490000000000123e+01 7.197399999999998954e+01 2.217764999999999873e+03
2.600000000000000228e-02 2.108300000000000174e-01 1.969200000000000017e+01 7.092734999999998990e+01 2.217675000000000182e+03
2.700000000000000316e-02 2.108069999999999944e-01 1.915279999999999916e+01 6.992945000000000277e+01 2.217539999999999964e+03
2.800000000000000058e-02 2.107839999999999991e-01 1.864594999999999914e+01 6.914574999999999250e+01 2.217404999999999745e+03
2.900000000000000147e-02 2.107625000000000193e-01 1.813279999999999959e+01 6.852594999999999459e+01 2.217269999999999982e+03
3.000000000000000236e-02 2.107390000000000096e-01 1.754499999999999815e+01 6.786740000000000350e+01 2.217139999999999873e+03
3.099999999999999978e-02 2.107074999999999920e-01 1.682174999999999798e+01 6.693164999999999054e+01 2.216954999999999927e+03
3.200000000000000067e-02 2.106625000000000025e-01 1.594275000000000020e+01 6.556780000000000541e+01 2.216694999999999709e+03
3.300000000000000155e-02 2.106040000000000134e-01 1.494640000000000057e+01 6.379824999999999591e+01 2.216355000000000018e+03
3.400000000000000244e-02 2.105365000000000153e-01 1.392639999999999922e+01 6.183839999999999293e+01 2.215960000000000036e+03
3.500000000000000333e-02 2.104695000000000038e-01 1.300795000000000101e+01 6.004330000000000211e+01 2.215564999999999600e+03
3.600000000000000422e-02 2.104149999999999909e-01 1.231220000000000070e+01 5.880165000000000219e+01 2.215234999999999673e+03
3.700000000000000511e-02 2.103849999999999887e-01 1.192249999999999943e+01 5.841740000000000066e+01 2.215039999999999964e+03
3.799999999999999906e-02 2.103849999999999887e-01 1.186190000000000033e+01 5.901890000000000214e+01 2.215025000000000091e+03
3.899999999999999994e-02 2.104169999999999929e-01 1.208919999999999995e+01 6.052284999999999826e+01 2.215190000000000055e+03
4.000000000000000083e-02 2.104749999999999954e-01 1.251139999999999830e+01 6.265824999999999534e+01 2.215514999999999873e+03
4.100000000000000172e-02 2.105484999999999995e-01 1.300625000000000142e+01 6.503509999999999991e+01 2.215944999999999709e+03
4.200000000000000261e-02 2.106255000000000210e-01 1.344859999999999900e+01 6.723284999999999911e+01 2.216394999999999982e+03
4.300000000000000350e-02 2.106925000000000048e-01 1.373245000000000005e+01 6.888394999999999868e+01 2.216795000000000073e+03
4.400000000000000439e-02 2.107384999999999953e-01 1.378529999999999944e+01 6.973339999999998895e+01 2.217079999999999927e+03
4.499999999999999833e-02 2.107569999999999999e-01 1.357274999999999920e+01 6.966419999999999391e+01 2.217199999999999818e+03
4.599999999999999922e-02 2.107445000000000013e-01 1.309525000000000006e+01 6.869079999999999586e+01 2.217144999999999982e+03
4.700000000000000011e-02 2.107029999999999736e-01 1.237824999999999953e+01 6.692714999999999748e+01 2.216904999999999745e+03
4.800000000000000100e-02 2.106355000000000033e-01 1.146119999999999983e+01 6.454279999999999973e+01 2.216519999999999982e+03
4.900000000000000189e-02 2.105469999999999842e-01 1.038724500000000006e+01 6.172090000000000032e+01 2.216000000000000000e+03
5.000000000000000278e-02 2.104429999999999912e-01 9.196844999999999715e+00 5.862645000000000550e+01 2.215385000000000218e+03
5.100000000000000366e-02 2.103285000000000016e-01 7.925130000000000230e+00 5.539119999999999777e+01 2.214710000000000036e+03
5.200000000000000455e-02 2.102080000000000060e-01 6.602880000000000749e+00 5.211325000000000074e+01 2.213994999999999891e+03
5.300000000000000544e-02 2.100845000000000073e-01 5.259724999999999540e+00 4.886724999999999852e+01 2.213260000000000218e+03
5.399999999999999939e-02 2.099610000000000087e-01 3.927501499999999979e+00 4.571994999999999720e+01 2.212525000000000091e+03
5.500000000000000028e-02 2.098415000000000141e-01 2.642881000000000036e+00 4.274365000000000236e+01 2.211814999999999600e+03
5.600000000000000117e-02 2.097289999999999988e-01 1.448155000000000081e+00 4.002499999999999858e+01 2.211139999999999873e+03
5.700000000000000205e-02 2.096264999999999934e-01 3.899899999999998368e-01 3.766635000000000133e+01 2.210524999999999636e+03
5.800000000000000294e-02 2.095385000000000164e-01 -4.834699999999999553e-01 3.578020000000000067e+01 2.209994999999999891e+03
5.900000000000000383e-02 2.094695000000000029e-01 -1.126695999999999920e+00 3.447854999999999848e+01 2.209565000000000055e+03
6.000000000000000472e-02 2.094239999999999990e-01 -1.500947000000000031e+00 3.385985000000000156e+01 2.209279999999999745e+03
6.099999999999999867e-02 2.094039999999999790e-01 -1.577995000000000037e+00 3.399705000000000155e+01 2.209144999999999982e+03
6.199999999999999956e-02 2.094125000000000014e-01 -1.342658499999999977e+00 3.492839999999999634e+01 2.209175000000000182e+03
6.300000000000000044e-02 2.094504999999999839e-01 -7.940130000000000798e-01 3.665274999999999750e+01 2.209380000000000109e+03
6.400000000000000133e-02 2.095180000000000098e-01 5.483000000000004537e-02 3.912950000000000017e+01 2.209760000000000218e+03
6.500000000000000222e-02 2.096124999999999794e-01 1.178059999999999885e+00 4.228269999999999840e+01 2.210305000000000291e+03
6.600000000000000311e-02 2.097320000000000018e-01 2.539443499999999965e+00 4.600804999999999723e+01 2.210994999999999891e+03
6.700000000000000400e-02 2.098730000000000040e-01 4.095051999999999914e+00 5.018189999999999884e+01 2.211819999999999709e+03
6.800000000000000488e-02 2.100295000000000079e-01 5.796450000000000102e+00 5.467099999999999937e+01 2.212744999999999891e+03
6.900000000000000577e-02 2.101989999999999970e-01 7.593855000000000466e+00 5.934239999999999782e+01 2.213739999999999782e+03
7.000000000000000666e-02 2.103745000000000198e-01 9.439349999999999241e+00 6.407269999999999754e+01 2.214789999999999964e+03
7.100000000000000755e-02 2.105535000000000045e-01 1.128956999999999944e+01 6.875560000000000116e+01 2.215855000000000018e+03
7.200000000000000844e-02 2.107315000000000160e-01 1.310801500000000175e+01 7.330844999999999345e+01 2.216920000000000073e+03
7.300000000000000933e-02 2.109054999999999958e-01 1.486655000000000015e+01 7.767519999999998959e+01 2.217965000000000146e+03
7.399999999999999634e-02 2.110739999999999839e-01 1.654599999999999937e+01 8.182775000000000887e+01 2.218985000000000127e+03
7.499999999999999722e-02 2.112360000000000071e-01 1.813589999999999947e+01 8.576329999999998677e+01 2.219960000000000036e+03
7.599999999999999811e-02 2.113909999999999956e-01 1.963319999999999865e+01 8.950000000000000000e+01 2.220899999999999636e+03
7.699999999999999900e-02 2.115405000000000202e-01 2.104104999999999848e+01 9.307069999999998799e+01 2.221805000000000291e+03
7.799999999999999989e-02 2.116844999999999977e-01 2.236625000000000085e+01 9.651579999999999870e+01 2.222675000000000182e+03
7.900000000000000078e-02 2.118240000000000123e-01 2.361759999999999948e+01 9.987575000000001069e+01 2.223525000000000091e+03
8.000000000000000167e-02 2.119614999999999971e-01 2.480425000000000324e+01 1.031875499999999874e+02 2.224364999999999782e+03
8.100000000000000255e-02 2.120970000000000077e-01 2.593420000000000059e+01 1.064774999999999920e+02 2.225189999999999600e+03
8.200000000000000344e-02 2.122320000000000040e-01 2.701375000000000171e+01 1.097630000000000052e+02 2.226010000000000218e+03
8.300000000000000433e-02 2.123659999999999992e-01 2.804659999999999798e+01 1.130480000000000018e+02 2.226824999999999818e+03
8.400000000000000522e-02 2.124999999999999944e-01 2.903430000000000177e+01 1.163290000000000077e+02 2.227635000000000218e+03
8.500000000000000611e-02 2.126329999999999887e-01 2.997619999999999862e+01 1.195914999999999964e+02 2.228444999999999709e+03
8.600000000000000699e-02 2.127654999999999963e-01 3.086935000000000073e+01 1.228155000000000001e+02 2.229250000000000000e+03
8.700000000000000788e-02 2.128955000000000153e-01 3.170939999999999870e+01 1.259765000000000015e+02 2.230045000000000073e+03
8.800000000000000877e-02 2.130230000000000179e-01 3.249014999999999986e+01 1.290469999999999970e+02 2.230820000000000164e+03
8.899999999999999578e-02 2.131465000000000165e-01 3.320430000000000348e+01 1.319965000000000259e+02 2.231574999999999818e+03
8.999999999999999667e-02 2.132649999999999824e-01 3.384355000000000047e+01 1.347940000000000111e+02 2.232300000000000182e+03
9.099999999999999756e-02 2.133769999999999833e-01 3.439894999999999925e+01 1.374085000000000036e+02 2.232985000000000127e+03
9.199999999999999845e-02 2.134820000000000051e-01 3.486135000000000161e+01 1.398100000000000023e+02 2.233625000000000000e+03
9.299999999999999933e-02 2.135789999999999911e-01 3.522209999999999752e+01 1.419705000000000155e+02 2.234220000000000255e+03
9.400000000000000022e-02 2.136655000000000082e-01 3.547350000000000136e+01 1.438640000000000043e+02 2.234760000000000218e+03
9.500000000000000111e-02 2.137425000000000019e-01 3.560970000000000368e+01 1.454735000000000014e+02 2.235230000000000018e+03
9.600000000000000200e-02 2.138074999999999837e-01 3.562725000000000364e+01 1.467855000000000132e+02 2.235630000000000109e+03
9.700000000000000289e-02 2.138614999999999822e-01 3.552550000000000097e+01 1.477969999999999970e+02 2.235970000000000255e+03
9.800000000000000377e-02 2.139039999999999830e-01 3.530719999999999459e+01 1.485124999999999886e+02 2.236234999999999673e+03
9.900000000000000466e-02 2.139355000000000007e-01 3.497814999999999941e+01 1.489470000000000027e+02 2.236434999999999945e+03
1.000000000000000056e-01 2.139554999999999929e-01 3.454760000000000275e+01 1.491234999999999786e+02 2.236569999999999709e+03
1.010000000000000064e-01 2.139659999999999895e-01 3.402720000000000056e+01 1.490720000000000027e+02 2.236640000000000327e+03
1.020000000000000073e-01 2.139685000000000059e-01 3.343084999999999951e+01 1.488280000000000030e+02 2.236659999999999854e+03
1.030000000000000082e-01 2.139630000000000143e-01 3.277369999999999806e+01 1.484304999999999950e+02 2.236635000000000218e+03
1.040000000000000091e-01 2.139515000000000167e-01 3.207179999999999609e+01 1.479189999999999827e+02 2.236574999999999818e+03
1.050000000000000100e-01 2.139355000000000007e-01 3.134094999999999942e+01 1.473315000000000055e+02 2.236480000000000018e+03
1.059999999999999970e-01 2.139165000000000094e-01 3.059620000000000317e+01 1.467044999999999959e+02 2.236364999999999782e+03
1.069999999999999979e-01 2.138955000000000162e-01 2.985125000000000028e+01 1.460685000000000002e+02 2.236239999999999782e+03
1.079999999999999988e-01 2.138734999999999942e-01 2.911785000000000068e+01 1.454499999999999886e+02 2.236114999999999782e+03
1.089999999999999997e-01 2.138519999999999865e-01 2.840549999999999997e+01 1.448669999999999902e+02 2.235980000000000018e+03
1.100000000000000006e-01 2.138315000000000077e-01 2.772125000000000128e+01 1.443329999999999984e+02 2.235855000000000018e+03
1.110000000000000014e-01 2.138120000000000021e-01 2.706935000000000002e+01 1.438540000000000134e+02 2.235735000000000127e+03
1.120000000000000023e-01 2.137950000000000128e-01 2.645120000000000005e+01 1.434269999999999925e+02 2.235630000000000109e+03
1.130000000000000032e-01 2.137789999999999968e-01 2.586554999999999893e+01 1.430444999999999993e+02 2.235525000000000091e+03
1.140000000000000041e-01 2.137634999999999952e-01 2.530879999999999797e+01 1.426935000000000002e+02 2.235434999999999945e+03
1.150000000000000050e-01 2.137494999999999812e-01 2.477499999999999858e+01 1.423545000000000016e+02 2.235340000000000146e+03
1.160000000000000059e-01 2.137350000000000083e-01 2.425670000000000215e+01 1.420065000000000168e+02 2.235255000000000109e+03
1.170000000000000068e-01 2.137199999999999933e-01 2.374535000000000196e+01 1.416245000000000118e+02 2.235164999999999964e+03
1.180000000000000077e-01 2.137034999999999907e-01 2.323170000000000002e+01 1.411850000000000023e+02 2.235059999999999945e+03
1.190000000000000085e-01 2.136844999999999994e-01 2.270674999999999955e+01 1.406634999999999991e+02 2.234945000000000164e+03
1.200000000000000094e-01 2.136624999999999774e-01 2.216199999999999903e+01 1.400405000000000086e+02 2.234809999999999945e+03
1.209999999999999964e-01 2.136359999999999926e-01 2.159060000000000201e+01 1.392990000000000066e+02 2.234650000000000091e+03
1.219999999999999973e-01 2.136055000000000037e-01 2.098709999999999809e+01 1.384284999999999854e+02 2.234465000000000146e+03
1.229999999999999982e-01 2.135694999999999955e-01 2.034839999999999804e+01 1.374230000000000018e+02 2.234250000000000000e+03
1.239999999999999991e-01 2.135294999999999832e-01 1.967385000000000161e+01 1.362855000000000132e+02 2.234005000000000109e+03
1.250000000000000000e-01 2.134834999999999927e-01 1.896535000000000082e+01 1.350244999999999891e+02 2.233734999999999673e+03
1.260000000000000009e-01 2.134334999999999982e-01 1.822735000000000127e+01 1.336560000000000059e+02 2.233430000000000291e+03
1.270000000000000018e-01 2.133800000000000141e-01 1.746665000000000134e+01 1.322005000000000052e+02 2.233105000000000018e+03
1.280000000000000027e-01 2.133229999999999849e-01 1.669225000000000136e+01 1.306854999999999905e+02 2.232765000000000327e+03
1.290000000000000036e-01 2.132640000000000091e-01 1.591455000000000020e+01 1.291415000000000077e+02 2.232404999999999745e+03
1.300000000000000044e-01 2.132040000000000046e-01 1.514514999999999922e+01 1.276009999999999991e+02 2.232045000000000073e+03
1.310000000000000053e-01 2.131445000000000145e-01 1.439589999999999925e+01 1.260955000000000013e+02 2.231684999999999945e+03
1.320000000000000062e-01 2.130865000000000120e-01 1.367845000000000155e+01 1.246580000000000013e+02 2.231329999999999927e+03
1.330000000000000071e-01 2.130310000000000259e-01 1.300380000000000003e+01 1.233149999999999977e+02 2.230994999999999891e+03
1.340000000000000080e-01 2.129790000000000016e-01 1.238135000000000119e+01 1.220914999999999964e+02 2.230670000000000073e+03
1.350000000000000089e-01 2.129309999999999814e-01 1.181885000000000119e+01 1.210064999999999884e+02 2.230385000000000218e+03
1.360000000000000098e-01 2.128884999999999805e-01 1.132210500000000053e+01 1.200714999999999861e+02 2.230119999999999891e+03
1.370000000000000107e-01 2.128514999999999990e-01 1.089458499999999930e+01 1.192944999999999993e+02 2.229894999999999982e+03
1.380000000000000115e-01 2.128209999999999824e-01 1.053763999999999967e+01 1.186754999999999995e+02 2.229704999999999927e+03
1.390000000000000124e-01 2.127954999999999985e-01 1.025051999999999985e+01 1.182100000000000080e+02 2.229545000000000073e+03
1.400000000000000133e-01 2.127764999999999795e-01 1.003058500000000031e+01 1.178900000000000006e+02 2.229425000000000182e+03
1.410000000000000142e-01 2.127624999999999933e-01 9.873615000000000919e+00 1.177025000000000006e+02 2.229335000000000036e+03
1.420000000000000151e-01 2.127529999999999977e-01 9.773975000000000080e+00 1.176320000000000050e+02 2.229270000000000437e+03
1.430000000000000160e-01 2.127485000000000070e-01 9.725155000000000882e+00 1.176614999999999895e+02 2.229234999999999673e+03
1.440000000000000169e-01 2.127479999999999927e-01 9.719840000000001368e+00 1.177729999999999961e+02 2.229230000000000018e+03
1.450000000000000178e-01 2.127499999999999947e-01 9.750434999999999519e+00 1.179495000000000005e+02 2.229239999999999782e+03
1.459999999999999909e-01 2.127554999999999863e-01 9.809159999999998547e+00 1.181724999999999994e+02 2.229264999999999873e+03
1.469999999999999918e-01 2.127620000000000067e-01 9.888484999999999303e+00 1.184249999999999972e+02 2.229305000000000291e+03
1.479999999999999927e-01 2.127705000000000013e-01 9.981199999999999406e+00 1.186930000000000121e+02 2.229355000000000018e+03
1.489999999999999936e-01 2.127789999999999959e-01 1.008072999999999908e+01 1.189625000000000057e+02 2.229404999999999745e+03
1.499999999999999944e-01 2.127880000000000049e-01 1.018132999999999910e+01 1.192224999999999966e+02 2.229454999999999927e+03
1.509999999999999953e-01 2.127970000000000139e-01 1.027805999999999997e+01 1.194635000000000105e+02 2.229510000000000218e+03
1.519999999999999962e-01 2.128049999999999942e-01 1.036711000000000027e+01 1.196800000000000068e+02 2.229559999999999945e+03
1.529999999999999971e-01 2.128130000000000022e-01 1.044570000000000043e+01 1.198679999999999950e+02 2.229605000000000018e+03
1.539999999999999980e-01 2.128200000000000092e-01 1.051205000000000034e+01 1.200254999999999939e+02 2.229644999999999982e+03
1.549999999999999989e-01 2.128255000000000008e-01 1.056555000000000000e+01 1.201544999999999987e+02 2.229684999999999945e+03
1.559999999999999998e-01 2.128304999999999780e-01 1.060640000000000072e+01 1.202574999999999932e+02 2.229715000000000146e+03
1.570000000000000007e-01 2.128344999999999820e-01 1.063569999999999993e+01 1.203385000000000105e+02 2.229739999999999782e+03
1.580000000000000016e-01 2.128379999999999994e-01 1.065514999999999901e+01 1.204039999999999964e+02 2.229760000000000218e+03
1.590000000000000024e-01 2.128404999999999880e-01 1.066679999999999851e+01 1.204604999999999961e+02 2.229779999999999745e+03
