# t [s], A [cm^2], U [cm/s], P [cPa], c [cm/s]
1.000000000000000021e-03 6.595524999999999860e-01 6.434500000000002717e-03 1.012025000000000006e+02 1.836545000000000073e+03
2.000000000000000042e-03 6.595469999999999944e-01 8.745500000000001536e-03 1.011730000000000018e+02 1.836539999999999964e+03
3.000000000000000062e-03 6.596195000000000253e-01 1.571857999999999866e-01 1.013590000000000089e+02 1.836575000000000045e+03
4.000000000000000083e-03 6.596414999999999917e-01 2.277144999999999864e-01 1.014420000000000073e+02 1.836599999999999909e+03
5.000000000000000104e-03 6.595699999999999896e-01 1.220085000000000197e-01 1.012009999999999934e+02 1.836549999999999955e+03
6.000000000000000125e-03 6.594984999999999875e-01 1.319999999999987850e-03 1.008245000000000005e+02 1.836469999999999800e+03
7.000000000000000146e-03 6.594044999999999490e-01 -1.768600000000000172e-01 1.002948000000000093e+02 1.836360000000000127e+03
8.000000000000000167e-03 6.592335000000000278e-01 -5.295099999999999252e-01 9.942920000000000869e+01 1.836175000000000182e+03
9.000000000000001055e-03 6.589819999999999567e-01 -1.062284999999999924e+00 9.815569999999999595e+01 1.835909999999999854e+03
1.000000000000000194e-02 6.586239999999999872e-01 -1.810899999999999954e+00 9.636214999999999975e+01 1.835534999999999854e+03
1.099999999999999936e-02 6.581489999999999840e-01 -2.771230000000000082e+00 9.397944999999999993e+01 1.835014999999999873e+03
1.200000000000000025e-02 6.576254999999999740e-01 -3.775924999999999976e+00 9.119139999999998736e+01 1.834400000000000091e+03
1.300000000000000114e-02 6.571605000000000363e-01 -4.562644999999999840e+00 8.839785000000000537e+01 1.833755000000000109e+03
1.400000000000000203e-02 6.568240000000000745e-01 -4.940809499999999410e+00 8.597424999999999784e+01 1.833164999999999964e+03
1.499999999999999944e-02 6.566134999999999611e-01 -4.880575000000000330e+00 8.408144999999998959e+01 1.832659999999999854e+03
1.600000000000000033e-02 6.564699999999999980e-01 -4.491105000000000125e+00 8.263550000000000750e+01 1.832240000000000009e+03
1.700000000000000122e-02 6.563194999999999446e-01 -3.941620000000000346e+00 8.139664999999999395e+01 1.831865000000000009e+03
1.800000000000000211e-02 6.561055000000000081e-01 -3.377444999999999808e+00 8.010360000000000014e+01 1.831485000000000127e+03
1.900000000000000300e-02 6.558135000000000492e-01 -2.864253499999999786e+00 7.859135000000000559e+01 1.831070000000000164e+03
2.000000000000000042e-02 6.554670000000000218e-01 -2.379809999999999981e+00 7.684430000000000405e+01 1.830605000000000018e+03
2.100000000000000130e-02 6.551065000000000360e-01 -1.852029999999999843e+00 7.496659999999999968e+01 1.830115000000000009e+03
2.200000000000000219e-02 6.547689999999999344e-01 -1.217569999999999819e+00 7.309780000000000655e+01 1.829619999999999891e+03
2.299999999999999961e-02 6.544635000000000868e-01 -4.684749999999999748e-01 7.132354999999999734e+01 1.829139999999999873e+03
2.400000000000000050e-02 6.541685000000000416e-01 3.313700000000001644e-01 6.962260000000000559e+01 1.828670000000000073e+03
2.500000000000000139e-02 6.538424999999999931e-01 1.060235000000000261e+00 6.786305000000000121e+01 1.828190000000000055e+03
2.600000000000000228e-02 6.534335000000000004e-01 1.573399999999999910e+00 6.584165000000000134e+01 1.827660000000000082e+03
2.700000000000000316e-02 6.529024999999999412e-01 1.746904999999999930e+00 6.335159999999999769e+01 1.827045000000000073e+03
2.800000000000000058e-02 6.522349999999998982e-01 1.516594999999999693e+00 6.025685000000000002e+01 1.826299999999999955e+03
2.900000000000000147e-02 6.514480000000000270e-01 8.988500000000003709e-01 5.654704999999999870e+01 1.825430000000000064e+03
3.000000000000000236e-02 6.505864999999999565e-01 -1.500000000000056843e-02 5.235229999999999961e+01 1.824450000000000045e+03
3.099999999999999978e-02 6.497114999999999974e-01 -1.086585000000000356e+00 4.791410000000000480e+01 1.823400000000000091e+03
3.200000000000000067e-02 6.488855000000000040e-01 -2.167240000000000055e+00 4.352920000000000300e+01 1.822349999999999909e+03
3.300000000000000155e-02 6.481585000000000818e-01 -3.128824999999999523e+00 3.948884999999999934e+01 1.821355000000000018e+03
3.400000000000000244e-02 6.475644999999999873e-01 -3.881370000000000431e+00 3.603190000000000026e+01 1.820474999999999909e+03
3.500000000000000333e-02 6.471195000000000697e-01 -4.376649999999999707e+00 3.331935000000000002e+01 1.819755000000000109e+03
3.600000000000000422e-02 6.468264999999999709e-01 -4.601098500000000868e+00 3.143074999999999974e+01 1.819204999999999927e+03
3.700000000000000511e-02 6.466769999999999463e-01 -4.562884999999999636e+00 3.037655000000000172e+01 1.818855000000000018e+03
3.799999999999999906e-02 6.466615000000000002e-01 -4.278389999999999915e+00 3.012064999999999770e+01 1.818695000000000164e+03
3.899999999999999994e-02 6.467680000000000096e-01 -3.761660000000000004e+00 3.060464999999999947e+01 1.818714999999999918e+03
4.000000000000000083e-02 6.469895000000001062e-01 -3.019785500000000233e+00 3.176645000000000252e+01 1.818904999999999973e+03
4.100000000000000172e-02 6.473185000000000189e-01 -2.054415000000000102e+00 3.354890000000000327e+01 1.819255000000000109e+03
4.200000000000000261e-02 6.477489999999999082e-01 -8.676499999999998103e-01 3.589934999999999832e+01 1.819750000000000000e+03
4.300000000000000350e-02 6.482725000000000293e-01 5.309800000000000075e-01 3.876255000000000450e+01 1.820375000000000000e+03
4.400000000000000439e-02 6.488760000000000083e-01 2.119299999999999962e+00 4.207245000000000346e+01 1.821119999999999891e+03
4.499999999999999833e-02 6.495414999999999939e-01 3.860914999999999431e+00 4.574714999999999776e+01 1.821960000000000036e+03
4.599999999999999922e-02 6.502499999999999947e-01 5.707264999999999588e+00 4.968844999999999601e+01 1.822875000000000000e+03
4.700000000000000011e-02 6.509789999999999743e-01 7.602731499999999976e+00 5.378695000000000448e+01 1.823845000000000027e+03
4.800000000000000100e-02 6.517070000000000363e-01 9.490524999999999878e+00 5.793084999999999951e+01 1.824840000000000146e+03
4.900000000000000189e-02 6.524170000000000247e-01 1.131906500000000015e+01 6.201550000000000296e+01 1.825839999999999918e+03
5.000000000000000278e-02 6.530940000000000634e-01 1.304639999999999844e+01 6.595340000000000202e+01 1.826815000000000055e+03
5.100000000000000366e-02 6.537295000000000744e-01 1.464313500000000090e+01 6.968030000000000257e+01 1.827755000000000109e+03
5.200000000000000455e-02 6.543200000000000127e-01 1.609254999999999924e+01 7.315895000000000437e+01 1.828650000000000091e+03
5.300000000000000544e-02 6.548670000000000879e-01 1.739004999999999868e+01 7.637845000000000084e+01 1.829490000000000009e+03
5.399999999999999939e-02 6.553744999999999710e-01 1.854084999999999894e+01 7.935139999999999816e+01 1.830275000000000091e+03
5.500000000000000028e-02 6.558505000000000029e-01 1.955744999999999933e+01 8.210904999999999632e+01 1.831009999999999991e+03
5.600000000000000117e-02 6.563029999999999697e-01 2.045714999999999861e+01 8.469570000000000221e+01 1.831704999999999927e+03
5.700000000000000205e-02 6.567415000000000891e-01 2.125999999999999801e+01 8.716235000000000355e+01 1.832365000000000009e+03
5.800000000000000294e-02 6.571755000000000235e-01 2.198669999999999902e+01 8.956170000000000186e+01 1.833009999999999991e+03
5.900000000000000383e-02 6.576119999999999743e-01 2.265639999999999787e+01 9.194219999999999970e+01 1.833639999999999873e+03
6.000000000000000472e-02 6.580565000000000442e-01 2.328549999999999898e+01 9.434389999999999077e+01 1.834269999999999982e+03
6.099999999999999867e-02 6.585140000000000438e-01 2.388579999999999970e+01 9.679429999999999268e+01 1.834914999999999964e+03
6.199999999999999956e-02 6.589840000000000142e-01 2.446370000000000289e+01 9.930555000000001087e+01 1.835565000000000055e+03
6.300000000000000044e-02 6.594645000000000090e-01 2.501970000000000027e+01 1.018744999999999976e+02 1.836230000000000018e+03
6.400000000000000133e-02 6.599504999999999955e-01 2.554874999999999829e+01 1.044814999999999969e+02 1.836904999999999973e+03
6.500000000000000222e-02 6.604349999999999943e-01 2.604100000000000037e+01 1.070935000000000059e+02 1.837575000000000045e+03
6.600000000000000311e-02 6.609099999999999975e-01 2.648329999999999984e+01 1.096680000000000064e+02 1.838244999999999891e+03
6.700000000000000400e-02 6.613655000000000506e-01 2.686079999999999757e+01 1.121560000000000059e+02 1.838889999999999873e+03
6.800000000000000488e-02 6.617930000000000756e-01 2.715834999999999866e+01 1.145070000000000050e+02 1.839509999999999991e+03
6.900000000000000577e-02 6.621844999999999537e-01 2.736229999999999762e+01 1.166730000000000018e+02 1.840090000000000146e+03
7.000000000000000666e-02 6.625330000000000386e-01 2.746114999999999995e+01 1.186129999999999995e+02 1.840615000000000009e+03
7.100000000000000755e-02 6.628335000000000754e-01 2.744650000000000034e+01 1.202924999999999898e+02 1.841079999999999927e+03
7.200000000000000844e-02 6.630819999999999492e-01 2.731369999999999720e+01 1.216879999999999882e+02 1.841480000000000018e+03
7.300000000000000933e-02 6.632774999999999643e-01 2.706179999999999808e+01 1.227870000000000061e+02 1.841804999999999836e+03
7.399999999999999634e-02 6.634199999999998987e-01 2.669384999999999764e+01 1.235885000000000105e+02 1.842054999999999836e+03
7.499999999999999722e-02 6.635124999999999496e-01 2.621669999999999945e+01 1.241014999999999873e+02 1.842235000000000127e+03
7.599999999999999811e-02 6.635580000000000922e-01 2.564085000000000036e+01 1.243435000000000059e+02 1.842349999999999909e+03
7.699999999999999900e-02 6.635619999999999852e-01 2.497979999999999734e+01 1.243429999999999893e+02 1.842394999999999982e+03
7.799999999999999989e-02 6.635309999999999819e-01 2.424964999999999904e+01 1.241334999999999980e+02 1.842389999999999873e+03
7.900000000000000078e-02 6.634714999999999918e-01 2.346849999999999881e+01 1.237530000000000001e+02 1.842335000000000036e+03
8.000000000000000167e-02 6.633915000000000228e-01 2.265534999999999854e+01 1.232439999999999998e+02 1.842240000000000009e+03
8.100000000000000255e-02 6.632979999999999432e-01 2.182929999999999993e+01 1.226475000000000080e+02 1.842115000000000009e+03
8.200000000000000344e-02 6.631979999999999542e-01 2.100844999999999985e+01 1.220064999999999884e+02 1.841974999999999909e+03
8.300000000000000433e-02 6.630985000000000351e-01 2.020919999999999916e+01 1.213575000000000159e+02 1.841829999999999927e+03
8.400000000000000522e-02 6.630035000000000789e-01 1.944500000000000028e+01 1.207319999999999993e+02 1.841680000000000064e+03
8.500000000000000611e-02 6.629180000000000073e-01 1.872599999999999909e+01 1.201560000000000059e+02 1.841535000000000082e+03
8.600000000000000699e-02 6.628434999999999189e-01 1.805865000000000009e+01 1.196444999999999936e+02 1.841405000000000200e+03
8.700000000000000788e-02 6.627810000000000645e-01 1.744514999999999816e+01 1.192079999999999984e+02 1.841285000000000082e+03
8.800000000000000877e-02 6.627290000000000125e-01 1.688419999999999987e+01 1.188455000000000013e+02 1.841184999999999945e+03
8.899999999999999578e-02 6.626874999999999849e-01 1.637079999999999913e+01 1.185494999999999948e+02 1.841099999999999909e+03
8.999999999999999667e-02 6.626524999999999777e-01 1.589714999999999989e+01 1.183059999999999974e+02 1.841025000000000091e+03
9.099999999999999756e-02 6.626199999999999868e-01 1.545325000000000060e+01 1.180949999999999989e+02 1.840960000000000036e+03
9.199999999999999845e-02 6.625864999999999672e-01 1.502749999999999986e+01 1.178949999999999960e+02 1.840894999999999982e+03
9.299999999999999933e-02 6.625475000000000669e-01 1.460774999999999935e+01 1.176804999999999950e+02 1.840835000000000036e+03
9.400000000000000022e-02 6.624984999999999902e-01 1.418190000000000062e+01 1.174279999999999973e+02 1.840769999999999982e+03
9.500000000000000111e-02 6.624360000000000248e-01 1.373890000000000100e+01 1.171150000000000091e+02 1.840684999999999945e+03
9.600000000000000200e-02 6.623580000000000023e-01 1.326919999999999966e+01 1.167224999999999966e+02 1.840589999999999918e+03
9.700000000000000289e-02 6.622609999999999886e-01 1.276581499999999991e+01 1.162374999999999972e+02 1.840474999999999909e+03
9.800000000000000377e-02 6.621455000000000535e-01 1.222442500000000010e+01 1.156504999999999939e+02 1.840329999999999927e+03
9.900000000000000466e-02 6.620114999999999750e-01 1.164384499999999889e+01 1.149620000000000033e+02 1.840164999999999964e+03
1.000000000000000056e-01 6.618604999999999627e-01 1.102633499999999955e+01 1.141769999999999925e+02 1.839980000000000018e+03
1.010000000000000064e-01 6.616960000000000619e-01 1.037715999999999994e+01 1.133084999999999951e+02 1.839769999999999982e+03
1.020000000000000073e-01 6.615215000000000956e-01 9.704685000000001338e+00 1.123750000000000000e+02 1.839545000000000073e+03
1.030000000000000082e-01 6.613409999999999567e-01 9.019655000000000200e+00 1.114014999999999986e+02 1.839309999999999945e+03
1.040000000000000091e-01 6.611614999999999576e-01 8.334475000000001188e+00 1.104149999999999920e+02 1.839070000000000164e+03
1.050000000000000100e-01 6.609874999999999501e-01 7.662784999999999513e+00 1.094465000000000003e+02 1.838829999999999927e+03
1.059999999999999970e-01 6.608244999999999258e-01 7.018269999999999342e+00 1.085264999999999986e+02 1.838595000000000027e+03
1.069999999999999979e-01 6.606779999999999875e-01 6.414204999999999934e+00 1.076835000000000093e+02 1.838375000000000000e+03
1.079999999999999988e-01 6.605520000000000280e-01 5.862354999999999983e+00 1.069439999999999884e+02 1.838184999999999945e+03
1.089999999999999997e-01 6.604499999999999815e-01 5.372550000000000381e+00 1.063294999999999959e+02 1.838014999999999873e+03
1.100000000000000006e-01 6.603740000000000165e-01 4.952080000000000481e+00 1.058549999999999898e+02 1.837880000000000109e+03
1.110000000000000014e-01 6.603255000000000097e-01 4.605360000000000120e+00 1.055310000000000059e+02 1.837779999999999973e+03
1.120000000000000023e-01 6.603040000000000020e-01 4.333819999999999339e+00 1.053580000000000041e+02 1.837710000000000036e+03
1.130000000000000032e-01 6.603090000000000348e-01 4.135944999999999538e+00 1.053329999999999984e+02 1.837684999999999945e+03
1.140000000000000041e-01 6.603375000000000217e-01 4.007535000000000736e+00 1.054449999999999932e+02 1.837690000000000055e+03
1.150000000000000050e-01 6.603855000000000697e-01 3.942095000000000127e+00 1.056794999999999902e+02 1.837724999999999909e+03
1.160000000000000059e-01 6.604510000000000103e-01 3.931315000000000115e+00 1.060150000000000006e+02 1.837789999999999964e+03
1.170000000000000068e-01 6.605284999999999629e-01 3.965639999999999610e+00 1.064304999999999950e+02 1.837875000000000000e+03
1.180000000000000077e-01 6.606144999999999934e-01 4.034810000000000230e+00 1.069029999999999916e+02 1.837980000000000018e+03
1.190000000000000085e-01 6.607050000000000978e-01 4.128400000000000070e+00 1.074089999999999918e+02 1.838090000000000146e+03
1.200000000000000094e-01 6.607959999999999390e-01 4.236285000000000522e+00 1.079259999999999877e+02 1.838210000000000036e+03
1.209999999999999964e-01 6.608844999999999859e-01 4.349029999999999951e+00 1.084350000000000023e+02 1.838329999999999927e+03
1.219999999999999973e-01 6.609665000000000123e-01 4.458224999999999660e+00 1.089175000000000040e+02 1.838444999999999936e+03
1.229999999999999982e-01 6.610415000000000596e-01 4.556699999999999307e+00 1.093610000000000042e+02 1.838559999999999945e+03
1.239999999999999991e-01 6.611070000000000002e-01 4.638664999999999594e+00 1.097540000000000049e+02 1.838659999999999854e+03
1.250000000000000000e-01 6.611629999999999452e-01 4.699819999999999887e+00 1.100910000000000082e+02 1.838740000000000009e+03
1.260000000000000009e-01 6.612074999999999481e-01 4.737364999999999604e+00 1.103669999999999902e+02 1.838820000000000164e+03
1.270000000000000018e-01 6.612420000000001075e-01 4.749940000000000495e+00 1.105825000000000102e+02 1.838880000000000109e+03
1.280000000000000027e-01 6.612664999999999793e-01 4.737574999999999648e+00 1.107399999999999949e+02 1.838930000000000064e+03
1.290000000000000036e-01 6.612819999999999254e-01 4.701534999999999798e+00 1.108439999999999941e+02 1.838965000000000146e+03
1.300000000000000044e-01 6.612899999999999334e-01 4.644129999999999647e+00 1.109004999999999939e+02 1.838990000000000009e+03
1.310000000000000053e-01 6.612924999999999498e-01 4.568495000000000417e+00 1.109189999999999969e+02 1.839000000000000000e+03
1.320000000000000062e-01 6.612900000000000444e-01 4.478360000000000340e+00 1.109074999999999989e+02 1.839005000000000109e+03
1.330000000000000071e-01 6.612850000000000117e-01 4.377755000000000507e+00 1.108735000000000070e+02 1.839005000000000109e+03
1.340000000000000080e-01 6.612780000000000324e-01 4.270739999999999981e+00 1.108280000000000030e+02 1.838994999999999891e+03
1.350000000000000089e-01 6.612715000000000121e-01 4.161129999999999995e+00 1.107775000000000034e+02 1.838990000000000009e+03
1.360000000000000098e-01 6.612654999999999506e-01 4.052310000000000301e+00 1.107274999999999920e+02 1.838980000000000018e+03
1.370000000000000107e-01 6.612609999999999877e-01 3.947015000000000384e+00 1.106839999999999975e+02 1.838974999999999909e+03
1.380000000000000115e-01 6.612580000000000124e-01 3.847234999999999960e+00 1.106485000000000127e+02 1.838965000000000146e+03
1.390000000000000124e-01 6.612575000000000536e-01 3.754169999999999785e+00 1.106225000000000023e+02 1.838965000000000146e+03
1.400000000000000133e-01 6.612575000000000536e-01 3.668260000000000076e+00 1.106049999999999898e+02 1.838960000000000036e+03
1.410000000000000142e-01 6.612584999999999713e-01 3.589255000000000528e+00 1.105929999999999893e+02 1.838954999999999927e+03
1.420000000000000151e-01 6.612599999999999589e-01 3.516365000000000407e+00 1.105829999999999984e+02 1.838949999999999818e+03
1.430000000000000160e-01 6.612599999999999589e-01 3.448405000000000165e+00 1.105704999999999956e+02 1.838949999999999818e+03
1.440000000000000169e-01 6.612580000000000124e-01 3.383985000000000021e+00 1.105500000000000114e+02 1.838944999999999936e+03
1.450000000000000178e-01 6.612540000000000084e-01 3.321679999999999744e+00 1.105185000000000031e+02 1.838940000000000055e+03
1.459999999999999909e-01 6.612460000000000004e-01 3.260164999999999758e+00 1.104705000000000013e+02 1.838924999999999955e+03
1.469999999999999918e-01 6.612344999999999473e-01 3.198350000000000026e+00 1.104020000000000010e+02 1.838904999999999973e+03
1.479999999999999927e-01 6.612190000000000012e-01 3.135460000000000136e+00 1.103129999999999882e+02 1.838889999999999873e+03
1.489999999999999936e-01 6.611990000000000922e-01 3.071089999999999876e+00 1.102009999999999934e+02 1.838860000000000127e+03
1.499999999999999944e-01 6.611750000000000682e-01 3.005259999999999820e+00 1.100674999999999955e+02 1.838829999999999927e+03
1.509999999999999953e-01 6.611474999999999991e-01 2.938400000000000123e+00 1.099130000000000109e+02 1.838789999999999964e+03
1.519999999999999962e-01 6.611164999999999958e-01 2.871299999999999741e+00 1.097415000000000020e+02 1.838750000000000000e+03
1.529999999999999971e-01 6.610840000000000050e-01 2.805134999999999934e+00 1.095564999999999998e+02 1.838704999999999927e+03
1.539999999999999980e-01 6.610489999999999977e-01 2.741360000000000241e+00 1.093624999999999972e+02 1.838654999999999973e+03
1.549999999999999989e-01 6.610139999999999905e-01 2.681659999999999933e+00 1.091655000000000086e+02 1.838610000000000127e+03
1.559999999999999998e-01 6.609800000000000120e-01 2.627880000000000216e+00 1.089710000000000036e+02 1.838559999999999945e+03
1.570000000000000007e-01 6.609469999999999512e-01 2.581939999999999902e+00 1.087849999999999966e+02 1.838509999999999991e+03
1.580000000000000016e-01 6.609175000000000466e-01 2.545709999999999695e+00 1.086135000000000019e+02 1.838465000000000146e+03
1.590000000000000024e-01 6.608914999999999651e-01 2.520970000000000155e+00 1.084615000000000009e+02 1.838425000000000182e+03
