# t [s], A [cm^2], U [cm/s], P [cPa], c [cm/s]
1.000000000000000021e-03 1.652490000000000070e-01 4.241404999999999759e-01 8.644030000000000769e+01 2.317220000000000255e+03
2.000000000000000042e-03 1.651845000000000119e-01 1.985821500000000128e+00 8.235705000000000098e+01 2.316555000000000291e+03
3.000000000000000062e-03 1.650494999999999879e-01 3.896407000000000398e+00 7.682580000000000098e+01 2.315190000000000055e+03
4.000000000000000083e-03 1.648894999999999944e-01 6.081869999999999443e+00 7.152320000000000277e+01 2.313590000000000146e+03
5.000000000000000104e-03 1.647374999999999812e-01 8.359905000000001252e+00 6.743250000000000455e+01 2.312090000000000146e+03
6.000000000000000125e-03 1.645995000000000097e-01 1.034776499999999899e+01 6.414234999999999332e+01 2.310755000000000109e+03
7.000000000000000146e-03 1.644749999999999823e-01 1.189213499999999968e+01 6.110800000000000409e+01 2.309585000000000036e+03
8.000000000000000167e-03 1.643699999999999883e-01 1.310250000000000092e+01 5.854985000000000639e+01 2.308609999999999673e+03
9.000000000000001055e-03 1.642865000000000020e-01 1.402575000000000038e+01 5.658530000000000371e+01 2.307840000000000146e+03
1.000000000000000194e-02 1.642220000000000069e-01 1.469490000000000052e+01 5.513904999999999745e+01 2.307264999999999873e+03
1.099999999999999936e-02 1.641765000000000030e-01 1.514679999999999893e+01 5.414529999999999887e+01 2.306860000000000127e+03
1.200000000000000025e-02 1.641414999999999957e-01 1.536780000000000079e+01 5.336889999999999645e+01 2.306559999999999945e+03
1.300000000000000114e-02 1.641130000000000089e-01 1.541840000000000188e+01 5.266679999999999495e+01 2.306315000000000055e+03
1.400000000000000203e-02 1.640980000000000216e-01 1.555669999999999931e+01 5.251449999999999818e+01 2.306199999999999818e+03
1.499999999999999944e-02 1.641159999999999841e-01 1.610405000000000086e+01 5.384154999999999802e+01 2.306369999999999891e+03
1.600000000000000033e-02 1.641809999999999936e-01 1.717239999999999966e+01 5.717825000000000557e+01 2.306960000000000036e+03
1.700000000000000122e-02 1.642865000000000020e-01 1.853045000000000186e+01 6.198845000000000027e+01 2.307940000000000055e+03
1.800000000000000211e-02 1.644074999999999842e-01 1.971059999999999945e+01 6.677700000000000102e+01 2.309065000000000055e+03
1.900000000000000300e-02 1.645039999999999836e-01 2.025694999999999979e+01 6.983535000000000537e+01 2.310000000000000000e+03
2.000000000000000042e-02 1.645479999999999998e-01 1.995335000000000036e+01 7.010819999999999652e+01 2.310460000000000036e+03
2.100000000000000130e-02 1.645294999999999952e-01 1.891239999999999810e+01 6.768370000000000175e+01 2.310335000000000036e+03
2.200000000000000219e-02 1.644625000000000115e-01 1.749049999999999727e+01 6.366825000000000045e+01 2.309739999999999782e+03
2.299999999999999961e-02 1.643744999999999790e-01 1.609304999999999808e+01 5.956504999999999939e+01 2.308930000000000291e+03
2.400000000000000050e-02 1.642945000000000100e-01 1.498724999999999952e+01 5.654290000000000305e+01 2.308170000000000073e+03
2.500000000000000139e-02 1.642389999999999961e-01 1.421460000000000079e+01 5.498515000000000441e+01 2.307630000000000109e+03
2.600000000000000228e-02 1.642075000000000062e-01 1.362434999999999974e+01 5.448049999999999926e+01 2.307314999999999600e+03
2.700000000000000316e-02 1.641869999999999996e-01 1.298540000000000028e+01 5.416849999999999454e+01 2.307110000000000127e+03
2.800000000000000058e-02 1.641595000000000137e-01 1.211710000000000065e+01 5.322455000000000069e+01 2.306864999999999782e+03
2.900000000000000147e-02 1.641150000000000109e-01 1.098534000000000077e+01 5.127295000000000158e+01 2.306454999999999927e+03
3.000000000000000236e-02 1.640510000000000024e-01 9.730150000000000077e+00 4.857280000000000086e+01 2.305869999999999891e+03
3.099999999999999978e-02 1.639820000000000166e-01 8.614015000000000200e+00 4.591259999999999764e+01 2.305224999999999909e+03
3.200000000000000067e-02 1.639275000000000038e-01 7.915404999999999802e+00 4.426945000000000618e+01 2.304699999999999818e+03
3.300000000000000155e-02 1.639074999999999838e-01 7.816200000000000259e+00 4.439225000000000421e+01 2.304480000000000018e+03
3.400000000000000244e-02 1.639320000000000221e-01 8.330994999999999706e+00 4.649249999999999972e+01 2.304675000000000182e+03
3.500000000000000333e-02 1.639990000000000059e-01 9.300710000000000477e+00 5.015749999999999886e+01 2.305269999999999982e+03
3.600000000000000422e-02 1.640935000000000032e-01 1.044267999999999930e+01 5.448629999999999995e+01 2.306135000000000218e+03
3.700000000000000511e-02 1.641924999999999912e-01 1.143025499999999894e+01 5.836580000000000013e+01 2.307059999999999945e+03
3.799999999999999906e-02 1.642710000000000004e-01 1.197235000000000049e+01 6.077224999999999966e+01 2.307804999999999836e+03
3.899999999999999994e-02 1.643074999999999952e-01 1.187085000000000079e+01 6.100534999999999997e+01 2.308170000000000073e+03
4.000000000000000083e-02 1.642885000000000040e-01 1.104583500000000029e+01 5.880250000000000199e+01 2.308025000000000091e+03
4.100000000000000172e-02 1.642120000000000246e-01 9.530379999999999185e+00 5.432630000000000337e+01 2.307340000000000146e+03
4.200000000000000261e-02 1.640820000000000056e-01 7.441254999999999953e+00 4.805355000000000132e+01 2.306144999999999982e+03
4.300000000000000350e-02 1.639110000000000011e-01 4.941201000000000398e+00 4.061884999999999479e+01 2.304569999999999709e+03
4.400000000000000439e-02 1.637139999999999984e-01 2.204039999999999999e+00 3.266649999999999920e+01 2.302734999999999673e+03
4.499999999999999833e-02 1.635050000000000114e-01 -6.082900000000002194e-01 2.474994999999999834e+01 2.300780000000000200e+03
4.599999999999999922e-02 1.632969999999999977e-01 -3.354544999999999888e+00 1.729348999999999847e+01 2.298829999999999927e+03
4.700000000000000011e-02 1.630995000000000084e-01 -5.912679999999999936e+00 1.060425050000000091e+01 2.296970000000000255e+03
4.800000000000000100e-02 1.629220000000000113e-01 -8.173329999999999984e+00 4.911820000000000519e+00 2.295295000000000073e+03
4.900000000000000189e-02 1.627709999999999990e-01 -1.003449999999999953e+01 4.097550000000000914e-01 2.293860000000000127e+03
5.000000000000000278e-02 1.626515000000000044e-01 -1.140024499999999996e+01 -2.719800000000000217e+00 2.292720000000000255e+03
5.100000000000000366e-02 1.625710000000000210e-01 -1.218595000000000006e+01 -4.305975699999999406e+00 2.291935000000000400e+03
5.200000000000000455e-02 1.625325000000000242e-01 -1.232704999999999984e+01 -4.210504999999999498e+00 2.291539999999999964e+03
5.300000000000000544e-02 1.625409999999999910e-01 -1.178955000000000020e+01 -2.360139999999999905e+00 2.291574999999999818e+03
5.399999999999999939e-02 1.625965000000000049e-01 -1.057744999999999891e+01 1.223814999999999653e+00 2.292050000000000182e+03
5.500000000000000028e-02 1.626980000000000093e-01 -8.735594999999999999e+00 6.410509000000000235e+00 2.292960000000000036e+03
5.600000000000000117e-02 1.628415000000000001e-01 -6.345759999999999401e+00 1.296511500000000083e+01 2.294260000000000218e+03
5.700000000000000205e-02 1.630199999999999982e-01 -3.518104999999999816e+00 2.057304999999999851e+01 2.295899999999999636e+03
5.800000000000000294e-02 1.632259999999999822e-01 -3.798349999999999227e-01 2.887600000000000122e+01 2.297804999999999836e+03
5.900000000000000383e-02 1.634494999999999976e-01 2.936240000000000183e+00 3.750905000000000200e+01 2.299885000000000218e+03
6.000000000000000472e-02 1.636814999999999798e-01 6.300980000000000025e+00 4.613159999999999883e+01 2.302059999999999945e+03
6.099999999999999867e-02 1.639140000000000041e-01 9.595644999999999314e+00 5.444764999999999588e+01 2.304244999999999891e+03
6.199999999999999956e-02 1.641384999999999927e-01 1.271668500000000002e+01 6.221634999999999849e+01 2.306369999999999891e+03
6.300000000000000044e-02 1.643499999999999961e-01 1.557915000000000028e+01 6.925700000000000500e+01 2.308380000000000109e+03
6.400000000000000133e-02 1.645419999999999938e-01 1.812035000000000196e+01 7.545255000000000223e+01 2.310224999999999909e+03
6.500000000000000222e-02 1.647135000000000127e-01 2.030259999999999820e+01 8.075325000000000841e+01 2.311869999999999891e+03
6.600000000000000311e-02 1.648620000000000085e-01 2.211570000000000036e+01 8.517920000000000869e+01 2.313305000000000291e+03
6.700000000000000400e-02 1.649889999999999968e-01 2.357734999999999914e+01 8.882044999999999391e+01 2.314539999999999964e+03
6.800000000000000488e-02 1.650965000000000071e-01 2.473130000000000095e+01 9.182999999999999829e+01 2.315594999999999800e+03
6.900000000000000577e-02 1.651890000000000025e-01 2.564220000000000255e+01 9.441055000000000064e+01 2.316500000000000000e+03
7.000000000000000666e-02 1.652720000000000022e-01 2.638929999999999865e+01 9.679394999999999527e+01 2.317315000000000055e+03
7.100000000000000755e-02 1.653505000000000114e-01 2.705724999999999980e+01 9.921705000000000041e+01 2.318085000000000036e+03
7.200000000000000844e-02 1.654309999999999947e-01 2.772759999999999891e+01 1.018968999999999880e+02 2.318864999999999782e+03
7.300000000000000933e-02 1.655194999999999861e-01 2.847079999999999700e+01 1.050074999999999932e+02 2.319715000000000146e+03
7.399999999999999634e-02 1.656185000000000018e-01 2.933964999999999890e+01 1.086640000000000015e+02 2.320670000000000073e+03
7.499999999999999722e-02 1.657315000000000038e-01 3.036489999999999867e+01 1.129129999999999967e+02 2.321744999999999891e+03
7.599999999999999811e-02 1.658589999999999787e-01 3.155369999999999919e+01 1.177324999999999875e+02 2.322960000000000036e+03
7.699999999999999900e-02 1.660004999999999953e-01 3.289025000000000176e+01 1.230335000000000036e+02 2.324305000000000291e+03
7.799999999999999989e-02 1.661529999999999951e-01 3.433830000000000382e+01 1.286754999999999995e+02 2.325764999999999873e+03
7.900000000000000078e-02 1.663125000000000020e-01 3.584574999999999534e+01 1.344790000000000134e+02 2.327289999999999964e+03
8.000000000000000167e-02 1.664749999999999841e-01 3.734964999999999691e+01 1.402434999999999832e+02 2.328840000000000146e+03
8.100000000000000255e-02 1.666345000000000187e-01 3.878215000000000146e+01 1.457649999999999864e+02 2.330380000000000109e+03
8.200000000000000344e-02 1.667865000000000042e-01 4.007590000000000430e+01 1.508525000000000205e+02 2.331845000000000255e+03
8.300000000000000433e-02 1.669259999999999911e-01 4.116960000000000264e+01 1.553385000000000105e+02 2.333195000000000164e+03
8.400000000000000522e-02 1.670490000000000030e-01 4.201194999999999879e+01 1.590944999999999823e+02 2.334394999999999982e+03
8.500000000000000611e-02 1.671515000000000084e-01 4.256544999999999845e+01 1.620345000000000084e+02 2.335404999999999745e+03
8.600000000000000699e-02 1.672330000000000205e-01 4.280819999999999936e+01 1.641184999999999832e+02 2.336210000000000036e+03
8.700000000000000788e-02 1.672914999999999819e-01 4.273489999999999611e+01 1.653530000000000086e+02 2.336795000000000073e+03
8.800000000000000877e-02 1.673270000000000035e-01 4.235625000000000284e+01 1.657874999999999943e+02 2.337164999999999964e+03
8.899999999999999578e-02 1.673419999999999908e-01 4.169740000000000180e+01 1.655070000000000050e+02 2.337329999999999927e+03
8.999999999999999667e-02 1.673379999999999868e-01 4.079554999999999865e+01 1.646225000000000023e+02 2.337314999999999600e+03
9.099999999999999756e-02 1.673184999999999811e-01 3.969695000000000107e+01 1.632654999999999745e+02 2.337139999999999873e+03
9.199999999999999845e-02 1.672859999999999903e-01 3.845345000000000368e+01 1.615749999999999886e+02 2.336849999999999909e+03
9.299999999999999933e-02 1.672444999999999904e-01 3.711959999999999837e+01 1.596910000000000025e+02 2.336465000000000146e+03
9.400000000000000022e-02 1.671984999999999999e-01 3.574944999999999595e+01 1.577470000000000141e+02 2.336019999999999982e+03
9.500000000000000111e-02 1.671500000000000208e-01 3.439395000000000380e+01 1.558645000000000209e+02 2.335559999999999945e+03
9.600000000000000200e-02 1.671030000000000015e-01 3.309860000000000468e+01 1.541479999999999961e+02 2.335105000000000018e+03
9.700000000000000289e-02 1.670599999999999863e-01 3.190124999999999744e+01 1.526810000000000116e+02 2.334690000000000055e+03
9.800000000000000377e-02 1.670230000000000048e-01 3.083075000000000188e+01 1.515225000000000080e+02 2.334329999999999927e+03
9.900000000000000466e-02 1.669934999999999892e-01 2.990550000000000352e+01 1.507060000000000173e+02 2.334039999999999964e+03
1.000000000000000056e-01 1.669730000000000103e-01 2.913295000000000101e+01 1.502359999999999900e+02 2.333829999999999927e+03
1.010000000000000064e-01 1.669609999999999983e-01 2.850939999999999941e+01 1.500919999999999845e+02 2.333704999999999927e+03
1.020000000000000073e-01 1.669569999999999943e-01 2.802090000000000103e+01 1.502264999999999873e+02 2.333650000000000091e+03
1.030000000000000082e-01 1.669595000000000107e-01 2.764414999999999978e+01 1.505699999999999932e+02 2.333670000000000073e+03
1.040000000000000091e-01 1.669670000000000043e-01 2.734870000000000090e+01 1.510355000000000132e+02 2.333730000000000018e+03
1.050000000000000100e-01 1.669769999999999865e-01 2.709899999999999665e+01 1.515269999999999868e+02 2.333820000000000164e+03
1.059999999999999970e-01 1.669869999999999965e-01 2.685709999999999908e+01 1.519440000000000168e+02 2.333909999999999854e+03
1.069999999999999979e-01 1.669944999999999902e-01 2.658554999999999779e+01 1.521899999999999977e+02 2.333980000000000018e+03
1.079999999999999988e-01 1.669970000000000065e-01 2.625000000000000000e+01 1.521784999999999854e+02 2.334005000000000109e+03
1.089999999999999997e-01 1.669930000000000025e-01 2.582135000000000247e+01 1.518419999999999845e+02 2.333965000000000146e+03
1.100000000000000006e-01 1.669800000000000173e-01 2.527839999999999776e+01 1.511334999999999980e+02 2.333840000000000146e+03
1.110000000000000014e-01 1.669569999999999943e-01 2.460889999999999844e+01 1.500319999999999823e+02 2.333625000000000000e+03
1.120000000000000023e-01 1.669240000000000168e-01 2.381049999999999756e+01 1.485455000000000041e+02 2.333314999999999600e+03
1.130000000000000032e-01 1.668810000000000016e-01 2.289095000000000013e+01 1.467065000000000055e+02 2.332909999999999854e+03
1.140000000000000041e-01 1.668284999999999907e-01 2.186724999999999852e+01 1.445724999999999909e+02 2.332414999999999964e+03
1.150000000000000050e-01 1.667690000000000006e-01 2.076454999999999984e+01 1.422214999999999918e+02 2.331845000000000255e+03
1.160000000000000059e-01 1.667045000000000055e-01 1.961390000000000100e+01 1.397439999999999998e+02 2.331229999999999563e+03
1.170000000000000068e-01 1.666370000000000073e-01 1.845045000000000002e+01 1.372394999999999925e+02 2.330585000000000036e+03
1.180000000000000077e-01 1.665694999999999815e-01 1.731070000000000064e+01 1.348079999999999927e+02 2.329930000000000291e+03
1.190000000000000085e-01 1.665034999999999987e-01 1.623019999999999996e+01 1.325424999999999898e+02 2.329304999999999836e+03
1.200000000000000094e-01 1.664424999999999932e-01 1.524125000000000085e+01 1.305260000000000105e+02 2.328710000000000036e+03
1.209999999999999964e-01 1.663884999999999947e-01 1.437119999999999997e+01 1.288245000000000005e+02 2.328184999999999945e+03
1.219999999999999973e-01 1.663425000000000042e-01 1.364095000000000013e+01 1.274859999999999900e+02 2.327739999999999782e+03
1.229999999999999982e-01 1.663064999999999960e-01 1.306395000000000017e+01 1.265375000000000085e+02 2.327380000000000109e+03
1.239999999999999991e-01 1.662804999999999978e-01 1.264584999999999937e+01 1.259855000000000018e+02 2.327119999999999891e+03
1.250000000000000000e-01 1.662649999999999961e-01 1.238449999999999918e+01 1.258145000000000095e+02 2.326960000000000036e+03
1.260000000000000009e-01 1.662595000000000045e-01 1.227069999999999972e+01 1.259945000000000022e+02 2.326894999999999982e+03
1.270000000000000018e-01 1.662629999999999941e-01 1.228894999999999982e+01 1.264784999999999968e+02 2.326925000000000182e+03
1.280000000000000027e-01 1.662744999999999918e-01 1.241844999999999999e+01 1.272069999999999936e+02 2.327025000000000091e+03
1.290000000000000036e-01 1.662929999999999964e-01 1.263485000000000014e+01 1.281154999999999973e+02 2.327189999999999600e+03
1.300000000000000044e-01 1.663160000000000194e-01 1.291130000000000067e+01 1.291340000000000146e+02 2.327400000000000091e+03
1.310000000000000053e-01 1.663414999999999755e-01 1.322025000000000006e+01 1.301929999999999836e+02 2.327644999999999982e+03
1.320000000000000062e-01 1.663680000000000159e-01 1.353454999999999941e+01 1.312255000000000109e+02 2.327894999999999982e+03
1.330000000000000071e-01 1.663945000000000007e-01 1.382915000000000028e+01 1.321725000000000136e+02 2.328144999999999982e+03
1.340000000000000080e-01 1.664184999999999970e-01 1.408180000000000121e+01 1.329825000000000159e+02 2.328375000000000000e+03
1.350000000000000089e-01 1.664390000000000036e-01 1.427439999999999998e+01 1.336165000000000020e+02 2.328574999999999818e+03
1.360000000000000098e-01 1.664545000000000052e-01 1.439349999999999952e+01 1.340465000000000089e+02 2.328724999999999909e+03
1.370000000000000107e-01 1.664650000000000019e-01 1.443084999999999951e+01 1.342595000000000027e+02 2.328829999999999927e+03
1.380000000000000115e-01 1.664700000000000069e-01 1.438359999999999950e+01 1.342560000000000002e+02 2.328885000000000218e+03
1.390000000000000124e-01 1.664700000000000069e-01 1.425409999999999933e+01 1.340469999999999970e+02 2.328890000000000327e+03
1.400000000000000133e-01 1.664640000000000009e-01 1.404935000000000045e+01 1.336574999999999989e+02 2.328835000000000036e+03
1.410000000000000142e-01 1.664535000000000042e-01 1.378040000000000020e+01 1.331204999999999927e+02 2.328744999999999891e+03
1.420000000000000151e-01 1.664395000000000180e-01 1.346144999999999925e+01 1.324755000000000109e+02 2.328614999999999782e+03
1.430000000000000160e-01 1.664229999999999876e-01 1.310839999999999961e+01 1.317654999999999745e+02 2.328454999999999927e+03
1.440000000000000169e-01 1.664045000000000107e-01 1.273819999999999908e+01 1.310344999999999800e+02 2.328284999999999854e+03
1.450000000000000178e-01 1.663854999999999917e-01 1.236739999999999995e+01 1.303229999999999791e+02 2.328105000000000018e+03
1.459999999999999909e-01 1.663675000000000015e-01 1.201120000000000054e+01 1.296675000000000182e+02 2.327925000000000182e+03
1.469999999999999918e-01 1.663505000000000122e-01 1.168260000000000076e+01 1.290974999999999966e+02 2.327764999999999873e+03
1.479999999999999927e-01 1.663354999999999972e-01 1.139165000000000028e+01 1.286329999999999814e+02 2.327625000000000000e+03
1.489999999999999936e-01 1.663235000000000130e-01 1.114535000000000053e+01 1.282870000000000061e+02 2.327510000000000218e+03
1.499999999999999944e-01 1.663145000000000040e-01 1.094689999999999941e+01 1.280614999999999952e+02 2.327414999999999964e+03
1.509999999999999953e-01 1.663084999999999980e-01 1.079625000000000057e+01 1.279505000000000052e+02 2.327355000000000018e+03
1.519999999999999962e-01 1.663054999999999950e-01 1.069010000000000105e+01 1.279404999999999859e+02 2.327324999999999818e+03
1.529999999999999971e-01 1.663045000000000218e-01 1.062228999999999957e+01 1.280109999999999957e+02 2.327314999999999600e+03
1.539999999999999980e-01 1.663060000000000094e-01 1.058460000000000001e+01 1.281374999999999886e+02 2.327324999999999818e+03
1.549999999999999989e-01 1.663084999999999980e-01 1.056735000000000113e+01 1.282920000000000016e+02 2.327349999999999909e+03
1.559999999999999998e-01 1.663120000000000154e-01 1.055995000000000061e+01 1.284465000000000146e+02 2.327375000000000000e+03
1.570000000000000007e-01 1.663155000000000050e-01 1.055194999999999972e+01 1.285740000000000123e+02 2.327404999999999745e+03
1.580000000000000016e-01 1.663175000000000070e-01 1.053384499999999946e+01 1.286510000000000105e+02 2.327425000000000182e+03
1.590000000000000024e-01 1.663185000000000080e-01 1.049719999999999942e+01 1.286574999999999989e+02 2.327434999999999945e+03
