# t [s], A [cm^2], U [cm/s], P [cPa], c [cm/s]
1.000000000000000021e-03 4.972079999999999833e-01 3.428199999999999303e-03 9.367329999999999757e+01 1.474490000000000009e+03
2.000000000000000042e-03 4.972024999999999917e-01 5.735499999999981932e-05 9.365975000000000250e+01 1.474484999999999900e+03
3.000000000000000062e-03 4.972159999999999913e-01 2.616599999999999829e-02 9.368240000000000123e+01 1.474494999999999891e+03
4.000000000000000083e-03 4.972555000000000169e-01 1.021247500000000002e-01 9.377270000000000039e+01 1.474519999999999982e+03
5.000000000000000104e-03 4.972759999999999958e-01 1.467835000000000112e-01 9.383025000000000659e+01 1.474534999999999854e+03
6.000000000000000125e-03 4.972584999999999922e-01 1.219999999999999973e-01 9.378924999999999557e+01 1.474529999999999973e+03
7.000000000000000146e-03 4.972250000000000281e-01 6.313400000000002343e-02 9.367195000000000960e+01 1.474505000000000109e+03
8.000000000000000167e-03 4.971965000000000412e-01 1.307600000000003204e-02 9.352889999999999304e+01 1.474465000000000146e+03
9.000000000000001055e-03 4.971619999999999928e-01 -5.404200000000003445e-02 9.334225000000000705e+01 1.474424999999999955e+03
1.000000000000000194e-02 4.971044999999999492e-01 -1.770634999999999848e-01 9.306595000000000084e+01 1.474355000000000018e+03
1.099999999999999936e-02 4.970164999999999722e-01 -3.693434999999999913e-01 9.267009999999999081e+01 1.474255000000000109e+03
1.200000000000000025e-02 4.968934999999999880e-01 -6.403200000000000003e-01 9.212565000000000737e+01 1.474125000000000000e+03
1.300000000000000114e-02 4.967254999999999865e-01 -1.002340000000000009e+00 9.139730000000000132e+01 1.473940000000000055e+03
1.400000000000000203e-02 4.965119999999999534e-01 -1.448655000000000026e+00 9.046829999999999927e+01 1.473710000000000036e+03
1.499999999999999944e-02 4.962674999999999725e-01 -1.937049999999999939e+00 8.936580000000000723e+01 1.473424999999999955e+03
1.600000000000000033e-02 4.960160000000000124e-01 -2.399405000000000232e+00 8.815805000000000291e+01 1.473099999999999909e+03
1.700000000000000122e-02 4.957825000000000149e-01 -2.767500000000000071e+00 8.692879999999999541e+01 1.472759999999999991e+03
1.800000000000000211e-02 4.955800000000000205e-01 -2.995361999999999636e+00 8.574750000000000227e+01 1.472425000000000182e+03
1.900000000000000300e-02 4.954095000000000026e-01 -3.068020999999999887e+00 8.465170000000000528e+01 1.472095000000000027e+03
2.000000000000000042e-02 4.952599999999999780e-01 -2.997873999999999928e+00 8.364414999999999623e+01 1.471775000000000091e+03
2.100000000000000130e-02 4.951185000000000169e-01 -2.814214500000000285e+00 8.270064999999999600e+01 1.471464999999999918e+03
2.200000000000000219e-02 4.949694999999999512e-01 -2.551364500000000035e+00 8.178325000000000955e+01 1.471159999999999854e+03
2.299999999999999961e-02 4.948035000000000072e-01 -2.238699500000000064e+00 8.085365000000000180e+01 1.470855000000000018e+03
2.400000000000000050e-02 4.946154999999999857e-01 -1.894310000000000160e+00 7.988415000000000532e+01 1.470529999999999973e+03
2.500000000000000139e-02 4.944074999999999998e-01 -1.522980000000000000e+00 7.886410000000000764e+01 1.470194999999999936e+03
2.600000000000000228e-02 4.941860000000000142e-01 -1.118495000000000239e+00 7.780004999999999882e+01 1.469839999999999918e+03
2.700000000000000316e-02 4.939584999999999670e-01 -6.692150000000001153e-01 7.671134999999999593e+01 1.469485000000000127e+03
2.800000000000000058e-02 4.937329999999999774e-01 -1.649249999999997662e-01 7.562189999999999657e+01 1.469125000000000000e+03
2.900000000000000147e-02 4.935140000000000082e-01 3.971700000000000230e-01 7.455174999999999841e+01 1.468769999999999982e+03
3.000000000000000236e-02 4.933009999999999895e-01 1.008934999999999915e+00 7.351014999999999588e+01 1.468414999999999964e+03
3.099999999999999978e-02 4.930895000000000139e-01 1.650870000000000282e+00 7.249240000000000350e+01 1.468069999999999936e+03
3.200000000000000067e-02 4.928719999999999768e-01 2.294579999999999842e+00 7.148054999999999382e+01 1.467719999999999800e+03
3.300000000000000155e-02 4.926405000000000367e-01 2.907255000000000145e+00 7.044679999999999609e+01 1.467375000000000000e+03
3.400000000000000244e-02 4.923849999999999616e-01 3.457239999999999647e+00 6.936055000000000348e+01 1.467014999999999873e+03
3.500000000000000333e-02 4.921024999999999983e-01 3.919520000000000337e+00 6.819499999999999318e+01 1.466640000000000100e+03
3.600000000000000422e-02 4.917905000000000193e-01 4.280084999999999695e+00 6.693470000000000653e+01 1.466240000000000009e+03
3.700000000000000511e-02 4.914534999999999876e-01 4.538344999999999629e+00 6.558020000000000493e+01 1.465825000000000045e+03
3.799999999999999906e-02 4.910999999999999810e-01 4.706659999999999400e+00 6.415024999999999977e+01 1.465384999999999991e+03
3.899999999999999994e-02 4.907414999999999417e-01 4.808160000000000878e+00 6.268045000000000044e+01 1.464940000000000055e+03
4.000000000000000083e-02 4.903929999999999678e-01 4.872325000000000017e+00 6.121875000000000000e+01 1.464494999999999891e+03
4.100000000000000172e-02 4.900674999999999892e-01 4.930424999999999613e+00 5.982004999999999484e+01 1.464065000000000055e+03
4.200000000000000261e-02 4.897770000000000179e-01 5.011814999999999465e+00 5.853985000000000127e+01 1.463664999999999964e+03
4.300000000000000350e-02 4.895309999999999384e-01 5.140964499999999937e+00 5.742929999999999779e+01 1.463309999999999945e+03
4.400000000000000439e-02 4.893379999999999397e-01 5.336210499999999968e+00 5.653140000000000498e+01 1.463009999999999991e+03
4.499999999999999833e-02 4.892015000000000113e-01 5.610140000000000349e+00 5.587994999999999379e+01 1.462775000000000091e+03
4.599999999999999922e-02 4.891245000000000176e-01 5.970530000000000115e+00 5.549875000000000114e+01 1.462619999999999891e+03
4.700000000000000011e-02 4.891094999999999748e-01 6.421980000000000466e+00 5.540335000000000321e+01 1.462539999999999964e+03
4.800000000000000100e-02 4.891550000000000065e-01 6.967624999999999957e+00 5.560269999999999868e+01 1.462549999999999955e+03
4.900000000000000189e-02 4.892634999999999623e-01 7.610459999999999781e+00 5.610139999999999816e+01 1.462639999999999873e+03
5.000000000000000278e-02 4.894344999999999946e-01 8.354119999999999990e+00 5.690109999999999957e+01 1.462829999999999927e+03
5.100000000000000366e-02 4.896679999999999922e-01 9.202960000000000917e+00 5.800194999999999368e+01 1.463105000000000018e+03
5.200000000000000455e-02 4.899654999999999427e-01 1.016154500000000027e+01 5.940285000000000082e+01 1.463470000000000027e+03
5.300000000000000544e-02 4.903264999999999985e-01 1.123370000000000068e+01 6.110099999999999909e+01 1.463924999999999955e+03
5.399999999999999939e-02 4.907494999999999497e-01 1.242152499999999904e+01 6.309120000000000061e+01 1.464474999999999909e+03
5.500000000000000028e-02 4.912334999999999896e-01 1.372411999999999921e+01 6.536445000000000505e+01 1.465099999999999909e+03
5.600000000000000117e-02 4.917749999999999622e-01 1.513701000000000008e+01 6.790744999999999720e+01 1.465819999999999936e+03
5.700000000000000205e-02 4.923684999999999867e-01 1.665173500000000217e+01 7.070154999999999745e+01 1.466619999999999891e+03
5.800000000000000294e-02 4.930090000000000305e-01 1.825595500000000015e+01 7.372305000000000064e+01 1.467485000000000127e+03
5.900000000000000383e-02 4.936895000000000033e-01 1.993404999999999916e+01 7.694310000000000116e+01 1.468414999999999964e+03
6.000000000000000472e-02 4.944025000000000225e-01 2.166779999999999973e+01 8.032894999999999186e+01 1.469409999999999854e+03
6.099999999999999867e-02 4.951389999999999958e-01 2.343745000000000189e+01 8.384520000000000550e+01 1.470450000000000045e+03
6.199999999999999956e-02 4.958914999999999851e-01 2.522264999999999802e+01 8.745455000000001178e+01 1.471519999999999982e+03
6.300000000000000044e-02 4.966524999999999412e-01 2.700365000000000038e+01 9.112125000000000341e+01 1.472625000000000000e+03
6.400000000000000133e-02 4.974155000000000104e-01 2.876190000000000069e+01 9.481019999999999470e+01 1.473740000000000009e+03
6.500000000000000222e-02 4.981735000000000468e-01 3.048069999999999879e+01 9.848884999999999934e+01 1.474865000000000009e+03
6.600000000000000311e-02 4.989209999999999479e-01 3.214579999999999416e+01 1.021301500000000004e+02 1.475990000000000009e+03
6.700000000000000400e-02 4.996554999999999747e-01 3.374549999999999983e+01 1.057096999999999980e+02 1.477105000000000018e+03
6.800000000000000488e-02 5.003735000000000266e-01 3.527060000000000173e+01 1.092097499999999997e+02 1.478204999999999927e+03
6.900000000000000577e-02 5.010719999999999619e-01 3.671415000000000362e+01 1.126161000000000030e+02 1.479280000000000200e+03
7.000000000000000666e-02 5.017510000000000581e-01 3.807150000000000034e+01 1.159194999999999993e+02 1.480340000000000146e+03
7.100000000000000755e-02 5.024089999999999945e-01 3.933974999999999511e+01 1.191150000000000091e+02 1.481360000000000127e+03
7.200000000000000844e-02 5.030459999999999932e-01 4.051744999999999663e+01 1.221989999999999981e+02 1.482355000000000018e+03
7.300000000000000933e-02 5.036629999999999718e-01 4.160430000000000206e+01 1.251740000000000066e+02 1.483324999999999818e+03
7.399999999999999634e-02 5.042605000000000004e-01 4.260084999999999411e+01 1.280409999999999968e+02 1.484259999999999991e+03
7.499999999999999722e-02 5.048384999999999678e-01 4.350809999999999889e+01 1.308040000000000020e+02 1.485170000000000073e+03
7.599999999999999811e-02 5.053974999999999440e-01 4.432744999999999891e+01 1.334664999999999964e+02 1.486045000000000073e+03
7.699999999999999900e-02 5.059390000000000276e-01 4.506019999999999470e+01 1.360324999999999989e+02 1.486894999999999982e+03
7.799999999999999989e-02 5.064625000000000377e-01 4.570759999999999934e+01 1.385049999999999955e+02 1.487715000000000146e+03
7.900000000000000078e-02 5.069685000000000441e-01 4.627065000000000339e+01 1.408859999999999957e+02 1.488509999999999991e+03
8.000000000000000167e-02 5.074560000000000182e-01 4.675025000000000119e+01 1.431750000000000114e+02 1.489275000000000091e+03
8.100000000000000255e-02 5.079249999999999599e-01 4.714690000000000225e+01 1.453729999999999905e+02 1.490014999999999873e+03
8.200000000000000344e-02 5.083750000000000213e-01 4.746119999999999806e+01 1.474770000000000039e+02 1.490724999999999909e+03
8.300000000000000433e-02 5.088055000000000216e-01 4.769360000000000355e+01 1.494844999999999970e+02 1.491400000000000091e+03
8.400000000000000522e-02 5.092145000000000143e-01 4.784479999999999933e+01 1.513919999999999959e+02 1.492045000000000073e+03
8.500000000000000611e-02 5.096019999999999994e-01 4.791559999999999775e+01 1.531965000000000146e+02 1.492664999999999964e+03
8.600000000000000699e-02 5.099670000000000591e-01 4.790724999999999767e+01 1.548935000000000173e+02 1.493244999999999891e+03
8.700000000000000788e-02 5.103090000000000126e-01 4.782164999999999822e+01 1.564795000000000016e+02 1.493799999999999955e+03
8.800000000000000877e-02 5.106275000000000119e-01 4.766089999999999804e+01 1.579524999999999864e+02 1.494309999999999945e+03
8.899999999999999578e-02 5.109215000000000284e-01 4.742770000000000152e+01 1.593100000000000023e+02 1.494789999999999964e+03
8.999999999999999667e-02 5.111919999999999797e-01 4.712515000000000498e+01 1.605509999999999877e+02 1.495230000000000018e+03
9.099999999999999756e-02 5.114380000000000592e-01 4.675674999999999670e+01 1.616754999999999995e+02 1.495634999999999991e+03
9.199999999999999845e-02 5.116605000000000736e-01 4.632625000000000171e+01 1.626845000000000141e+02 1.496000000000000000e+03
9.299999999999999933e-02 5.118599999999999817e-01 4.583769999999999811e+01 1.635799999999999841e+02 1.496329999999999927e+03
9.400000000000000022e-02 5.120360000000000467e-01 4.529520000000000124e+01 1.643634999999999877e+02 1.496625000000000000e+03
9.500000000000000111e-02 5.121904999999999930e-01 4.470305000000000462e+01 1.650389999999999873e+02 1.496880000000000109e+03
9.600000000000000200e-02 5.123230000000000839e-01 4.406560000000000343e+01 1.656100000000000136e+02 1.497105000000000018e+03
9.700000000000000289e-02 5.124345000000000150e-01 4.338745000000000118e+01 1.660805000000000007e+02 1.497295000000000073e+03
9.800000000000000377e-02 5.125260000000000371e-01 4.267309999999999803e+01 1.664555000000000007e+02 1.497454999999999927e+03
9.900000000000000466e-02 5.125994999999999857e-01 4.192719999999999914e+01 1.667404999999999973e+02 1.497579999999999927e+03
1.000000000000000056e-01 5.126549999999999718e-01 4.115444999999999709e+01 1.669415000000000191e+02 1.497679999999999836e+03
1.010000000000000064e-01 5.126950000000000118e-01 4.035970000000000368e+01 1.670649999999999977e+02 1.497750000000000000e+03
1.020000000000000073e-01 5.127194999999999947e-01 3.954775000000000063e+01 1.671170000000000186e+02 1.497795000000000073e+03
1.030000000000000082e-01 5.127304999999999779e-01 3.872330000000000183e+01 1.671039999999999850e+02 1.497825000000000045e+03
1.040000000000000091e-01 5.127294999999999492e-01 3.789079999999999870e+01 1.670335000000000036e+02 1.497825000000000045e+03
1.050000000000000100e-01 5.127185000000000770e-01 3.705474999999999852e+01 1.669130000000000109e+02 1.497815000000000055e+03
1.059999999999999970e-01 5.126975000000000282e-01 3.621900000000000119e+01 1.667475000000000023e+02 1.497780000000000200e+03
1.069999999999999979e-01 5.126680000000000126e-01 3.538684999999999548e+01 1.665444999999999993e+02 1.497730000000000018e+03
1.079999999999999988e-01 5.126315000000000177e-01 3.456135000000000446e+01 1.663100000000000023e+02 1.497670000000000073e+03
1.089999999999999997e-01 5.125889999999999613e-01 3.374459999999999837e+01 1.660469999999999970e+02 1.497599999999999909e+03
1.100000000000000006e-01 5.125410000000000244e-01 3.293820000000000192e+01 1.657609999999999957e+02 1.497519999999999982e+03
1.110000000000000014e-01 5.124879999999999436e-01 3.214284999999999570e+01 1.654549999999999841e+02 1.497429999999999836e+03
1.120000000000000023e-01 5.124299999999999411e-01 3.135865000000000080e+01 1.651304999999999836e+02 1.497335000000000036e+03
1.130000000000000032e-01 5.123674999999999757e-01 3.058500000000000085e+01 1.647884999999999991e+02 1.497230000000000018e+03
1.140000000000000041e-01 5.122999999999999776e-01 2.982070000000000221e+01 1.644290000000000020e+02 1.497125000000000000e+03
1.150000000000000050e-01 5.122275000000000578e-01 2.906415000000000148e+01 1.640519999999999925e+02 1.497009999999999991e+03
1.160000000000000059e-01 5.121495000000000353e-01 2.831315000000000026e+01 1.636550000000000011e+02 1.496884999999999991e+03
1.170000000000000068e-01 5.120654999999999513e-01 2.756520000000000081e+01 1.632365000000000066e+02 1.496755000000000109e+03
1.180000000000000077e-01 5.119750000000000689e-01 2.681784999999999997e+01 1.627939999999999827e+02 1.496615000000000009e+03
1.190000000000000085e-01 5.118780000000000552e-01 2.606840000000000046e+01 1.623249999999999886e+02 1.496470000000000027e+03
1.200000000000000094e-01 5.117734999999999923e-01 2.531419999999999959e+01 1.618265000000000100e+02 1.496309999999999945e+03
1.209999999999999964e-01 5.116610000000000325e-01 2.455274999999999963e+01 1.612959999999999923e+02 1.496150000000000091e+03
1.219999999999999973e-01 5.115405000000000646e-01 2.378184999999999860e+01 1.607319999999999993e+02 1.495974999999999909e+03
1.229999999999999982e-01 5.114115000000000189e-01 2.299949999999999761e+01 1.601315000000000168e+02 1.495789999999999964e+03
1.239999999999999991e-01 5.112740000000000062e-01 2.220430000000000348e+01 1.594945000000000164e+02 1.495595000000000027e+03
1.250000000000000000e-01 5.111274999999999569e-01 2.139505000000000123e+01 1.588195000000000050e+02 1.495384999999999991e+03
1.260000000000000009e-01 5.109734999999999694e-01 2.057124999999999915e+01 1.581064999999999827e+02 1.495164999999999964e+03
1.270000000000000018e-01 5.108114999999999739e-01 1.973290000000000077e+01 1.573574999999999875e+02 1.494940000000000055e+03
1.280000000000000027e-01 5.106410000000000116e-01 1.888054999999999950e+01 1.565729999999999791e+02 1.494699999999999818e+03
1.290000000000000036e-01 5.104649999999999466e-01 1.801525000000000176e+01 1.557570000000000050e+02 1.494444999999999936e+03
1.300000000000000044e-01 5.102824999999999722e-01 1.713879999999999981e+01 1.549110000000000014e+02 1.494190000000000055e+03
1.310000000000000053e-01 5.100955000000000350e-01 1.625335000000000107e+01 1.540405000000000086e+02 1.493925000000000182e+03
1.320000000000000062e-01 5.099044999999999828e-01 1.536159499999999944e+01 1.531500000000000057e+02 1.493650000000000091e+03
1.330000000000000071e-01 5.097110000000000252e-01 1.446663500000000013e+01 1.522439999999999998e+02 1.493369999999999891e+03
1.340000000000000080e-01 5.095164999999999278e-01 1.357182999999999851e+01 1.513294999999999959e+02 1.493085000000000036e+03
1.350000000000000089e-01 5.093214999999999826e-01 1.268092499999999845e+01 1.504114999999999895e+02 1.492799999999999955e+03
1.360000000000000098e-01 5.091280000000000250e-01 1.179775499999999866e+01 1.494960000000000093e+02 1.492514999999999873e+03
1.370000000000000107e-01 5.089380000000000015e-01 1.092613000000000056e+01 1.485899999999999750e+02 1.492230000000000018e+03
1.380000000000000115e-01 5.087515000000000231e-01 1.006995500000000021e+01 1.476990000000000123e+02 1.491950000000000045e+03
1.390000000000000124e-01 5.085695000000000077e-01 9.232894999999999186e+00 1.468280000000000030e+02 1.491670000000000073e+03
1.400000000000000133e-01 5.083940000000000126e-01 8.418425000000000935e+00 1.459830000000000041e+02 1.491404999999999973e+03
1.410000000000000142e-01 5.082254999999999967e-01 7.629804999999999282e+00 1.451680000000000064e+02 1.491144999999999982e+03
1.420000000000000151e-01 5.080644999999999190e-01 6.869835000000000136e+00 1.443874999999999886e+02 1.490889999999999873e+03
1.430000000000000160e-01 5.079119999999999191e-01 6.140959999999999752e+00 1.436444999999999936e+02 1.490650000000000091e+03
1.440000000000000169e-01 5.077684999999999560e-01 5.445175000000000765e+00 1.429404999999999859e+02 1.490414999999999964e+03
1.450000000000000178e-01 5.076334999999999598e-01 4.783999999999999808e+00 1.422780000000000200e+02 1.490199999999999818e+03
1.459999999999999909e-01 5.075070000000000414e-01 4.158495000000000275e+00 1.416574999999999989e+02 1.489990000000000009e+03
1.469999999999999918e-01 5.073900000000000077e-01 3.569229499999999611e+00 1.410785000000000196e+02 1.489795000000000073e+03
1.479999999999999927e-01 5.072814999999999408e-01 3.016296500000000158e+00 1.405405000000000086e+02 1.489615000000000009e+03
1.489999999999999936e-01 5.071809999999999929e-01 2.499352000000000018e+00 1.400424999999999898e+02 1.489445000000000164e+03
1.499999999999999944e-01 5.070879999999999832e-01 2.017632349999999963e+00 1.395810000000000173e+02 1.489279999999999973e+03
1.509999999999999953e-01 5.070019999999999527e-01 1.569965500000000125e+00 1.391549999999999727e+02 1.489134999999999991e+03
1.519999999999999962e-01 5.069219999999999837e-01 1.154826000000000130e+00 1.387595000000000027e+02 1.488994999999999891e+03
1.529999999999999971e-01 5.068479999999999652e-01 7.703740000000001142e-01 1.383924999999999841e+02 1.488864999999999782e+03
1.539999999999999980e-01 5.067785000000000206e-01 4.144714999999999372e-01 1.380489999999999782e+02 1.488744999999999891e+03
1.549999999999999989e-01 5.067120000000000513e-01 8.474999999999999201e-02 1.377239999999999895e+02 1.488630000000000109e+03
1.559999999999999998e-01 5.066485000000000571e-01 -2.213534999999999808e-01 1.374150000000000205e+02 1.488525000000000091e+03
1.570000000000000007e-01 5.065870000000000095e-01 -5.065684999999999771e-01 1.371170000000000186e+02 1.488414999999999964e+03
1.580000000000000016e-01 5.065254999999999619e-01 -7.736965000000000092e-01 1.368240000000000123e+02 1.488315000000000055e+03
1.590000000000000024e-01 5.064644999999999841e-01 -1.025596500000000022e+00 1.365330000000000155e+02 1.488215000000000146e+03
