# t [s], A [cm^2], U [cm/s], P [cPa], c [cm/s]
1.000000000000000021e-03 1.666555000000000120e-01 3.809287499999999826e-01 9.587539999999999907e+01 2.094420000000000073e+03
2.000000000000000042e-03 1.666110000000000091e-01 1.945217999999999892e+00 9.237835000000001173e+01 2.094005000000000109e+03
3.000000000000000062e-03 1.664910000000000001e-01 3.839309999999999778e+00 8.768219999999999459e+01 2.092949999999999818e+03
4.000000000000000083e-03 1.663295000000000190e-01 5.954282499999999700e+00 8.276319999999999766e+01 2.091539999999999964e+03
5.000000000000000104e-03 1.661575000000000135e-01 8.206830000000000069e+00 7.851779999999999404e+01 2.090050000000000182e+03
6.000000000000000125e-03 1.659924999999999873e-01 1.039509999999999934e+01 7.511865000000000236e+01 2.088640000000000327e+03
7.000000000000000146e-03 1.658380000000000132e-01 1.231029999999999980e+01 7.221914999999999907e+01 2.087349999999999909e+03
8.000000000000000167e-03 1.656969999999999832e-01 1.390536999999999956e+01 6.961994999999998868e+01 2.086184999999999945e+03
9.000000000000001055e-03 1.655745000000000133e-01 1.523080000000000211e+01 6.741200000000000614e+01 2.085190000000000055e+03
1.000000000000000194e-02 1.654720000000000080e-01 1.631515000000000271e+01 6.564754999999999541e+01 2.084364999999999782e+03
1.099999999999999936e-02 1.653880000000000072e-01 1.716975000000000051e+01 6.427295000000000869e+01 2.083699999999999818e+03
1.200000000000000025e-02 1.653219999999999967e-01 1.780409999999999826e+01 6.320244999999999891e+01 2.083180000000000291e+03
1.300000000000000114e-02 1.652680000000000260e-01 1.822175000000000011e+01 6.231835000000000235e+01 2.082765000000000327e+03
1.400000000000000203e-02 1.652234999999999954e-01 1.845064999999999955e+01 6.153280000000000172e+01 2.082430000000000291e+03
1.499999999999999944e-02 1.651880000000000015e-01 1.858715000000000117e+01 6.093840000000000146e+01 2.082175000000000182e+03
1.600000000000000033e-02 1.651679999999999815e-01 1.878519999999999968e+01 6.085250000000000625e+01 2.082034999999999854e+03
1.700000000000000122e-02 1.651730000000000143e-01 1.918339999999999890e+01 6.164995000000000402e+01 2.082079999999999927e+03
1.800000000000000211e-02 1.652075000000000071e-01 1.982625000000000171e+01 6.350294999999999845e+01 2.082364999999999782e+03
1.900000000000000300e-02 1.652720000000000022e-01 2.063530000000000086e+01 6.622100000000000364e+01 2.082885000000000218e+03
2.000000000000000042e-02 1.653560000000000030e-01 2.144270000000000209e+01 6.928674999999999784e+01 2.083569999999999709e+03
2.100000000000000130e-02 1.654439999999999800e-01 2.206105000000000160e+01 7.204785000000001105e+01 2.084289999999999964e+03
2.200000000000000219e-02 1.655194999999999861e-01 2.235300000000000153e+01 7.395499999999999829e+01 2.084930000000000291e+03
2.299999999999999961e-02 1.655714999999999826e-01 2.227305000000000135e+01 7.473799999999999955e+01 2.085375000000000000e+03
2.400000000000000050e-02 1.655955000000000066e-01 2.186874999999999858e+01 7.445875000000000909e+01 2.085595000000000255e+03
2.500000000000000139e-02 1.655940000000000190e-01 2.124889999999999901e+01 7.343760000000000332e+01 2.085609999999999673e+03
2.600000000000000228e-02 1.655754999999999866e-01 2.053434999999999988e+01 7.209800000000001319e+01 2.085469999999999800e+03
2.700000000000000316e-02 1.655490000000000017e-01 1.981495000000000317e+01 7.080315000000000225e+01 2.085265000000000327e+03
2.800000000000000058e-02 1.655214999999999881e-01 1.912664999999999793e+01 6.974630000000000507e+01 2.085045000000000073e+03
2.900000000000000147e-02 1.654959999999999765e-01 1.845374999999999943e+01 6.892555000000000121e+01 2.084835000000000036e+03
3.000000000000000236e-02 1.654714999999999936e-01 1.775050000000000239e+01 6.819554999999999723e+01 2.084639999999999873e+03
3.099999999999999978e-02 1.654460000000000097e-01 1.697059999999999746e+01 6.736340000000001282e+01 2.084429999999999836e+03
3.200000000000000067e-02 1.654140000000000055e-01 1.609469999999999956e+01 6.628985000000000127e+01 2.084175000000000182e+03
3.300000000000000155e-02 1.653755000000000086e-01 1.514590000000000103e+01 6.496094999999999686e+01 2.083869999999999891e+03
3.400000000000000244e-02 1.653315000000000201e-01 1.419014999999999915e+01 6.351045000000000584e+01 2.083514999999999873e+03
3.500000000000000333e-02 1.652874999999999761e-01 1.332114999999999938e+01 6.218710000000000093e+01 2.083159999999999854e+03
3.600000000000000422e-02 1.652500000000000080e-01 1.263514999999999944e+01 6.128170000000000073e+01 2.082855000000000018e+03
3.700000000000000511e-02 1.652279999999999860e-01 1.220459999999999923e+01 6.103775000000000261e+01 2.082664999999999964e+03
3.799999999999999906e-02 1.652250000000000107e-01 1.205785000000000018e+01 6.157694999999999652e+01 2.082625000000000000e+03
3.899999999999999994e-02 1.652440000000000020e-01 1.217154999999999987e+01 6.285999999999999943e+01 2.082764999999999873e+03
4.000000000000000083e-02 1.652834999999999999e-01 1.247550000000000026e+01 6.469155000000000655e+01 2.083064999999999600e+03
4.100000000000000172e-02 1.653364999999999974e-01 1.286769999999999925e+01 6.676259999999999195e+01 2.083484999999999673e+03
4.200000000000000261e-02 1.653939999999999855e-01 1.323404999999999987e+01 6.871550000000000580e+01 2.083944999999999709e+03
4.300000000000000350e-02 1.654474999999999973e-01 1.346799999999999997e+01 7.021164999999999168e+01 2.084375000000000000e+03
4.400000000000000439e-02 1.654869999999999952e-01 1.348564999999999969e+01 7.098689999999999145e+01 2.084704999999999927e+03
4.499999999999999833e-02 1.655054999999999998e-01 1.323399999999999999e+01 7.088445000000000107e+01 2.084859999999999673e+03
4.599999999999999922e-02 1.654990000000000072e-01 1.269290000000000163e+01 6.986239999999999384e+01 2.084819999999999709e+03
4.700000000000000011e-02 1.654660000000000020e-01 1.187092499999999973e+01 6.797990000000000066e+01 2.084564999999999600e+03
4.800000000000000100e-02 1.654074999999999851e-01 1.079847499999999982e+01 6.536934999999999718e+01 2.084099999999999909e+03
4.900000000000000189e-02 1.653270000000000017e-01 9.519325000000000259e+00 6.220315000000000794e+01 2.083454999999999927e+03
5.000000000000000278e-02 1.652285000000000004e-01 8.083835000000000548e+00 5.866460000000000008e+01 2.082664999999999964e+03
5.100000000000000366e-02 1.651179999999999870e-01 6.543749999999999289e+00 5.492680000000000007e+01 2.081764999999999873e+03
5.200000000000000455e-02 1.649984999999999924e-01 4.950115000000000265e+00 5.114234999999999332e+01 2.080805000000000291e+03
5.300000000000000544e-02 1.648760000000000225e-01 3.352274500000000046e+00 4.744174999999999898e+01 2.079804999999999836e+03
5.399999999999999939e-02 1.647544999999999982e-01 1.798709999999999809e+00 4.393810000000000571e+01 2.078819999999999709e+03
5.500000000000000028e-02 1.646384999999999932e-01 3.376099999999999657e-01 4.073375000000000057e+01 2.077869999999999891e+03
5.600000000000000117e-02 1.645300000000000096e-01 -9.829399999999999249e-01 3.792584999999999695e+01 2.076989999999999782e+03
5.700000000000000205e-02 1.644339999999999968e-01 -2.115666500000000116e+00 3.560899999999999466e+01 2.076199999999999818e+03
5.800000000000000294e-02 1.643529999999999991e-01 -3.015889999999999738e+00 3.387349999999999994e+01 2.075529999999999745e+03
5.900000000000000383e-02 1.642915000000000070e-01 -3.643944999999999990e+00 3.280069999999999908e+01 2.075015000000000327e+03
6.000000000000000472e-02 1.642509999999999803e-01 -3.967964999999999964e+00 3.245604999999999762e+01 2.074670000000000073e+03
6.099999999999999867e-02 1.642335000000000045e-01 -3.966419999999999835e+00 3.288195000000000334e+01 2.074514999999999873e+03
6.199999999999999956e-02 1.642419999999999991e-01 -3.629995000000000083e+00 3.409184999999999377e+01 2.074555000000000291e+03
6.300000000000000044e-02 1.642750000000000044e-01 -2.962570000000000370e+00 3.606685000000000230e+01 2.074805000000000291e+03
6.400000000000000133e-02 1.643334999999999935e-01 -1.981027999999999789e+00 3.875605000000000189e+01 2.075260000000000218e+03
6.500000000000000222e-02 1.644154999999999922e-01 -7.141699999999999715e-01 4.207904999999999518e+01 2.075905000000000200e+03
6.600000000000000311e-02 1.645185000000000120e-01 7.992849999999998012e-01 4.593205000000000382e+01 2.076725000000000364e+03
6.700000000000000400e-02 1.646400000000000086e-01 2.513175000000000381e+00 5.019514999999999816e+01 2.077690000000000055e+03
6.800000000000000488e-02 1.647760000000000058e-01 4.376746500000000317e+00 5.474004999999999654e+01 2.078779999999999745e+03
6.900000000000000577e-02 1.649220000000000130e-01 6.337514999999999787e+00 5.943880000000000052e+01 2.079960000000000036e+03
7.000000000000000666e-02 1.650745000000000129e-01 8.344034999999999869e+00 6.417090000000000316e+01 2.081199999999999818e+03
7.100000000000000755e-02 1.652305000000000024e-01 1.034861000000000075e+01 6.882990000000000919e+01 2.082465000000000146e+03
7.200000000000000844e-02 1.653855000000000186e-01 1.230931999999999960e+01 7.332885000000000275e+01 2.083730000000000018e+03
7.300000000000000933e-02 1.655375000000000041e-01 1.419175000000000075e+01 7.760355000000001269e+01 2.084980000000000018e+03
7.399999999999999634e-02 1.656829999999999969e-01 1.597039999999999971e+01 8.161490000000000578e+01 2.086175000000000182e+03
7.499999999999999722e-02 1.658224999999999838e-01 1.762880000000000180e+01 8.534850000000000136e+01 2.087324999999999818e+03
7.599999999999999811e-02 1.659539999999999904e-01 1.915980000000000061e+01 8.881295000000000073e+01 2.088414999999999964e+03
7.699999999999999900e-02 1.660774999999999890e-01 2.056409999999999982e+01 9.203634999999999877e+01 2.089444999999999709e+03
7.799999999999999989e-02 1.661944999999999950e-01 2.184944999999999737e+01 9.506139999999999191e+01 2.090414999999999964e+03
7.900000000000000078e-02 1.663054999999999950e-01 2.302884999999999849e+01 9.794004999999999939e+01 2.091340000000000146e+03
8.000000000000000167e-02 1.664120000000000044e-01 2.411820000000000164e+01 1.007267999999999972e+02 2.092230000000000018e+03
8.100000000000000255e-02 1.665159999999999973e-01 2.513469999999999871e+01 1.034733999999999980e+02 2.093099999999999909e+03
8.200000000000000344e-02 1.666179999999999883e-01 2.609494999999999720e+01 1.062259999999999991e+02 2.093954999999999927e+03
8.300000000000000433e-02 1.667199999999999793e-01 2.701350000000000051e+01 1.090174999999999983e+02 2.094809999999999945e+03
8.400000000000000522e-02 1.668229999999999991e-01 2.790140000000000242e+01 1.118700000000000045e+02 2.095664999999999964e+03
8.500000000000000611e-02 1.669275000000000064e-01 2.876595000000000013e+01 1.147895000000000039e+02 2.096534999999999854e+03
8.600000000000000699e-02 1.670335000000000014e-01 2.960979999999999990e+01 1.177700000000000102e+02 2.097420000000000073e+03
8.700000000000000788e-02 1.671404999999999974e-01 3.043140000000000001e+01 1.207909999999999968e+02 2.098315000000000055e+03
8.800000000000000877e-02 1.672489999999999810e-01 3.122500000000000142e+01 1.238224999999999909e+02 2.099219999999999800e+03
8.899999999999999578e-02 1.673574999999999924e-01 3.198154999999999859e+01 1.268260000000000076e+02 2.100125000000000000e+03
8.999999999999999667e-02 1.674645000000000161e-01 3.268909999999999627e+01 1.297574999999999932e+02 2.101015000000000327e+03
9.099999999999999756e-02 1.675689999999999957e-01 3.333389999999999986e+01 1.325709999999999980e+02 2.101894999999999982e+03
9.199999999999999845e-02 1.676694999999999991e-01 3.390144999999999698e+01 1.352189999999999941e+02 2.102729999999999563e+03
9.299999999999999933e-02 1.677644999999999831e-01 3.437699999999999534e+01 1.376574999999999989e+02 2.103529999999999745e+03
9.400000000000000022e-02 1.678525000000000156e-01 3.474685000000000201e+01 1.398474999999999966e+02 2.104269999999999982e+03
9.500000000000000111e-02 1.679325000000000123e-01 3.499889999999999901e+01 1.417555000000000121e+02 2.104944999999999709e+03
9.600000000000000200e-02 1.680030000000000134e-01 3.512354999999999450e+01 1.433550000000000182e+02 2.105539999999999964e+03
9.700000000000000289e-02 1.680635000000000046e-01 3.511415000000000219e+01 1.446305000000000121e+02 2.106059999999999945e+03
9.800000000000000377e-02 1.681134999999999990e-01 3.496755000000000280e+01 1.455745000000000005e+02 2.106485000000000127e+03
9.900000000000000466e-02 1.681524999999999825e-01 3.468439999999999657e+01 1.461895000000000095e+02 2.106815000000000055e+03
1.000000000000000056e-01 1.681805000000000105e-01 3.426910000000000167e+01 1.464890000000000043e+02 2.107059999999999945e+03
1.010000000000000064e-01 1.681974999999999998e-01 3.372984999999999900e+01 1.464935000000000116e+02 2.107215000000000146e+03
1.020000000000000073e-01 1.682049999999999934e-01 3.307809999999999917e+01 1.462330000000000041e+02 2.107279999999999745e+03
1.030000000000000082e-01 1.682029999999999914e-01 3.232835000000000036e+01 1.457429999999999950e+02 2.107275000000000091e+03
1.040000000000000091e-01 1.681929999999999814e-01 3.149709999999999965e+01 1.450635000000000048e+02 2.107204999999999927e+03
1.050000000000000100e-01 1.681765000000000065e-01 3.060264999999999702e+01 1.442375000000000114e+02 2.107074999999999818e+03
1.059999999999999970e-01 1.681539999999999979e-01 2.966379999999999839e+01 1.433089999999999975e+02 2.106894999999999982e+03
1.069999999999999979e-01 1.681279999999999997e-01 2.869919999999999760e+01 1.423195000000000050e+02 2.106684999999999945e+03
1.079999999999999988e-01 1.680989999999999984e-01 2.772684999999999889e+01 1.413070000000000164e+02 2.106444999999999709e+03
1.089999999999999997e-01 1.680685000000000096e-01 2.676299999999999812e+01 1.403070000000000164e+02 2.106194999999999709e+03
1.100000000000000006e-01 1.680369999999999919e-01 2.582184999999999775e+01 1.393464999999999918e+02 2.105934999999999945e+03
1.110000000000000014e-01 1.680065000000000031e-01 2.491495000000000104e+01 1.384480000000000075e+02 2.105684999999999945e+03
1.120000000000000023e-01 1.679780000000000162e-01 2.405089999999999861e+01 1.376239999999999952e+02 2.105439999999999600e+03
1.130000000000000032e-01 1.679505000000000026e-01 2.323525000000000063e+01 1.368814999999999884e+02 2.105210000000000036e+03
1.140000000000000041e-01 1.679255000000000053e-01 2.247019999999999840e+01 1.362194999999999823e+02 2.104994999999999891e+03
1.150000000000000050e-01 1.679019999999999957e-01 2.175509999999999877e+01 1.356299999999999955e+02 2.104800000000000182e+03
1.160000000000000059e-01 1.678815000000000168e-01 2.108634999999999948e+01 1.350985000000000014e+02 2.104619999999999891e+03
1.170000000000000068e-01 1.678620000000000112e-01 2.045805000000000007e+01 1.346075000000000159e+02 2.104454999999999927e+03
1.180000000000000077e-01 1.678434999999999788e-01 1.986204999999999998e+01 1.341329999999999814e+02 2.104295000000000073e+03
1.190000000000000085e-01 1.678250000000000020e-01 1.928924999999999912e+01 1.336514999999999986e+02 2.104144999999999982e+03
1.200000000000000094e-01 1.678069999999999840e-01 1.872925000000000040e+01 1.331365000000000123e+02 2.103989999999999782e+03
1.209999999999999964e-01 1.677875000000000061e-01 1.817174999999999940e+01 1.325629999999999882e+02 2.103824999999999818e+03
1.219999999999999973e-01 1.677659999999999985e-01 1.760679999999999978e+01 1.319095000000000084e+02 2.103640000000000327e+03
1.229999999999999982e-01 1.677420000000000022e-01 1.702555000000000263e+01 1.311550000000000011e+02 2.103439999999999600e+03
1.239999999999999991e-01 1.677144999999999886e-01 1.642050000000000054e+01 1.302870000000000061e+02 2.103215000000000146e+03
1.250000000000000000e-01 1.676839999999999997e-01 1.578650000000000020e+01 1.292955000000000041e+02 2.102954999999999927e+03
1.260000000000000009e-01 1.676495000000000068e-01 1.512044999999999995e+01 1.281784999999999854e+02 2.102670000000000073e+03
1.270000000000000018e-01 1.676104999999999956e-01 1.442194999999999894e+01 1.269395000000000095e+02 2.102345000000000255e+03
1.280000000000000027e-01 1.675679999999999947e-01 1.369324999999999903e+01 1.255900000000000034e+02 2.101994999999999891e+03
1.290000000000000036e-01 1.675220000000000042e-01 1.293904999999999994e+01 1.241460000000000008e+02 2.101614999999999782e+03
1.300000000000000044e-01 1.674724999999999964e-01 1.216661000000000037e+01 1.226299999999999955e+02 2.101204999999999927e+03
1.310000000000000053e-01 1.674209999999999865e-01 1.138489500000000021e+01 1.210685000000000002e+02 2.100774999999999636e+03
1.320000000000000062e-01 1.673679999999999890e-01 1.060457500000000053e+01 1.194915000000000020e+02 2.100335000000000036e+03
1.330000000000000071e-01 1.673135000000000039e-01 9.837324999999999875e+00 1.179290000000000020e+02 2.099890000000000327e+03
1.340000000000000080e-01 1.672600000000000198e-01 9.095164999999999722e+00 1.164134999999999991e+02 2.099440000000000055e+03
1.350000000000000089e-01 1.672080000000000233e-01 8.389839999999999520e+00 1.149735000000000014e+02 2.099005000000000109e+03
1.360000000000000098e-01 1.671580000000000010e-01 7.732445000000000235e+00 1.136374999999999886e+02 2.098590000000000146e+03
1.370000000000000107e-01 1.671114999999999962e-01 7.132744999999999891e+00 1.124260000000000019e+02 2.098194999999999709e+03
1.380000000000000115e-01 1.670685000000000087e-01 6.598779999999999646e+00 1.113590000000000089e+02 2.097840000000000146e+03
1.390000000000000124e-01 1.670300000000000118e-01 6.136569999999999858e+00 1.104480000000000075e+02 2.097515000000000327e+03
1.400000000000000133e-01 1.669964999999999922e-01 5.749909999999999854e+00 1.096989999999999981e+02 2.097230000000000018e+03
1.410000000000000142e-01 1.669680000000000053e-01 5.440294999999999881e+00 1.091140000000000043e+02 2.096994999999999891e+03
1.420000000000000151e-01 1.669450000000000101e-01 5.206929999999999836e+00 1.086875000000000000e+02 2.096795000000000073e+03
1.430000000000000160e-01 1.669275000000000064e-01 5.046924999999999883e+00 1.084104999999999990e+02 2.096644999999999982e+03
1.440000000000000169e-01 1.669145000000000212e-01 4.955474999999999852e+00 1.082690000000000055e+02 2.096529999999999745e+03
1.450000000000000178e-01 1.669059999999999988e-01 4.926180000000000447e+00 1.082464999999999975e+02 2.096454999999999927e+03
1.459999999999999909e-01 1.669019999999999948e-01 4.951380000000000337e+00 1.083245000000000005e+02 2.096414999999999964e+03
1.469999999999999918e-01 1.669014999999999804e-01 5.022515000000000285e+00 1.084809999999999945e+02 2.096405000000000200e+03
1.479999999999999927e-01 1.669034999999999824e-01 5.130514999999999937e+00 1.086970000000000027e+02 2.096414999999999964e+03
1.489999999999999936e-01 1.669080000000000008e-01 5.266144999999999854e+00 1.089505000000000052e+02 2.096449999999999818e+03
1.499999999999999944e-01 1.669140000000000068e-01 5.420334999999999681e+00 1.092245000000000061e+02 2.096494999999999891e+03
1.509999999999999953e-01 1.669209999999999861e-01 5.584490000000000620e+00 1.095000000000000000e+02 2.096545000000000073e+03
1.519999999999999962e-01 1.669284999999999797e-01 5.750754999999999839e+00 1.097620000000000005e+02 2.096605000000000018e+03
1.529999999999999971e-01 1.669355000000000144e-01 5.912209999999999965e+00 1.099979999999999905e+02 2.096664999999999964e+03
1.539999999999999980e-01 1.669420000000000071e-01 6.063050000000000495e+00 1.101995000000000005e+02 2.096725000000000364e+03
1.549999999999999989e-01 1.669479999999999853e-01 6.198679999999999524e+00 1.103575000000000017e+02 2.096769999999999982e+03
1.559999999999999998e-01 1.669530000000000181e-01 6.315780000000000172e+00 1.104699999999999989e+02 2.096809999999999945e+03
1.570000000000000007e-01 1.669565000000000077e-01 6.412290000000000489e+00 1.105349999999999966e+02 2.096840000000000146e+03
1.580000000000000016e-01 1.669585000000000097e-01 6.487370000000000303e+00 1.105544999999999902e+02 2.096854999999999563e+03
1.590000000000000024e-01 1.669589999999999963e-01 6.541285000000000238e+00 1.105314999999999941e+02 2.096864999999999782e+03
