# t [s], A [cm^2], U [cm/s], P [cPa], c [cm/s]
1.000000000000000021e-03 1.921585000000000099e-01 4.120996500000000395e-01 9.541140000000000043e+01 2.014319999999999936e+03
2.000000000000000042e-03 1.921029999999999960e-01 2.053078500000000250e+00 9.187449999999999761e+01 2.013865000000000009e+03
3.000000000000000062e-03 1.919540000000000135e-01 4.028476999999999641e+00 8.714889999999999759e+01 2.012679999999999836e+03
4.000000000000000083e-03 1.917524999999999924e-01 6.229212500000000041e+00 8.221925000000000239e+01 2.011105000000000018e+03
5.000000000000000104e-03 1.915385000000000004e-01 8.570574999999999832e+00 7.797799999999999443e+01 2.009440000000000055e+03
6.000000000000000125e-03 1.913330000000000031e-01 1.084638499999999972e+01 7.458735000000000070e+01 2.007865000000000009e+03
7.000000000000000146e-03 1.911410000000000053e-01 1.284458000000000055e+01 7.169899999999999807e+01 2.006420000000000073e+03
8.000000000000000167e-03 1.909655000000000102e-01 1.451514500000000041e+01 6.910444999999999993e+01 2.005119999999999891e+03
9.000000000000001055e-03 1.908114999999999950e-01 1.590960000000000107e+01 6.688609999999999900e+01 2.004000000000000000e+03
1.000000000000000194e-02 1.906825000000000048e-01 1.705845000000000056e+01 6.509560000000000457e+01 2.003059999999999945e+03
1.099999999999999936e-02 1.905759999999999954e-01 1.797494999999999976e+01 6.368264999999999532e+01 2.002305000000000064e+03
1.200000000000000025e-02 1.904909999999999937e-01 1.867445000000000022e+01 6.257755000000000223e+01 2.001704999999999927e+03
1.300000000000000114e-02 1.904224999999999945e-01 1.916394999999999982e+01 6.168269999999999698e+01 2.001230000000000018e+03
1.400000000000000203e-02 1.903659999999999797e-01 1.946289999999999765e+01 6.090170000000000528e+01 2.000849999999999909e+03
1.499999999999999944e-02 1.903205000000000036e-01 1.965180000000000149e+01 6.028009999999999735e+01 2.000545000000000073e+03
1.600000000000000033e-02 1.902919999999999889e-01 1.987720000000000198e+01 6.008774999999999977e+01 2.000365000000000009e+03
1.700000000000000122e-02 1.902905000000000013e-01 2.028869999999999862e+01 6.069834999999999781e+01 2.000369999999999891e+03
1.800000000000000211e-02 1.903259999999999952e-01 2.095439999999999969e+01 6.233814999999999884e+01 2.000625000000000000e+03
1.900000000000000300e-02 1.903980000000000117e-01 2.181680000000000064e+01 6.489345000000000141e+01 2.001150000000000091e+03
2.000000000000000042e-02 1.904974999999999863e-01 2.271309999999999718e+01 6.790004999999999313e+01 2.001875000000000000e+03
2.100000000000000130e-02 1.906054999999999833e-01 2.344134999999999991e+01 7.070525000000000659e+01 2.002664999999999964e+03
2.200000000000000219e-02 1.907010000000000094e-01 2.383639999999999759e+01 7.270560000000000400e+01 2.003380000000000109e+03
2.299999999999999961e-02 1.907679999999999931e-01 2.382325000000000159e+01 7.354869999999999663e+01 2.003894999999999982e+03
2.400000000000000050e-02 1.907975000000000088e-01 2.343169999999999931e+01 7.322450000000000614e+01 2.004144999999999982e+03
2.500000000000000139e-02 1.907924999999999760e-01 2.277080000000000126e+01 7.202375000000000682e+01 2.004134999999999991e+03
2.600000000000000228e-02 1.907615000000000005e-01 2.198085000000000022e+01 7.039719999999999800e+01 2.003929999999999836e+03
2.700000000000000316e-02 1.907179999999999986e-01 2.118270000000000053e+01 6.878184999999999150e+01 2.003625000000000000e+03
2.800000000000000058e-02 1.906734999999999958e-01 2.044395000000000095e+01 6.746425000000000693e+01 2.003299999999999955e+03
2.900000000000000147e-02 1.906339999999999979e-01 1.977155000000000129e+01 6.652209999999999468e+01 2.003009999999999991e+03
3.000000000000000236e-02 1.906015000000000070e-01 1.912614999999999910e+01 6.584969999999999857e+01 2.002769999999999982e+03
3.099999999999999978e-02 1.905720000000000192e-01 1.845114999999999839e+01 6.524110000000000298e+01 2.002554999999999836e+03
3.200000000000000067e-02 1.905415000000000025e-01 1.770224999999999937e+01 6.449394999999999811e+01 2.002329999999999927e+03
3.300000000000000155e-02 1.905040000000000067e-01 1.687115000000000009e+01 6.349840000000000373e+01 2.002065000000000055e+03
3.400000000000000244e-02 1.904589999999999894e-01 1.599425000000000097e+01 6.228614999999999924e+01 2.001744999999999891e+03
3.500000000000000333e-02 1.904100000000000237e-01 1.514664999999999928e+01 6.102740000000000009e+01 2.001389999999999873e+03
3.600000000000000422e-02 1.903635000000000188e-01 1.442229999999999990e+01 5.998134999999999906e+01 2.001050000000000182e+03
3.700000000000000511e-02 1.903279999999999972e-01 1.390859999999999985e+01 5.941709999999999781e+01 2.000784999999999854e+03
3.799999999999999906e-02 1.903120000000000089e-01 1.366150000000000020e+01 5.953140000000000498e+01 2.000654999999999973e+03
3.899999999999999994e-02 1.903209999999999902e-01 1.369000000000000128e+01 6.038790000000000191e+01 2.000704999999999927e+03
4.000000000000000083e-02 1.903549999999999964e-01 1.395214999999999961e+01 6.189395000000000380e+01 2.000940000000000055e+03
4.100000000000000172e-02 1.904109999999999969e-01 1.436335000000000051e+01 6.381725000000000136e+01 2.001325000000000045e+03
4.200000000000000261e-02 1.904790000000000094e-01 1.481259999999999977e+01 6.583379999999999654e+01 2.001809999999999945e+03
4.300000000000000350e-02 1.905485000000000095e-01 1.518270000000000053e+01 6.759154999999999802e+01 2.002309999999999945e+03
4.400000000000000439e-02 1.906074999999999853e-01 1.536834999999999951e+01 6.877304999999999779e+01 2.002740000000000009e+03
4.499999999999999833e-02 1.906450000000000089e-01 1.529020000000000046e+01 6.914379999999999882e+01 2.003030000000000200e+03
4.599999999999999922e-02 1.906545000000000045e-01 1.490230000000000032e+01 6.857880000000000109e+01 2.003105000000000018e+03
4.700000000000000011e-02 1.906289999999999929e-01 1.419265000000000043e+01 6.706585000000001173e+01 2.002934999999999945e+03
4.800000000000000100e-02 1.905704999999999760e-01 1.317900000000000027e+01 6.468984999999999275e+01 2.002514999999999873e+03
4.900000000000000189e-02 1.904784999999999950e-01 1.190128500000000145e+01 6.160444999999999993e+01 2.001865000000000009e+03
5.000000000000000278e-02 1.903600000000000014e-01 1.041372499999999945e+01 5.800059999999999860e+01 2.001009999999999991e+03
5.100000000000000366e-02 1.902205000000000146e-01 8.777139999999999276e+00 5.407845000000000368e+01 2.000005000000000109e+03
5.200000000000000455e-02 1.900669999999999860e-01 7.054040000000000532e+00 5.002674999999999983e+01 1.998889999999999873e+03
5.300000000000000544e-02 1.899055000000000049e-01 5.305310000000000414e+00 4.601295000000000357e+01 1.997715000000000146e+03
5.399999999999999939e-02 1.897429999999999950e-01 3.589275000000000215e+00 4.218035000000000423e+01 1.996535000000000082e+03
5.500000000000000028e-02 1.895855000000000179e-01 1.961539999999999839e+00 3.865174999999999983e+01 1.995384999999999991e+03
5.600000000000000117e-02 1.894379999999999953e-01 4.752449999999999175e-01 3.553444999999999965e+01 1.994299999999999955e+03
5.700000000000000205e-02 1.893055000000000154e-01 -8.190699999999999648e-01 3.292524999999999835e+01 1.993329999999999927e+03
5.800000000000000294e-02 1.891919999999999991e-01 -1.874316000000000093e+00 3.091230000000000189e+01 1.992494999999999891e+03
5.900000000000000383e-02 1.891019999999999923e-01 -2.648482500000000073e+00 2.957400000000000162e+01 1.991825000000000045e+03
6.000000000000000472e-02 1.890390000000000126e-01 -3.106899999999999551e+00 2.897480000000000189e+01 1.991349999999999909e+03
6.099999999999999867e-02 1.890054999999999930e-01 -3.224599999999999689e+00 2.915959999999999752e+01 1.991090000000000146e+03
6.199999999999999956e-02 1.890040000000000053e-01 -2.988449999999999829e+00 3.014789999999999992e+01 1.991050000000000182e+03
6.300000000000000044e-02 1.890344999999999942e-01 -2.398575000000000124e+00 3.192954999999999899e+01 1.991255000000000109e+03
6.400000000000000133e-02 1.890985000000000027e-01 -1.468734500000000054e+00 3.446240000000000236e+01 1.991684999999999945e+03
6.500000000000000222e-02 1.891924999999999857e-01 -2.256299999999999972e-01 3.767434999999999690e+01 1.992349999999999909e+03
6.600000000000000311e-02 1.893150000000000110e-01 1.292755000000000098e+00 4.146705000000000041e+01 1.993220000000000027e+03
6.700000000000000400e-02 1.894624999999999782e-01 3.039616000000000096e+00 4.572259999999999991e+01 1.994269999999999982e+03
6.800000000000000488e-02 1.896295000000000064e-01 4.962186000000000874e+00 5.031154999999999688e+01 1.995474999999999909e+03
6.900000000000000577e-02 1.898124999999999951e-01 7.004755000000000287e+00 5.510110000000000241e+01 1.996795000000000073e+03
7.000000000000000666e-02 1.900054999999999938e-01 9.111520000000000508e+00 5.996280000000000143e+01 1.998200000000000045e+03
7.100000000000000755e-02 1.902039999999999842e-01 1.122934000000000054e+01 6.477930000000000632e+01 1.999639999999999873e+03
7.200000000000000844e-02 1.904029999999999889e-01 1.330990500000000054e+01 6.944950000000000045e+01 2.001095000000000027e+03
7.300000000000000933e-02 1.905985000000000040e-01 1.531169999999999831e+01 7.389270000000000493e+01 2.002535000000000082e+03
7.399999999999999634e-02 1.907869999999999844e-01 1.720145000000000124e+01 7.805100000000000193e+01 2.003924999999999955e+03
7.499999999999999722e-02 1.909664999999999835e-01 1.895504999999999995e+01 8.189055000000000462e+01 2.005250000000000000e+03
7.599999999999999811e-02 1.911344999999999850e-01 2.055825000000000102e+01 8.540170000000000528e+01 2.006494999999999891e+03
7.699999999999999900e-02 1.912909999999999888e-01 2.200634999999999764e+01 8.859725000000000250e+01 2.007664999999999964e+03
7.799999999999999989e-02 1.914359999999999951e-01 2.330384999999999707e+01 9.151015000000001010e+01 2.008744999999999891e+03
7.900000000000000078e-02 1.915705000000000047e-01 2.446269999999999811e+01 9.418914999999999793e+01 2.009755000000000109e+03
8.000000000000000167e-02 1.916955000000000187e-01 2.550155000000000172e+01 9.669454999999999245e+01 2.010694999999999936e+03
8.100000000000000255e-02 1.918144999999999989e-01 2.644275000000000020e+01 9.909159999999999968e+01 2.011585000000000036e+03
8.200000000000000344e-02 1.919285000000000019e-01 2.731119999999999948e+01 1.014474500000000035e+02 2.012444999999999936e+03
8.300000000000000433e-02 1.920405000000000029e-01 2.813134999999999764e+01 1.038220000000000027e+02 2.013289999999999964e+03
8.400000000000000522e-02 1.921525000000000039e-01 2.892580000000000240e+01 1.062665000000000077e+02 2.014134999999999991e+03
8.500000000000000611e-02 1.922670000000000212e-01 2.971345000000000169e+01 1.088195000000000050e+02 2.014990000000000009e+03
8.600000000000000699e-02 1.923850000000000005e-01 3.050805000000000078e+01 1.115020000000000095e+02 2.015869999999999891e+03
8.700000000000000788e-02 1.925069999999999837e-01 3.131745000000000090e+01 1.143195000000000050e+02 2.016785000000000082e+03
8.800000000000000877e-02 1.926339999999999997e-01 3.214354999999999762e+01 1.172599999999999909e+02 2.017735000000000127e+03
8.899999999999999578e-02 1.927645000000000053e-01 3.298219999999999885e+01 1.202965000000000089e+02 2.018715000000000146e+03
8.999999999999999667e-02 1.928989999999999871e-01 3.382354999999999734e+01 1.233894999999999982e+02 2.019724999999999909e+03
9.099999999999999756e-02 1.930350000000000121e-01 3.465344999999999942e+01 1.264885000000000019e+02 2.020735000000000127e+03
9.199999999999999845e-02 1.931709999999999816e-01 3.545430000000000348e+01 1.295389999999999873e+02 2.021759999999999991e+03
9.299999999999999933e-02 1.933050000000000046e-01 3.620629999999999882e+01 1.324814999999999827e+02 2.022764999999999873e+03
9.400000000000000022e-02 1.934345000000000092e-01 3.688884999999999792e+01 1.352574999999999932e+02 2.023735000000000127e+03
9.500000000000000111e-02 1.935574999999999934e-01 3.748170000000000357e+01 1.378149999999999977e+02 2.024659999999999854e+03
9.600000000000000200e-02 1.936714999999999964e-01 3.796625000000000227e+01 1.401069999999999993e+02 2.025519999999999982e+03
9.700000000000000289e-02 1.937750000000000028e-01 3.832670000000000243e+01 1.420930000000000177e+02 2.026305000000000064e+03
9.800000000000000377e-02 1.938654999999999962e-01 3.855034999999999457e+01 1.437470000000000141e+02 2.026994999999999891e+03
9.900000000000000466e-02 1.939434999999999909e-01 3.862879999999999825e+01 1.450509999999999877e+02 2.027590000000000146e+03
1.000000000000000056e-01 1.940069999999999850e-01 3.855805000000000149e+01 1.460004999999999882e+02 2.028074999999999818e+03
1.010000000000000064e-01 1.940560000000000063e-01 3.833854999999999791e+01 1.466005000000000109e+02 2.028460000000000036e+03
1.020000000000000073e-01 1.940904999999999991e-01 3.797554999999999836e+01 1.468679999999999950e+02 2.028730000000000018e+03
1.030000000000000082e-01 1.941114999999999924e-01 3.747839999999999350e+01 1.468290000000000077e+02 2.028894999999999982e+03
1.040000000000000091e-01 1.941195000000000004e-01 3.686019999999999897e+01 1.465174999999999841e+02 2.028965000000000146e+03
1.050000000000000100e-01 1.941154999999999964e-01 3.613729999999999620e+01 1.459739999999999895e+02 2.028950000000000045e+03
1.059999999999999970e-01 1.941009999999999958e-01 3.532835000000000036e+01 1.452429999999999950e+02 2.028855000000000018e+03
1.069999999999999979e-01 1.940784999999999871e-01 3.445359999999999445e+01 1.443709999999999809e+02 2.028695000000000164e+03
1.079999999999999988e-01 1.940500000000000003e-01 3.353390000000000271e+01 1.434044999999999845e+02 2.028485000000000127e+03
1.089999999999999997e-01 1.940155000000000074e-01 3.258995000000000175e+01 1.423894999999999982e+02 2.028234999999999900e+03
1.100000000000000006e-01 1.939784999999999981e-01 3.164135000000000275e+01 1.413665000000000020e+02 2.027960000000000036e+03
1.110000000000000014e-01 1.939404999999999879e-01 3.070599999999999952e+01 1.403725000000000023e+02 2.027680000000000064e+03
1.120000000000000023e-01 1.939020000000000188e-01 2.979930000000000234e+01 1.394364999999999952e+02 2.027390000000000100e+03
1.130000000000000032e-01 1.938650000000000095e-01 2.893379999999999797e+01 1.385815000000000055e+02 2.027114999999999782e+03
1.140000000000000041e-01 1.938305000000000167e-01 2.811874999999999858e+01 1.378220000000000027e+02 2.026849999999999909e+03
1.150000000000000050e-01 1.937989999999999990e-01 2.735989999999999966e+01 1.371655000000000086e+02 2.026615000000000009e+03
1.160000000000000059e-01 1.937710000000000266e-01 2.665940000000000154e+01 1.366100000000000136e+02 2.026400000000000091e+03
1.170000000000000068e-01 1.937464999999999882e-01 2.601620000000000132e+01 1.361474999999999795e+02 2.026210000000000036e+03
1.180000000000000077e-01 1.937254999999999949e-01 2.542585000000000051e+01 1.357615000000000123e+02 2.026045000000000073e+03
1.190000000000000085e-01 1.937069999999999903e-01 2.488115000000000165e+01 1.354329999999999927e+02 2.025905000000000200e+03
1.200000000000000094e-01 1.936900000000000011e-01 2.437290000000000134e+01 1.351360000000000241e+02 2.025775000000000091e+03
1.209999999999999964e-01 1.936749999999999861e-01 2.388985000000000269e+01 1.348425000000000011e+02 2.025654999999999973e+03
1.219999999999999973e-01 1.936594999999999844e-01 2.342000000000000171e+01 1.345240000000000009e+02 2.025534999999999854e+03
1.229999999999999982e-01 1.936435000000000239e-01 2.295094999999999885e+01 1.341510000000000105e+02 2.025414999999999964e+03
1.239999999999999991e-01 1.936249999999999916e-01 2.247060000000000102e+01 1.336974999999999909e+02 2.025275000000000091e+03
1.250000000000000000e-01 1.936039999999999983e-01 2.196799999999999997e+01 1.331405000000000030e+02 2.025110000000000127e+03
1.260000000000000009e-01 1.935784999999999867e-01 2.143374999999999986e+01 1.324600000000000080e+02 2.024920000000000073e+03
1.270000000000000018e-01 1.935479999999999978e-01 2.086050000000000182e+01 1.316440000000000055e+02 2.024690000000000055e+03
1.280000000000000027e-01 1.935125000000000040e-01 2.024360000000000070e+01 1.306854999999999905e+02 2.024425000000000182e+03
1.290000000000000036e-01 1.934714999999999907e-01 1.958120000000000260e+01 1.295859999999999843e+02 2.024119999999999891e+03
1.300000000000000044e-01 1.934244999999999992e-01 1.887434999999999974e+01 1.283520000000000039e+02 2.023775000000000091e+03
1.310000000000000053e-01 1.933725000000000027e-01 1.812715000000000032e+01 1.269985000000000070e+02 2.023384999999999991e+03
1.320000000000000062e-01 1.933159999999999878e-01 1.734619999999999962e+01 1.255459999999999923e+02 2.022960000000000036e+03
1.330000000000000071e-01 1.932550000000000101e-01 1.654079999999999728e+01 1.240210000000000008e+02 2.022505000000000109e+03
1.340000000000000080e-01 1.931904999999999872e-01 1.572209999999999930e+01 1.224525000000000006e+02 2.022030000000000200e+03
1.350000000000000089e-01 1.931245000000000045e-01 1.490244999999999997e+01 1.208729999999999905e+02 2.021534999999999854e+03
1.360000000000000098e-01 1.930574999999999930e-01 1.409550000000000125e+01 1.193160000000000025e+02 2.021039999999999964e+03
1.370000000000000107e-01 1.929909999999999959e-01 1.331465000000000032e+01 1.178135000000000048e+02 2.020539999999999964e+03
1.380000000000000115e-01 1.929270000000000151e-01 1.257310000000000016e+01 1.163969999999999914e+02 2.020059999999999945e+03
1.390000000000000124e-01 1.928660000000000097e-01 1.188277000000000072e+01 1.150944999999999965e+02 2.019599999999999909e+03
1.400000000000000133e-01 1.928084999999999938e-01 1.125437499999999957e+01 1.139275000000000091e+02 2.019174999999999955e+03
1.410000000000000142e-01 1.927570000000000117e-01 1.069640499999999861e+01 1.129145000000000039e+02 2.018784999999999854e+03
1.420000000000000151e-01 1.927115000000000078e-01 1.021513500000000008e+01 1.120674999999999955e+02 2.018440000000000055e+03
1.430000000000000160e-01 1.926720000000000099e-01 9.814489999999999270e+00 1.113924999999999983e+02 2.018139999999999873e+03
1.440000000000000169e-01 1.926400000000000057e-01 9.495715000000000572e+00 1.108889999999999958e+02 2.017894999999999982e+03
1.450000000000000178e-01 1.926144999999999941e-01 9.257670000000000954e+00 1.105525000000000091e+02 2.017700000000000045e+03
1.459999999999999909e-01 1.925959999999999894e-01 9.096894999999999953e+00 1.103714999999999975e+02 2.017550000000000182e+03
1.469999999999999918e-01 1.925840000000000052e-01 9.007964999999998668e+00 1.103310000000000031e+02 2.017454999999999927e+03
1.479999999999999927e-01 1.925769999999999982e-01 8.983584999999999710e+00 1.104124999999999943e+02 2.017400000000000091e+03
1.489999999999999936e-01 1.925764999999999838e-01 9.015184999999998894e+00 1.105965000000000060e+02 2.017384999999999991e+03
1.499999999999999944e-01 1.925800000000000012e-01 9.093230000000000146e+00 1.108599999999999994e+02 2.017404999999999973e+03
1.509999999999999953e-01 1.925864999999999938e-01 9.207644999999999413e+00 1.111804999999999950e+02 2.017450000000000045e+03
1.519999999999999962e-01 1.925970000000000182e-01 9.348175000000001234e+00 1.115370000000000061e+02 2.017519999999999982e+03
1.529999999999999971e-01 1.926085000000000158e-01 9.504820000000000491e+00 1.119074999999999989e+02 2.017605000000000018e+03
1.539999999999999980e-01 1.926215000000000011e-01 9.668099999999999028e+00 1.122729999999999961e+02 2.017699999999999818e+03
1.549999999999999989e-01 1.926344999999999863e-01 9.829420000000000712e+00 1.126175000000000068e+02 2.017789999999999964e+03
1.559999999999999998e-01 1.926470000000000127e-01 9.981135000000000090e+00 1.129274999999999949e+02 2.017884999999999991e+03
1.570000000000000007e-01 1.926589999999999969e-01 1.011708499999999944e+01 1.131910000000000025e+02 2.017974999999999909e+03
1.580000000000000016e-01 1.926689999999999792e-01 1.023220000000000063e+01 1.134020000000000010e+02 2.018049999999999955e+03
1.590000000000000024e-01 1.926775000000000015e-01 1.032299499999999881e+01 1.135550000000000068e+02 2.018110000000000127e+03
