# t [s], A [cm^2], U [cm/s], P [cPa], c [cm/s]
1.000000000000000021e-03 4.655650000000000066e-01 3.153700000000002335e-03 9.900239999999999441e+01 1.440965000000000146e+03
2.000000000000000042e-03 4.655595000000000150e-01 2.025650000000000367e-04 9.898855000000000359e+01 1.440960000000000036e+03
3.000000000000000062e-03 4.655795000000000350e-01 3.982890000000000041e-02 9.902340000000000941e+01 1.440969999999999800e+03
4.000000000000000083e-03 4.656190000000000051e-01 1.192531000000000008e-01 9.911670000000000869e+01 1.441000000000000000e+03
5.000000000000000104e-03 4.656325000000000047e-01 1.504290000000000072e-01 9.915930000000000177e+01 1.441019999999999982e+03
6.000000000000000125e-03 4.656124999999999847e-01 1.125518499999999950e-01 9.910035000000000593e+01 1.441005000000000109e+03
7.000000000000000146e-03 4.655810000000000226e-01 5.047799999999999510e-02 9.897169999999999845e+01 1.440974999999999909e+03
8.000000000000000167e-03 4.655525000000000357e-01 -1.015649999999995723e-02 9.880549999999999500e+01 1.440929999999999836e+03
9.000000000000001055e-03 4.655095000000000205e-01 -1.050560000000000382e-01 9.856945000000000334e+01 1.440869999999999891e+03
1.000000000000000194e-02 4.654384999999999772e-01 -2.671459999999999946e-01 9.821770000000000778e+01 1.440769999999999982e+03
1.099999999999999936e-02 4.653340000000000254e-01 -5.055449999999999111e-01 9.772020000000000550e+01 1.440634999999999991e+03
1.200000000000000025e-02 4.651890000000000192e-01 -8.294199999999999351e-01 9.704519999999999413e+01 1.440449999999999818e+03
1.300000000000000114e-02 4.649965000000000348e-01 -1.246834999999999916e+00 9.615925000000000011e+01 1.440195000000000164e+03
1.400000000000000203e-02 4.647580000000000044e-01 -1.740869999999999695e+00 9.505575000000000330e+01 1.439875000000000000e+03
1.499999999999999944e-02 4.644915000000000016e-01 -2.258339999999999570e+00 9.377510000000000900e+01 1.439490000000000009e+03
1.600000000000000033e-02 4.642215000000000091e-01 -2.724254999999999871e+00 9.239740000000000464e+01 1.439059999999999945e+03
1.700000000000000122e-02 4.639725000000000099e-01 -3.068759999999999710e+00 9.101390000000000668e+01 1.438619999999999891e+03
1.800000000000000211e-02 4.637560000000000016e-01 -3.248022999999999882e+00 8.969839999999999236e+01 1.438184999999999945e+03
1.900000000000000300e-02 4.635719999999999841e-01 -3.251422499999999882e+00 8.848969999999999914e+01 1.437755000000000109e+03
2.000000000000000042e-02 4.634099999999999886e-01 -3.096813500000000108e+00 8.738909999999999911e+01 1.437349999999999909e+03
2.100000000000000130e-02 4.632564999999999600e-01 -2.819405000000000161e+00 8.636910000000000309e+01 1.436960000000000036e+03
2.200000000000000219e-02 4.630954999999999933e-01 -2.459094499999999961e+00 8.538654999999999973e+01 1.436575000000000045e+03
2.299999999999999961e-02 4.629164999999999530e-01 -2.049679999999999946e+00 8.439740000000000464e+01 1.436190000000000055e+03
2.400000000000000050e-02 4.627164999999999750e-01 -1.612054999999999794e+00 8.336920000000000641e+01 1.435784999999999854e+03
2.500000000000000139e-02 4.624960000000000182e-01 -1.152300000000000102e+00 8.228739999999999100e+01 1.435369999999999891e+03
2.600000000000000228e-02 4.622600000000000042e-01 -6.648199999999999665e-01 8.115604999999999336e+01 1.434934999999999945e+03
2.700000000000000316e-02 4.620180000000000398e-01 -1.387700000000000600e-01 7.999224999999999852e+01 1.434490000000000009e+03
2.800000000000000058e-02 4.617749999999999910e-01 4.345049999999996970e-01 7.881770000000000209e+01 1.434045000000000073e+03
2.900000000000000147e-02 4.615360000000000573e-01 1.055355000000000043e+00 7.764955000000000496e+01 1.433595000000000027e+03
3.000000000000000236e-02 4.612975000000000270e-01 1.712660000000000071e+00 7.649384999999999479e+01 1.433144999999999982e+03
3.099999999999999978e-02 4.610575000000000090e-01 2.383894999999999875e+00 7.534264999999999191e+01 1.432699999999999818e+03
3.200000000000000067e-02 4.608054999999999790e-01 3.038134999999999586e+00 7.417459999999999809e+01 1.432244999999999891e+03
3.300000000000000155e-02 4.605350000000000277e-01 3.640884999999999483e+00 7.295969999999999800e+01 1.431779999999999973e+03
3.400000000000000244e-02 4.602370000000000072e-01 4.159885000000000055e+00 7.166544999999999277e+01 1.431289999999999964e+03
3.500000000000000333e-02 4.599064999999999959e-01 4.570465000000000444e+00 7.026460000000000150e+01 1.430775000000000091e+03
3.600000000000000422e-02 4.595440000000000635e-01 4.859799999999999898e+00 6.874180000000001201e+01 1.430230000000000018e+03
3.700000000000000511e-02 4.591520000000000046e-01 5.028805000000000192e+00 6.709839999999999804e+01 1.429650000000000091e+03
3.799999999999999906e-02 4.587394999999999667e-01 5.091590000000000060e+00 6.535434999999999661e+01 1.429039999999999964e+03
3.899999999999999994e-02 4.583185000000000175e-01 5.073014999999999830e+00 6.354670000000000130e+01 1.428414999999999964e+03
4.000000000000000083e-02 4.579020000000000312e-01 5.004349999999999632e+00 6.172540000000000049e+01 1.427780000000000200e+03
4.100000000000000172e-02 4.575034999999999519e-01 4.919100000000000250e+00 5.994789999999999708e+01 1.427154999999999973e+03
4.200000000000000261e-02 4.571349999999999580e-01 4.848774999999999835e+00 5.827270000000000039e+01 1.426559999999999945e+03
4.300000000000000350e-02 4.568075000000000330e-01 4.820514999999999439e+00 5.675469999999999970e+01 1.426005000000000109e+03
4.400000000000000439e-02 4.565289999999999626e-01 4.855319999999999858e+00 5.544095000000000084e+01 1.425519999999999982e+03
4.499999999999999833e-02 4.563045000000000018e-01 4.968186000000000213e+00 5.436875000000000568e+01 1.425099999999999909e+03
4.599999999999999922e-02 4.561374999999999735e-01 5.168905500000000153e+00 5.356499999999999773e+01 1.424764999999999873e+03
4.700000000000000011e-02 4.560300000000000464e-01 5.463325000000000209e+00 5.304710000000000036e+01 1.424525000000000091e+03
4.800000000000000100e-02 4.559829999999999717e-01 5.855080000000000062e+00 5.282444999999999879e+01 1.424375000000000000e+03
4.900000000000000189e-02 4.559960000000000124e-01 6.346824999999999939e+00 5.290070000000000050e+01 1.424329999999999927e+03
5.000000000000000278e-02 4.560699999999999754e-01 6.941175000000000317e+00 5.327519999999999811e+01 1.424384999999999991e+03
5.100000000000000366e-02 4.562030000000000252e-01 7.641049999999999898e+00 5.394490000000000407e+01 1.424545000000000073e+03
5.200000000000000455e-02 4.563964999999999828e-01 8.449424999999999741e+00 5.490489999999999782e+01 1.424799999999999955e+03
5.300000000000000544e-02 4.566479999999999984e-01 9.368714999999999904e+00 5.614889999999999759e+01 1.425159999999999854e+03
5.399999999999999939e-02 4.569564999999999877e-01 1.039987999999999957e+01 5.766859999999999786e+01 1.425615000000000009e+03
5.500000000000000028e-02 4.573209999999999775e-01 1.154167999999999950e+01 5.945319999999999538e+01 1.426164999999999964e+03
5.600000000000000117e-02 4.577369999999999495e-01 1.278983999999999988e+01 6.148875000000000313e+01 1.426799999999999955e+03
5.700000000000000205e-02 4.582019999999999982e-01 1.413701000000000008e+01 6.375764999999999816e+01 1.427525000000000091e+03
5.800000000000000294e-02 4.587094999999999922e-01 1.557268499999999989e+01 6.623860000000000525e+01 1.428329999999999927e+03
5.900000000000000383e-02 4.592539999999999956e-01 1.708374999999999844e+01 6.890694999999999482e+01 1.429199999999999818e+03
6.000000000000000472e-02 4.598304999999999754e-01 1.865490000000000137e+01 7.173520000000000607e+01 1.430139999999999873e+03
6.099999999999999867e-02 4.604319999999999524e-01 2.026999999999999957e+01 7.469440000000000168e+01 1.431130000000000109e+03
6.199999999999999956e-02 4.610520000000000174e-01 2.191244999999999976e+01 7.775504999999999711e+01 1.432164999999999964e+03
6.300000000000000044e-02 4.616850000000000120e-01 2.356629999999999825e+01 8.088854999999999507e+01 1.433235000000000127e+03
6.400000000000000133e-02 4.623264999999999736e-01 2.521705000000000041e+01 8.406815000000000282e+01 1.434329999999999927e+03
6.500000000000000222e-02 4.629714999999999803e-01 2.685184999999999889e+01 8.727025000000000432e+01 1.435445000000000164e+03
6.600000000000000311e-02 4.636164999999999869e-01 2.846004999999999896e+01 9.047534999999999172e+01 1.436570000000000164e+03
6.700000000000000400e-02 4.642585000000000184e-01 3.003320000000000078e+01 9.366685000000001082e+01 1.437700000000000045e+03
6.800000000000000488e-02 4.648970000000000047e-01 3.156490000000000151e+01 9.683369999999999322e+01 1.438835000000000036e+03
6.900000000000000577e-02 4.655295000000000405e-01 3.305055000000000121e+01 9.996750000000000114e+01 1.439954999999999927e+03
7.000000000000000666e-02 4.661570000000000435e-01 3.448725000000000307e+01 1.030642500000000013e+02 1.441079999999999927e+03
7.100000000000000755e-02 4.667784999999999851e-01 3.587324999999999875e+01 1.061217499999999916e+02 1.442194999999999936e+03
7.200000000000000844e-02 4.673939999999999761e-01 3.720770000000000266e+01 1.091411499999999961e+02 1.443295000000000073e+03
7.300000000000000933e-02 4.680044999999999900e-01 3.849014999999999986e+01 1.121239999999999952e+02 1.444389999999999873e+03
7.399999999999999634e-02 4.686099999999999710e-01 3.972050000000000125e+01 1.150724999999999909e+02 1.445474999999999909e+03
7.499999999999999722e-02 4.692115000000000036e-01 4.089849999999999852e+01 1.179900000000000091e+02 1.446554999999999836e+03
7.599999999999999811e-02 4.698090000000000321e-01 4.202365000000000350e+01 1.208764999999999930e+02 1.447625000000000000e+03
7.699999999999999900e-02 4.704009999999999581e-01 4.309499999999999886e+01 1.237344999999999970e+02 1.448690000000000055e+03
7.799999999999999989e-02 4.709884999999999766e-01 4.411110000000000042e+01 1.265620000000000118e+02 1.449740000000000009e+03
7.900000000000000078e-02 4.715695000000000303e-01 4.506990000000000407e+01 1.293555000000000064e+02 1.450784999999999854e+03
8.000000000000000167e-02 4.721434999999999937e-01 4.596885000000000332e+01 1.321109999999999900e+02 1.451819999999999936e+03
8.100000000000000255e-02 4.727084999999999759e-01 4.680485000000000184e+01 1.348224999999999909e+02 1.452839999999999918e+03
8.200000000000000344e-02 4.732629999999999892e-01 4.757455000000000211e+01 1.374809999999999945e+02 1.453840000000000146e+03
8.300000000000000433e-02 4.738044999999999618e-01 4.827429999999999666e+01 1.400780000000000030e+02 1.454820000000000164e+03
8.400000000000000522e-02 4.743309999999999471e-01 4.890075000000000216e+01 1.426030000000000086e+02 1.455784999999999854e+03
8.500000000000000611e-02 4.748404999999999987e-01 4.945029999999999859e+01 1.450459999999999923e+02 1.456720000000000027e+03
8.600000000000000699e-02 4.753315000000000179e-01 4.992010000000000502e+01 1.473960000000000150e+02 1.457625000000000000e+03
8.700000000000000788e-02 4.758000000000000007e-01 5.030754999999999910e+01 1.496434999999999889e+02 1.458490000000000009e+03
8.800000000000000877e-02 4.762460000000000582e-01 5.061064999999999969e+01 1.517789999999999964e+02 1.459324999999999818e+03
8.899999999999999578e-02 4.766684999999999950e-01 5.082840000000000202e+01 1.537944999999999993e+02 1.460119999999999891e+03
8.999999999999999667e-02 4.770645000000000024e-01 5.096014999999999873e+01 1.556835000000000093e+02 1.460865000000000009e+03
9.099999999999999756e-02 4.774340000000000250e-01 5.100629999999999598e+01 1.574410000000000025e+02 1.461570000000000164e+03
9.199999999999999845e-02 4.777760000000000340e-01 5.096804999999999808e+01 1.590629999999999882e+02 1.462230000000000018e+03
9.299999999999999933e-02 4.780915000000000026e-01 5.084730000000000416e+01 1.605489999999999782e+02 1.462839999999999918e+03
9.400000000000000022e-02 4.783785000000000398e-01 5.064679999999999893e+01 1.618975000000000080e+02 1.463394999999999982e+03
9.500000000000000111e-02 4.786394999999999955e-01 5.036999999999999744e+01 1.631109999999999900e+02 1.463904999999999973e+03
9.600000000000000200e-02 4.788729999999999931e-01 5.002114999999999867e+01 1.641924999999999955e+02 1.464369999999999891e+03
9.700000000000000289e-02 4.790820000000000078e-01 4.960510000000000019e+01 1.651460000000000150e+02 1.464779999999999973e+03
9.800000000000000377e-02 4.792669999999999986e-01 4.912744999999999607e+01 1.659789999999999850e+02 1.465150000000000091e+03
9.900000000000000466e-02 4.794285000000000352e-01 4.859420000000000073e+01 1.666979999999999791e+02 1.465474999999999909e+03
1.000000000000000056e-01 4.795694999999999819e-01 4.801194999999999879e+01 1.673120000000000118e+02 1.465755000000000109e+03
1.010000000000000064e-01 4.796915000000000484e-01 4.738755000000000450e+01 1.678285000000000196e+02 1.466005000000000109e+03
1.020000000000000073e-01 4.797960000000000003e-01 4.672809999999999775e+01 1.682584999999999980e+02 1.466215000000000146e+03
1.030000000000000082e-01 4.798854999999999649e-01 4.604075000000000273e+01 1.686129999999999995e+02 1.466394999999999982e+03
1.040000000000000091e-01 4.799619999999999997e-01 4.533254999999999768e+01 1.689005000000000223e+02 1.466539999999999964e+03
1.050000000000000100e-01 4.800269999999999815e-01 4.461019999999999897e+01 1.691324999999999932e+02 1.466670000000000073e+03
1.059999999999999970e-01 4.800825000000000231e-01 4.388015000000000043e+01 1.693185000000000002e+02 1.466775000000000091e+03
1.069999999999999979e-01 4.801309999999999745e-01 4.314789999999999992e+01 1.694664999999999964e+02 1.466859999999999900e+03
1.079999999999999988e-01 4.801725000000000021e-01 4.241835000000000377e+01 1.695844999999999914e+02 1.466934999999999945e+03
1.089999999999999997e-01 4.802089999999999970e-01 4.169549999999999557e+01 1.696790000000000020e+02 1.466990000000000009e+03
1.100000000000000006e-01 4.802410000000000290e-01 4.098229999999999507e+01 1.697560000000000002e+02 1.467034999999999854e+03
1.110000000000000014e-01 4.802699999999999747e-01 4.028085000000000093e+01 1.698174999999999955e+02 1.467075000000000045e+03
1.120000000000000023e-01 4.802944999999999576e-01 3.959199999999999875e+01 1.698665000000000020e+02 1.467110000000000127e+03
1.130000000000000032e-01 4.803160000000000207e-01 3.891589999999999350e+01 1.699029999999999916e+02 1.467130000000000109e+03
1.140000000000000041e-01 4.803335000000000243e-01 3.825175000000000125e+01 1.699259999999999877e+02 1.467150000000000091e+03
1.150000000000000050e-01 4.803465000000000096e-01 3.759799999999999898e+01 1.699334999999999809e+02 1.467159999999999854e+03
1.160000000000000059e-01 4.803534999999999888e-01 3.695250000000000057e+01 1.699220000000000255e+02 1.467159999999999854e+03
1.170000000000000068e-01 4.803554999999999908e-01 3.631284999999999741e+01 1.698890000000000100e+02 1.467154999999999973e+03
1.180000000000000077e-01 4.803499999999999992e-01 3.567614999999999981e+01 1.698285000000000196e+02 1.467140000000000100e+03
1.190000000000000085e-01 4.803370000000000140e-01 3.503974999999999795e+01 1.697370000000000232e+02 1.467110000000000127e+03
1.200000000000000094e-01 4.803160000000000207e-01 3.440070000000000050e+01 1.696109999999999900e+02 1.467074999999999818e+03
1.209999999999999964e-01 4.802855000000000318e-01 3.375654999999999717e+01 1.694454999999999814e+02 1.467019999999999982e+03
1.219999999999999973e-01 4.802454999999999918e-01 3.310515000000000185e+01 1.692379999999999995e+02 1.466950000000000045e+03
1.229999999999999982e-01 4.801954999999999973e-01 3.244460000000000122e+01 1.689864999999999782e+02 1.466869999999999891e+03
1.239999999999999991e-01 4.801360000000000072e-01 3.177369999999999806e+01 1.686889999999999930e+02 1.466769999999999982e+03
1.250000000000000000e-01 4.800659999999999927e-01 3.109169999999999590e+01 1.683454999999999870e+02 1.466654999999999973e+03
1.260000000000000009e-01 4.799865000000000381e-01 3.039849999999999852e+01 1.679574999999999818e+02 1.466525000000000091e+03
1.270000000000000018e-01 4.798985000000000056e-01 2.969460000000000122e+01 1.675264999999999986e+02 1.466380000000000109e+03
1.280000000000000027e-01 4.798014999999999919e-01 2.898104999999999976e+01 1.670550000000000068e+02 1.466220000000000027e+03
1.290000000000000036e-01 4.796974999999999989e-01 2.825955000000000084e+01 1.665475000000000136e+02 1.466039999999999964e+03
1.300000000000000044e-01 4.795880000000000143e-01 2.753224999999999767e+01 1.660084999999999980e+02 1.465855000000000018e+03
1.310000000000000053e-01 4.794724999999999682e-01 2.680189999999999984e+01 1.654445000000000050e+02 1.465659999999999854e+03
1.320000000000000062e-01 4.793534999999999879e-01 2.607140000000000057e+01 1.648609999999999900e+02 1.465454999999999927e+03
1.330000000000000071e-01 4.792325000000000057e-01 2.534420000000000073e+01 1.642644999999999982e+02 1.465250000000000000e+03
1.340000000000000080e-01 4.791109999999999536e-01 2.462375000000000114e+01 1.636624999999999943e+02 1.465034999999999854e+03
1.350000000000000089e-01 4.789895000000000125e-01 2.391389999999999816e+01 1.630615000000000236e+02 1.464815000000000055e+03
1.360000000000000098e-01 4.788704999999999767e-01 2.321825000000000117e+01 1.624685000000000059e+02 1.464605000000000018e+03
1.370000000000000107e-01 4.787545000000000273e-01 2.254044999999999987e+01 1.618904999999999745e+02 1.464389999999999873e+03
1.380000000000000115e-01 4.786434999999999995e-01 2.188400000000000034e+01 1.613335000000000150e+02 1.464184999999999945e+03
1.390000000000000124e-01 4.785380000000000189e-01 2.125205000000000055e+01 1.608029999999999973e+02 1.463985000000000127e+03
1.400000000000000133e-01 4.784394999999999620e-01 2.064744999999999919e+01 1.603039999999999736e+02 1.463799999999999955e+03
1.410000000000000142e-01 4.783485000000000098e-01 2.007264999999999944e+01 1.598404999999999916e+02 1.463619999999999891e+03
1.420000000000000151e-01 4.782655000000000101e-01 1.952959999999999852e+01 1.594155000000000086e+02 1.463454999999999927e+03
1.430000000000000160e-01 4.781904999999999628e-01 1.901980000000000004e+01 1.590319999999999823e+02 1.463299999999999955e+03
1.440000000000000169e-01 4.781244999999999523e-01 1.854415000000000191e+01 1.586915000000000191e+02 1.463164999999999964e+03
1.450000000000000178e-01 4.780670000000000197e-01 1.810300000000000153e+01 1.583930000000000007e+02 1.463039999999999964e+03
1.459999999999999909e-01 4.780180000000000540e-01 1.769624999999999915e+01 1.581370000000000005e+02 1.462929999999999836e+03
1.469999999999999918e-01 4.779769999999999852e-01 1.732325000000000159e+01 1.579215000000000089e+02 1.462839999999999918e+03
1.479999999999999927e-01 4.779435000000000211e-01 1.698295000000000243e+01 1.577450000000000045e+02 1.462755000000000109e+03
1.489999999999999936e-01 4.779169999999999807e-01 1.667379999999999995e+01 1.576039999999999850e+02 1.462684999999999945e+03
1.499999999999999944e-01 4.778965000000000019e-01 1.639410000000000167e+01 1.574950000000000045e+02 1.462630000000000109e+03
1.509999999999999953e-01 4.778820000000000290e-01 1.614164999999999850e+01 1.574150000000000205e+02 1.462579999999999927e+03
1.519999999999999962e-01 4.778719999999999635e-01 1.591430000000000078e+01 1.573589999999999804e+02 1.462549999999999955e+03
1.529999999999999971e-01 4.778654999999999986e-01 1.570974999999999966e+01 1.573240000000000123e+02 1.462519999999999982e+03
1.539999999999999980e-01 4.778615000000000501e-01 1.552554999999999907e+01 1.573054999999999950e+02 1.462500000000000000e+03
1.549999999999999989e-01 4.778605000000000214e-01 1.535930000000000106e+01 1.572994999999999948e+02 1.462485000000000127e+03
1.559999999999999998e-01 4.778609999999999802e-01 1.520894999999999797e+01 1.573034999999999854e+02 1.462474999999999909e+03
1.570000000000000007e-01 4.778620000000000090e-01 1.507225000000000037e+01 1.573129999999999882e+02 1.462469999999999800e+03
1.580000000000000016e-01 4.778644999999999698e-01 1.494729999999999848e+01 1.573260000000000218e+02 1.462464999999999918e+03
1.590000000000000024e-01 4.778660000000000130e-01 1.483235000000000170e+01 1.573400000000000034e+02 1.462460000000000036e+03
