# t [s], A [cm^2], U [cm/s], P [cPa], c [cm/s]
1.000000000000000021e-03 1.821789999999999798e-01 3.522571500000000189e-01 1.018820000000000050e+02 2.197525000000000091e+03
2.000000000000000042e-03 1.821264999999999967e-01 1.945761499999999922e+00 9.820599999999998886e+01 2.197060000000000400e+03
3.000000000000000062e-03 1.819925000000000015e-01 3.907715000000000050e+00 9.313974999999999227e+01 2.195904999999999745e+03
4.000000000000000083e-03 1.818120000000000014e-01 6.117427499999999796e+00 8.776435000000000741e+01 2.194389999999999873e+03
5.000000000000000104e-03 1.816225000000000200e-01 8.478854999999999364e+00 8.308625000000000682e+01 2.192805000000000291e+03
6.000000000000000125e-03 1.814425000000000066e-01 1.076439999999999841e+01 7.930545000000000755e+01 2.191315000000000055e+03
7.000000000000000146e-03 1.812750000000000195e-01 1.274445000000000050e+01 7.604615000000001146e+01 2.189960000000000036e+03
8.000000000000000167e-03 1.811234999999999928e-01 1.437735999999999947e+01 7.313085000000000946e+01 2.188755000000000109e+03
9.000000000000001055e-03 1.809930000000000150e-01 1.571880000000000166e+01 7.068160000000000309e+01 2.187734999999999673e+03
1.000000000000000194e-02 1.808859999999999912e-01 1.679850000000000065e+01 6.874869999999999948e+01 2.186900000000000091e+03
1.099999999999999936e-02 1.808005000000000029e-01 1.763220000000000098e+01 6.727405000000000257e+01 2.186250000000000000e+03
1.200000000000000025e-02 1.807334999999999914e-01 1.822814999999999941e+01 6.615030000000000143e+01 2.185744999999999891e+03
1.300000000000000114e-02 1.806804999999999939e-01 1.858790000000000120e+01 6.521980000000000643e+01 2.185355000000000018e+03
1.400000000000000203e-02 1.806369999999999920e-01 1.875760000000000005e+01 6.440155000000000030e+01 2.185039999999999964e+03
1.499999999999999944e-02 1.806050000000000155e-01 1.887209999999999965e+01 6.387954999999999472e+01 2.184819999999999709e+03
1.600000000000000033e-02 1.805944999999999911e-01 1.911534999999999940e+01 6.408270000000000266e+01 2.184750000000000000e+03
1.700000000000000122e-02 1.806150000000000255e-01 1.961849999999999739e+01 6.540869999999999607e+01 2.184920000000000073e+03
1.800000000000000211e-02 1.806719999999999993e-01 2.037904999999999944e+01 6.791445000000000221e+01 2.185359999999999673e+03
1.900000000000000300e-02 1.807580000000000020e-01 2.125704999999999956e+01 7.120289999999999964e+01 2.186034999999999854e+03
2.000000000000000042e-02 1.808575000000000044e-01 2.204014999999999702e+01 7.456180000000000518e+01 2.186824999999999818e+03
2.100000000000000130e-02 1.809510000000000007e-01 2.253484999999999872e+01 7.724864999999999782e+01 2.187574999999999818e+03
2.200000000000000219e-02 1.810215000000000019e-01 2.263734999999999786e+01 7.876675000000000182e+01 2.188154999999999745e+03
2.299999999999999961e-02 1.810605000000000131e-01 2.235945000000000249e+01 7.901319999999999766e+01 2.188494999999999891e+03
2.400000000000000050e-02 1.810689999999999800e-01 2.180434999999999945e+01 7.825485000000000468e+01 2.188590000000000146e+03
2.500000000000000139e-02 1.810555000000000081e-01 2.111159999999999926e+01 7.696604999999999563e+01 2.188500000000000000e+03
2.600000000000000228e-02 1.810300000000000242e-01 2.039864999999999995e+01 7.561645000000000039e+01 2.188310000000000400e+03
2.700000000000000316e-02 1.810025000000000106e-01 1.972234999999999872e+01 7.450000000000000000e+01 2.188095000000000255e+03
2.800000000000000058e-02 1.809775000000000134e-01 1.907280000000000086e+01 7.366684999999999661e+01 2.187899999999999636e+03
2.900000000000000147e-02 1.809540000000000037e-01 1.839495000000000147e+01 7.296264999999999645e+01 2.187715000000000146e+03
3.000000000000000236e-02 1.809284999999999921e-01 1.762500000000000000e+01 7.214260000000000161e+01 2.187514999999999873e+03
3.099999999999999978e-02 1.808954999999999869e-01 1.672785000000000011e+01 7.100614999999999100e+01 2.187260000000000218e+03
3.200000000000000067e-02 1.808529999999999860e-01 1.572085000000000043e+01 6.950419999999999732e+01 2.186930000000000291e+03
3.300000000000000155e-02 1.808020000000000183e-01 1.467779999999999951e+01 6.778170000000000073e+01 2.186534999999999854e+03
3.400000000000000244e-02 1.807489999999999930e-01 1.371175000000000033e+01 6.614520000000000266e+01 2.186119999999999891e+03
3.500000000000000333e-02 1.807040000000000035e-01 1.294235000000000113e+01 6.496790000000000020e+01 2.185765000000000327e+03
3.600000000000000422e-02 1.806760000000000033e-01 1.246110000000000007e+01 6.457070000000000221e+01 2.185534999999999854e+03
3.700000000000000511e-02 1.806730000000000003e-01 1.230505000000000138e+01 6.511894999999999811e+01 2.185489999999999782e+03
3.799999999999999906e-02 1.806959999999999955e-01 1.244684999999999953e+01 6.657009999999999650e+01 2.185649999999999636e+03
3.899999999999999994e-02 1.807429999999999870e-01 1.280209999999999937e+01 6.868189999999999884e+01 2.186005000000000109e+03
4.000000000000000083e-02 1.808060000000000223e-01 1.324990000000000023e+01 7.107159999999998945e+01 2.186480000000000018e+03
4.100000000000000172e-02 1.808730000000000060e-01 1.365840000000000032e+01 7.330379999999999541e+01 2.187010000000000218e+03
4.200000000000000261e-02 1.809330000000000105e-01 1.390885000000000105e+01 7.497905000000000086e+01 2.187480000000000018e+03
4.300000000000000350e-02 1.809760000000000257e-01 1.391329999999999956e+01 7.580180000000000007e+01 2.187824999999999818e+03
4.400000000000000439e-02 1.809925000000000006e-01 1.362265000000000015e+01 7.561719999999999686e+01 2.187970000000000255e+03
4.499999999999999833e-02 1.809810000000000030e-01 1.302609999999999957e+01 7.441200000000000614e+01 2.187889999999999873e+03
4.599999999999999922e-02 1.809395000000000031e-01 1.214385500000000029e+01 7.228929999999999723e+01 2.187579999999999927e+03
4.700000000000000011e-02 1.808714999999999906e-01 1.101693500000000014e+01 6.942680000000000007e+01 2.187050000000000182e+03
4.800000000000000100e-02 1.807809999999999973e-01 9.696595000000000297e+00 6.603320000000000789e+01 2.186349999999999909e+03
4.900000000000000189e-02 1.806734999999999869e-01 8.236799999999998789e+00 6.231334999999999980e+01 2.185514999999999873e+03
5.000000000000000278e-02 1.805549999999999933e-01 6.689569999999999794e+00 5.844719999999999516e+01 2.184579999999999927e+03
5.100000000000000366e-02 1.804304999999999937e-01 5.104110000000000369e+00 5.458350000000000080e+01 2.183600000000000364e+03
5.200000000000000455e-02 1.803045000000000064e-01 3.527804500000000232e+00 5.084515000000000384e+01 2.182609999999999673e+03
5.300000000000000544e-02 1.801814999999999944e-01 2.008215000000000305e+00 4.733955000000000268e+01 2.181640000000000327e+03
5.399999999999999939e-02 1.800649999999999751e-01 5.944000000000000394e-01 4.416929999999999978e+01 2.180719999999999800e+03
5.500000000000000028e-02 1.799589999999999801e-01 -6.629450000000001175e-01 4.143914999999999793e+01 2.179875000000000000e+03
5.600000000000000117e-02 1.798675000000000135e-01 -1.712972999999999857e+00 3.925679999999999836e+01 2.179145000000000437e+03
5.700000000000000205e-02 1.797944999999999960e-01 -2.507495000000000029e+00 3.772804999999999609e+01 2.178555000000000291e+03
5.800000000000000294e-02 1.797424999999999995e-01 -3.004604999999999748e+00 3.694745000000000346e+01 2.178125000000000000e+03
5.900000000000000383e-02 1.797150000000000136e-01 -3.172334999999999905e+00 3.698770000000000380e+01 2.177889999999999873e+03
6.000000000000000472e-02 1.797144999999999992e-01 -2.991694999999999993e+00 3.789000000000000057e+01 2.177864999999999782e+03
6.099999999999999867e-02 1.797420000000000129e-01 -2.458515000000000228e+00 3.965724999999999767e+01 2.178055000000000291e+03
6.199999999999999956e-02 1.797980000000000134e-01 -1.583919999999999995e+00 4.225220000000000198e+01 2.178470000000000255e+03
6.300000000000000044e-02 1.798804999999999987e-01 -3.934550000000001102e-01 4.559914999999999452e+01 2.179099999999999909e+03
6.400000000000000133e-02 1.799874999999999947e-01 1.074940000000000007e+00 4.959040000000000248e+01 2.179925000000000182e+03
6.500000000000000222e-02 1.801154999999999839e-01 2.773746500000000115e+00 5.409470000000000312e+01 2.180914999999999964e+03
6.600000000000000311e-02 1.802610000000000046e-01 4.649132499999999446e+00 5.896755000000000280e+01 2.182050000000000182e+03
6.700000000000000400e-02 1.804195000000000104e-01 6.644439999999999458e+00 6.406140000000000612e+01 2.183284999999999854e+03
6.800000000000000488e-02 1.805859999999999965e-01 8.703485000000000582e+00 6.923545000000000016e+01 2.184590000000000146e+03
6.900000000000000577e-02 1.807555000000000134e-01 1.077394999999999925e+01 7.436480000000000246e+01 2.185939999999999600e+03
7.000000000000000666e-02 1.809260000000000035e-01 1.280989500000000092e+01 7.934694999999999254e+01 2.187284999999999854e+03
7.100000000000000755e-02 1.810930000000000040e-01 1.477390000000000114e+01 8.410710000000000264e+01 2.188614999999999782e+03
7.200000000000000844e-02 1.812544999999999851e-01 1.663854999999999862e+01 8.860020000000000095e+01 2.189900000000000091e+03
7.300000000000000933e-02 1.814080000000000137e-01 1.838654999999999973e+01 9.281104999999999450e+01 2.191139999999999873e+03
7.399999999999999634e-02 1.815549999999999942e-01 2.001075000000000159e+01 9.675090000000000146e+01 2.192309999999999945e+03
7.499999999999999722e-02 1.816935000000000078e-01 2.151234999999999786e+01 1.004531499999999937e+02 2.193430000000000291e+03
7.599999999999999811e-02 1.818255000000000010e-01 2.289959999999999951e+01 1.039652499999999975e+02 2.194500000000000000e+03
7.699999999999999900e-02 1.819520000000000026e-01 2.418524999999999991e+01 1.073430000000000035e+02 2.195519999999999982e+03
7.799999999999999989e-02 1.820749999999999869e-01 2.538445000000000107e+01 1.106424999999999983e+02 2.196515000000000327e+03
7.900000000000000078e-02 1.821955000000000102e-01 2.651245000000000118e+01 1.139124999999999943e+02 2.197489999999999782e+03
8.000000000000000167e-02 1.823144999999999905e-01 2.758310000000000173e+01 1.171914999999999907e+02 2.198460000000000036e+03
8.100000000000000255e-02 1.824344999999999994e-01 2.860705000000000098e+01 1.205045000000000073e+02 2.199425000000000182e+03
8.200000000000000344e-02 1.825545000000000084e-01 2.959140000000000015e+01 1.238599999999999994e+02 2.200394999999999982e+03
8.300000000000000433e-02 1.826749999999999763e-01 3.053889999999999816e+01 1.272524999999999977e+02 2.201375000000000000e+03
8.400000000000000522e-02 1.827969999999999873e-01 3.144819999999999993e+01 1.306614999999999895e+02 2.202355000000000018e+03
8.500000000000000611e-02 1.829185000000000116e-01 3.231390000000000384e+01 1.340570000000000164e+02 2.203345000000000255e+03
8.600000000000000699e-02 1.830390000000000073e-01 3.312744999999999607e+01 1.373985000000000127e+02 2.204319999999999709e+03
8.700000000000000788e-02 1.831575000000000009e-01 3.387770000000000437e+01 1.406410000000000196e+02 2.205279999999999745e+03
8.800000000000000877e-02 1.832719999999999905e-01 3.455160000000000053e+01 1.437370000000000232e+02 2.206215000000000146e+03
8.899999999999999578e-02 1.833819999999999895e-01 3.513535000000000252e+01 1.466394999999999982e+02 2.207109999999999673e+03
8.999999999999999667e-02 1.834850000000000092e-01 3.561514999999999986e+01 1.493019999999999925e+02 2.207945000000000164e+03
9.099999999999999756e-02 1.835799999999999932e-01 3.597799999999999443e+01 1.516850000000000023e+02 2.208719999999999800e+03
9.199999999999999845e-02 1.836654999999999816e-01 3.621264999999999645e+01 1.537535000000000025e+02 2.209420000000000073e+03
9.299999999999999933e-02 1.837405000000000010e-01 3.631034999999999968e+01 1.554830000000000041e+02 2.210034999999999854e+03
9.400000000000000022e-02 1.838039999999999952e-01 3.626539999999999964e+01 1.568564999999999827e+02 2.210559999999999945e+03
9.500000000000000111e-02 1.838555000000000050e-01 3.607585000000000264e+01 1.578679999999999950e+02 2.210989999999999782e+03
9.600000000000000200e-02 1.838950000000000029e-01 3.574365000000000236e+01 1.585224999999999795e+02 2.211324999999999818e+03
9.700000000000000289e-02 1.839230000000000032e-01 3.527485000000000070e+01 1.588365000000000009e+02 2.211555000000000291e+03
9.800000000000000377e-02 1.839390000000000192e-01 3.467945000000000277e+01 1.588360000000000127e+02 2.211704999999999927e+03
9.900000000000000466e-02 1.839449999999999974e-01 3.397069999999999368e+01 1.585534999999999854e+02 2.211760000000000218e+03
1.000000000000000056e-01 1.839410000000000212e-01 3.316499999999999915e+01 1.580329999999999870e+02 2.211739999999999782e+03
1.010000000000000064e-01 1.839290000000000092e-01 3.228070000000000306e+01 1.573185000000000002e+02 2.211650000000000091e+03
1.020000000000000073e-01 1.839100000000000179e-01 3.133749999999999858e+01 1.564585000000000150e+02 2.211510000000000218e+03
1.030000000000000082e-01 1.838859999999999939e-01 3.035539999999999949e+01 1.555004999999999882e+02 2.211315000000000055e+03
1.040000000000000091e-01 1.838584999999999803e-01 2.935379999999999967e+01 1.544900000000000091e+02 2.211099999999999909e+03
1.050000000000000100e-01 1.838279999999999914e-01 2.835079999999999956e+01 1.534664999999999964e+02 2.210855000000000018e+03
1.059999999999999970e-01 1.837965000000000015e-01 2.736250000000000071e+01 1.524654999999999916e+02 2.210609999999999673e+03
1.069999999999999979e-01 1.837654999999999983e-01 2.640230000000000032e+01 1.515129999999999768e+02 2.210355000000000018e+03
1.079999999999999988e-01 1.837354999999999960e-01 2.548055000000000092e+01 1.506290000000000191e+02 2.210105000000000018e+03
1.089999999999999997e-01 1.837070000000000092e-01 2.460425000000000040e+01 1.498224999999999909e+02 2.209880000000000109e+03
1.100000000000000006e-01 1.836800000000000099e-01 2.377700000000000102e+01 1.490964999999999918e+02 2.209654999999999745e+03
1.110000000000000014e-01 1.836554999999999993e-01 2.299895000000000067e+01 1.484440000000000168e+02 2.209454999999999927e+03
1.120000000000000023e-01 1.836325000000000041e-01 2.226720000000000255e+01 1.478514999999999873e+02 2.209265000000000327e+03
1.130000000000000032e-01 1.836114999999999831e-01 2.157589999999999719e+01 1.473004999999999995e+02 2.209095000000000255e+03
1.140000000000000041e-01 1.835920000000000052e-01 2.091709999999999781e+01 1.467655000000000030e+02 2.208925000000000182e+03
1.150000000000000050e-01 1.835714999999999986e-01 2.028095000000000070e+01 1.462199999999999989e+02 2.208765000000000327e+03
1.160000000000000059e-01 1.835509999999999919e-01 1.965684999999999860e+01 1.456349999999999909e+02 2.208595000000000255e+03
1.170000000000000068e-01 1.835289999999999977e-01 1.903379999999999939e+01 1.449834999999999923e+02 2.208409999999999854e+03
1.180000000000000077e-01 1.835050000000000014e-01 1.840129999999999910e+01 1.442384999999999877e+02 2.208215000000000146e+03
1.190000000000000085e-01 1.834775000000000156e-01 1.774990000000000023e+01 1.433799999999999955e+02 2.207989999999999782e+03
1.200000000000000094e-01 1.834465000000000123e-01 1.707205000000000084e+01 1.423915000000000077e+02 2.207744999999999891e+03
1.209999999999999964e-01 1.834115000000000051e-01 1.636260000000000048e+01 1.412644999999999982e+02 2.207460000000000036e+03
1.219999999999999973e-01 1.833720000000000072e-01 1.561895000000000167e+01 1.399964999999999975e+02 2.207140000000000327e+03
1.229999999999999982e-01 1.833279999999999910e-01 1.484135000000000204e+01 1.385954999999999870e+02 2.206779999999999745e+03
1.239999999999999991e-01 1.832795000000000119e-01 1.403330000000000055e+01 1.370749999999999886e+02 2.206399999999999636e+03
1.250000000000000000e-01 1.832270000000000010e-01 1.320094999999999885e+01 1.354549999999999841e+02 2.205975000000000364e+03
1.260000000000000009e-01 1.831720000000000015e-01 1.235314999999999941e+01 1.337649999999999864e+02 2.205529999999999745e+03
1.270000000000000018e-01 1.831139999999999990e-01 1.150072499999999920e+01 1.320360000000000014e+02 2.205065000000000055e+03
1.280000000000000027e-01 1.830555000000000099e-01 1.065601000000000020e+01 1.303044999999999902e+02 2.204590000000000146e+03
1.290000000000000036e-01 1.829965000000000064e-01 9.832150000000000389e+00 1.286059999999999945e+02 2.204114999999999782e+03
1.300000000000000044e-01 1.829385000000000039e-01 9.042545000000000499e+00 1.269765000000000015e+02 2.203650000000000091e+03
1.310000000000000053e-01 1.828825000000000034e-01 8.299775000000000347e+00 1.254490000000000123e+02 2.203195000000000164e+03
1.320000000000000062e-01 1.828299999999999925e-01 7.615344999999999587e+00 1.240519999999999925e+02 2.202775000000000091e+03
1.330000000000000071e-01 1.827814999999999857e-01 6.998894999999999200e+00 1.228089999999999975e+02 2.202385000000000218e+03
1.340000000000000080e-01 1.827380000000000115e-01 6.457860000000000156e+00 1.217365000000000066e+02 2.202025000000000091e+03
1.350000000000000089e-01 1.827004999999999879e-01 5.997209999999999930e+00 1.208449999999999989e+02 2.201715000000000146e+03
1.360000000000000098e-01 1.826679999999999970e-01 5.619290000000000340e+00 1.201364999999999981e+02 2.201444999999999709e+03
1.370000000000000107e-01 1.826419999999999988e-01 5.323850000000000193e+00 1.196084999999999923e+02 2.201230000000000018e+03
1.380000000000000115e-01 1.826214999999999922e-01 5.108195000000000263e+00 1.192500000000000000e+02 2.201059999999999945e+03
1.390000000000000124e-01 1.826065000000000049e-01 4.967465000000000686e+00 1.190474999999999994e+02 2.200934999999999945e+03
1.400000000000000133e-01 1.825964999999999949e-01 4.894925000000000637e+00 1.189814999999999969e+02 2.200849999999999909e+03
1.410000000000000142e-01 1.825915000000000177e-01 4.882395000000000707e+00 1.190314999999999941e+02 2.200800000000000182e+03
1.420000000000000151e-01 1.825904999999999889e-01 4.920664999999999623e+00 1.191740000000000066e+02 2.200784999999999854e+03
1.430000000000000160e-01 1.825924999999999909e-01 4.999884999999999913e+00 1.193855000000000075e+02 2.200795000000000073e+03
1.440000000000000169e-01 1.825970000000000093e-01 5.110000000000000320e+00 1.196430000000000007e+02 2.200829999999999927e+03
1.450000000000000178e-01 1.826030000000000153e-01 5.241139999999999688e+00 1.199240000000000066e+02 2.200869999999999891e+03
1.459999999999999909e-01 1.826105000000000089e-01 5.383945000000000647e+00 1.202100000000000080e+02 2.200930000000000291e+03
1.469999999999999918e-01 1.826185000000000169e-01 5.529844999999999899e+00 1.204819999999999993e+02 2.200989999999999782e+03
1.479999999999999927e-01 1.826254999999999962e-01 5.671344999999999636e+00 1.207275000000000063e+02 2.201050000000000182e+03
1.489999999999999936e-01 1.826329999999999898e-01 5.802175000000000082e+00 1.209339999999999975e+02 2.201105000000000018e+03
1.499999999999999944e-01 1.826389999999999958e-01 5.917415000000000092e+00 1.210945000000000107e+02 2.201149999999999636e+03
1.509999999999999953e-01 1.826435000000000142e-01 6.013579999999999259e+00 1.212044999999999959e+02 2.201190000000000055e+03
1.519999999999999962e-01 1.826464999999999894e-01 6.088589999999999947e+00 1.212625000000000028e+02 2.201215000000000146e+03
1.529999999999999971e-01 1.826484999999999914e-01 6.141734999999999722e+00 1.212715000000000032e+02 2.201230000000000018e+03
1.539999999999999980e-01 1.826484999999999914e-01 6.173524999999999707e+00 1.212355000000000018e+02 2.201235000000000127e+03
1.549999999999999989e-01 1.826475000000000182e-01 6.185529999999999973e+00 1.211599999999999966e+02 2.201230000000000018e+03
1.559999999999999998e-01 1.826455000000000162e-01 6.180159999999999876e+00 1.210550000000000068e+02 2.201210000000000036e+03
1.570000000000000007e-01 1.826424999999999854e-01 6.160394999999999399e+00 1.209275000000000091e+02 2.201190000000000055e+03
1.580000000000000016e-01 1.826384999999999814e-01 6.129564999999999486e+00 1.207870000000000061e+02 2.201159999999999854e+03
1.590000000000000024e-01 1.826345000000000052e-01 6.091045000000000265e+00 1.206415000000000077e+02 2.201125000000000000e+03
