# t [s], A [cm^2], U [cm/s], P [cPa], c [cm/s]
1.000000000000000021e-03 1.917639999999999900e-01 3.820775000000000143e-01 9.924660000000000082e+01 2.033789999999999964e+03
2.000000000000000042e-03 1.917114999999999791e-01 2.018382499999999968e+00 9.572960000000000491e+01 2.033349999999999909e+03
3.000000000000000062e-03 1.915660000000000140e-01 4.005661000000000804e+00 9.098669999999999902e+01 2.032160000000000082e+03
4.000000000000000083e-03 1.913659999999999806e-01 6.223922499999999580e+00 8.594599999999999795e+01 2.030559999999999945e+03
5.000000000000000104e-03 1.911515000000000020e-01 8.592064999999999841e+00 8.151685000000000514e+01 2.028849999999999909e+03
6.000000000000000125e-03 1.909434999999999882e-01 1.091622500000000073e+01 7.793055000000001087e+01 2.027220000000000027e+03
7.000000000000000146e-03 1.907490000000000019e-01 1.298161999999999949e+01 7.488594999999999402e+01 2.025710000000000036e+03
8.000000000000000167e-03 1.905699999999999894e-01 1.471984499999999940e+01 7.215529999999999688e+01 2.024355000000000018e+03
9.000000000000001055e-03 1.904124999999999845e-01 1.617445000000000022e+01 6.979939999999999145e+01 2.023175000000000182e+03
1.000000000000000194e-02 1.902790000000000037e-01 1.737899999999999778e+01 6.788249999999999318e+01 2.022190000000000055e+03
1.099999999999999936e-02 1.901694999999999913e-01 1.834794999999999732e+01 6.636724999999999852e+01 2.021384999999999991e+03
1.200000000000000025e-02 1.900810000000000000e-01 1.909510000000000218e+01 6.518385000000000673e+01 2.020744999999999891e+03
1.300000000000000114e-02 1.900100000000000122e-01 1.962639999999999674e+01 6.423205000000000098e+01 2.020240000000000009e+03
1.400000000000000203e-02 1.899514999999999953e-01 1.995725000000000193e+01 6.340619999999999834e+01 2.019835000000000036e+03
1.499999999999999944e-02 1.899039999999999895e-01 2.015794999999999959e+01 6.272399999999999665e+01 2.019509999999999991e+03
1.600000000000000033e-02 1.898719999999999852e-01 2.036480000000000246e+01 6.241879999999999740e+01 2.019295000000000073e+03
1.700000000000000122e-02 1.898654999999999926e-01 2.072639999999999816e+01 6.284704999999999586e+01 2.019264999999999873e+03
1.800000000000000211e-02 1.898925000000000196e-01 2.132440000000000069e+01 6.426044999999999163e+01 2.019474999999999909e+03
1.900000000000000300e-02 1.899560000000000137e-01 2.212559999999999860e+01 6.661005000000000109e+01 2.019945000000000164e+03
2.000000000000000042e-02 1.900475000000000081e-01 2.299269999999999925e+01 6.950960000000000605e+01 2.020630000000000109e+03
2.100000000000000130e-02 1.901515000000000011e-01 2.374099999999999966e+01 7.236509999999999820e+01 2.021409999999999854e+03
2.200000000000000219e-02 1.902484999999999871e-01 2.420810000000000173e+01 7.458840000000000714e+01 2.022150000000000091e+03
2.299999999999999961e-02 1.903225000000000056e-01 2.430754999999999910e+01 7.579329999999998790e+01 2.022724999999999909e+03
2.400000000000000050e-02 1.903635000000000188e-01 2.404775000000000063e+01 7.589914999999999168e+01 2.023059999999999945e+03
2.500000000000000139e-02 1.903725000000000001e-01 2.351505000000000223e+01 7.511490000000000578e+01 2.023154999999999973e+03
2.600000000000000228e-02 1.903555000000000108e-01 2.283234999999999815e+01 7.382525000000001114e+01 2.023050000000000182e+03
2.700000000000000316e-02 1.903239999999999932e-01 2.211299999999999955e+01 7.243524999999999636e+01 2.022829999999999927e+03
2.800000000000000058e-02 1.902889999999999859e-01 2.142699999999999960e+01 7.123675000000000068e+01 2.022575000000000045e+03
2.900000000000000147e-02 1.902559999999999807e-01 2.078934999999999889e+01 7.033979999999999677e+01 2.022329999999999927e+03
3.000000000000000236e-02 1.902280000000000082e-01 2.017029999999999745e+01 6.967980000000000018e+01 2.022114999999999782e+03
3.099999999999999978e-02 1.902020000000000099e-01 1.951910000000000167e+01 6.908379999999999654e+01 2.021920000000000073e+03
3.200000000000000067e-02 1.901734999999999953e-01 1.879234999999999900e+01 6.836355000000000359e+01 2.021710000000000036e+03
3.300000000000000155e-02 1.901395000000000168e-01 1.797664999999999935e+01 6.740144999999999698e+01 2.021460000000000036e+03
3.400000000000000244e-02 1.900970000000000160e-01 1.710020000000000095e+01 6.620539999999999736e+01 2.021154999999999973e+03
3.500000000000000333e-02 1.900489999999999957e-01 1.622944999999999993e+01 6.491655000000000086e+01 2.020795000000000073e+03
3.600000000000000422e-02 1.900020000000000042e-01 1.545345000000000013e+01 6.377235000000000298e+01 2.020445000000000164e+03
3.700000000000000511e-02 1.899629999999999930e-01 1.486015000000000086e+01 6.303704999999999359e+01 2.020154999999999973e+03
3.799999999999999906e-02 1.899414999999999853e-01 1.451285000000000025e+01 6.292360000000000042e+01 2.019985000000000127e+03
3.899999999999999994e-02 1.899419999999999997e-01 1.443325000000000102e+01 6.353060000000000684e+01 2.019974999999999909e+03
4.000000000000000083e-02 1.899679999999999980e-01 1.459510000000000041e+01 6.481170000000000186e+01 2.020144999999999982e+03
4.100000000000000172e-02 1.900149999999999895e-01 1.492985000000000007e+01 6.658209999999999695e+01 2.020484999999999900e+03
4.200000000000000261e-02 1.900780000000000247e-01 1.533980000000000032e+01 6.855695000000000050e+01 2.020934999999999945e+03
4.300000000000000350e-02 1.901450000000000085e-01 1.571659999999999968e+01 7.040835000000001287e+01 2.021434999999999945e+03
4.400000000000000439e-02 1.902069999999999872e-01 1.595860000000000056e+01 7.182470000000000709e+01 2.021894999999999982e+03
4.499999999999999833e-02 1.902530000000000054e-01 1.598489999999999966e+01 7.255989999999999895e+01 2.022240000000000009e+03
4.599999999999999922e-02 1.902749999999999997e-01 1.574350000000000094e+01 7.246375000000000455e+01 2.022420000000000073e+03
4.700000000000000011e-02 1.902674999999999783e-01 1.521370000000000111e+01 7.149080000000000723e+01 2.022375000000000000e+03
4.800000000000000100e-02 1.902294999999999958e-01 1.440259999999999962e+01 6.968989999999999441e+01 2.022105000000000018e+03
4.900000000000000189e-02 1.901614999999999833e-01 1.333924999999999983e+01 6.718070000000000164e+01 2.021605000000000018e+03
5.000000000000000278e-02 1.900665000000000271e-01 1.206694999999999851e+01 6.412510000000000332e+01 2.020909999999999854e+03
5.100000000000000366e-02 1.899514999999999953e-01 1.063644999999999996e+01 6.069955000000000211e+01 2.020055000000000064e+03
5.200000000000000455e-02 1.898205000000000031e-01 9.100785000000000124e+00 5.707469999999999999e+01 2.019085000000000036e+03
5.300000000000000544e-02 1.896795000000000009e-01 7.512240000000000251e+00 5.340375000000000227e+01 2.018039999999999964e+03
5.399999999999999939e-02 1.895350000000000090e-01 5.921159999999999535e+00 4.981850000000000023e+01 2.016965000000000146e+03
5.500000000000000028e-02 1.893914999999999904e-01 4.376135500000000178e+00 4.643184999999999718e+01 2.015894999999999982e+03
5.600000000000000117e-02 1.892540000000000056e-01 2.924306999999999768e+00 4.334335000000000093e+01 2.014865000000000009e+03
5.700000000000000205e-02 1.891269999999999896e-01 1.611730000000000107e+00 4.064385000000000048e+01 2.013909999999999854e+03
5.800000000000000294e-02 1.890140000000000153e-01 4.829050000000001397e-01 3.841925000000000523e+01 2.013059999999999945e+03
5.900000000000000383e-02 1.889190000000000036e-01 -4.204399999999999249e-01 3.674980000000000047e+01 2.012339999999999918e+03
6.000000000000000472e-02 1.888454999999999995e-01 -1.061296000000000017e+00 3.570749999999999602e+01 2.011780000000000200e+03
6.099999999999999867e-02 1.887969999999999926e-01 -1.409700999999999871e+00 3.535074999999999790e+01 2.011400000000000091e+03
6.199999999999999956e-02 1.887754999999999850e-01 -1.444989999999999997e+00 3.571845000000000425e+01 2.011220000000000027e+03
6.300000000000000044e-02 1.887829999999999786e-01 -1.157623499999999916e+00 3.682450000000000045e+01 2.011255000000000109e+03
6.400000000000000133e-02 1.888195000000000012e-01 -5.501910000000000966e-01 3.865449999999999875e+01 2.011500000000000000e+03
6.500000000000000222e-02 1.888845000000000107e-01 3.625250000000000972e-01 4.116490000000000293e+01 2.011965000000000146e+03
6.600000000000000311e-02 1.889780000000000071e-01 1.554391999999999996e+00 4.428529999999999944e+01 2.012634999999999991e+03
6.700000000000000400e-02 1.890959999999999863e-01 2.989676999999999918e+00 4.792244999999999777e+01 2.013494999999999891e+03
6.800000000000000488e-02 1.892349999999999866e-01 4.625280000000000058e+00 5.196715000000000373e+01 2.014514999999999873e+03
6.900000000000000577e-02 1.893924999999999914e-01 6.413320000000000576e+00 5.630100000000000193e+01 2.015680000000000064e+03
7.000000000000000666e-02 1.895625000000000226e-01 8.303855000000000430e+00 6.080424999999999613e+01 2.016934999999999945e+03
7.100000000000000755e-02 1.897409999999999930e-01 1.024741000000000035e+01 6.536225000000000307e+01 2.018264999999999873e+03
7.200000000000000844e-02 1.899244999999999961e-01 1.219736999999999938e+01 6.987154999999999916e+01 2.019630000000000109e+03
7.300000000000000933e-02 1.901074999999999848e-01 1.411200000000000188e+01 7.424505000000000621e+01 2.021000000000000000e+03
7.399999999999999634e-02 1.902869999999999839e-01 1.595614999999999917e+01 7.841490000000000293e+01 2.022355000000000018e+03
7.499999999999999722e-02 1.904609999999999914e-01 1.770250000000000057e+01 8.233520000000000039e+01 2.023664999999999964e+03
7.599999999999999811e-02 1.906265000000000043e-01 1.933225000000000193e+01 8.598239999999999839e+01 2.024920000000000073e+03
7.699999999999999900e-02 1.907830000000000081e-01 2.083514999999999873e+01 8.935460000000000491e+01 2.026115000000000009e+03
7.799999999999999989e-02 1.909299999999999886e-01 2.220924999999999727e+01 9.246959999999999980e+01 2.027230000000000018e+03
7.900000000000000078e-02 1.910675000000000012e-01 2.346000000000000085e+01 9.536109999999999332e+01 2.028289999999999964e+03
8.000000000000000167e-02 1.911975000000000202e-01 2.459880000000000067e+01 9.807495000000000118e+01 2.029284999999999854e+03
8.100000000000000255e-02 1.913205000000000044e-01 2.564119999999999777e+01 1.006637000000000057e+02 2.030224999999999909e+03
8.200000000000000344e-02 1.914389999999999981e-01 2.660555000000000092e+01 1.031814999999999998e+02 2.031139999999999873e+03
8.300000000000000433e-02 1.915545000000000164e-01 2.751050000000000040e+01 1.056790000000000020e+02 2.032029999999999973e+03
8.400000000000000522e-02 1.916685000000000194e-01 2.837395000000000067e+01 1.082009999999999934e+02 2.032904999999999973e+03
8.500000000000000611e-02 1.917830000000000090e-01 2.921099999999999852e+01 1.107794999999999987e+02 2.033784999999999854e+03
8.600000000000000699e-02 1.918995000000000006e-01 3.003330000000000055e+01 1.134364999999999952e+02 2.034680000000000064e+03
8.700000000000000788e-02 1.920184999999999809e-01 3.084784999999999755e+01 1.161765000000000043e+02 2.035590000000000146e+03
8.800000000000000877e-02 1.921395000000000186e-01 3.165724999999999767e+01 1.189934999999999974e+02 2.036519999999999982e+03
8.899999999999999578e-02 1.922634999999999761e-01 3.245914999999999395e+01 1.218670000000000044e+02 2.037470000000000027e+03
8.999999999999999667e-02 1.923890000000000045e-01 3.324689999999999657e+01 1.247659999999999911e+02 2.038430000000000064e+03
9.099999999999999756e-02 1.925149999999999917e-01 3.401014999999999588e+01 1.276514999999999986e+02 2.039400000000000091e+03
9.199999999999999845e-02 1.926399999999999779e-01 3.473590000000000089e+01 1.304789999999999850e+02 2.040360000000000127e+03
9.299999999999999933e-02 1.927625000000000033e-01 3.540904999999999347e+01 1.332004999999999768e+02 2.041304999999999836e+03
9.400000000000000022e-02 1.928809999999999969e-01 3.601364999999999839e+01 1.357690000000000055e+02 2.042210000000000036e+03
9.500000000000000111e-02 1.929925000000000113e-01 3.653395000000000437e+01 1.381394999999999982e+02 2.043074999999999818e+03
9.600000000000000200e-02 1.930965000000000042e-01 3.695510000000000161e+01 1.402724999999999795e+02 2.043875000000000000e+03
9.700000000000000289e-02 1.931910000000000016e-01 3.726425000000000409e+01 1.421345000000000027e+02 2.044610000000000127e+03
9.800000000000000377e-02 1.932745000000000157e-01 3.745090000000000430e+01 1.436995000000000005e+02 2.045265000000000100e+03
9.900000000000000466e-02 1.933465000000000045e-01 3.750784999999999769e+01 1.449519999999999982e+02 2.045829999999999927e+03
1.000000000000000056e-01 1.934060000000000223e-01 3.743130000000000024e+01 1.458845000000000027e+02 2.046295000000000073e+03
1.010000000000000064e-01 1.934529999999999861e-01 3.722120000000000317e+01 1.465000000000000000e+02 2.046660000000000082e+03
1.020000000000000073e-01 1.934859999999999913e-01 3.688129999999999598e+01 1.468095000000000141e+02 2.046934999999999945e+03
1.030000000000000082e-01 1.935074999999999990e-01 3.641884999999999906e+01 1.468329999999999984e+02 2.047105000000000018e+03
1.040000000000000091e-01 1.935164999999999802e-01 3.584454999999999814e+01 1.465985000000000014e+02 2.047190000000000055e+03
1.050000000000000100e-01 1.935155000000000070e-01 3.517190000000000083e+01 1.461390000000000100e+02 2.047184999999999945e+03
1.059999999999999970e-01 1.935044999999999960e-01 3.441649999999999920e+01 1.454929999999999950e+02 2.047110000000000127e+03
1.069999999999999979e-01 1.934849999999999903e-01 3.359564999999999912e+01 1.446999999999999886e+02 2.046974999999999909e+03
1.079999999999999988e-01 1.934589999999999921e-01 3.272724999999999795e+01 1.438015000000000043e+02 2.046780000000000200e+03
1.089999999999999997e-01 1.934279999999999888e-01 3.182949999999999946e+01 1.428375000000000057e+02 2.046550000000000182e+03
1.100000000000000006e-01 1.933934999999999960e-01 3.091969999999999885e+01 1.418455000000000155e+02 2.046289999999999964e+03
1.110000000000000014e-01 1.933574999999999877e-01 3.001389999999999958e+01 1.408594999999999970e+02 2.046010000000000218e+03
1.120000000000000023e-01 1.933195000000000052e-01 2.912620000000000076e+01 1.399069999999999823e+02 2.045730000000000018e+03
1.130000000000000032e-01 1.932830000000000104e-01 2.826839999999999975e+01 1.390099999999999909e+02 2.045450000000000045e+03
1.140000000000000041e-01 1.932480000000000031e-01 2.744944999999999879e+01 1.381845000000000141e+02 2.045174999999999955e+03
1.150000000000000050e-01 1.932145000000000112e-01 2.667549999999999955e+01 1.374379999999999882e+02 2.044920000000000073e+03
1.160000000000000059e-01 1.931839999999999946e-01 2.594960000000000022e+01 1.367724999999999795e+02 2.044679999999999836e+03
1.170000000000000068e-01 1.931555000000000077e-01 2.527174999999999727e+01 1.361820000000000164e+02 2.044460000000000036e+03
1.180000000000000077e-01 1.931300000000000239e-01 2.463940000000000197e+01 1.356569999999999823e+02 2.044254999999999882e+03
1.190000000000000085e-01 1.931065000000000142e-01 2.404735000000000156e+01 1.351794999999999902e+02 2.044070000000000164e+03
1.200000000000000094e-01 1.930844999999999922e-01 2.348850000000000193e+01 1.347309999999999945e+02 2.043899999999999864e+03
1.209999999999999964e-01 1.930634999999999990e-01 2.295389999999999731e+01 1.342875000000000227e+02 2.043735000000000127e+03
1.219999999999999973e-01 1.930429999999999924e-01 2.243379999999999797e+01 1.338245000000000005e+02 2.043570000000000164e+03
1.229999999999999982e-01 1.930209999999999981e-01 2.191779999999999973e+01 1.333179999999999836e+02 2.043400000000000091e+03
1.239999999999999991e-01 1.929974999999999885e-01 2.139569999999999794e+01 1.327439999999999998e+02 2.043219999999999800e+03
1.250000000000000000e-01 1.929719999999999769e-01 2.085795000000000243e+01 1.320819999999999936e+02 2.043014999999999873e+03
1.260000000000000009e-01 1.929420000000000024e-01 2.029625000000000057e+01 1.313149999999999977e+02 2.042795000000000073e+03
1.270000000000000018e-01 1.929084999999999828e-01 1.970389999999999731e+01 1.304300000000000068e+02 2.042535000000000082e+03
1.280000000000000027e-01 1.928705000000000003e-01 1.907645000000000124e+01 1.294209999999999923e+02 2.042244999999999891e+03
1.290000000000000036e-01 1.928279999999999994e-01 1.841159999999999997e+01 1.282860000000000014e+02 2.041914999999999964e+03
1.300000000000000044e-01 1.927800000000000069e-01 1.770964999999999989e+01 1.270310000000000059e+02 2.041550000000000182e+03
1.310000000000000053e-01 1.927274999999999960e-01 1.697340000000000160e+01 1.256670000000000016e+02 2.041155000000000200e+03
1.320000000000000062e-01 1.926710000000000089e-01 1.620830000000000126e+01 1.242104999999999961e+02 2.040719999999999800e+03
1.330000000000000071e-01 1.926105000000000178e-01 1.542174999999999940e+01 1.226835000000000093e+02 2.040254999999999882e+03
1.340000000000000080e-01 1.925470000000000237e-01 1.462304999999999922e+01 1.211119999999999948e+02 2.039774999999999864e+03
1.350000000000000089e-01 1.924814999999999998e-01 1.382304999999999851e+01 1.195240000000000009e+02 2.039275000000000091e+03
1.360000000000000098e-01 1.924155000000000171e-01 1.303340000000000032e+01 1.179505000000000052e+02 2.038769999999999982e+03
1.370000000000000107e-01 1.923495000000000066e-01 1.226598500000000058e+01 1.164200000000000017e+02 2.038269999999999982e+03
1.380000000000000115e-01 1.922849999999999837e-01 1.153281499999999937e+01 1.149609999999999985e+02 2.037775000000000091e+03
1.390000000000000124e-01 1.922234999999999916e-01 1.084482500000000016e+01 1.136009999999999991e+02 2.037304999999999836e+03
1.400000000000000133e-01 1.921654999999999891e-01 1.021191499999999941e+01 1.123605000000000018e+02 2.036855000000000018e+03
1.410000000000000142e-01 1.921114999999999906e-01 9.642389999999998906e+00 1.112590000000000003e+02 2.036440000000000055e+03
1.420000000000000151e-01 1.920634999999999981e-01 9.142534999999998746e+00 1.103075000000000045e+02 2.036070000000000164e+03
1.430000000000000160e-01 1.920209999999999972e-01 8.716609999999999303e+00 1.095155000000000030e+02 2.035740000000000009e+03
1.440000000000000169e-01 1.919845000000000024e-01 8.366694999999999993e+00 1.088845000000000027e+02 2.035460000000000036e+03
1.450000000000000178e-01 1.919545000000000001e-01 8.092649999999999011e+00 1.084110000000000014e+02 2.035220000000000027e+03
1.459999999999999909e-01 1.919309999999999905e-01 7.892284999999999329e+00 1.080870000000000033e+02 2.035034999999999854e+03
1.469999999999999918e-01 1.919135000000000146e-01 7.761549999999999727e+00 1.079025000000000034e+02 2.034889999999999873e+03
1.479999999999999927e-01 1.919015000000000026e-01 7.694784999999999542e+00 1.078425000000000011e+02 2.034795000000000073e+03
1.489999999999999936e-01 1.918945000000000234e-01 7.685029999999999362e+00 1.078889999999999958e+02 2.034735000000000127e+03
1.499999999999999944e-01 1.918924999999999936e-01 7.724370000000000402e+00 1.080240000000000009e+02 2.034715000000000146e+03
1.509999999999999953e-01 1.918940000000000090e-01 7.804260000000000197e+00 1.082270000000000039e+02 2.034719999999999800e+03
1.519999999999999962e-01 1.918984999999999996e-01 7.915879999999999583e+00 1.084805000000000064e+02 2.034755000000000109e+03
1.529999999999999971e-01 1.919060000000000210e-01 8.050444999999999851e+00 1.087644999999999982e+02 2.034799999999999955e+03
1.539999999999999980e-01 1.919144999999999879e-01 8.199479999999999436e+00 1.090625000000000000e+02 2.034865000000000009e+03
1.549999999999999989e-01 1.919239999999999835e-01 8.355119999999999436e+00 1.093584999999999923e+02 2.034940000000000055e+03
1.559999999999999998e-01 1.919345000000000079e-01 8.510260000000000602e+00 1.096394999999999982e+02 2.035015000000000100e+03
1.570000000000000007e-01 1.919445000000000179e-01 8.658760000000000900e+00 1.098950000000000102e+02 2.035085000000000036e+03
1.580000000000000016e-01 1.919540000000000135e-01 8.795590000000000686e+00 1.101165000000000020e+02 2.035154999999999973e+03
1.590000000000000024e-01 1.919619999999999937e-01 8.916854999999999976e+00 1.102985000000000042e+02 2.035224999999999909e+03
