# t [s], A [cm^2], U [cm/s], P [cPa], c [cm/s]
1.000000000000000021e-03 5.724434999999999940e-01 4.502600000000002434e-03 1.095395000000000039e+02 1.475639999999999873e+03
2.000000000000000042e-03 5.724344999999999573e-01 -6.312298499999999344e-04 1.095220000000000056e+02 1.475639999999999873e+03
3.000000000000000062e-03 5.724635000000000140e-01 4.563310000000000977e-02 1.095670000000000073e+02 1.475650000000000091e+03
4.000000000000000083e-03 5.725145000000000373e-01 1.315779499999999991e-01 1.096715000000000089e+02 1.475684999999999945e+03
5.000000000000000104e-03 5.725265000000000493e-01 1.586214999999999986e-01 1.097065000000000055e+02 1.475700000000000045e+03
6.000000000000000125e-03 5.724909999999999721e-01 1.066955000000000126e-01 1.096165000000000020e+02 1.475679999999999836e+03
7.000000000000000146e-03 5.724470000000000391e-01 3.677700000000003189e-02 1.094544999999999959e+02 1.475639999999999873e+03
8.000000000000000167e-03 5.724044999999999828e-01 -3.289700000000000957e-02 1.092514999999999930e+02 1.475585000000000036e+03
9.000000000000001055e-03 5.723374999999999435e-01 -1.544895000000000018e-01 1.089549999999999983e+02 1.475509999999999991e+03
1.000000000000000194e-02 5.722289999999999877e-01 -3.586350000000000371e-01 1.085159999999999911e+02 1.475400000000000091e+03
1.099999999999999936e-02 5.720754999999999590e-01 -6.501749999999999474e-01 1.079020000000000010e+02 1.475240000000000009e+03
1.200000000000000025e-02 5.718640000000000390e-01 -1.040999999999999925e+00 1.070750000000000028e+02 1.475025000000000091e+03
1.300000000000000114e-02 5.715859999999999275e-01 -1.536700000000000177e+00 1.059960000000000093e+02 1.474735000000000127e+03
1.400000000000000203e-02 5.712509999999999533e-01 -2.103509999999999991e+00 1.046723000000000070e+02 1.474369999999999891e+03
1.499999999999999944e-02 5.708910000000000373e-01 -2.662714999999999943e+00 1.031746499999999997e+02 1.473945000000000164e+03
1.600000000000000033e-02 5.705440000000000511e-01 -3.118949999999999889e+00 1.016148499999999899e+02 1.473494999999999891e+03
1.700000000000000122e-02 5.702405000000000390e-01 -3.396521000000000345e+00 1.001014499999999998e+02 1.473029999999999973e+03
1.800000000000000211e-02 5.699875000000000913e-01 -3.460825499999999888e+00 9.870525000000000659e+01 1.472585000000000036e+03
1.900000000000000300e-02 5.697750000000000314e-01 -3.319999000000000144e+00 9.744589999999999463e+01 1.472159999999999854e+03
2.000000000000000042e-02 5.695814999999999628e-01 -3.012991500000000045e+00 9.629755000000000109e+01 1.471759999999999991e+03
2.100000000000000130e-02 5.693819999999999437e-01 -2.592176500000000328e+00 9.520504999999999995e+01 1.471364999999999782e+03
2.200000000000000219e-02 5.691570000000000240e-01 -2.106605000000000061e+00 9.410634999999999195e+01 1.470965000000000146e+03
2.299999999999999961e-02 5.688954999999999984e-01 -1.589749999999999996e+00 9.295150000000001000e+01 1.470555000000000064e+03
2.400000000000000050e-02 5.685989999999999656e-01 -1.054160000000000208e+00 9.171574999999999989e+01 1.470115000000000009e+03
2.500000000000000139e-02 5.682755000000000445e-01 -4.937200000000001587e-01 9.040274999999999750e+01 1.469659999999999854e+03
2.600000000000000228e-02 5.679395000000000415e-01 1.079349999999998921e-01 8.903815000000000168e+01 1.469180000000000064e+03
2.700000000000000316e-02 5.676035000000000386e-01 7.664400000000002322e-01 8.765699999999999648e+01 1.468700000000000045e+03
2.800000000000000058e-02 5.672749999999999737e-01 1.486944999999999961e+00 8.628964999999999463e+01 1.468210000000000036e+03
2.900000000000000147e-02 5.669539999999999580e-01 2.258504999999999985e+00 8.495095000000000596e+01 1.467735000000000127e+03
3.000000000000000236e-02 5.666345000000000409e-01 3.053349999999999564e+00 8.363439999999999941e+01 1.467264999999999873e+03
3.099999999999999978e-02 5.663034999999999597e-01 3.830645000000000078e+00 8.231300000000000239e+01 1.466789999999999964e+03
3.200000000000000067e-02 5.659450000000000314e-01 4.543334999999999901e+00 8.094499999999999318e+01 1.466309999999999945e+03
3.300000000000000155e-02 5.655474999999999808e-01 5.146650000000000169e+00 7.948390000000000555e+01 1.465799999999999955e+03
3.400000000000000244e-02 5.651010000000000755e-01 5.606125000000000469e+00 7.788935000000000741e+01 1.465264999999999873e+03
3.500000000000000333e-02 5.646044999999999536e-01 5.904120000000000701e+00 7.613809999999999434e+01 1.464690000000000055e+03
3.600000000000000422e-02 5.640650000000000386e-01 6.042815000000000047e+00 7.423149999999999693e+01 1.464070000000000164e+03
3.700000000000000511e-02 5.634959999999999969e-01 6.043274999999999508e+00 7.219755000000000678e+01 1.463424999999999955e+03
3.799999999999999906e-02 5.629165000000000418e-01 5.941415000000000113e+00 7.008879999999999200e+01 1.462750000000000000e+03
3.899999999999999994e-02 5.623489999999999878e-01 5.781340000000000146e+00 6.797530000000000427e+01 1.462079999999999927e+03
4.000000000000000083e-02 5.618150000000000643e-01 5.608830000000000204e+00 6.593550000000000466e+01 1.461420000000000073e+03
4.100000000000000172e-02 5.613335000000000408e-01 5.465465000000000018e+00 6.404760000000000275e+01 1.460804999999999836e+03
4.200000000000000261e-02 5.609189999999999454e-01 5.385369999999999990e+00 6.238159999999999883e+01 1.460244999999999891e+03
4.300000000000000350e-02 5.605815000000000659e-01 5.393374000000000557e+00 6.099484999999999957e+01 1.459764999999999873e+03
4.400000000000000439e-02 5.603285000000000071e-01 5.505429499999999976e+00 5.992934999999999945e+01 1.459369999999999891e+03
4.499999999999999833e-02 5.601620000000000488e-01 5.730535000000000601e+00 5.921204999999999785e+01 1.459079999999999927e+03
4.599999999999999922e-02 5.600825000000000387e-01 6.072760000000000602e+00 5.885665000000000191e+01 1.458905000000000200e+03
4.700000000000000011e-02 5.600899999999999768e-01 6.533834999999999837e+00 5.886684999999999945e+01 1.458829999999999927e+03
4.800000000000000100e-02 5.601825000000000276e-01 7.115025000000000155e+00 5.923949999999999960e+01 1.458880000000000109e+03
4.900000000000000189e-02 5.603589999999999405e-01 7.818274999999999864e+00 5.996759999999999735e+01 1.459034999999999854e+03
5.000000000000000278e-02 5.606174999999999908e-01 8.646374999999999034e+00 6.104224999999999568e+01 1.459309999999999945e+03
5.100000000000000366e-02 5.609574999999999978e-01 9.602405000000000967e+00 6.245340000000000202e+01 1.459690000000000055e+03
5.200000000000000455e-02 5.613770000000000149e-01 1.068827999999999889e+01 6.418979999999999109e+01 1.460175000000000182e+03
5.300000000000000544e-02 5.618730000000000668e-01 1.190369499999999903e+01 6.623775000000000546e+01 1.460764999999999873e+03
5.399999999999999939e-02 5.624405000000000099e-01 1.324462000000000117e+01 6.858034999999999570e+01 1.461450000000000045e+03
5.500000000000000028e-02 5.630744999999999223e-01 1.470271999999999935e+01 7.119589999999999463e+01 1.462224999999999909e+03
5.600000000000000117e-02 5.637674999999999770e-01 1.626533500000000032e+01 7.405790000000000362e+01 1.463090000000000146e+03
5.700000000000000205e-02 5.645099999999999563e-01 1.791557999999999851e+01 7.713469999999999516e+01 1.464025000000000091e+03
5.800000000000000294e-02 5.652935000000000043e-01 1.963364999999999938e+01 8.039079999999999870e+01 1.465029999999999973e+03
5.900000000000000383e-02 5.661080000000000556e-01 2.139770000000000039e+01 8.378780000000000427e+01 1.466085000000000036e+03
6.000000000000000472e-02 5.669425000000000159e-01 2.318559999999999732e+01 8.728634999999999877e+01 1.467180000000000064e+03
6.099999999999999867e-02 5.677894999999999470e-01 2.497579999999999956e+01 9.084815000000000396e+01 1.468309999999999945e+03
6.199999999999999956e-02 5.686400000000000343e-01 2.674875000000000114e+01 9.443770000000000664e+01 1.469465000000000146e+03
6.300000000000000044e-02 5.694869999999999655e-01 2.848734999999999928e+01 9.802305000000001201e+01 1.470619999999999891e+03
6.400000000000000133e-02 5.703255000000000408e-01 3.017774999999999963e+01 1.015785500000000070e+02 1.471785000000000082e+03
6.500000000000000222e-02 5.711519999999999930e-01 3.180920000000000059e+01 1.050831499999999892e+02 1.472944999999999936e+03
6.600000000000000311e-02 5.719634999999999581e-01 3.337399999999999523e+01 1.085232000000000028e+02 1.474085000000000036e+03
6.700000000000000400e-02 5.727594999999999770e-01 3.486724999999999852e+01 1.118885999999999967e+02 1.475210000000000036e+03
6.800000000000000488e-02 5.735384999999999511e-01 3.628634999999999877e+01 1.151760000000000019e+02 1.476319999999999936e+03
6.900000000000000577e-02 5.743024999999999380e-01 3.763040000000000163e+01 1.183859999999999957e+02 1.477405000000000200e+03
7.000000000000000666e-02 5.750520000000000076e-01 3.889985000000000070e+01 1.215210000000000150e+02 1.478474999999999909e+03
7.100000000000000755e-02 5.757875000000000076e-01 4.009604999999999819e+01 1.245854999999999961e+02 1.479525000000000091e+03
7.200000000000000844e-02 5.765115000000000656e-01 4.122060000000000457e+01 1.275859999999999985e+02 1.480555000000000064e+03
7.300000000000000933e-02 5.772245000000000292e-01 4.227514999999999645e+01 1.305279999999999916e+02 1.481570000000000164e+03
7.399999999999999634e-02 5.779270000000000795e-01 4.326115000000000066e+01 1.334164999999999850e+02 1.482559999999999945e+03
7.499999999999999722e-02 5.786194999999999533e-01 4.417929999999999779e+01 1.362549999999999955e+02 1.483545000000000073e+03
7.599999999999999811e-02 5.793019999999999836e-01 4.502970000000000539e+01 1.390439999999999827e+02 1.484509999999999991e+03
7.699999999999999900e-02 5.799734999999999197e-01 4.581140000000000612e+01 1.417814999999999941e+02 1.485460000000000036e+03
7.799999999999999989e-02 5.806320000000000370e-01 4.652270000000000039e+01 1.444650000000000034e+02 1.486394999999999982e+03
7.900000000000000078e-02 5.812749999999999861e-01 4.716114999999999924e+01 1.470855000000000246e+02 1.487309999999999945e+03
8.000000000000000167e-02 5.819014999999999604e-01 4.772355000000000302e+01 1.496349999999999909e+02 1.488199999999999818e+03
8.100000000000000255e-02 5.825074999999999559e-01 4.820655000000000001e+01 1.521020000000000039e+02 1.489070000000000164e+03
8.200000000000000344e-02 5.830899999999999972e-01 4.860645000000000238e+01 1.544755000000000109e+02 1.489909999999999854e+03
8.300000000000000433e-02 5.836464999999999570e-01 4.891979999999999507e+01 1.567415000000000020e+02 1.490710000000000036e+03
8.400000000000000522e-02 5.841729999999999423e-01 4.914369999999999550e+01 1.588879999999999768e+02 1.491480000000000018e+03
8.500000000000000611e-02 5.846675000000000066e-01 4.927580000000000382e+01 1.609035000000000082e+02 1.492210000000000036e+03
8.600000000000000699e-02 5.851280000000000925e-01 4.931449999999999534e+01 1.627780000000000200e+02 1.492894999999999982e+03
8.700000000000000788e-02 5.855525000000000313e-01 4.925955000000000439e+01 1.645024999999999977e+02 1.493525000000000091e+03
8.800000000000000877e-02 5.859389999999999876e-01 4.911135000000000161e+01 1.660704999999999814e+02 1.494109999999999900e+03
8.899999999999999578e-02 5.862874999999999615e-01 4.887165000000000248e+01 1.674784999999999968e+02 1.494639999999999873e+03
8.999999999999999667e-02 5.865979999999999528e-01 4.854325000000000045e+01 1.687249999999999943e+02 1.495119999999999891e+03
9.099999999999999756e-02 5.868700000000000028e-01 4.812989999999999924e+01 1.698095000000000141e+02 1.495550000000000182e+03
9.199999999999999845e-02 5.871049999999999880e-01 4.763649999999999807e+01 1.707369999999999948e+02 1.495920000000000073e+03
9.299999999999999933e-02 5.873049999999999660e-01 4.706865000000000521e+01 1.715124999999999886e+02 1.496244999999999891e+03
9.400000000000000022e-02 5.874699999999999367e-01 4.643294999999999817e+01 1.721425000000000125e+02 1.496514999999999873e+03
9.500000000000000111e-02 5.876040000000000152e-01 4.573669999999999902e+01 1.726370000000000005e+02 1.496740000000000009e+03
9.600000000000000200e-02 5.877084999999999670e-01 4.498765000000000214e+01 1.730054999999999836e+02 1.496914999999999964e+03
9.700000000000000289e-02 5.877869999999999484e-01 4.419409999999999883e+01 1.732615000000000123e+02 1.497055000000000064e+03
9.800000000000000377e-02 5.878419999999999757e-01 4.336464999999999748e+01 1.734159999999999968e+02 1.497150000000000091e+03
9.900000000000000466e-02 5.878769999999999829e-01 4.250790000000000646e+01 1.734834999999999923e+02 1.497215000000000146e+03
1.000000000000000056e-01 5.878940000000000277e-01 4.163240000000000407e+01 1.734759999999999991e+02 1.497250000000000000e+03
1.010000000000000064e-01 5.878974999999999618e-01 4.074644999999999584e+01 1.734085000000000036e+02 1.497269999999999982e+03
1.020000000000000073e-01 5.878894999999999538e-01 3.985779999999999745e+01 1.732919999999999732e+02 1.497259999999999991e+03
1.030000000000000082e-01 5.878725000000000200e-01 3.897339999999999804e+01 1.731384999999999934e+02 1.497230000000000018e+03
1.040000000000000091e-01 5.878495000000000248e-01 3.809924999999999784e+01 1.729600000000000080e+02 1.497194999999999936e+03
1.050000000000000100e-01 5.878219999999999557e-01 3.724044999999999561e+01 1.727635000000000218e+02 1.497144999999999982e+03
1.059999999999999970e-01 5.877909999999999524e-01 3.640075000000000216e+01 1.725570000000000164e+02 1.497085000000000036e+03
1.069999999999999979e-01 5.877584999999999615e-01 3.558265000000000100e+01 1.723460000000000036e+02 1.497025000000000091e+03
1.079999999999999988e-01 5.877240000000000242e-01 3.478744999999999976e+01 1.721330000000000098e+02 1.496960000000000036e+03
1.089999999999999997e-01 5.876879999999999882e-01 3.401514999999999844e+01 1.719200000000000159e+02 1.496894999999999982e+03
1.100000000000000006e-01 5.876504999999999646e-01 3.326454999999999984e+01 1.717060000000000173e+02 1.496825000000000045e+03
1.110000000000000014e-01 5.876099999999999657e-01 3.253359999999999985e+01 1.714884999999999877e+02 1.496750000000000000e+03
1.120000000000000023e-01 5.875660000000000327e-01 3.181935000000000002e+01 1.712644999999999982e+02 1.496675000000000182e+03
1.130000000000000032e-01 5.875170000000000670e-01 3.111830000000000140e+01 1.710279999999999916e+02 1.496595000000000027e+03
1.140000000000000041e-01 5.874624999999999986e-01 3.042649999999999721e+01 1.707755000000000223e+02 1.496509999999999991e+03
1.150000000000000050e-01 5.874004999999999921e-01 2.973969999999999914e+01 1.704995000000000118e+02 1.496409999999999854e+03
1.160000000000000059e-01 5.873295000000000599e-01 2.905389999999999873e+01 1.701945000000000050e+02 1.496315000000000055e+03
1.170000000000000068e-01 5.872484999999999511e-01 2.836514999999999986e+01 1.698550000000000182e+02 1.496200000000000045e+03
1.180000000000000077e-01 5.871564999999999701e-01 2.766985000000000383e+01 1.694774999999999920e+02 1.496074999999999818e+03
1.190000000000000085e-01 5.870535000000000059e-01 2.696500000000000341e+01 1.690559999999999832e+02 1.495940000000000055e+03
1.200000000000000094e-01 5.869379999999999598e-01 2.624804999999999922e+01 1.685894999999999868e+02 1.495789999999999964e+03
1.209999999999999964e-01 5.868105000000000127e-01 2.551735000000000042e+01 1.680749999999999886e+02 1.495619999999999891e+03
1.219999999999999973e-01 5.866715000000000124e-01 2.477199999999999847e+01 1.675129999999999768e+02 1.495440000000000055e+03
1.229999999999999982e-01 5.865205000000000002e-01 2.401194999999999879e+01 1.669050000000000011e+02 1.495244999999999891e+03
1.239999999999999991e-01 5.863589999999999636e-01 2.323789999999999978e+01 1.662524999999999977e+02 1.495029999999999973e+03
1.250000000000000000e-01 5.861879999999999313e-01 2.245154999999999745e+01 1.655604999999999905e+02 1.494809999999999945e+03
1.260000000000000009e-01 5.860090000000000021e-01 2.165524999999999878e+01 1.648334999999999866e+02 1.494575000000000045e+03
1.270000000000000018e-01 5.858240000000000114e-01 2.085219999999999985e+01 1.640780000000000030e+02 1.494329999999999927e+03
1.280000000000000027e-01 5.856345000000000578e-01 2.004619999999999891e+01 1.633025000000000091e+02 1.494079999999999927e+03
1.290000000000000036e-01 5.854429999999999357e-01 1.924164999999999992e+01 1.625135000000000218e+02 1.493820000000000164e+03
1.300000000000000044e-01 5.852509999999999657e-01 1.844330000000000069e+01 1.617210000000000036e+02 1.493559999999999945e+03
1.310000000000000053e-01 5.850615000000000121e-01 1.765615000000000023e+01 1.609329999999999927e+02 1.493295000000000073e+03
1.320000000000000062e-01 5.848765000000000214e-01 1.688530000000000086e+01 1.601594999999999800e+02 1.493039999999999964e+03
1.330000000000000071e-01 5.846985000000000099e-01 1.613584999999999781e+01 1.594095000000000084e+02 1.492785000000000082e+03
1.340000000000000080e-01 5.845280000000000475e-01 1.541269999999999918e+01 1.586895000000000095e+02 1.492539999999999964e+03
1.350000000000000089e-01 5.843679999999999986e-01 1.472029000000000032e+01 1.580095000000000027e+02 1.492309999999999945e+03
1.360000000000000098e-01 5.842199999999999616e-01 1.406259000000000015e+01 1.573750000000000000e+02 1.492085000000000036e+03
1.370000000000000107e-01 5.840840000000000476e-01 1.344303499999999829e+01 1.567909999999999968e+02 1.491880000000000109e+03
1.380000000000000115e-01 5.839624999999999400e-01 1.286408499999999933e+01 1.562620000000000005e+02 1.491690000000000055e+03
1.390000000000000124e-01 5.838550000000000129e-01 1.232770000000000010e+01 1.557909999999999968e+02 1.491514999999999873e+03
1.400000000000000133e-01 5.837609999999999744e-01 1.183485999999999905e+01 1.553785000000000025e+02 1.491360000000000127e+03
1.410000000000000142e-01 5.836814999999999642e-01 1.138566499999999948e+01 1.550250000000000057e+02 1.491230000000000018e+03
1.420000000000000151e-01 5.836155000000000648e-01 1.097961500000000079e+01 1.547280000000000086e+02 1.491110000000000127e+03
1.430000000000000160e-01 5.835615000000000663e-01 1.061524999999999963e+01 1.544850000000000136e+02 1.491009999999999991e+03
1.440000000000000169e-01 5.835194999999999688e-01 1.029066500000000062e+01 1.542909999999999968e+02 1.490924999999999955e+03
1.450000000000000178e-01 5.834869999999999779e-01 1.000333999999999968e+01 1.541430000000000007e+02 1.490855000000000018e+03
1.459999999999999909e-01 5.834635000000000238e-01 9.750299999999999301e+00 1.540335000000000036e+02 1.490805000000000064e+03
1.469999999999999918e-01 5.834475000000000078e-01 9.528349999999999653e+00 1.539579999999999984e+02 1.490759999999999991e+03
1.479999999999999927e-01 5.834369999999999834e-01 9.334065000000000722e+00 1.539089999999999918e+02 1.490730000000000018e+03
1.489999999999999936e-01 5.834304999999999630e-01 9.164134999999999920e+00 1.538815000000000168e+02 1.490704999999999927e+03
1.499999999999999944e-01 5.834274999999999878e-01 9.015055000000000263e+00 1.538685000000000116e+02 1.490690000000000055e+03
1.509999999999999953e-01 5.834260000000000002e-01 8.883704999999999075e+00 1.538659999999999854e+02 1.490674999999999955e+03
1.519999999999999962e-01 5.834249999999999714e-01 8.767054999999999154e+00 1.538684999999999832e+02 1.490664999999999964e+03
1.529999999999999971e-01 5.834245000000000125e-01 8.662409999999999499e+00 1.538720000000000141e+02 1.490654999999999973e+03
1.539999999999999980e-01 5.834230000000000249e-01 8.567214999999999137e+00 1.538725000000000023e+02 1.490650000000000091e+03
1.549999999999999989e-01 5.834205000000000085e-01 8.479414999999999480e+00 1.538689999999999998e+02 1.490639999999999873e+03
1.559999999999999998e-01 5.834154999999999758e-01 8.397130000000000649e+00 1.538580000000000041e+02 1.490630000000000109e+03
1.570000000000000007e-01 5.834089999999999554e-01 8.318799999999999528e+00 1.538385000000000105e+02 1.490625000000000000e+03
1.580000000000000016e-01 5.834000000000000297e-01 8.243130000000000734e+00 1.538100000000000023e+02 1.490610000000000127e+03
1.590000000000000024e-01 5.833889999999999354e-01 8.169064999999999799e+00 1.537715000000000032e+02 1.490599999999999909e+03
