# t [s], A [cm^2], U [cm/s], P [cPa], c [cm/s]
1.000000000000000021e-03 7.734294999999999920e-01 6.237100000000002364e-03 1.031189999999999998e+02 1.661610000000000127e+03
2.000000000000000042e-03 7.734155000000000335e-01 -5.071167999999999162e-03 1.030909999999999940e+02 1.661605000000000018e+03
3.000000000000000062e-03 7.734554999999999625e-01 5.081479999999999331e-02 1.031535000000000082e+02 1.661619999999999891e+03
4.000000000000000083e-03 7.735199999999999854e-01 1.487110499999999835e-01 1.032819999999999965e+02 1.661644999999999982e+03
5.000000000000000104e-03 7.735205000000000553e-01 1.700409999999999977e-01 1.032984999999999900e+02 1.661654999999999973e+03
6.000000000000000125e-03 7.734539999999999749e-01 9.521400000000000696e-02 1.031415000000000077e+02 1.661619999999999891e+03
7.000000000000000146e-03 7.733950000000000546e-01 2.811500000000000110e-02 1.029350000000000023e+02 1.661570000000000164e+03
8.000000000000000167e-03 7.733375000000000110e-01 -4.504400000000002846e-02 1.026885000000000048e+02 1.661514999999999873e+03
9.000000000000001055e-03 7.732324999999999893e-01 -2.015975000000000406e-01 1.023080000000000069e+02 1.661434999999999945e+03
1.000000000000000194e-02 7.730714999999999115e-01 -4.594450000000001033e-01 1.017475000000000023e+02 1.661309999999999945e+03
1.099999999999999936e-02 7.728435000000000166e-01 -8.308600000000000430e-01 1.009625499999999931e+02 1.661139999999999873e+03
1.200000000000000025e-02 7.725265000000000049e-01 -1.340465000000000018e+00 9.988524999999999920e+01 1.660900000000000091e+03
1.300000000000000114e-02 7.721255000000000202e-01 -1.966229999999999922e+00 9.850075000000001069e+01 1.660590000000000146e+03
1.400000000000000203e-02 7.716905000000000570e-01 -2.610739999999999839e+00 9.690315000000001078e+01 1.660215000000000146e+03
1.499999999999999944e-02 7.712900000000000311e-01 -3.144268000000000285e+00 9.525694999999998913e+01 1.659819999999999936e+03
1.600000000000000033e-02 7.709654999999999703e-01 -3.469207999999999625e+00 9.371224999999999739e+01 1.659434999999999945e+03
1.700000000000000122e-02 7.707215000000000593e-01 -3.553777499999999812e+00 9.234559999999999036e+01 1.659075000000000045e+03
1.800000000000000211e-02 7.705265000000000031e-01 -3.427079500000000056e+00 9.114574999999999250e+01 1.658740000000000009e+03
1.900000000000000300e-02 7.703385000000000371e-01 -3.152425499999999658e+00 9.003979999999999961e+01 1.658420000000000073e+03
2.000000000000000042e-02 7.701175000000000104e-01 -2.796834000000000042e+00 8.893289999999998940e+01 1.658099999999999909e+03
2.100000000000000130e-02 7.698420000000000263e-01 -2.407763000000000098e+00 8.774665000000000248e+01 1.657759999999999991e+03
2.200000000000000219e-02 7.695115000000000149e-01 -2.002079999999999860e+00 8.644360000000000355e+01 1.657394999999999982e+03
2.299999999999999961e-02 7.691430000000000211e-01 -1.568010000000000126e+00 8.503444999999999254e+01 1.657005000000000109e+03
2.400000000000000050e-02 7.687610000000000277e-01 -1.077569999999999917e+00 8.356619999999999493e+01 1.656590000000000146e+03
2.500000000000000139e-02 7.683900000000000174e-01 -5.039849999999999053e-01 8.209979999999998768e+01 1.656179999999999836e+03
2.600000000000000228e-02 7.680420000000000025e-01 1.625700000000001033e-01 8.068420000000000414e+01 1.655775000000000091e+03
2.700000000000000316e-02 7.677145000000000774e-01 9.059699999999999420e-01 7.933719999999999573e+01 1.655384999999999991e+03
2.800000000000000058e-02 7.673915000000000042e-01 1.683664999999999967e+00 7.803759999999999764e+01 1.655005000000000109e+03
2.900000000000000147e-02 7.670460000000000056e-01 2.433675000000000033e+00 7.672880000000000678e+01 1.654625000000000000e+03
3.000000000000000236e-02 7.666505000000000125e-01 3.086849999999999650e+00 7.533244999999999436e+01 1.654230000000000018e+03
3.099999999999999978e-02 7.661819999999999187e-01 3.581335000000000157e+00 7.376855000000000473e+01 1.653799999999999955e+03
3.200000000000000067e-02 7.656279999999999752e-01 3.876079999999999970e+00 7.197755000000000791e+01 1.653325000000000045e+03
3.300000000000000155e-02 7.649934999999999929e-01 3.959479999999999666e+00 6.993745000000001255e+01 1.652799999999999955e+03
3.400000000000000244e-02 7.642984999999999918e-01 3.850824999999999942e+00 6.767275000000000773e+01 1.652219999999999800e+03
3.500000000000000333e-02 7.635735000000000161e-01 3.593954999999999789e+00 6.525034999999999741e+01 1.651610000000000127e+03
3.600000000000000422e-02 7.628539999999999210e-01 3.245619999999999727e+00 6.276654999999999518e+01 1.650974999999999909e+03
3.700000000000000511e-02 7.621729999999999894e-01 2.863539999999999974e+00 6.032904999999999518e+01 1.650349999999999909e+03
3.799999999999999906e-02 7.615555000000000518e-01 2.496650000000000258e+00 5.803964999999999463e+01 1.649755000000000109e+03
3.899999999999999994e-02 7.610200000000000298e-01 2.179969999999999963e+00 5.598239999999999839e+01 1.649204999999999927e+03
4.000000000000000083e-02 7.605729999999999436e-01 1.933869999999999756e+00 5.421685000000000088e+01 1.648724999999999909e+03
4.100000000000000172e-02 7.602174999999999905e-01 1.766585000000000072e+00 5.277795000000000414e+01 1.648319999999999936e+03
4.200000000000000261e-02 7.599504999999999733e-01 1.678689999999999793e+00 5.167960000000000065e+01 1.647994999999999891e+03
4.300000000000000350e-02 7.597685000000000688e-01 1.668055000000000065e+00 5.092140000000000555e+01 1.647759999999999991e+03
4.400000000000000439e-02 7.596680000000000099e-01 1.734040999999999944e+00 5.049554999999999438e+01 1.647605000000000018e+03
4.499999999999999833e-02 7.596475000000000311e-01 1.880144999999999955e+00 5.039315000000000566e+01 1.647535000000000082e+03
4.599999999999999922e-02 7.597070000000000212e-01 2.114659999999999762e+00 5.060819999999999652e+01 1.647550000000000182e+03
4.700000000000000011e-02 7.598500000000000254e-01 2.449291999999999803e+00 5.113824999999999932e+01 1.647644999999999982e+03
4.800000000000000100e-02 7.600780000000000314e-01 2.896482999999999919e+00 5.198324999999999818e+01 1.647825000000000045e+03
4.900000000000000189e-02 7.603910000000000391e-01 3.466231999999999758e+00 5.314194999999999425e+01 1.648085000000000036e+03
5.000000000000000278e-02 7.607880000000000198e-01 4.163274749999999358e+00 5.460824999999999818e+01 1.648424999999999955e+03
5.100000000000000366e-02 7.612630000000000230e-01 4.985276200000000379e+00 5.636814999999999998e+01 1.648844999999999800e+03
5.200000000000000455e-02 7.618084999999999996e-01 5.922305999999999848e+00 5.839770000000000039e+01 1.649335000000000036e+03
5.300000000000000544e-02 7.624119999999999786e-01 6.957640500000000117e+00 6.066299999999999670e+01 1.649884999999999991e+03
5.399999999999999939e-02 7.630604999999999194e-01 8.069189999999998975e+00 6.312189999999999657e+01 1.650489999999999782e+03
5.500000000000000028e-02 7.637400000000000855e-01 9.232095000000001050e+00 6.572660000000000480e+01 1.651144999999999982e+03
5.600000000000000117e-02 7.644355000000000455e-01 1.042069500000000026e+01 6.842700000000000671e+01 1.651829999999999927e+03
5.700000000000000205e-02 7.651360000000000383e-01 1.161106499999999997e+01 7.117464999999999975e+01 1.652529999999999973e+03
5.800000000000000294e-02 7.658304999999999696e-01 1.278224499999999964e+01 7.392565000000000452e+01 1.653239999999999782e+03
5.900000000000000383e-02 7.665105000000000945e-01 1.391755500000000012e+01 7.664330000000001064e+01 1.653954999999999927e+03
6.000000000000000472e-02 7.671725000000000350e-01 1.500479499999999966e+01 7.929935000000000400e+01 1.654654999999999973e+03
6.099999999999999867e-02 7.678125000000000089e-01 1.603594999999999970e+01 8.187434999999999263e+01 1.655345000000000027e+03
6.199999999999999956e-02 7.684294999999999876e-01 1.700675000000000026e+01 8.435734999999999673e+01 1.656014999999999873e+03
6.300000000000000044e-02 7.690240000000000409e-01 1.791575000000000273e+01 8.674450000000000216e+01 1.656659999999999854e+03
6.400000000000000133e-02 7.695980000000000043e-01 1.876344999999999885e+01 8.903759999999999764e+01 1.657284999999999854e+03
6.500000000000000222e-02 7.701530000000000875e-01 1.955154999999999887e+01 9.124250000000000682e+01 1.657889999999999873e+03
6.600000000000000311e-02 7.706925000000000026e-01 2.028235000000000099e+01 9.336705000000000609e+01 1.658474999999999909e+03
6.700000000000000400e-02 7.712164999999999715e-01 2.095789999999999864e+01 9.541995000000000005e+01 1.659045000000000073e+03
6.800000000000000488e-02 7.717270000000000518e-01 2.157990000000000208e+01 9.740899999999999181e+01 1.659595000000000027e+03
6.900000000000000577e-02 7.722260000000000790e-01 2.214920000000000044e+01 9.933995000000000175e+01 1.660130000000000109e+03
7.000000000000000666e-02 7.727129999999999832e-01 2.266564999999999941e+01 1.012156999999999982e+02 1.660650000000000091e+03
7.100000000000000755e-02 7.731859999999999289e-01 2.312805000000000177e+01 1.030372500000000002e+02 1.661155000000000200e+03
7.200000000000000844e-02 7.736450000000000271e-01 2.353434999999999988e+01 1.047999999999999972e+02 1.661650000000000091e+03
7.300000000000000933e-02 7.740865000000000107e-01 2.388190000000000168e+01 1.064989999999999952e+02 1.662125000000000000e+03
7.399999999999999634e-02 7.745090000000000030e-01 2.416779999999999973e+01 1.081260000000000048e+02 1.662579999999999927e+03
7.499999999999999722e-02 7.749090000000000700e-01 2.438915000000000077e+01 1.096709999999999923e+02 1.663014999999999873e+03
7.599999999999999811e-02 7.752844999999999320e-01 2.454364999999999952e+01 1.111239999999999952e+02 1.663425000000000182e+03
7.699999999999999900e-02 7.756324999999999470e-01 2.462959999999999994e+01 1.124764999999999873e+02 1.663815000000000055e+03
7.799999999999999989e-02 7.759519999999999751e-01 2.464634999999999820e+01 1.137180000000000035e+02 1.664174999999999955e+03
7.900000000000000078e-02 7.762404999999999999e-01 2.459404999999999930e+01 1.148425000000000011e+02 1.664505000000000109e+03
8.000000000000000167e-02 7.764984999999999804e-01 2.447375000000000256e+01 1.158455000000000013e+02 1.664799999999999955e+03
8.100000000000000255e-02 7.767239999999999700e-01 2.428710000000000235e+01 1.167220000000000084e+02 1.665065000000000055e+03
8.200000000000000344e-02 7.769174999999999276e-01 2.403659999999999997e+01 1.174705000000000013e+02 1.665295000000000073e+03
8.300000000000000433e-02 7.770779999999999355e-01 2.372489999999999810e+01 1.180914999999999964e+02 1.665490000000000009e+03
8.400000000000000522e-02 7.772075000000000511e-01 2.335515000000000185e+01 1.185840000000000032e+02 1.665650000000000091e+03
8.500000000000000611e-02 7.773050000000000237e-01 2.293090000000000117e+01 1.189525000000000006e+02 1.665779999999999973e+03
8.600000000000000699e-02 7.773719999999999519e-01 2.245609999999999928e+01 1.191984999999999957e+02 1.665875000000000000e+03
8.700000000000000788e-02 7.774094999999999756e-01 2.193534999999999968e+01 1.193274999999999864e+02 1.665940000000000055e+03
8.800000000000000877e-02 7.774195000000000411e-01 2.137359999999999971e+01 1.193460000000000036e+02 1.665969999999999800e+03
8.899999999999999578e-02 7.774039999999999839e-01 2.077689999999999770e+01 1.192620000000000005e+02 1.665970000000000027e+03
8.999999999999999667e-02 7.773645000000000138e-01 2.015165000000000006e+01 1.190829999999999984e+02 1.665944999999999936e+03
9.099999999999999756e-02 7.773060000000000525e-01 1.950495000000000090e+01 1.188215000000000003e+02 1.665900000000000091e+03
9.199999999999999845e-02 7.772300000000000875e-01 1.884430000000000049e+01 1.184890000000000043e+02 1.665829999999999927e+03
9.299999999999999933e-02 7.771394999999999831e-01 1.817729999999999890e+01 1.180974999999999966e+02 1.665740000000000009e+03
9.400000000000000022e-02 7.770394999999999941e-01 1.751129999999999853e+01 1.176599999999999966e+02 1.665634999999999991e+03
9.500000000000000111e-02 7.769314999999999971e-01 1.685325000000000273e+01 1.171894999999999953e+02 1.665519999999999982e+03
9.600000000000000200e-02 7.768194999999999961e-01 1.620915000000000106e+01 1.166980000000000075e+02 1.665400000000000091e+03
9.700000000000000289e-02 7.767049999999999788e-01 1.558399999999999963e+01 1.161949999999999932e+02 1.665269999999999982e+03
9.800000000000000377e-02 7.765900000000000025e-01 1.498139999999999894e+01 1.156905000000000001e+02 1.665139999999999873e+03
9.900000000000000466e-02 7.764755000000000962e-01 1.440365000000000073e+01 1.151899999999999977e+02 1.665005000000000109e+03
1.000000000000000056e-01 7.763629999999999143e-01 1.385160000000000124e+01 1.146984999999999957e+02 1.664875000000000000e+03
1.010000000000000064e-01 7.762514999999999832e-01 1.332489499999999971e+01 1.142169999999999987e+02 1.664740000000000009e+03
1.020000000000000073e-01 7.761405000000000109e-01 1.282195000000000107e+01 1.137459999999999951e+02 1.664615000000000009e+03
1.030000000000000082e-01 7.760304999999999565e-01 1.234023000000000003e+01 1.132830000000000013e+02 1.664480000000000018e+03
1.040000000000000091e-01 7.759194999999999842e-01 1.187640999999999991e+01 1.128255000000000052e+02 1.664355000000000018e+03
1.050000000000000100e-01 7.758059999999999956e-01 1.142676000000000158e+01 1.123685000000000116e+02 1.664230000000000018e+03
1.059999999999999970e-01 7.756890000000000729e-01 1.098718500000000020e+01 1.119070000000000107e+02 1.664099999999999909e+03
1.069999999999999979e-01 7.755674999999999653e-01 1.055349000000000004e+01 1.114360000000000070e+02 1.663974999999999909e+03
1.079999999999999988e-01 7.754404999999999770e-01 1.012170500000000040e+01 1.109500000000000028e+02 1.663835000000000036e+03
1.089999999999999997e-01 7.753060000000000507e-01 9.688019999999999854e+00 1.104449999999999932e+02 1.663700000000000045e+03
1.100000000000000006e-01 7.751639999999999642e-01 9.249324999999998909e+00 1.099170000000000016e+02 1.663554999999999836e+03
1.110000000000000014e-01 7.750145000000000506e-01 8.802929999999999922e+00 1.093629999999999995e+02 1.663404999999999973e+03
1.120000000000000023e-01 7.748565000000000591e-01 8.347080000000000055e+00 1.087824999999999989e+02 1.663250000000000000e+03
1.130000000000000032e-01 7.746910000000000185e-01 7.880804999999999616e+00 1.081749999999999972e+02 1.663095000000000027e+03
1.140000000000000041e-01 7.745195000000000274e-01 7.404239999999999711e+00 1.075434999999999945e+02 1.662920000000000073e+03
1.150000000000000050e-01 7.743424999999999336e-01 6.918279999999999319e+00 1.068910000000000053e+02 1.662755000000000109e+03
1.160000000000000059e-01 7.741620000000000168e-01 6.424995000000000012e+00 1.062235000000000014e+02 1.662574999999999818e+03
1.170000000000000068e-01 7.739800000000000013e-01 5.927270000000000039e+00 1.055469999999999970e+02 1.662394999999999982e+03
1.180000000000000077e-01 7.737994999999999735e-01 5.428814999999999280e+00 1.048710000000000093e+02 1.662215000000000146e+03
1.190000000000000085e-01 7.736224999999999907e-01 4.933970000000000411e+00 1.042033500000000004e+02 1.662039999999999964e+03
1.200000000000000094e-01 7.734524999999999872e-01 4.447560000000000180e+00 1.035553999999999917e+02 1.661865000000000009e+03
1.209999999999999964e-01 7.732909999999999506e-01 3.974690000000000278e+00 1.029364500000000078e+02 1.661695000000000164e+03
1.219999999999999973e-01 7.731419999999999959e-01 3.520504999999999995e+00 1.023573999999999984e+02 1.661539999999999964e+03
1.229999999999999982e-01 7.730069999999999997e-01 3.089986000000000121e+00 1.018278500000000122e+02 1.661389999999999873e+03
1.239999999999999991e-01 7.728889999999999372e-01 2.687743499999999841e+00 1.013564499999999953e+02 1.661259999999999991e+03
1.250000000000000000e-01 7.727899999999999769e-01 2.317800499999999708e+00 1.009507000000000119e+02 1.661144999999999982e+03
1.260000000000000009e-01 7.727100000000000080e-01 1.983453499999999980e+00 1.006168499999999995e+02 1.661045000000000073e+03
1.270000000000000018e-01 7.726500000000000590e-01 1.687104499999999785e+00 1.003592500000000030e+02 1.660964999999999918e+03
1.280000000000000027e-01 7.726115000000000066e-01 1.430210499999999829e+00 1.001795500000000061e+02 1.660905000000000200e+03
1.290000000000000036e-01 7.725929999999999742e-01 1.213208999999999982e+00 1.000773499999999956e+02 1.660865000000000009e+03
1.300000000000000044e-01 7.725944999999999618e-01 1.035568999999999962e+00 1.000517499999999984e+02 1.660839999999999918e+03
1.310000000000000053e-01 7.726135000000000641e-01 8.958245000000000235e-01 1.000979499999999973e+02 1.660845000000000027e+03
1.320000000000000062e-01 7.726494999999999891e-01 7.916980000000000128e-01 1.002108499999999935e+02 1.660860000000000127e+03
1.330000000000000071e-01 7.726994999999999836e-01 7.202330000000000121e-01 1.003830000000000098e+02 1.660889999999999873e+03
1.340000000000000080e-01 7.727619999999999489e-01 6.779717000000000660e-01 1.006065000000000111e+02 1.660940000000000055e+03
1.350000000000000089e-01 7.728345000000000908e-01 6.611009999999999387e-01 1.008735000000000070e+02 1.661000000000000000e+03
1.360000000000000098e-01 7.729144999999999488e-01 6.656320000000000014e-01 1.011740000000000066e+02 1.661069999999999936e+03
1.370000000000000107e-01 7.729995000000000616e-01 6.875489999999999657e-01 1.014989999999999952e+02 1.661144999999999982e+03
1.380000000000000115e-01 7.730885000000000673e-01 7.229274999999999451e-01 1.018404999999999916e+02 1.661230000000000018e+03
1.390000000000000124e-01 7.731780000000000319e-01 7.680384999999999573e-01 1.021899999999999977e+02 1.661320000000000164e+03
1.400000000000000133e-01 7.732674999999999965e-01 8.194329999999999670e-01 1.025405000000000086e+02 1.661409999999999854e+03
1.410000000000000142e-01 7.733550000000000146e-01 8.739861500000000172e-01 1.028859999999999957e+02 1.661500000000000000e+03
1.420000000000000151e-01 7.734389999999999876e-01 9.289337500000000025e-01 1.032199999999999989e+02 1.661585000000000036e+03
1.430000000000000160e-01 7.735194999999999155e-01 9.818775000000000697e-01 1.035384999999999991e+02 1.661664999999999964e+03
1.440000000000000169e-01 7.735940000000000039e-01 1.030824999999999880e+00 1.038385000000000105e+02 1.661744999999999891e+03
1.450000000000000178e-01 7.736635000000000595e-01 1.074163999999999897e+00 1.041170000000000044e+02 1.661819999999999936e+03
1.459999999999999909e-01 7.737275000000000125e-01 1.110665000000000013e+00 1.043714999999999975e+02 1.661894999999999982e+03
1.469999999999999918e-01 7.737849999999999451e-01 1.139488500000000126e+00 1.046015000000000015e+02 1.661960000000000036e+03
1.479999999999999927e-01 7.738365000000000382e-01 1.160144999999999982e+00 1.048070000000000022e+02 1.662019999999999982e+03
1.489999999999999936e-01 7.738819999999999588e-01 1.172479999999999967e+00 1.049879999999999995e+02 1.662070000000000164e+03
1.499999999999999944e-01 7.739214999999999289e-01 1.176642999999999883e+00 1.051449999999999960e+02 1.662115000000000009e+03
1.509999999999999953e-01 7.739560000000000883e-01 1.173033999999999910e+00 1.052794999999999987e+02 1.662154999999999973e+03
1.519999999999999962e-01 7.739854999999999929e-01 1.162255000000000038e+00 1.053924999999999983e+02 1.662190000000000055e+03
1.529999999999999971e-01 7.740104999999999347e-01 1.145055000000000156e+00 1.054859999999999900e+02 1.662220000000000027e+03
1.539999999999999980e-01 7.740305000000000657e-01 1.122260000000000035e+00 1.055614999999999952e+02 1.662244999999999891e+03
1.549999999999999989e-01 7.740474999999999994e-01 1.094729999999999981e+00 1.056204999999999927e+02 1.662264999999999873e+03
1.559999999999999998e-01 7.740609999999999991e-01 1.063274999999999970e+00 1.056645000000000039e+02 1.662279999999999973e+03
1.570000000000000007e-01 7.740709999999999535e-01 1.028627999999999876e+00 1.056955000000000098e+02 1.662289999999999964e+03
1.580000000000000016e-01 7.740780000000000438e-01 9.914149999999999352e-01 1.057129999999999939e+02 1.662299999999999955e+03
1.590000000000000024e-01 7.740819999999999368e-01 9.521275000000000155e-01 1.057189999999999941e+02 1.662304999999999836e+03
