# t [s], A [cm^2], U [cm/s], P [cPa], c [cm/s]
1.000000000000000021e-03 1.871935000000000127e-01 2.183170000000000111e-01 1.053495000000000061e+02 2.017404999999999973e+03
2.000000000000000042e-03 1.871484999999999954e-01 1.757038000000000100e+00 1.022174499999999995e+02 2.017055000000000064e+03
3.000000000000000062e-03 1.870094999999999952e-01 3.720756499999999356e+00 9.776859999999999218e+01 2.016045000000000073e+03
4.000000000000000083e-03 1.868104999999999905e-01 5.947343649999999649e+00 9.265659999999999741e+01 2.014619999999999891e+03
5.000000000000000104e-03 1.865884999999999905e-01 8.366229999999999833e+00 8.778964999999999463e+01 2.013045000000000073e+03
6.000000000000000125e-03 1.863694999999999935e-01 1.082900499999999866e+01 8.363544999999999163e+01 2.011509999999999991e+03
7.000000000000000146e-03 1.861634999999999818e-01 1.311629499999999915e+01 8.011690000000000111e+01 2.010085000000000036e+03
8.000000000000000167e-03 1.859719999999999984e-01 1.508314500000000002e+01 7.697525000000000261e+01 2.008789999999999964e+03
9.000000000000001055e-03 1.858000000000000207e-01 1.672994999999999877e+01 7.417570000000000618e+01 2.007644999999999982e+03
1.000000000000000194e-02 1.856524999999999981e-01 1.810009999999999764e+01 7.181255000000000166e+01 2.006670000000000073e+03
1.099999999999999936e-02 1.855295000000000138e-01 1.921914999999999907e+01 6.991169999999999618e+01 2.005865000000000009e+03
1.200000000000000025e-02 1.854304999999999981e-01 2.010940000000000083e+01 6.844110000000000582e+01 2.005230000000000018e+03
1.300000000000000114e-02 1.853535000000000044e-01 2.078770000000000095e+01 6.733885000000000787e+01 2.004744999999999891e+03
1.400000000000000203e-02 1.852934999999999999e-01 2.125795000000000101e+01 6.649434999999999718e+01 2.004369999999999891e+03
1.499999999999999944e-02 1.852455000000000074e-01 2.153985000000000127e+01 6.580219999999999914e+01 2.004079999999999927e+03
1.600000000000000033e-02 1.852090000000000125e-01 2.170960000000000178e+01 6.528864999999998986e+01 2.003869999999999891e+03
1.700000000000000122e-02 1.851895000000000069e-01 2.189869999999999806e+01 6.516749999999998977e+01 2.003755000000000109e+03
1.800000000000000211e-02 1.851949999999999985e-01 2.223980000000000246e+01 6.573879999999999768e+01 2.003804999999999836e+03
1.900000000000000300e-02 1.852329999999999810e-01 2.279910000000000281e+01 6.719650000000000034e+01 2.004054999999999836e+03
2.000000000000000042e-02 1.853029999999999955e-01 2.354115000000000180e+01 6.947875000000000512e+01 2.004519999999999982e+03
2.100000000000000130e-02 1.853965000000000196e-01 2.434199999999999875e+01 7.224745000000000061e+01 2.005139999999999873e+03
2.200000000000000219e-02 1.854994999999999838e-01 2.503889999999999816e+01 7.499580000000000268e+01 2.005825000000000045e+03
2.299999999999999961e-02 1.855939999999999812e-01 2.548975000000000080e+01 7.722085000000001287e+01 2.006470000000000027e+03
2.400000000000000050e-02 1.856669999999999987e-01 2.561874999999999858e+01 7.858360000000000412e+01 2.006985000000000127e+03
2.500000000000000139e-02 1.857114999999999738e-01 2.543299999999999983e+01 7.899739999999999895e+01 2.007299999999999955e+03
2.600000000000000228e-02 1.857269999999999754e-01 2.500925000000000153e+01 7.862330000000000041e+01 2.007429999999999836e+03
2.700000000000000316e-02 1.857209999999999972e-01 2.445850000000000080e+01 7.778225000000000477e+01 2.007409999999999854e+03
2.800000000000000058e-02 1.857024999999999926e-01 2.388439999999999941e+01 7.682699999999999818e+01 2.007295000000000073e+03
2.900000000000000147e-02 1.856814999999999993e-01 2.335125000000000028e+01 7.602359999999998763e+01 2.007159999999999854e+03
3.000000000000000236e-02 1.856634999999999813e-01 2.287055000000000149e+01 7.548140000000000782e+01 2.007034999999999854e+03
3.099999999999999978e-02 1.856495000000000228e-01 2.240755000000000052e+01 7.514609999999998990e+01 2.006945000000000164e+03
3.200000000000000067e-02 1.856369999999999965e-01 2.190245000000000175e+01 7.484884999999999877e+01 2.006860000000000127e+03
3.300000000000000155e-02 1.856200000000000072e-01 2.129795000000000016e+01 7.438660000000000139e+01 2.006750000000000000e+03
3.400000000000000244e-02 1.855940000000000090e-01 2.056434999999999746e+01 7.360794999999998822e+01 2.006585000000000036e+03
3.500000000000000333e-02 1.855565000000000131e-01 1.971560000000000201e+01 7.247714999999999463e+01 2.006340000000000146e+03
3.600000000000000422e-02 1.855090000000000072e-01 1.881109999999999971e+01 7.109960000000000946e+01 2.006034999999999854e+03
3.700000000000000511e-02 1.854569999999999830e-01 1.794314999999999927e+01 6.970165000000000077e+01 2.005694999999999936e+03
3.799999999999999906e-02 1.854089999999999905e-01 1.721460000000000079e+01 6.857124999999999204e+01 2.005369999999999891e+03
3.899999999999999994e-02 1.853754999999999986e-01 1.671225000000000094e+01 6.797999999999998977e+01 2.005140000000000100e+03
4.000000000000000083e-02 1.853635000000000144e-01 1.648590000000000089e+01 6.810970000000000368e+01 2.005045000000000073e+03
4.100000000000000172e-02 1.853775000000000006e-01 1.653644999999999854e+01 6.900480000000000302e+01 2.005119999999999891e+03
4.200000000000000261e-02 1.854169999999999985e-01 1.681725000000000136e+01 7.056154999999999688e+01 2.005365000000000009e+03
4.300000000000000350e-02 1.854775000000000174e-01 1.724439999999999884e+01 7.255215000000001169e+01 2.005744999999999891e+03
4.400000000000000439e-02 1.855489999999999917e-01 1.771435000000000315e+01 7.467359999999999332e+01 2.006219999999999800e+03
4.499999999999999833e-02 1.856230000000000102e-01 1.812210000000000321e+01 7.660644999999999527e+01 2.006704999999999927e+03
4.599999999999999922e-02 1.856875000000000053e-01 1.837770000000000081e+01 7.806969999999999743e+01 2.007139999999999873e+03
4.700000000000000011e-02 1.857345000000000246e-01 1.841644999999999754e+01 7.886079999999999757e+01 2.007460000000000036e+03
4.800000000000000100e-02 1.857570000000000054e-01 1.820414999999999850e+01 7.887575000000001069e+01 2.007619999999999891e+03
4.900000000000000189e-02 1.857515000000000138e-01 1.773559999999999803e+01 7.810869999999999891e+01 2.007599999999999909e+03
5.000000000000000278e-02 1.857189999999999952e-01 1.702895000000000181e+01 7.663460000000000605e+01 2.007394999999999982e+03
5.100000000000000366e-02 1.856610000000000205e-01 1.611809999999999832e+01 7.458209999999999695e+01 2.007025000000000091e+03
5.200000000000000455e-02 1.855815000000000103e-01 1.504439999999999955e+01 7.210399999999999920e+01 2.006505000000000109e+03
5.300000000000000544e-02 1.854859999999999842e-01 1.385065000000000168e+01 6.935194999999998799e+01 2.005880000000000109e+03
5.399999999999999939e-02 1.853799999999999892e-01 1.257695999999999970e+01 6.646014999999999873e+01 2.005174999999999955e+03
5.500000000000000028e-02 1.852670000000000150e-01 1.125981499999999969e+01 6.353815000000000168e+01 2.004425000000000182e+03
5.600000000000000117e-02 1.851510000000000100e-01 9.932725000000001359e+00 6.067249999999999943e+01 2.003654999999999973e+03
5.700000000000000205e-02 1.850360000000000060e-01 8.628025000000000944e+00 5.793390000000000128e+01 2.002889999999999873e+03
5.800000000000000294e-02 1.849254999999999927e-01 7.379015000000000768e+00 5.538630000000000564e+01 2.002150000000000091e+03
5.900000000000000383e-02 1.848219999999999863e-01 6.221235000000000070e+00 5.309485000000000099e+01 2.001454999999999927e+03
6.000000000000000472e-02 1.847285000000000177e-01 5.192745000000000388e+00 5.113060000000000116e+01 2.000825000000000045e+03
6.099999999999999867e-02 1.846480000000000066e-01 4.333054999999999879e+00 4.957124999999999915e+01 2.000284999999999854e+03
6.199999999999999956e-02 1.845849999999999991e-01 3.681159999999999766e+00 4.849765000000000015e+01 1.999849999999999909e+03
6.300000000000000044e-02 1.845414999999999972e-01 3.272775000000000212e+00 4.798725000000000307e+01 1.999539999999999964e+03
6.400000000000000133e-02 1.845205000000000040e-01 3.137494999999999923e+00 4.810634999999999906e+01 1.999389999999999873e+03
6.500000000000000222e-02 1.845255000000000090e-01 3.296255000000000379e+00 4.890259999999999962e+01 1.999400000000000091e+03
6.600000000000000311e-02 1.845575000000000132e-01 3.759545000000000137e+00 5.039915000000000589e+01 1.999599999999999909e+03
6.700000000000000400e-02 1.846180000000000043e-01 4.526545000000000485e+00 5.259159999999999968e+01 1.999974999999999909e+03
6.800000000000000488e-02 1.847054999999999947e-01 5.585200000000000387e+00 5.544724999999999682e+01 2.000535000000000082e+03
6.900000000000000577e-02 1.848194999999999977e-01 6.913199999999999790e+00 5.890794999999999959e+01 2.001275000000000091e+03
7.000000000000000666e-02 1.849580000000000113e-01 8.479495000000000005e+00 6.289419999999999789e+01 2.002184999999999945e+03
7.100000000000000755e-02 1.851180000000000048e-01 1.024635500000000121e+01 6.731090000000000373e+01 2.003235000000000127e+03
7.200000000000000844e-02 1.852949999999999875e-01 1.217139500000000041e+01 7.205369999999999209e+01 2.004405000000000200e+03
7.300000000000000933e-02 1.854864999999999986e-01 1.421000000000000085e+01 7.701505000000000223e+01 2.005675000000000182e+03
7.399999999999999634e-02 1.856869999999999910e-01 1.631734999999999758e+01 8.209045000000000414e+01 2.007005000000000109e+03
7.499999999999999722e-02 1.858930000000000027e-01 1.845084999999999908e+01 8.718344999999999345e+01 2.008390000000000100e+03
7.599999999999999811e-02 1.861015000000000030e-01 2.057144999999999868e+01 9.221039999999999281e+01 2.009779999999999973e+03
7.699999999999999900e-02 1.863084999999999880e-01 2.264589999999999748e+01 9.710435000000001082e+01 2.011174999999999955e+03
7.799999999999999989e-02 1.865109999999999824e-01 2.464734999999999943e+01 1.018165500000000065e+02 2.012545000000000073e+03
7.900000000000000078e-02 1.867079999999999851e-01 2.655659999999999954e+01 1.063185000000000002e+02 2.013880000000000109e+03
8.000000000000000167e-02 1.868985000000000229e-01 2.836180000000000234e+01 1.106020000000000039e+02 2.015170000000000073e+03
8.100000000000000255e-02 1.870804999999999829e-01 3.005799999999999983e+01 1.146740000000000066e+02 2.016414999999999964e+03
8.200000000000000344e-02 1.872560000000000058e-01 3.164639999999999986e+01 1.185570000000000022e+02 2.017610000000000127e+03
8.300000000000000433e-02 1.874250000000000083e-01 3.313289999999999935e+01 1.222819999999999965e+02 2.018764999999999873e+03
8.400000000000000522e-02 1.875874999999999904e-01 3.452649999999999864e+01 1.258859999999999957e+02 2.019880000000000109e+03
8.500000000000000611e-02 1.877459999999999962e-01 3.583764999999999645e+01 1.294039999999999964e+02 2.020965000000000146e+03
8.600000000000000699e-02 1.879014999999999991e-01 3.707679999999999865e+01 1.328679999999999950e+02 2.022034999999999854e+03
8.700000000000000788e-02 1.880545000000000133e-01 3.825334999999999752e+01 1.363034999999999854e+02 2.023085000000000036e+03
8.800000000000000877e-02 1.882064999999999988e-01 3.937434999999999974e+01 1.397244999999999777e+02 2.024125000000000000e+03
8.899999999999999578e-02 1.883569999999999967e-01 4.044424999999999670e+01 1.431365000000000123e+02 2.025155000000000200e+03
8.999999999999999667e-02 1.885069999999999801e-01 4.146455000000000268e+01 1.465339999999999918e+02 2.026184999999999945e+03
9.099999999999999756e-02 1.886555000000000037e-01 4.243359999999999843e+01 1.499014999999999986e+02 2.027210000000000036e+03
9.199999999999999845e-02 1.888024999999999842e-01 4.334730000000000416e+01 1.532175000000000011e+02 2.028215000000000146e+03
9.299999999999999933e-02 1.889465000000000172e-01 4.419930000000000092e+01 1.564540000000000077e+02 2.029210000000000036e+03
9.400000000000000022e-02 1.890870000000000051e-01 4.498134999999999906e+01 1.595779999999999745e+02 2.030174999999999955e+03
9.500000000000000111e-02 1.892224999999999879e-01 4.568394999999999584e+01 1.625575000000000045e+02 2.031110000000000127e+03
9.600000000000000200e-02 1.893520000000000203e-01 4.629729999999999990e+01 1.653575000000000159e+02 2.032000000000000000e+03
9.700000000000000289e-02 1.894740000000000035e-01 4.681119999999999948e+01 1.679465000000000146e+02 2.032844999999999800e+03
9.800000000000000377e-02 1.895864999999999911e-01 4.721614999999999895e+01 1.702950000000000159e+02 2.033625000000000000e+03
9.900000000000000466e-02 1.896889999999999965e-01 4.750365000000000038e+01 1.723774999999999977e+02 2.034335000000000036e+03
1.000000000000000056e-01 1.897810000000000052e-01 4.766655000000000086e+01 1.741725000000000136e+02 2.034974999999999909e+03
1.010000000000000064e-01 1.898610000000000020e-01 4.769979999999999620e+01 1.756659999999999968e+02 2.035534999999999854e+03
1.020000000000000073e-01 1.899279999999999857e-01 4.760054999999999836e+01 1.768495000000000061e+02 2.036009999999999991e+03
1.030000000000000082e-01 1.899830000000000130e-01 4.736874999999999858e+01 1.777210000000000036e+02 2.036400000000000091e+03
1.040000000000000091e-01 1.900244999999999851e-01 4.700704999999999956e+01 1.782855000000000132e+02 2.036694999999999936e+03
1.050000000000000100e-01 1.900540000000000007e-01 4.652109999999999701e+01 1.785559999999999832e+02 2.036909999999999854e+03
1.059999999999999970e-01 1.900709999999999900e-01 4.591920000000000357e+01 1.785509999999999877e+02 2.037034999999999854e+03
1.069999999999999979e-01 1.900764999999999816e-01 4.521249999999999858e+01 1.782964999999999804e+02 2.037085000000000036e+03
1.079999999999999988e-01 1.900719999999999910e-01 4.441400000000000148e+01 1.778224999999999909e+02 2.037065000000000055e+03
1.089999999999999997e-01 1.900584999999999913e-01 4.353875000000000028e+01 1.771630000000000109e+02 2.036974999999999909e+03
1.100000000000000006e-01 1.900364999999999971e-01 4.260264999999999702e+01 1.763534999999999968e+02 2.036835000000000036e+03
1.110000000000000014e-01 1.900080000000000102e-01 4.162219999999999942e+01 1.754314999999999998e+02 2.036644999999999982e+03
1.120000000000000023e-01 1.899744999999999906e-01 4.061360000000000525e+01 1.744314999999999998e+02 2.036420000000000073e+03
1.130000000000000032e-01 1.899375000000000091e-01 3.959244999999999948e+01 1.733874999999999886e+02 2.036170000000000073e+03
1.140000000000000041e-01 1.898974999999999969e-01 3.857300000000000040e+01 1.723300000000000125e+02 2.035900000000000091e+03
1.150000000000000050e-01 1.898569999999999980e-01 3.756780000000000541e+01 1.712835000000000036e+02 2.035625000000000000e+03
1.160000000000000059e-01 1.898160000000000125e-01 3.658735000000000070e+01 1.702674999999999841e+02 2.035340000000000146e+03
1.170000000000000068e-01 1.897754999999999859e-01 3.563974999999999937e+01 1.692980000000000018e+02 2.035065000000000055e+03
1.180000000000000077e-01 1.897364999999999746e-01 3.473069999999999879e+01 1.683834999999999980e+02 2.034795000000000073e+03
1.190000000000000085e-01 1.896995000000000209e-01 3.386329999999999529e+01 1.675264999999999986e+02 2.034534999999999854e+03
1.200000000000000094e-01 1.896639999999999993e-01 3.303820000000000334e+01 1.667255000000000109e+02 2.034289999999999964e+03
1.209999999999999964e-01 1.896300000000000208e-01 3.225359999999999872e+01 1.659725000000000250e+02 2.034054999999999836e+03
1.219999999999999973e-01 1.895975000000000021e-01 3.150574999999999903e+01 1.652560000000000002e+02 2.033825000000000045e+03
1.229999999999999982e-01 1.895660000000000123e-01 3.078884999999999650e+01 1.645600000000000023e+02 2.033605000000000018e+03
1.239999999999999991e-01 1.895354999999999956e-01 3.009570000000000078e+01 1.638675000000000068e+02 2.033389999999999873e+03
1.250000000000000000e-01 1.895045000000000202e-01 2.941809999999999903e+01 1.631580000000000155e+02 2.033179999999999836e+03
1.260000000000000009e-01 1.894730000000000025e-01 2.874729999999999919e+01 1.624105000000000132e+02 2.032954999999999927e+03
1.270000000000000018e-01 1.894389999999999963e-01 2.807430000000000092e+01 1.616059999999999945e+02 2.032724999999999909e+03
1.280000000000000027e-01 1.894035000000000024e-01 2.739070000000000249e+01 1.607245000000000061e+02 2.032480000000000018e+03
1.290000000000000036e-01 1.893640000000000045e-01 2.668890000000000029e+01 1.597514999999999930e+02 2.032210000000000036e+03
1.300000000000000044e-01 1.893215000000000037e-01 2.596249999999999858e+01 1.586739999999999782e+02 2.031920000000000073e+03
1.310000000000000053e-01 1.892745000000000122e-01 2.520685000000000286e+01 1.574845000000000255e+02 2.031599999999999909e+03
1.320000000000000062e-01 1.892234999999999889e-01 2.441920000000000002e+01 1.561789999999999736e+02 2.031250000000000000e+03
1.330000000000000071e-01 1.891674999999999884e-01 2.359875000000000256e+01 1.547595000000000027e+02 2.030869999999999891e+03
1.340000000000000080e-01 1.891069999999999973e-01 2.274714999999999776e+01 1.532339999999999804e+02 2.030454999999999927e+03
1.350000000000000089e-01 1.890425000000000022e-01 2.186800000000000210e+01 1.516134999999999877e+02 2.030014999999999873e+03
1.360000000000000098e-01 1.889744999999999897e-01 2.096710000000000207e+01 1.499159999999999968e+02 2.029550000000000182e+03
1.370000000000000107e-01 1.889029999999999876e-01 2.005209999999999937e+01 1.481619999999999777e+02 2.029070000000000164e+03
1.380000000000000115e-01 1.888294999999999835e-01 1.913190000000000168e+01 1.463750000000000000e+02 2.028565000000000055e+03
1.390000000000000124e-01 1.887544999999999917e-01 1.821689999999999898e+01 1.445824999999999818e+02 2.028055000000000064e+03
1.400000000000000133e-01 1.886800000000000144e-01 1.731794999999999973e+01 1.428104999999999905e+02 2.027539999999999964e+03
1.410000000000000142e-01 1.886054999999999815e-01 1.644614999999999938e+01 1.410869999999999891e+02 2.027035000000000082e+03
1.420000000000000151e-01 1.885335000000000205e-01 1.561219999999999963e+01 1.394379999999999882e+02 2.026545000000000073e+03
1.430000000000000160e-01 1.884639999999999926e-01 1.482610000000000028e+01 1.378870000000000005e+02 2.026065000000000055e+03
1.440000000000000169e-01 1.883985000000000243e-01 1.409665000000000035e+01 1.364530000000000030e+02 2.025614999999999782e+03
1.450000000000000178e-01 1.883374999999999910e-01 1.343115000000000059e+01 1.351535000000000082e+02 2.025195000000000164e+03
1.459999999999999909e-01 1.882814999999999905e-01 1.283500000000000085e+01 1.339985000000000070e+02 2.024809999999999945e+03
1.469999999999999918e-01 1.882320000000000104e-01 1.231160000000000032e+01 1.329945000000000164e+02 2.024465000000000146e+03
1.479999999999999927e-01 1.881875000000000075e-01 1.186250000000000071e+01 1.321440000000000055e+02 2.024160000000000082e+03
1.489999999999999936e-01 1.881494999999999973e-01 1.148717000000000077e+01 1.314424999999999955e+02 2.023894999999999982e+03
1.499999999999999944e-01 1.881174999999999931e-01 1.118318999999999974e+01 1.308840000000000146e+02 2.023670000000000073e+03
1.509999999999999953e-01 1.880915000000000226e-01 1.094662999999999897e+01 1.304559999999999889e+02 2.023480000000000018e+03
1.519999999999999962e-01 1.880705000000000016e-01 1.077201499999999967e+01 1.301469999999999914e+02 2.023335000000000036e+03
1.529999999999999971e-01 1.880545000000000133e-01 1.065287000000000006e+01 1.299399999999999977e+02 2.023220000000000027e+03
1.539999999999999980e-01 1.880425000000000013e-01 1.058200000000000074e+01 1.298185000000000002e+02 2.023130000000000109e+03
1.549999999999999989e-01 1.880339999999999789e-01 1.055165500000000023e+01 1.297649999999999864e+02 2.023070000000000164e+03
1.559999999999999998e-01 1.880290000000000017e-01 1.055400000000000027e+01 1.297630000000000052e+02 2.023035000000000082e+03
1.570000000000000007e-01 1.880259999999999987e-01 1.058123000000000147e+01 1.297959999999999923e+02 2.023005000000000109e+03
1.580000000000000016e-01 1.880244999999999833e-01 1.062603999999999971e+01 1.298495000000000061e+02 2.022994999999999891e+03
1.590000000000000024e-01 1.880244999999999833e-01 1.068154999999999966e+01 1.299110000000000014e+02 2.022990000000000009e+03
