# t [s], A [cm^2], U [cm/s], P [cPa], c [cm/s]
1.000000000000000021e-03 7.047129999999999228e-01 6.437249999999998529e-03 1.096620000000000061e+02 1.602429999999999836e+03
2.000000000000000042e-03 7.046995000000000342e-01 -4.392065500000000289e-03 1.096329999999999956e+02 1.602420000000000073e+03
3.000000000000000062e-03 7.047505000000000575e-01 7.182344999999999702e-02 1.097155000000000058e+02 1.602440000000000055e+03
4.000000000000000083e-03 7.048109999999999653e-01 1.728840500000000113e-01 1.098425000000000011e+02 1.602470000000000027e+03
5.000000000000000104e-03 7.047959999999999781e-01 1.712595000000000089e-01 1.098209999999999980e+02 1.602469999999999800e+03
6.000000000000000125e-03 7.047215000000000007e-01 7.776499999999997303e-02 1.096225000000000023e+02 1.602425000000000182e+03
7.000000000000000146e-03 7.046589999999999243e-01 -3.629500000000007720e-03 1.093739999999999952e+02 1.602375000000000000e+03
8.000000000000000167e-03 7.045790000000000664e-01 -1.224939999999999918e-01 1.090405000000000086e+02 1.602300000000000182e+03
9.000000000000001055e-03 7.044384999999999675e-01 -3.534950000000000037e-01 1.085215000000000032e+02 1.602195000000000164e+03
1.000000000000000194e-02 7.042359999999999731e-01 -6.990600000000000147e-01 1.077800000000000011e+02 1.602034999999999854e+03
1.099999999999999936e-02 7.039575000000000138e-01 -1.169585000000000097e+00 1.067669999999999959e+02 1.601820000000000164e+03
1.200000000000000025e-02 7.035824999999999996e-01 -1.785320000000000018e+00 1.054140000000000015e+02 1.601525000000000091e+03
1.300000000000000114e-02 7.031220000000000248e-01 -2.505630000000000024e+00 1.037229000000000099e+02 1.601150000000000091e+03
1.400000000000000203e-02 7.026354999999999684e-01 -3.206834999999999880e+00 1.018191500000000076e+02 1.600715000000000146e+03
1.499999999999999944e-02 7.021960000000000424e-01 -3.737891500000000367e+00 9.989830000000000609e+01 1.600259999999999991e+03
1.600000000000000033e-02 7.018469999999999986e-01 -3.992536499999999489e+00 9.813435000000001196e+01 1.599820000000000164e+03
1.700000000000000122e-02 7.015890000000000182e-01 -3.944246000000000141e+00 9.660965000000000202e+01 1.599420000000000073e+03
1.800000000000000211e-02 7.013854999999999951e-01 -3.638625499999999846e+00 9.530420000000000869e+01 1.599049999999999955e+03
1.900000000000000300e-02 7.011864999999999348e-01 -3.162141000000000091e+00 9.412184999999999491e+01 1.598704999999999927e+03
2.000000000000000042e-02 7.009459999999999580e-01 -2.605439500000000130e+00 9.293824999999999648e+01 1.598365000000000009e+03
2.100000000000000130e-02 7.006379999999999830e-01 -2.033050000000000246e+00 9.164834999999999354e+01 1.597994999999999891e+03
2.200000000000000219e-02 7.002619999999999401e-01 -1.467359999999999998e+00 9.020149999999999579e+01 1.597595000000000027e+03
2.299999999999999961e-02 6.998400000000000176e-01 -8.908900000000001818e-01 8.861115000000000919e+01 1.597159999999999854e+03
2.400000000000000050e-02 6.994034999999999558e-01 -2.645849999999998481e-01 8.693954999999999700e+01 1.596710000000000036e+03
2.500000000000000139e-02 6.989795000000000869e-01 4.470200000000001950e-01 8.526484999999999559e+01 1.596250000000000000e+03
2.600000000000000228e-02 6.985829999999999540e-01 1.254474999999999785e+00 8.364685000000000059e+01 1.595800000000000182e+03
2.700000000000000316e-02 6.982079999999999398e-01 2.132954999999999934e+00 8.210259999999999536e+01 1.595365000000000009e+03
2.800000000000000058e-02 6.978320000000000078e-01 3.023814999999999920e+00 8.059815000000000396e+01 1.594940000000000055e+03
2.900000000000000147e-02 6.974219999999999864e-01 3.845890000000000697e+00 7.905580000000000496e+01 1.594505000000000109e+03
3.000000000000000236e-02 6.969449999999999257e-01 4.512855000000000061e+00 7.737395000000000778e+01 1.594045000000000073e+03
3.099999999999999978e-02 6.963755000000000361e-01 4.952704999999999913e+00 7.545464999999998668e+01 1.593539999999999964e+03
3.200000000000000067e-02 6.957039999999999891e-01 5.124499999999999389e+00 7.323160000000000025e+01 1.592980000000000018e+03
3.300000000000000155e-02 6.949395000000000433e-01 5.028270000000000017e+00 7.069159999999999400e+01 1.592349999999999909e+03
3.400000000000000244e-02 6.941109999999999225e-01 4.703920000000000101e+00 6.788294999999999391e+01 1.591654999999999973e+03
3.500000000000000333e-02 6.932599999999999874e-01 4.221439999999999415e+00 6.490809999999999036e+01 1.590925000000000182e+03
3.600000000000000422e-02 6.924299999999999899e-01 3.664585000000000203e+00 6.190469999999999118e+01 1.590179999999999836e+03
3.700000000000000511e-02 6.916634999999999867e-01 3.115454999999999863e+00 5.902219999999999800e+01 1.589460000000000036e+03
3.799999999999999906e-02 6.909929999999999684e-01 2.642505000000000326e+00 5.640000000000000568e+01 1.588779999999999973e+03
3.899999999999999994e-02 6.904399999999999427e-01 2.294430000000000192e+00 5.415149999999999864e+01 1.588184999999999945e+03
4.000000000000000083e-02 6.900159999999999627e-01 2.099609999999999754e+00 5.235634999999999906e+01 1.587694999999999936e+03
4.100000000000000172e-02 6.897229999999999750e-01 2.069300000000000139e+00 5.105894999999999584e+01 1.587309999999999945e+03
4.200000000000000261e-02 6.895575000000000454e-01 2.203187499999999854e+00 5.027344999999999686e+01 1.587049999999999955e+03
4.300000000000000350e-02 6.895135000000000014e-01 2.495655000000000179e+00 4.999184999999999945e+01 1.586914999999999964e+03
4.400000000000000439e-02 6.895834999999999049e-01 2.941130000000000244e+00 5.019334999999999525e+01 1.586900000000000091e+03
4.499999999999999833e-02 6.897634999999999739e-01 3.537475000000000147e+00 5.085300000000000153e+01 1.587000000000000000e+03
4.599999999999999922e-02 6.900489999999999124e-01 4.286780000000000257e+00 5.194664999999999822e+01 1.587215000000000146e+03
4.700000000000000011e-02 6.904369999999999674e-01 5.193855000000000111e+00 5.345360000000000156e+01 1.587534999999999854e+03
4.800000000000000100e-02 6.909264999999999990e-01 6.263004999999999711e+00 5.535455000000000325e+01 1.587960000000000036e+03
4.900000000000000189e-02 6.915120000000000156e-01 7.494595000000000340e+00 5.762875000000000369e+01 1.588485000000000127e+03
5.000000000000000278e-02 6.921865000000000379e-01 8.881919999999999149e+00 6.024994999999999834e+01 1.589095000000000027e+03
5.100000000000000366e-02 6.929400000000000004e-01 1.041010999999999953e+01 6.318345000000000056e+01 1.589784999999999854e+03
5.200000000000000455e-02 6.937584999999999447e-01 1.205589499999999958e+01 6.638479999999999848e+01 1.590559999999999945e+03
5.300000000000000544e-02 6.946265000000000356e-01 1.378942499999999960e+01 6.980065000000000452e+01 1.591385000000000218e+03
5.399999999999999939e-02 6.955259999999999776e-01 1.557671000000000028e+01 7.337149999999999750e+01 1.592264999999999873e+03
5.500000000000000028e-02 6.964420000000000055e-01 1.738265499999999975e+01 7.703530000000000655e+01 1.593175000000000182e+03
5.600000000000000117e-02 6.973580000000000334e-01 1.917389999999999972e+01 8.073160000000000025e+01 1.594105000000000018e+03
5.700000000000000205e-02 6.982610000000000205e-01 2.092114999999999725e+01 8.440569999999999595e+01 1.595039999999999964e+03
5.800000000000000294e-02 6.991425000000000001e-01 2.260069999999999979e+01 8.801245000000000118e+01 1.595970000000000027e+03
5.900000000000000383e-02 6.999954999999999927e-01 2.419514999999999816e+01 9.151650000000000773e+01 1.596880000000000109e+03
6.000000000000000472e-02 7.008164999999999534e-01 2.569340000000000046e+01 9.489619999999999322e+01 1.597769999999999982e+03
6.099999999999999867e-02 7.016054999999999930e-01 2.708980000000000032e+01 9.813835000000000264e+01 1.598630000000000109e+03
6.199999999999999956e-02 7.023625000000000007e-01 2.838354999999999961e+01 1.012433999999999941e+02 1.599460000000000036e+03
6.300000000000000044e-02 7.030920000000000503e-01 2.957734999999999914e+01 1.042167499999999905e+02 1.600259999999999991e+03
6.400000000000000133e-02 7.037975000000000758e-01 3.067650000000000077e+01 1.070728499999999883e+02 1.601029999999999973e+03
6.500000000000000222e-02 7.044829999999999703e-01 3.168789999999999907e+01 1.098275000000000006e+02 1.601779999999999973e+03
6.600000000000000311e-02 7.051545000000000174e-01 3.261945000000000050e+01 1.125014999999999930e+02 1.602505000000000109e+03
6.700000000000000400e-02 7.058150000000000812e-01 3.347899999999999920e+01 1.151124999999999972e+02 1.603214999999999918e+03
6.800000000000000488e-02 7.064690000000000136e-01 3.427389999999999759e+01 1.176779999999999973e+02 1.603914999999999964e+03
6.900000000000000577e-02 7.071184999999999832e-01 3.501014999999999588e+01 1.202120000000000033e+02 1.604605000000000018e+03
7.000000000000000666e-02 7.077655000000000474e-01 3.569195000000000562e+01 1.227229999999999990e+02 1.605289999999999964e+03
7.100000000000000755e-02 7.084090000000000664e-01 3.632139999999999702e+01 1.252155000000000058e+02 1.605965000000000146e+03
7.200000000000000844e-02 7.090480000000000116e-01 3.689794999999999447e+01 1.276850000000000023e+02 1.606630000000000109e+03
7.300000000000000933e-02 7.096780000000000310e-01 3.741910000000000025e+01 1.301239999999999952e+02 1.607289999999999964e+03
7.399999999999999634e-02 7.102954999999999686e-01 3.788009999999999877e+01 1.325169999999999959e+02 1.607945000000000164e+03
7.499999999999999722e-02 7.108950000000000546e-01 3.827485000000000070e+01 1.348449999999999989e+02 1.608575000000000045e+03
7.599999999999999811e-02 7.114709999999999646e-01 3.859644999999999726e+01 1.370874999999999773e+02 1.609190000000000055e+03
7.699999999999999900e-02 7.120159999999999823e-01 3.883790000000000475e+01 1.392205000000000155e+02 1.609775000000000091e+03
7.799999999999999989e-02 7.125265000000000626e-01 3.899275000000000091e+01 1.412225000000000250e+02 1.610329999999999927e+03
7.900000000000000078e-02 7.129965000000000330e-01 3.905564999999999998e+01 1.430715000000000146e+02 1.610845000000000027e+03
8.000000000000000167e-02 7.134220000000000006e-01 3.902264999999999873e+01 1.447510000000000048e+02 1.611325000000000045e+03
8.100000000000000255e-02 7.137999999999999901e-01 3.889150000000000063e+01 1.462459999999999809e+02 1.611759999999999991e+03
8.200000000000000344e-02 7.141290000000000138e-01 3.866174999999999784e+01 1.475464999999999804e+02 1.612134999999999991e+03
8.300000000000000433e-02 7.144079999999999320e-01 3.833474999999999966e+01 1.486480000000000246e+02 1.612465000000000146e+03
8.400000000000000522e-02 7.146375000000000366e-01 3.791374999999999318e+01 1.495495000000000232e+02 1.612750000000000000e+03
8.500000000000000611e-02 7.148179999999999534e-01 3.740364999999999895e+01 1.502540000000000191e+02 1.612980000000000018e+03
8.600000000000000699e-02 7.149524999999999908e-01 3.681099999999999994e+01 1.507700000000000102e+02 1.613154999999999973e+03
8.700000000000000788e-02 7.150440000000000129e-01 3.614390000000000214e+01 1.511075000000000159e+02 1.613285000000000082e+03
8.800000000000000877e-02 7.150965000000000238e-01 3.541169999999999618e+01 1.512824999999999989e+02 1.613369999999999891e+03
8.899999999999999578e-02 7.151134999999999575e-01 3.462484999999999502e+01 1.513115000000000236e+02 1.613414999999999964e+03
8.999999999999999667e-02 7.150999999999999579e-01 3.379470000000000596e+01 1.512144999999999868e+02 1.613424999999999955e+03
9.099999999999999756e-02 7.150624999999999343e-01 3.293309999999999604e+01 1.510110000000000241e+02 1.613400000000000091e+03
9.199999999999999845e-02 7.150050000000000017e-01 3.205210000000000292e+01 1.507230000000000132e+02 1.613355000000000018e+03
9.299999999999999933e-02 7.149334999999999996e-01 3.116344999999999743e+01 1.503725000000000023e+02 1.613284999999999854e+03
9.400000000000000022e-02 7.148520000000000429e-01 3.027820000000000178e+01 1.499784999999999968e+02 1.613200000000000045e+03
9.500000000000000111e-02 7.147665000000000823e-01 2.940619999999999834e+01 1.495610000000000070e+02 1.613105000000000018e+03
9.600000000000000200e-02 7.146790000000000642e-01 2.855590000000000117e+01 1.491359999999999957e+02 1.613005000000000109e+03
9.700000000000000289e-02 7.145930000000000337e-01 2.773384999999999678e+01 1.487160000000000082e+02 1.612900000000000091e+03
9.800000000000000377e-02 7.145105000000000484e-01 2.694460000000000122e+01 1.483114999999999952e+02 1.612799999999999955e+03
9.900000000000000466e-02 7.144329999999999847e-01 2.619050000000000011e+01 1.479290000000000020e+02 1.612694999999999936e+03
1.000000000000000056e-01 7.143599999999999950e-01 2.547180000000000177e+01 1.475699999999999932e+02 1.612599999999999909e+03
1.010000000000000064e-01 7.142900000000000915e-01 2.478679999999999950e+01 1.472330000000000041e+02 1.612505000000000109e+03
1.020000000000000073e-01 7.142230000000000523e-01 2.413220000000000098e+01 1.469144999999999754e+02 1.612420000000000073e+03
1.030000000000000082e-01 7.141554999999999431e-01 2.350305000000000177e+01 1.466064999999999827e+02 1.612335000000000036e+03
1.040000000000000091e-01 7.140850000000000808e-01 2.289354999999999762e+01 1.462990000000000066e+02 1.612250000000000000e+03
1.050000000000000100e-01 7.140100000000000335e-01 2.229700000000000060e+01 1.459824999999999875e+02 1.612160000000000082e+03
1.059999999999999970e-01 7.139269999999999783e-01 2.170664999999999978e+01 1.456449999999999818e+02 1.612065000000000055e+03
1.069999999999999979e-01 7.138329999999999398e-01 2.111560000000000059e+01 1.452744999999999891e+02 1.611970000000000027e+03
1.079999999999999988e-01 7.137255000000000127e-01 2.051745000000000019e+01 1.448609999999999900e+02 1.611860000000000127e+03
1.089999999999999997e-01 7.136029999999999873e-01 1.990654999999999930e+01 1.443954999999999984e+02 1.611740000000000009e+03
1.100000000000000006e-01 7.134629999999999583e-01 1.927830000000000155e+01 1.438695000000000164e+02 1.611599999999999909e+03
1.110000000000000014e-01 7.133059999999999956e-01 1.862904999999999944e+01 1.432794999999999845e+02 1.611449999999999818e+03
1.120000000000000023e-01 7.131309999999999594e-01 1.795690000000000097e+01 1.426210000000000093e+02 1.611285000000000082e+03
1.130000000000000032e-01 7.129389999999999894e-01 1.726129999999999853e+01 1.418949999999999818e+02 1.611105000000000018e+03
1.140000000000000041e-01 7.127299999999999747e-01 1.654344999999999999e+01 1.411050000000000182e+02 1.610905000000000200e+03
1.150000000000000050e-01 7.125080000000000302e-01 1.580604999999999905e+01 1.402570000000000050e+02 1.610690000000000055e+03
1.160000000000000059e-01 7.122739999999999627e-01 1.505339000000000027e+01 1.393600000000000136e+02 1.610464999999999918e+03
1.170000000000000068e-01 7.120325000000000681e-01 1.429113000000000078e+01 1.384250000000000114e+02 1.610224999999999909e+03
1.180000000000000077e-01 7.117854999999999599e-01 1.352606500000000089e+01 1.374655000000000200e+02 1.609980000000000018e+03
1.190000000000000085e-01 7.115390000000000326e-01 1.276588999999999885e+01 1.364970000000000141e+02 1.609735000000000127e+03
1.200000000000000094e-01 7.112959999999999283e-01 1.201877999999999957e+01 1.355345000000000084e+02 1.609485000000000127e+03
1.209999999999999964e-01 7.110604999999999842e-01 1.129316999999999993e+01 1.345955000000000155e+02 1.609240000000000009e+03
1.219999999999999973e-01 7.108375000000000110e-01 1.059745000000000026e+01 1.336945000000000050e+02 1.608994999999999891e+03
1.229999999999999982e-01 7.106295000000000250e-01 9.939424999999999955e+00 1.328469999999999800e+02 1.608769999999999982e+03
1.239999999999999991e-01 7.104399999999999604e-01 9.326014999999999944e+00 1.320660000000000025e+02 1.608559999999999945e+03
1.250000000000000000e-01 7.102714999999999446e-01 8.763185000000000002e+00 1.313629999999999995e+02 1.608365000000000009e+03
1.260000000000000009e-01 7.101260000000000350e-01 8.255509999999999238e+00 1.307464999999999975e+02 1.608195000000000164e+03
1.270000000000000018e-01 7.100040000000000795e-01 7.806150000000000588e+00 1.302220000000000084e+02 1.608039999999999964e+03
1.280000000000000027e-01 7.099059999999999260e-01 7.416640000000000121e+00 1.297924999999999898e+02 1.607914999999999964e+03
1.290000000000000036e-01 7.098314999999999486e-01 7.086885000000000545e+00 1.294569999999999936e+02 1.607804999999999836e+03
1.300000000000000044e-01 7.097795000000000076e-01 6.815339999999999065e+00 1.292129999999999939e+02 1.607724999999999909e+03
1.310000000000000053e-01 7.097480000000000455e-01 6.599040000000000461e+00 1.290540000000000020e+02 1.607660000000000082e+03
1.320000000000000062e-01 7.097344999999999349e-01 6.433794999999999931e+00 1.289714999999999918e+02 1.607625000000000000e+03
1.330000000000000071e-01 7.097359999999999225e-01 6.314470000000000027e+00 1.289565000000000055e+02 1.607605000000000018e+03
1.340000000000000080e-01 7.097504999999999509e-01 6.235210000000000363e+00 1.289970000000000141e+02 1.607599999999999909e+03
1.350000000000000089e-01 7.097739999999999050e-01 6.189735000000000653e+00 1.290815000000000055e+02 1.607605000000000018e+03
1.360000000000000098e-01 7.098044999999999494e-01 6.171604999999999563e+00 1.291974999999999909e+02 1.607619999999999891e+03
1.370000000000000107e-01 7.098379999999999690e-01 6.174475000000000158e+00 1.293335000000000150e+02 1.607639999999999873e+03
1.380000000000000115e-01 7.098725000000000174e-01 6.192300000000000360e+00 1.294795000000000016e+02 1.607674999999999955e+03
1.390000000000000124e-01 7.099054999999999671e-01 6.219535000000000480e+00 1.296250000000000000e+02 1.607704999999999927e+03
1.400000000000000133e-01 7.099360000000000115e-01 6.251265000000000072e+00 1.297620000000000005e+02 1.607730000000000018e+03
1.410000000000000142e-01 7.099615000000000231e-01 6.283274999999999721e+00 1.298840000000000146e+02 1.607759999999999991e+03
1.420000000000000151e-01 7.099820000000000020e-01 6.312129999999999797e+00 1.299865000000000066e+02 1.607785000000000082e+03
1.430000000000000160e-01 7.099969999999999892e-01 6.335180000000000256e+00 1.300665000000000191e+02 1.607805000000000064e+03
1.440000000000000169e-01 7.100054999999999561e-01 6.350520000000000387e+00 1.301214999999999975e+02 1.607815000000000055e+03
1.450000000000000178e-01 7.100085000000000424e-01 6.356994999999999507e+00 1.301525000000000034e+02 1.607829999999999927e+03
1.459999999999999909e-01 7.100054999999999561e-01 6.354089999999999350e+00 1.301595000000000084e+02 1.607829999999999927e+03
1.469999999999999918e-01 7.099980000000000180e-01 6.341874999999999929e+00 1.301450000000000102e+02 1.607829999999999927e+03
1.479999999999999927e-01 7.099860000000000060e-01 6.320914999999999395e+00 1.301120000000000232e+02 1.607824999999999818e+03
1.489999999999999936e-01 7.099710000000000187e-01 6.292184999999999917e+00 1.300639999999999930e+02 1.607815000000000055e+03
1.499999999999999944e-01 7.099545000000000439e-01 6.256944999999999979e+00 1.300045000000000073e+02 1.607805000000000064e+03
1.509999999999999953e-01 7.099360000000000115e-01 6.216664999999999885e+00 1.299370000000000118e+02 1.607785000000000082e+03
1.519999999999999962e-01 7.099170000000000202e-01 6.172900000000000276e+00 1.298650000000000091e+02 1.607769999999999982e+03
1.529999999999999971e-01 7.098989999999999467e-01 6.127225000000000144e+00 1.297930000000000064e+02 1.607755000000000109e+03
1.539999999999999980e-01 7.098819999999999020e-01 6.081109999999999793e+00 1.297235000000000014e+02 1.607734999999999900e+03
1.549999999999999989e-01 7.098659999999999970e-01 6.035859999999999559e+00 1.296580000000000155e+02 1.607724999999999909e+03
1.559999999999999998e-01 7.098530000000000673e-01 5.992560000000000109e+00 1.295985000000000014e+02 1.607710000000000036e+03
1.570000000000000007e-01 7.098415000000000141e-01 5.951999999999999957e+00 1.295475000000000136e+02 1.607690000000000055e+03
1.580000000000000016e-01 7.098320000000000185e-01 5.914685000000000414e+00 1.295035000000000025e+02 1.607679999999999836e+03
1.590000000000000024e-01 7.098240000000000105e-01 5.880810000000000315e+00 1.294664999999999964e+02 1.607670000000000073e+03
