# t [s], A [cm^2], U [cm/s], P [cPa], c [cm/s]
1.000000000000000021e-03 5.048215000000000341e-01 4.008600000000001051e-03 1.070784999999999911e+02 1.440324999999999818e+03
2.000000000000000042e-03 5.048144999999999438e-01 9.614449999999998995e-04 1.070649999999999977e+02 1.440319999999999936e+03
3.000000000000000062e-03 5.048314999999999886e-01 2.958735000000000184e-02 1.070910000000000082e+02 1.440329999999999927e+03
4.000000000000000083e-03 5.048745000000000038e-01 1.057630000000000098e-01 1.071825000000000045e+02 1.440364999999999782e+03
5.000000000000000104e-03 5.048945000000000238e-01 1.461294499999999941e-01 1.072365000000000066e+02 1.440380000000000109e+03
6.000000000000000125e-03 5.048755000000000326e-01 1.172614999999999907e-01 1.071910000000000025e+02 1.440375000000000000e+03
7.000000000000000146e-03 5.048399999999999554e-01 5.671800000000001840e-02 1.070699999999999932e+02 1.440340000000000146e+03
8.000000000000000167e-03 5.048099999999999810e-01 2.934999999999965414e-03 1.069180000000000064e+02 1.440304999999999836e+03
9.000000000000001055e-03 5.047710000000000807e-01 -7.278950000000000697e-02 1.067135000000000105e+02 1.440244999999999891e+03
1.000000000000000194e-02 5.047045000000000003e-01 -2.081969999999999654e-01 1.064110000000000014e+02 1.440164999999999964e+03
1.099999999999999936e-02 5.046059999999999990e-01 -4.144899999999999141e-01 1.059809999999999945e+02 1.440049999999999955e+03
1.200000000000000025e-02 5.044684999999999864e-01 -6.993400000000000727e-01 1.053934999999999889e+02 1.439890000000000100e+03
1.300000000000000114e-02 5.042824999999999669e-01 -1.073979999999999935e+00 1.046135000000000019e+02 1.439674999999999955e+03
1.400000000000000203e-02 5.040465000000000639e-01 -1.531060000000000088e+00 1.036235499999999945e+02 1.439394999999999982e+03
1.499999999999999944e-02 5.037745000000000140e-01 -2.027344999999999953e+00 1.024475999999999942e+02 1.439055000000000064e+03
1.600000000000000033e-02 5.034929999999999684e-01 -2.492140000000000022e+00 1.011530999999999949e+02 1.438670000000000073e+03
1.700000000000000122e-02 5.032274999999999388e-01 -2.852910000000000057e+00 9.982774999999999466e+01 1.438259999999999991e+03
1.800000000000000211e-02 5.029945000000000110e-01 -3.058864000000000249e+00 9.854404999999999859e+01 1.437849999999999909e+03
1.900000000000000300e-02 5.027954999999999508e-01 -3.091441000000000106e+00 9.734649999999999181e+01 1.437444999999999936e+03
2.000000000000000042e-02 5.026205000000000256e-01 -2.961943500000000284e+00 9.624125000000000796e+01 1.437059999999999945e+03
2.100000000000000130e-02 5.024545000000000261e-01 -2.701486000000000054e+00 9.520490000000000919e+01 1.436679999999999836e+03
2.200000000000000219e-02 5.022809999999999775e-01 -2.348560500000000051e+00 9.419745000000000346e+01 1.436299999999999955e+03
2.299999999999999961e-02 5.020864999999999911e-01 -1.937910000000000021e+00 9.317605000000000359e+01 1.435920000000000073e+03
2.400000000000000050e-02 5.018664999999999932e-01 -1.492819999999999814e+00 9.210750000000000171e+01 1.435519999999999982e+03
2.500000000000000139e-02 5.016194999999999959e-01 -1.022075000000000289e+00 9.097610000000000241e+01 1.435099999999999909e+03
2.600000000000000228e-02 5.013539999999999663e-01 -5.217350000000000598e-01 8.978530000000000655e+01 1.434659999999999854e+03
2.700000000000000316e-02 5.010769999999999946e-01 1.935500000000001108e-02 8.855334999999999468e+01 1.434204999999999927e+03
2.800000000000000058e-02 5.007984999999999243e-01 6.122149999999999537e-01 8.730580000000000496e+01 1.433744999999999891e+03
2.900000000000000147e-02 5.005245000000000388e-01 1.261130000000000084e+00 8.606579999999999586e+01 1.433284999999999854e+03
3.000000000000000236e-02 5.002554999999999641e-01 1.959335000000000049e+00 8.484680000000000177e+01 1.432829999999999927e+03
3.099999999999999978e-02 4.999885000000000024e-01 2.687975000000000669e+00 8.364830000000000609e+01 1.432375000000000000e+03
3.200000000000000067e-02 4.997150000000000203e-01 3.417969999999999509e+00 8.245504999999999995e+01 1.431920000000000073e+03
3.300000000000000155e-02 4.994264999999999954e-01 4.114244999999999486e+00 8.124054999999999893e+01 1.431465000000000146e+03
3.400000000000000244e-02 4.991134999999999877e-01 4.741279999999999717e+00 7.997229999999998995e+01 1.430994999999999891e+03
3.500000000000000333e-02 4.987690000000000179e-01 5.268634999999999735e+00 7.861945000000000050e+01 1.430509999999999991e+03
3.600000000000000422e-02 4.983899999999999997e-01 5.676209999999999312e+00 7.715975000000000250e+01 1.429990000000000009e+03
3.700000000000000511e-02 4.979779999999999762e-01 5.956869999999999443e+00 7.558549999999999613e+01 1.429440000000000055e+03
3.799999999999999906e-02 4.975399999999999823e-01 6.117675000000000196e+00 7.390675000000000239e+01 1.428869999999999891e+03
3.899999999999999994e-02 4.970870000000000011e-01 6.177525000000000155e+00 7.215139999999999532e+01 1.428275000000000091e+03
4.000000000000000083e-02 4.966329999999999911e-01 6.164069999999999716e+00 7.036159999999999570e+01 1.427670000000000073e+03
4.100000000000000172e-02 4.961924999999999808e-01 6.108874999999999389e+00 6.858920000000000528e+01 1.427070000000000164e+03
4.200000000000000261e-02 4.957785000000000108e-01 6.043115000000000236e+00 6.688935000000000741e+01 1.426490000000000009e+03
4.300000000000000350e-02 4.954034999999999966e-01 5.994575000000000209e+00 6.531524999999999181e+01 1.425934999999999945e+03
4.400000000000000439e-02 4.950759999999999605e-01 5.985339999999999883e+00 6.391365000000000407e+01 1.425445000000000164e+03
4.499999999999999833e-02 4.948019999999999641e-01 6.031523499999999594e+00 6.272249999999999659e+01 1.425010000000000218e+03
4.599999999999999922e-02 4.945849999999999413e-01 6.143725499999999506e+00 6.176975000000000193e+01 1.424644999999999982e+03
4.700000000000000011e-02 4.944279999999999786e-01 6.328234999999999388e+00 6.107395000000000351e+01 1.424360000000000127e+03
4.800000000000000100e-02 4.943309999999999649e-01 6.588880000000000514e+00 6.064575000000000671e+01 1.424159999999999854e+03
4.900000000000000189e-02 4.942944999999999700e-01 6.928444999999999965e+00 6.048969999999999914e+01 1.424050000000000182e+03
5.000000000000000278e-02 4.943175000000000208e-01 7.349870000000001014e+00 6.060660000000000025e+01 1.424030000000000200e+03
5.100000000000000366e-02 4.944009999999999794e-01 7.856894999999999740e+00 6.099490000000000123e+01 1.424095000000000027e+03
5.200000000000000455e-02 4.945444999999999980e-01 8.454055000000000319e+00 6.165205000000000268e+01 1.424255000000000109e+03
5.300000000000000544e-02 4.947479999999999656e-01 9.146104999999998597e+00 6.257470000000000709e+01 1.424509999999999991e+03
5.399999999999999939e-02 4.950110000000000343e-01 9.937234999999999374e+00 6.375839999999999463e+01 1.424849999999999909e+03
5.500000000000000028e-02 4.953324999999999534e-01 1.082982499999999959e+01 6.519700000000000273e+01 1.425275000000000091e+03
5.600000000000000117e-02 4.957104999999999984e-01 1.182369499999999896e+01 6.688139999999999930e+01 1.425784999999999854e+03
5.700000000000000205e-02 4.961415000000000131e-01 1.291544500000000006e+01 6.879925000000000068e+01 1.426375000000000000e+03
5.800000000000000294e-02 4.966209999999999791e-01 1.409809000000000090e+01 7.093395000000001005e+01 1.427045000000000073e+03
5.900000000000000383e-02 4.971440000000000303e-01 1.536145000000000138e+01 7.326474999999999227e+01 1.427784999999999854e+03
6.000000000000000472e-02 4.977034999999999654e-01 1.669236500000000234e+01 7.576715000000000089e+01 1.428590000000000146e+03
6.099999999999999867e-02 4.982940000000000147e-01 1.807574999999999932e+01 7.841389999999999816e+01 1.429445000000000164e+03
6.199999999999999956e-02 4.989069999999999894e-01 1.949524999999999864e+01 8.117545000000001210e+01 1.430349999999999909e+03
6.300000000000000044e-02 4.995364999999999944e-01 2.093440000000000012e+01 8.402219999999999800e+01 1.431289999999999964e+03
6.400000000000000133e-02 5.001754999999999951e-01 2.237744999999999962e+01 8.692494999999999550e+01 1.432255000000000109e+03
6.500000000000000222e-02 5.008190000000000142e-01 2.380985000000000085e+01 8.985640000000000782e+01 1.433244999999999891e+03
6.600000000000000311e-02 5.014615000000000045e-01 2.521905000000000285e+01 9.279285000000000139e+01 1.434240000000000009e+03
6.700000000000000400e-02 5.020999999999999908e-01 2.659430000000000049e+01 9.571320000000000050e+01 1.435244999999999891e+03
6.800000000000000488e-02 5.027310000000000390e-01 2.792745000000000033e+01 9.860099999999999909e+01 1.436244999999999891e+03
6.900000000000000577e-02 5.033520000000000216e-01 2.921200000000000330e+01 1.014439500000000010e+02 1.437235000000000127e+03
7.000000000000000666e-02 5.039624999999999799e-01 3.044355000000000189e+01 1.042330000000000041e+02 1.438214999999999918e+03
7.100000000000000755e-02 5.045614999999999961e-01 3.161910000000000309e+01 1.069629999999999939e+02 1.439179999999999836e+03
7.200000000000000844e-02 5.051490000000000702e-01 3.273689999999999856e+01 1.096320499999999925e+02 1.440125000000000000e+03
7.300000000000000933e-02 5.057245000000000212e-01 3.379599999999999937e+01 1.122390000000000043e+02 1.441059999999999945e+03
7.399999999999999634e-02 5.062895000000000589e-01 3.479585000000000150e+01 1.147849999999999966e+02 1.441969999999999800e+03
7.499999999999999722e-02 5.068435000000000024e-01 3.573649999999999949e+01 1.172725000000000080e+02 1.442869999999999891e+03
7.599999999999999811e-02 5.073864999999999625e-01 3.661769999999999925e+01 1.197035000000000053e+02 1.443755000000000109e+03
7.699999999999999900e-02 5.079194999999999682e-01 3.743919999999999959e+01 1.220790000000000077e+02 1.444610000000000127e+03
7.799999999999999989e-02 5.084419999999999495e-01 3.820040000000000191e+01 1.243995000000000175e+02 1.445460000000000036e+03
7.900000000000000078e-02 5.089529999999999887e-01 3.890035000000000309e+01 1.266659999999999968e+02 1.446289999999999964e+03
8.000000000000000167e-02 5.094520000000000159e-01 3.953764999999999930e+01 1.288750000000000000e+02 1.447099999999999909e+03
8.100000000000000255e-02 5.099380000000000024e-01 4.011055000000000348e+01 1.310244999999999891e+02 1.447889999999999873e+03
8.200000000000000344e-02 5.104104999999999892e-01 4.061719999999999686e+01 1.331089999999999804e+02 1.448654999999999973e+03
8.300000000000000433e-02 5.108665000000000012e-01 4.105534999999999712e+01 1.351229999999999905e+02 1.449400000000000091e+03
8.400000000000000522e-02 5.113054999999999684e-01 4.142289999999999850e+01 1.370600000000000023e+02 1.450125000000000000e+03
8.500000000000000611e-02 5.117260000000000142e-01 4.171784999999999854e+01 1.389125000000000227e+02 1.450820000000000164e+03
8.600000000000000699e-02 5.121249999999999414e-01 4.193840000000000146e+01 1.406734999999999900e+02 1.451485000000000127e+03
8.700000000000000788e-02 5.125024999999999720e-01 4.208344999999999914e+01 1.423365000000000009e+02 1.452115000000000009e+03
8.800000000000000877e-02 5.128559999999999786e-01 4.215214999999999890e+01 1.438930000000000007e+02 1.452710000000000036e+03
8.899999999999999578e-02 5.131845000000000434e-01 4.214444999999999908e+01 1.453389999999999986e+02 1.453269999999999982e+03
8.999999999999999667e-02 5.134874999999999856e-01 4.206085000000000207e+01 1.466700000000000159e+02 1.453789999999999964e+03
9.099999999999999756e-02 5.137650000000000272e-01 4.190254999999999797e+01 1.478820000000000050e+02 1.454269999999999982e+03
9.199999999999999845e-02 5.140154999999999585e-01 4.167140000000000555e+01 1.489719999999999800e+02 1.454704999999999927e+03
9.299999999999999933e-02 5.142390000000000017e-01 4.136974999999999625e+01 1.499410000000000025e+02 1.455099999999999909e+03
9.400000000000000022e-02 5.144364999999999633e-01 4.100070000000000192e+01 1.507889999999999873e+02 1.455454999999999927e+03
9.500000000000000111e-02 5.146079999999999544e-01 4.056775000000000375e+01 1.515165000000000077e+02 1.455759999999999991e+03
9.600000000000000200e-02 5.147540000000000449e-01 4.007500000000000284e+01 1.521279999999999859e+02 1.456029999999999973e+03
9.700000000000000289e-02 5.148755000000000415e-01 3.952694999999999936e+01 1.526274999999999977e+02 1.456259999999999991e+03
9.800000000000000377e-02 5.149740000000000428e-01 3.892849999999999966e+01 1.530190000000000055e+02 1.456449999999999818e+03
9.900000000000000466e-02 5.150505000000000777e-01 3.828499999999999659e+01 1.533100000000000023e+02 1.456599999999999909e+03
1.000000000000000056e-01 5.151065000000000227e-01 3.760219999999999629e+01 1.535070000000000050e+02 1.456710000000000036e+03
1.010000000000000064e-01 5.151434999999999764e-01 3.688585000000000491e+01 1.536175000000000068e+02 1.456795000000000073e+03
1.020000000000000073e-01 5.151645000000000252e-01 3.614225000000000421e+01 1.536500000000000057e+02 1.456845000000000027e+03
1.030000000000000082e-01 5.151695000000000579e-01 3.537754999999999939e+01 1.536129999999999995e+02 1.456875000000000000e+03
1.040000000000000091e-01 5.151620000000000088e-01 3.459790000000000276e+01 1.535149999999999864e+02 1.456869999999999891e+03
1.050000000000000100e-01 5.151434999999999764e-01 3.380930000000000035e+01 1.533654999999999973e+02 1.456849999999999909e+03
1.059999999999999970e-01 5.151155000000000594e-01 3.301749999999999829e+01 1.531740000000000066e+02 1.456809999999999945e+03
1.069999999999999979e-01 5.150805000000000522e-01 3.222775000000000034e+01 1.529470000000000027e+02 1.456750000000000000e+03
1.079999999999999988e-01 5.150390000000000246e-01 3.144474999999999909e+01 1.526939999999999884e+02 1.456684999999999945e+03
1.089999999999999997e-01 5.149924999999999642e-01 3.067235000000000156e+01 1.524205000000000041e+02 1.456599999999999909e+03
1.100000000000000006e-01 5.149424999999999697e-01 2.991375000000000028e+01 1.521320000000000050e+02 1.456514999999999873e+03
1.110000000000000014e-01 5.148899999999999588e-01 2.917130000000000223e+01 1.518349999999999795e+02 1.456420000000000073e+03
1.120000000000000023e-01 5.148355000000000015e-01 2.844619999999999749e+01 1.515310000000000059e+02 1.456319999999999936e+03
1.130000000000000032e-01 5.147789999999999866e-01 2.773920000000000385e+01 1.512220000000000084e+02 1.456215000000000146e+03
1.140000000000000041e-01 5.147205000000000252e-01 2.704990000000000094e+01 1.509099999999999966e+02 1.456105000000000018e+03
1.150000000000000050e-01 5.146600000000000064e-01 2.637719999999999843e+01 1.505935000000000059e+02 1.455994999999999891e+03
1.160000000000000059e-01 5.145965000000000122e-01 2.571954999999999814e+01 1.502715000000000032e+02 1.455884999999999991e+03
1.170000000000000068e-01 5.145300000000000429e-01 2.507475000000000165e+01 1.499415000000000191e+02 1.455764999999999873e+03
1.180000000000000077e-01 5.144595000000000695e-01 2.444024999999999892e+01 1.496009999999999991e+02 1.455644999999999982e+03
1.190000000000000085e-01 5.143839999999999524e-01 2.381329999999999814e+01 1.492470000000000141e+02 1.455514999999999873e+03
1.200000000000000094e-01 5.143039999999999834e-01 2.319115000000000038e+01 1.488745000000000118e+02 1.455385000000000218e+03
1.209999999999999964e-01 5.142174999999999940e-01 2.257100000000000151e+01 1.484825000000000159e+02 1.455244999999999891e+03
1.219999999999999973e-01 5.141249999999999432e-01 2.195004999999999740e+01 1.480660000000000025e+02 1.455099999999999909e+03
1.229999999999999982e-01 5.140255000000000241e-01 2.132610000000000028e+01 1.476234999999999786e+02 1.454945000000000164e+03
1.239999999999999991e-01 5.139184999999999448e-01 2.069695000000000107e+01 1.471529999999999916e+02 1.454779999999999973e+03
1.250000000000000000e-01 5.138044999999999973e-01 2.006099999999999994e+01 1.466514999999999986e+02 1.454610000000000127e+03
1.260000000000000009e-01 5.136819999999999720e-01 1.941700000000000159e+01 1.461200000000000045e+02 1.454420000000000073e+03
1.270000000000000018e-01 5.135529999999999262e-01 1.876435000000000031e+01 1.455584999999999809e+02 1.454230000000000018e+03
1.280000000000000027e-01 5.134174999999999711e-01 1.810269999999999868e+01 1.449669999999999845e+02 1.454025000000000091e+03
1.290000000000000036e-01 5.132754999999999956e-01 1.743260000000000076e+01 1.443485000000000014e+02 1.453809999999999945e+03
1.300000000000000044e-01 5.131274999999999586e-01 1.675479999999999947e+01 1.437049999999999841e+02 1.453590000000000146e+03
1.310000000000000053e-01 5.129755000000000287e-01 1.607079999999999842e+01 1.430405000000000086e+02 1.453360000000000127e+03
1.320000000000000062e-01 5.128200000000000536e-01 1.538250000000000028e+01 1.423589999999999804e+02 1.453125000000000000e+03
1.330000000000000071e-01 5.126619999999999511e-01 1.469229499999999966e+01 1.416655000000000086e+02 1.452884999999999991e+03
1.340000000000000080e-01 5.125029999999999308e-01 1.400297499999999928e+01 1.409650000000000034e+02 1.452639999999999873e+03
1.350000000000000089e-01 5.123444999999999805e-01 1.331759000000000093e+01 1.402635000000000218e+02 1.452394999999999982e+03
1.360000000000000098e-01 5.121875000000000178e-01 1.263951499999999939e+01 1.395670000000000073e+02 1.452154999999999973e+03
1.370000000000000107e-01 5.120335000000000303e-01 1.197236999999999973e+01 1.388824999999999932e+02 1.451909999999999854e+03
1.380000000000000115e-01 5.118845000000000756e-01 1.131977499999999992e+01 1.382150000000000034e+02 1.451674999999999955e+03
1.390000000000000124e-01 5.117415000000000713e-01 1.068522000000000105e+01 1.375709999999999980e+02 1.451440000000000055e+03
1.400000000000000133e-01 5.116054999999999353e-01 1.007226499999999980e+01 1.369565000000000055e+02 1.451220000000000027e+03
1.410000000000000142e-01 5.114784999999999471e-01 9.484124999999998806e+00 1.363765000000000214e+02 1.451009999999999991e+03
1.420000000000000151e-01 5.113600000000000367e-01 8.923809999999999576e+00 1.358360000000000127e+02 1.450809999999999945e+03
1.430000000000000160e-01 5.112520000000000397e-01 8.393829999999999458e+00 1.353389999999999986e+02 1.450625000000000000e+03
1.440000000000000169e-01 5.111544999999999561e-01 7.896229999999999194e+00 1.348874999999999886e+02 1.450454999999999927e+03
1.450000000000000178e-01 5.110685000000000366e-01 7.432644999999999946e+00 1.344850000000000136e+02 1.450300000000000182e+03
1.459999999999999909e-01 5.109930000000000305e-01 7.003999999999999559e+00 1.341324999999999932e+02 1.450164999999999964e+03
1.469999999999999918e-01 5.109295000000000364e-01 6.610775000000000290e+00 1.338290000000000077e+02 1.450039999999999964e+03
1.479999999999999927e-01 5.108764999999999556e-01 6.252810000000000201e+00 1.335745000000000005e+02 1.449934999999999945e+03
1.489999999999999936e-01 5.108335000000000514e-01 5.929415000000000546e+00 1.333675000000000068e+02 1.449845000000000027e+03
1.499999999999999944e-01 5.108009999999999495e-01 5.639390000000000569e+00 1.332044999999999959e+02 1.449769999999999982e+03
1.509999999999999953e-01 5.107764999999999667e-01 5.381109999999999616e+00 1.330829999999999984e+02 1.449710000000000036e+03
1.519999999999999962e-01 5.107599999999999918e-01 5.152569999999999872e+00 1.329984999999999786e+02 1.449664999999999964e+03
1.529999999999999971e-01 5.107504999999999962e-01 4.951494999999999536e+00 1.329465000000000146e+02 1.449630000000000109e+03
1.539999999999999980e-01 5.107464999999999922e-01 4.775389999999999802e+00 1.329230000000000018e+02 1.449605000000000018e+03
1.549999999999999989e-01 5.107470000000000621e-01 4.621665000000000134e+00 1.329225000000000136e+02 1.449589999999999918e+03
1.559999999999999998e-01 5.107515000000000249e-01 4.487680000000000113e+00 1.329404999999999859e+02 1.449585000000000036e+03
1.570000000000000007e-01 5.107580000000000453e-01 4.370854999999999713e+00 1.329730000000000132e+02 1.449579999999999927e+03
1.580000000000000016e-01 5.107669999999999710e-01 4.268674999999999997e+00 1.330140000000000100e+02 1.449585000000000036e+03
1.590000000000000024e-01 5.107764999999999667e-01 4.178810000000000358e+00 1.330609999999999786e+02 1.449595000000000027e+03
