# t [s], A [cm^2], U [cm/s], P [cPa], c [cm/s]
1.000000000000000021e-03 4.683235000000000037e-01 2.725999999999999257e-03 1.036655000000000086e+02 1.430954999999999927e+03
2.000000000000000042e-03 4.683180000000000121e-01 1.092365000000000089e-03 1.036514999999999986e+02 1.430950000000000045e+03
3.000000000000000062e-03 4.683464999999999989e-01 5.787944999999999895e-02 1.037019999999999982e+02 1.430969999999999800e+03
4.000000000000000083e-03 4.683869999999999978e-01 1.391145000000000020e-01 1.037984999999999900e+02 1.431005000000000109e+03
5.000000000000000104e-03 4.683934999999999627e-01 1.525854999999999850e-01 1.038205000000000098e+02 1.431014999999999873e+03
6.000000000000000125e-03 4.683669999999999778e-01 9.923850000000000726e-02 1.037340000000000089e+02 1.430994999999999891e+03
7.000000000000000146e-03 4.683359999999999745e-01 3.083099999999999730e-02 1.035794999999999959e+02 1.430960000000000036e+03
8.000000000000000167e-03 4.682999999999999940e-01 -4.920999999999997598e-02 1.033679999999999950e+02 1.430904999999999973e+03
9.000000000000001055e-03 4.682399999999999896e-01 -1.865575000000000427e-01 1.030494999999999948e+02 1.430820000000000164e+03
1.000000000000000194e-02 4.681429999999999758e-01 -4.061799999999999855e-01 1.025775000000000006e+02 1.430690000000000055e+03
1.099999999999999936e-02 4.680050000000000043e-01 -7.132949999999999013e-01 1.019200000000000017e+02 1.430500000000000000e+03
1.200000000000000025e-02 4.678169999999999829e-01 -1.116694999999999993e+00 1.010422499999999957e+02 1.430250000000000000e+03
1.300000000000000114e-02 4.675734999999999753e-01 -1.615809999999999746e+00 9.991630000000000678e+01 1.429920000000000073e+03
1.400000000000000203e-02 4.672840000000000327e-01 -2.175464999999999982e+00 9.855635000000000900e+01 1.429509999999999991e+03
1.499999999999999944e-02 4.669720000000000537e-01 -2.723589999999999733e+00 9.702994999999999948e+01 1.429029999999999973e+03
1.600000000000000033e-02 4.666685000000000416e-01 -3.174739999999999895e+00 9.543959999999999866e+01 1.428525000000000091e+03
1.700000000000000122e-02 4.663950000000000040e-01 -3.459725000000000161e+00 9.388925000000000409e+01 1.428005000000000109e+03
1.800000000000000211e-02 4.661610000000000475e-01 -3.544167499999999915e+00 9.245324999999999704e+01 1.427500000000000000e+03
1.900000000000000300e-02 4.659619999999999873e-01 -3.431366999999999834e+00 9.116225000000000023e+01 1.427014999999999873e+03
2.000000000000000042e-02 4.657850000000000046e-01 -3.153626000000000040e+00 9.000430000000000064e+01 1.426559999999999945e+03
2.100000000000000130e-02 4.656124999999999847e-01 -2.758009500000000003e+00 8.893729999999999336e+01 1.426130000000000109e+03
2.200000000000000219e-02 4.654289999999999816e-01 -2.291755000000000209e+00 8.790604999999999336e+01 1.425704999999999927e+03
2.299999999999999961e-02 4.652235000000000120e-01 -1.790745000000000253e+00 8.685970000000000368e+01 1.425269999999999982e+03
2.400000000000000050e-02 4.649949999999999917e-01 -1.273639999999999883e+00 8.576480000000000814e+01 1.424825000000000045e+03
2.500000000000000139e-02 4.647454999999999781e-01 -7.423699999999997523e-01 8.461029999999999518e+01 1.424365000000000009e+03
2.600000000000000228e-02 4.644835000000000491e-01 -1.880850000000000577e-01 8.340505000000000280e+01 1.423889999999999873e+03
2.700000000000000316e-02 4.642159999999999620e-01 4.001700000000001367e-01 8.216949999999999932e+01 1.423400000000000091e+03
2.800000000000000058e-02 4.639484999999999859e-01 1.027209999999999734e+00 8.092449999999999477e+01 1.422914999999999964e+03
2.900000000000000147e-02 4.636830000000000118e-01 1.686319999999999819e+00 7.968215000000000714e+01 1.422420000000000073e+03
3.000000000000000236e-02 4.634150000000000214e-01 2.357749999999999790e+00 7.844020000000000437e+01 1.421924999999999955e+03
3.099999999999999978e-02 4.631365000000000620e-01 3.010894999999999655e+00 7.718084999999999241e+01 1.421420000000000073e+03
3.200000000000000067e-02 4.628400000000000292e-01 3.609239999999999782e+00 7.587430000000000518e+01 1.420905000000000200e+03
3.300000000000000155e-02 4.625144999999999951e-01 4.116724999999999746e+00 7.448545000000000016e+01 1.420369999999999891e+03
3.400000000000000244e-02 4.621549999999999825e-01 4.504100000000000215e+00 7.298210000000000264e+01 1.419800000000000182e+03
3.500000000000000333e-02 4.617589999999999750e-01 4.754495000000000360e+00 7.134350000000000591e+01 1.419195000000000164e+03
3.600000000000000422e-02 4.613294999999999479e-01 4.866104999999999237e+00 6.956640000000000157e+01 1.418550000000000182e+03
3.700000000000000511e-02 4.608740000000000059e-01 4.852800000000000225e+00 6.766904999999999859e+01 1.417875000000000000e+03
3.799999999999999906e-02 4.604055000000000231e-01 4.741954999999999920e+00 6.569024999999999181e+01 1.417170000000000073e+03
3.899999999999999994e-02 4.599385000000000279e-01 4.569955000000000211e+00 6.368619999999999948e+01 1.416454999999999927e+03
4.000000000000000083e-02 4.594904999999999684e-01 4.377589999999999648e+00 6.172409999999999997e+01 1.415755000000000109e+03
4.100000000000000172e-02 4.590754999999999697e-01 4.204834999999999212e+00 5.987550000000000239e+01 1.415085000000000036e+03
4.200000000000000261e-02 4.587084999999999635e-01 4.087704999999999700e+00 5.820960000000000178e+01 1.414460000000000036e+03
4.300000000000000350e-02 4.584004999999999885e-01 4.055425000000000502e+00 5.678799999999999670e+01 1.413914999999999964e+03
4.400000000000000439e-02 4.581589999999999829e-01 4.130065000000000097e+00 5.566110000000000468e+01 1.413454999999999927e+03
4.499999999999999833e-02 4.579900000000000082e-01 4.326615499999999948e+00 5.486664999999999992e+01 1.413099999999999909e+03
4.599999999999999922e-02 4.578969999999999985e-01 4.654354999999999798e+00 5.442964999999999520e+01 1.412860000000000127e+03
4.700000000000000011e-02 4.578809999999999825e-01 5.118384999999999962e+00 5.436374999999999602e+01 1.412744999999999891e+03
4.800000000000000100e-02 4.579420000000000157e-01 5.721085000000000420e+00 5.467314999999999969e+01 1.412755000000000109e+03
4.900000000000000189e-02 4.580800000000000427e-01 6.463300000000000267e+00 5.535504999999999853e+01 1.412900000000000091e+03
5.000000000000000278e-02 4.582924999999999915e-01 7.344865000000000421e+00 5.640109999999999957e+01 1.413170000000000073e+03
5.100000000000000366e-02 4.585770000000000124e-01 8.364639999999999631e+00 5.779914999999999736e+01 1.413565000000000055e+03
5.200000000000000455e-02 4.589320000000000066e-01 9.520070000000000476e+00 5.953350000000000364e+01 1.414085000000000036e+03
5.300000000000000544e-02 4.593524999999999969e-01 1.080649999999999977e+01 6.158544999999999447e+01 1.414724999999999909e+03
5.399999999999999939e-02 4.598355000000000081e-01 1.221647999999999890e+01 6.393290000000000362e+01 1.415465000000000146e+03
5.500000000000000028e-02 4.603740000000000610e-01 1.373934999999999995e+01 6.654984999999999218e+01 1.416315000000000055e+03
5.600000000000000117e-02 4.609630000000000116e-01 1.536111000000000004e+01 6.940655000000000996e+01 1.417255000000000109e+03
5.700000000000000205e-02 4.615934999999999899e-01 1.706467500000000115e+01 7.246989999999999554e+01 1.418279999999999973e+03
5.800000000000000294e-02 4.622589999999999755e-01 1.883053499999999758e+01 7.570359999999999445e+01 1.419369999999999891e+03
5.900000000000000383e-02 4.629505000000000425e-01 2.063759999999999906e+01 7.906974999999999909e+01 1.420529999999999973e+03
6.000000000000000472e-02 4.636599999999999611e-01 2.246434999999999960e+01 8.252985000000001037e+01 1.421724999999999909e+03
6.099999999999999867e-02 4.643799999999999595e-01 2.428969999999999985e+01 8.604650000000000887e+01 1.422960000000000036e+03
6.199999999999999956e-02 4.651025000000000298e-01 2.609404999999999930e+01 8.958384999999999820e+01 1.424215000000000146e+03
6.300000000000000044e-02 4.658229999999999871e-01 2.785999999999999943e+01 9.311185000000000400e+01 1.425480000000000018e+03
6.400000000000000133e-02 4.665354999999999919e-01 2.957280000000000086e+01 9.660249999999999204e+01 1.426744999999999891e+03
6.500000000000000222e-02 4.672364999999999990e-01 3.122079999999999700e+01 1.000353000000000065e+02 1.428005000000000109e+03
6.600000000000000311e-02 4.679240000000000066e-01 3.279540000000000077e+01 1.033940000000000055e+02 1.429255000000000109e+03
6.700000000000000400e-02 4.685954999999999981e-01 3.429070000000000107e+01 1.066689499999999953e+02 1.430480000000000018e+03
6.800000000000000488e-02 4.692510000000000292e-01 3.570349999999999824e+01 1.098550999999999931e+02 1.431680000000000064e+03
6.900000000000000577e-02 4.698914999999999620e-01 3.703279999999999461e+01 1.129519999999999982e+02 1.432855000000000018e+03
7.000000000000000666e-02 4.705165000000000042e-01 3.827924999999999756e+01 1.159620000000000033e+02 1.434005000000000109e+03
7.100000000000000755e-02 4.711279999999999912e-01 3.944474999999999909e+01 1.188915000000000077e+02 1.435134999999999991e+03
7.200000000000000844e-02 4.717270000000000074e-01 4.053204999999999814e+01 1.217475000000000023e+02 1.436240000000000009e+03
7.300000000000000933e-02 4.723160000000000136e-01 4.154429999999999978e+01 1.245374999999999943e+02 1.437320000000000164e+03
7.399999999999999634e-02 4.728954999999999687e-01 4.248449999999999704e+01 1.272704999999999984e+02 1.438384999999999991e+03
7.499999999999999722e-02 4.734659999999999980e-01 4.335549999999999926e+01 1.299515000000000100e+02 1.439434999999999945e+03
7.599999999999999811e-02 4.740284999999999638e-01 4.415950000000000131e+01 1.325854999999999961e+02 1.440460000000000036e+03
7.699999999999999900e-02 4.745829999999999771e-01 4.489775000000000205e+01 1.351759999999999877e+02 1.441474999999999909e+03
7.799999999999999989e-02 4.751299999999999413e-01 4.557094999999999629e+01 1.377210000000000036e+02 1.442469999999999800e+03
7.900000000000000078e-02 4.756669999999999510e-01 4.617869999999999919e+01 1.402189999999999941e+02 1.443454999999999927e+03
8.000000000000000167e-02 4.761935000000000473e-01 4.671975000000000477e+01 1.426634999999999991e+02 1.444414999999999964e+03
8.100000000000000255e-02 4.767075000000000062e-01 4.719209999999999638e+01 1.450475000000000136e+02 1.445360000000000127e+03
8.200000000000000344e-02 4.772064999999999779e-01 4.759340000000000259e+01 1.473609999999999900e+02 1.446275000000000091e+03
8.300000000000000433e-02 4.776885000000000159e-01 4.792079999999999984e+01 1.495925000000000011e+02 1.447164999999999964e+03
8.400000000000000522e-02 4.781499999999999639e-01 4.817130000000000223e+01 1.517299999999999898e+02 1.448025000000000091e+03
8.500000000000000611e-02 4.785890000000000422e-01 4.834224999999999994e+01 1.537610000000000241e+02 1.448845000000000027e+03
8.600000000000000699e-02 4.790035000000000265e-01 4.843124999999999858e+01 1.556734999999999900e+02 1.449625000000000000e+03
8.700000000000000788e-02 4.793904999999999972e-01 4.843654999999999688e+01 1.574574999999999818e+02 1.450365000000000009e+03
8.800000000000000877e-02 4.797489999999999810e-01 4.835705000000000098e+01 1.591034999999999968e+02 1.451049999999999955e+03
8.899999999999999578e-02 4.800774999999999904e-01 4.819245000000000090e+01 1.606025000000000205e+02 1.451680000000000064e+03
8.999999999999999667e-02 4.803735000000000088e-01 4.794365000000000521e+01 1.619504999999999768e+02 1.452259999999999991e+03
9.099999999999999756e-02 4.806380000000000097e-01 4.761240000000000094e+01 1.631435000000000173e+02 1.452780000000000200e+03
9.199999999999999845e-02 4.808709999999999929e-01 4.720135000000000502e+01 1.641804999999999950e+02 1.453250000000000000e+03
9.299999999999999933e-02 4.810719999999999441e-01 4.671424999999999983e+01 1.650639999999999930e+02 1.453654999999999973e+03
9.400000000000000022e-02 4.812425000000000175e-01 4.615585000000000093e+01 1.657969999999999970e+02 1.454009999999999991e+03
9.500000000000000111e-02 4.813830000000000053e-01 4.553159999999999741e+01 1.663854999999999791e+02 1.454305000000000064e+03
9.600000000000000200e-02 4.814955000000000207e-01 4.484784999999999400e+01 1.668375000000000057e+02 1.454539999999999964e+03
9.700000000000000289e-02 4.815820000000000656e-01 4.411140000000000327e+01 1.671625000000000227e+02 1.454735000000000127e+03
9.800000000000000377e-02 4.816449999999999898e-01 4.332979999999999876e+01 1.673715000000000259e+02 1.454880000000000109e+03
9.900000000000000466e-02 4.816859999999999475e-01 4.251080000000000325e+01 1.674764999999999873e+02 1.454985000000000127e+03
1.000000000000000056e-01 4.817085000000000394e-01 4.166244999999999976e+01 1.674900000000000091e+02 1.455045000000000073e+03
1.010000000000000064e-01 4.817145000000000454e-01 4.079274999999999807e+01 1.674250000000000114e+02 1.455070000000000164e+03
1.020000000000000073e-01 4.817069999999999963e-01 3.990954999999999586e+01 1.672955000000000041e+02 1.455070000000000164e+03
1.030000000000000082e-01 4.816884999999999639e-01 3.902040000000000219e+01 1.671140000000000043e+02 1.455045000000000073e+03
1.040000000000000091e-01 4.816610000000000058e-01 3.813224999999999909e+01 1.668919999999999959e+02 1.454994999999999891e+03
1.050000000000000100e-01 4.816270000000000273e-01 3.725144999999999840e+01 1.666415000000000077e+02 1.454934999999999945e+03
1.059999999999999970e-01 4.815889999999999338e-01 3.638335000000000008e+01 1.663725000000000023e+02 1.454860000000000127e+03
1.069999999999999979e-01 4.815470000000000028e-01 3.553235000000000099e+01 1.660930000000000177e+02 1.454769999999999982e+03
1.079999999999999988e-01 4.815045000000000019e-01 3.470174999999999699e+01 1.658104999999999905e+02 1.454680000000000064e+03
1.089999999999999997e-01 4.814605000000000135e-01 3.389359999999999928e+01 1.655294999999999845e+02 1.454585000000000036e+03
1.100000000000000006e-01 4.814165000000000250e-01 3.310889999999999844e+01 1.652540000000000191e+02 1.454485000000000127e+03
1.110000000000000014e-01 4.813724999999999810e-01 3.234729999999999706e+01 1.649839999999999804e+02 1.454389999999999873e+03
1.120000000000000023e-01 4.813275000000000192e-01 3.160760000000000147e+01 1.647189999999999941e+02 1.454289999999999964e+03
1.130000000000000032e-01 4.812819999999999876e-01 3.088739999999999952e+01 1.644569999999999936e+02 1.454190000000000055e+03
1.140000000000000041e-01 4.812345000000000095e-01 3.018365000000000009e+01 1.641935000000000002e+02 1.454085000000000036e+03
1.150000000000000050e-01 4.811839999999999451e-01 2.949269999999999925e+01 1.639240000000000066e+02 1.453985000000000127e+03
1.160000000000000059e-01 4.811294999999999877e-01 2.881034999999999968e+01 1.636430000000000007e+02 1.453880000000000109e+03
1.170000000000000068e-01 4.810699999999999976e-01 2.813230000000000075e+01 1.633439999999999941e+02 1.453764999999999873e+03
1.180000000000000077e-01 4.810039999999999871e-01 2.745425000000000182e+01 1.630210000000000150e+02 1.453639999999999873e+03
1.190000000000000085e-01 4.809299999999999686e-01 2.677190000000000225e+01 1.626675000000000182e+02 1.453505000000000109e+03
1.200000000000000094e-01 4.808479999999999421e-01 2.608155000000000001e+01 1.622779999999999916e+02 1.453365000000000009e+03
1.209999999999999964e-01 4.807565000000000310e-01 2.537995000000000090e+01 1.618480000000000132e+02 1.453204999999999927e+03
1.219999999999999973e-01 4.806549999999999989e-01 2.466445000000000221e+01 1.613739999999999952e+02 1.453034999999999854e+03
1.229999999999999982e-01 4.805435000000000123e-01 2.393319999999999936e+01 1.608545000000000016e+02 1.452844999999999800e+03
1.239999999999999991e-01 4.804220000000000157e-01 2.318509999999999849e+01 1.602869999999999777e+02 1.452644999999999982e+03
1.250000000000000000e-01 4.802904999999999536e-01 2.242000000000000171e+01 1.596734999999999900e+02 1.452424999999999955e+03
1.260000000000000009e-01 4.801495000000000068e-01 2.163864999999999839e+01 1.590149999999999864e+02 1.452190000000000055e+03
1.270000000000000018e-01 4.800004999999999966e-01 2.084250000000000114e+01 1.583159999999999741e+02 1.451940000000000055e+03
1.280000000000000027e-01 4.798440000000000483e-01 2.003405000000000058e+01 1.575810000000000173e+02 1.451674999999999955e+03
1.290000000000000036e-01 4.796819999999999973e-01 1.921630000000000038e+01 1.568149999999999977e+02 1.451394999999999982e+03
1.300000000000000044e-01 4.795149999999999690e-01 1.839300000000000068e+01 1.560254999999999939e+02 1.451115000000000009e+03
1.310000000000000053e-01 4.793459999999999943e-01 1.756840000000000046e+01 1.552210000000000036e+02 1.450820000000000164e+03
1.320000000000000062e-01 4.791760000000000463e-01 1.674709999999999965e+01 1.544089999999999918e+02 1.450525000000000091e+03
1.330000000000000071e-01 4.790065000000000017e-01 1.593400000000000105e+01 1.535980000000000132e+02 1.450224999999999909e+03
1.340000000000000080e-01 4.788400000000000434e-01 1.513412500000000094e+01 1.527969999999999970e+02 1.449929999999999836e+03
1.350000000000000089e-01 4.786774999999999780e-01 1.435243999999999964e+01 1.520140000000000100e+02 1.449634999999999991e+03
1.360000000000000098e-01 4.785209999999999742e-01 1.359360500000000016e+01 1.512570000000000050e+02 1.449349999999999909e+03
1.370000000000000107e-01 4.783724999999999783e-01 1.286213000000000051e+01 1.505335000000000036e+02 1.449074999999999818e+03
1.380000000000000115e-01 4.782315000000000316e-01 1.216195499999999896e+01 1.498495000000000061e+02 1.448809999999999945e+03
1.390000000000000124e-01 4.781009999999999982e-01 1.149643999999999977e+01 1.492099999999999795e+02 1.448554999999999836e+03
1.400000000000000133e-01 4.779809999999999892e-01 1.086843999999999966e+01 1.486195000000000164e+02 1.448319999999999936e+03
1.410000000000000142e-01 4.778715000000000046e-01 1.027993000000000023e+01 1.480815000000000055e+02 1.448105000000000018e+03
1.420000000000000151e-01 4.777730000000000032e-01 9.732260000000000133e+00 1.475960000000000036e+02 1.447909999999999854e+03
1.430000000000000160e-01 4.776859999999999995e-01 9.225955000000000794e+00 1.471639999999999873e+02 1.447724999999999909e+03
1.440000000000000169e-01 4.776095000000000201e-01 8.760925000000000296e+00 1.467844999999999800e+02 1.447565000000000055e+03
1.450000000000000178e-01 4.775429999999999953e-01 8.336175000000000779e+00 1.464544999999999959e+02 1.447420000000000073e+03
1.459999999999999909e-01 4.774855000000000071e-01 7.950305000000000177e+00 1.461709999999999923e+02 1.447289999999999964e+03
1.469999999999999918e-01 4.774365000000000414e-01 7.601160000000000139e+00 1.459300000000000068e+02 1.447180000000000064e+03
1.479999999999999927e-01 4.773945000000000549e-01 7.286260000000000403e+00 1.457264999999999873e+02 1.447079999999999927e+03
1.489999999999999936e-01 4.773589999999999778e-01 7.002715000000000245e+00 1.455550000000000068e+02 1.446994999999999891e+03
1.499999999999999944e-01 4.773290000000000033e-01 6.747365000000000279e+00 1.454094999999999800e+02 1.446920000000000073e+03
1.509999999999999953e-01 4.773025000000000184e-01 6.516930000000000334e+00 1.452845000000000084e+02 1.446855000000000018e+03
1.519999999999999962e-01 4.772779999999999800e-01 6.308040000000000092e+00 1.451739999999999782e+02 1.446799999999999955e+03
1.529999999999999971e-01 4.772554999999999992e-01 6.117399999999999949e+00 1.450724999999999909e+02 1.446744999999999891e+03
1.539999999999999980e-01 4.772339999999999915e-01 5.941815000000000069e+00 1.449749999999999943e+02 1.446694999999999936e+03
1.549999999999999989e-01 4.772115000000000107e-01 5.778279999999999639e+00 1.448770000000000095e+02 1.446644999999999982e+03
1.559999999999999998e-01 4.771880000000000566e-01 5.624050000000000438e+00 1.447744999999999891e+02 1.446594999999999800e+03
1.570000000000000007e-01 4.771619999999999751e-01 5.476655000000000051e+00 1.446634999999999991e+02 1.446545000000000073e+03
1.580000000000000016e-01 4.771344999999999614e-01 5.333949999999999747e+00 1.445420000000000016e+02 1.446494999999999891e+03
1.590000000000000024e-01 4.771039999999999726e-01 5.194144999999999790e+00 1.444074999999999989e+02 1.446440000000000055e+03
