# t [s], A [cm^2], U [cm/s], P [cPa], c [cm/s]
1.000000000000000021e-03 7.332914999999999850e-01 4.897800000000000764e-03 9.649314999999999998e+01 1.638195000000000164e+03
2.000000000000000042e-03 7.332805000000000017e-01 -1.521514999999999977e-03 9.646599999999999397e+01 1.638190000000000055e+03
3.000000000000000062e-03 7.333425000000000082e-01 9.459594999999998421e-02 9.656990000000000407e+01 1.638210000000000036e+03
4.000000000000000083e-03 7.333965000000000067e-01 1.892763199999999979e-01 9.668930000000000291e+01 1.638235000000000127e+03
5.000000000000000104e-03 7.333665000000000322e-01 1.636790499999999926e-01 9.663150000000000261e+01 1.638224999999999909e+03
6.000000000000000125e-03 7.332929999999999726e-01 6.741499999999997494e-02 9.641440000000000055e+01 1.638184999999999945e+03
7.000000000000000146e-03 7.332285000000000608e-01 -2.320800000000000640e-02 9.613854999999999507e+01 1.638130000000000109e+03
8.000000000000000167e-03 7.331280000000000019e-01 -1.815549999999999109e-01 9.573160000000000025e+01 1.638049999999999955e+03
9.000000000000001055e-03 7.329579999999999984e-01 -4.644200000000000550e-01 9.510039999999999338e+01 1.637924999999999955e+03
1.000000000000000194e-02 7.327124999999999888e-01 -8.776949999999998919e-01 9.419859999999999900e+01 1.637744999999999891e+03
1.099999999999999936e-02 7.323724999999999818e-01 -1.441484999999999683e+00 9.296110000000000184e+01 1.637494999999999891e+03
1.200000000000000025e-02 7.319284999999999819e-01 -2.154700000000000060e+00 9.134300000000000352e+01 1.637164999999999964e+03
1.300000000000000114e-02 7.314169999999999838e-01 -2.935539999999999594e+00 8.940889999999998849e+01 1.636759999999999991e+03
1.400000000000000203e-02 7.309120000000000061e-01 -3.637059999999999960e+00 8.733924999999999272e+01 1.636315000000000055e+03
1.499999999999999944e-02 7.304800000000000182e-01 -4.119462500000000027e+00 8.534835000000001060e+01 1.635869999999999891e+03
1.600000000000000033e-02 7.301489999999999370e-01 -4.309525999999999968e+00 8.358979999999999677e+01 1.635450000000000045e+03
1.700000000000000122e-02 7.299025000000000096e-01 -4.214806000000000274e+00 8.211095000000000255e+01 1.635069999999999936e+03
1.800000000000000211e-02 7.296990000000000975e-01 -3.902285000000000004e+00 8.085909999999999798e+01 1.634735000000000127e+03
1.900000000000000300e-02 7.294895000000000129e-01 -3.462432999999999872e+00 7.972164999999999679e+01 1.634420000000000073e+03
2.000000000000000042e-02 7.292365000000000652e-01 -2.974369999999999958e+00 7.857675000000000409e+01 1.634099999999999909e+03
2.100000000000000130e-02 7.289270000000001026e-01 -2.482236499999999957e+00 7.733789999999999054e+01 1.633775000000000091e+03
2.200000000000000219e-02 7.285690000000000222e-01 -1.988979999999999970e+00 7.597780000000000200e+01 1.633420000000000073e+03
2.299999999999999961e-02 7.281864999999999588e-01 -1.468434999999999935e+00 7.452455000000000496e+01 1.633039999999999964e+03
2.400000000000000050e-02 7.278050000000000352e-01 -8.885699999999998600e-01 7.303534999999999400e+01 1.632659999999999854e+03
2.500000000000000139e-02 7.274374999999999591e-01 -2.348249999999998394e-01 7.156180000000000518e+01 1.632279999999999973e+03
2.600000000000000228e-02 7.270829999999999238e-01 4.758250000000003865e-01 7.012135000000000673e+01 1.631900000000000091e+03
2.700000000000000316e-02 7.267215000000000202e-01 1.193269999999999831e+00 6.868394999999999584e+01 1.631519999999999982e+03
2.800000000000000058e-02 7.263224999999999820e-01 1.843709999999999960e+00 6.717634999999999934e+01 1.631130000000000109e+03
2.900000000000000147e-02 7.258534999999999293e-01 2.346179999999999932e+00 6.549989999999999668e+01 1.630704999999999927e+03
3.000000000000000236e-02 7.252885000000000026e-01 2.631580000000000030e+00 6.355704999999999671e+01 1.630235000000000127e+03
3.099999999999999978e-02 7.246170000000000666e-01 2.659374999999999822e+00 6.128014999999999901e+01 1.629695000000000164e+03
3.200000000000000067e-02 7.238459999999999894e-01 2.427364999999999551e+00 5.865300000000000580e+01 1.629085000000000036e+03
3.300000000000000155e-02 7.230015000000000747e-01 1.971925000000000150e+00 5.572039999999999793e+01 1.628410000000000082e+03
3.400000000000000244e-02 7.221225000000000005e-01 1.359024999999999928e+00 5.258270000000000266e+01 1.627695000000000164e+03
3.500000000000000333e-02 7.212540000000000617e-01 6.693800000000003081e-01 4.937839999999999918e+01 1.626954999999999927e+03
3.600000000000000422e-02 7.204365000000000352e-01 -1.636999999999932953e-02 4.626080000000000325e+01 1.626224999999999909e+03
3.700000000000000511e-02 7.197050000000000392e-01 -6.295950000000001268e-01 4.337565000000000026e+01 1.625529999999999973e+03
3.799999999999999906e-02 7.190834999999999866e-01 -1.120049999999999990e+00 4.084449999999999648e+01 1.624909999999999854e+03
3.899999999999999994e-02 7.185850000000000293e-01 -1.456974999999999909e+00 3.875509999999999877e+01 1.624375000000000000e+03
4.000000000000000083e-02 7.182159999999999656e-01 -1.626234999999999875e+00 3.715984999999999872e+01 1.623944999999999936e+03
4.100000000000000172e-02 7.179729999999999723e-01 -1.625145000000000284e+00 3.607965000000000089e+01 1.623630000000000109e+03
4.200000000000000261e-02 7.178539999999999921e-01 -1.456707700000000161e+00 3.551174999999999926e+01 1.623430000000000064e+03
4.300000000000000350e-02 7.178514999999999757e-01 -1.124884999999999913e+00 3.543865000000000265e+01 1.623339999999999918e+03
4.400000000000000439e-02 7.179615000000000302e-01 -6.317629999999998525e-01 3.583594999999999686e+01 1.623365000000000009e+03
4.499999999999999833e-02 7.181785000000000529e-01 2.288499999999982215e-02 3.667764999999999986e+01 1.623500000000000000e+03
4.599999999999999922e-02 7.184989999999999988e-01 8.400199999999999889e-01 3.793755000000000166e+01 1.623734999999999900e+03
4.700000000000000011e-02 7.189174999999999871e-01 1.818650000000000100e+00 3.958885000000000076e+01 1.624065000000000055e+03
4.800000000000000100e-02 7.194270000000000387e-01 2.952935000000000088e+00 4.160105000000000075e+01 1.624480000000000018e+03
4.900000000000000189e-02 7.200174999999999770e-01 4.230224999999999902e+00 4.393750000000000000e+01 1.624980000000000018e+03
5.000000000000000278e-02 7.206765000000000532e-01 5.630360000000000475e+00 4.655355000000000132e+01 1.625550000000000182e+03
5.100000000000000366e-02 7.213884999999999881e-01 7.126365999999999978e+00 4.939650000000000318e+01 1.626179999999999836e+03
5.200000000000000455e-02 7.221374999999999877e-01 8.686474999999999724e+00 5.240704999999999814e+01 1.626855000000000018e+03
5.300000000000000544e-02 7.229065000000000074e-01 1.027658499999999897e+01 5.552255000000000251e+01 1.627570000000000164e+03
5.399999999999999939e-02 7.236789999999999612e-01 1.186319499999999927e+01 5.868079999999999785e+01 1.628295000000000073e+03
5.500000000000000028e-02 7.244420000000000304e-01 1.341582000000000008e+01 6.182435000000000258e+01 1.629035000000000082e+03
5.600000000000000117e-02 7.251845000000000097e-01 1.490910000000000046e+01 6.490394999999999470e+01 1.629769999999999982e+03
5.700000000000000205e-02 7.258985000000000021e-01 1.632385000000000019e+01 6.788139999999999930e+01 1.630490000000000009e+03
5.800000000000000294e-02 7.265800000000000036e-01 1.764724999999999966e+01 7.073080000000000211e+01 1.631184999999999945e+03
5.900000000000000383e-02 7.272279999999999855e-01 1.887290000000000134e+01 7.343899999999999295e+01 1.631855000000000018e+03
6.000000000000000472e-02 7.278440000000000465e-01 1.999990000000000023e+01 7.600445000000000562e+01 1.632500000000000000e+03
6.099999999999999867e-02 7.284319999999999684e-01 2.103174999999999883e+01 7.843574999999999875e+01 1.633115000000000009e+03
6.199999999999999956e-02 7.289955000000000185e-01 2.197530000000000072e+01 8.074954999999999927e+01 1.633699999999999818e+03
6.300000000000000044e-02 7.295415000000000649e-01 2.283975000000000222e+01 8.296754999999998859e+01 1.634269999999999982e+03
6.400000000000000133e-02 7.300765000000000171e-01 2.363540000000000063e+01 8.511475000000000080e+01 1.634820000000000164e+03
6.500000000000000222e-02 7.306055000000000188e-01 2.437270000000000181e+01 8.721635000000000559e+01 1.635355000000000018e+03
6.600000000000000311e-02 7.311339999999999506e-01 2.506165000000000020e+01 8.929579999999999984e+01 1.635884999999999991e+03
6.700000000000000400e-02 7.316664999999999974e-01 2.571054999999999779e+01 9.137270000000000891e+01 1.636414999999999964e+03
6.800000000000000488e-02 7.322049999999999947e-01 2.632569999999999766e+01 9.346139999999999759e+01 1.636945000000000164e+03
6.900000000000000577e-02 7.327500000000000124e-01 2.691100000000000136e+01 9.556940000000000168e+01 1.637474999999999909e+03
7.000000000000000666e-02 7.333015000000000505e-01 2.746739999999999782e+01 9.769710000000000605e+01 1.638005000000000109e+03
7.100000000000000755e-02 7.338549999999999240e-01 2.799314999999999998e+01 9.983844999999999459e+01 1.638539999999999964e+03
7.200000000000000844e-02 7.344090000000000895e-01 2.848429999999999751e+01 1.019799500000000023e+02 1.639079999999999927e+03
7.300000000000000933e-02 7.349554999999999838e-01 2.893489999999999895e+01 1.041030000000000086e+02 1.639610000000000127e+03
7.399999999999999634e-02 7.354899999999999771e-01 2.933774999999999977e+01 1.061854999999999905e+02 1.640134999999999991e+03
7.499999999999999722e-02 7.360059999999999381e-01 2.968515000000000015e+01 1.082034999999999911e+02 1.640644999999999982e+03
7.599999999999999811e-02 7.364975000000000271e-01 2.996934999999999860e+01 1.101315000000000026e+02 1.641144999999999982e+03
7.699999999999999900e-02 7.369585000000000719e-01 3.018325000000000102e+01 1.119459999999999980e+02 1.641605000000000018e+03
7.799999999999999989e-02 7.373840000000000394e-01 3.032090000000000174e+01 1.136250000000000000e+02 1.642045000000000073e+03
7.900000000000000078e-02 7.377700000000000369e-01 3.037765000000000271e+01 1.151504999999999939e+02 1.642449999999999818e+03
8.000000000000000167e-02 7.381135000000000890e-01 3.035050000000000026e+01 1.165090000000000003e+02 1.642809999999999945e+03
8.100000000000000255e-02 7.384125000000000272e-01 3.023819999999999908e+01 1.176905000000000001e+02 1.643134999999999991e+03
8.200000000000000344e-02 7.386660000000000448e-01 3.004140000000000299e+01 1.186899999999999977e+02 1.643414999999999964e+03
8.300000000000000433e-02 7.388744999999999896e-01 2.976245000000000118e+01 1.195074999999999932e+02 1.643650000000000091e+03
8.400000000000000522e-02 7.390404999999999891e-01 2.940565000000000140e+01 1.201469999999999914e+02 1.643845000000000027e+03
8.500000000000000611e-02 7.391645000000000021e-01 2.897690000000000055e+01 1.206175000000000068e+02 1.644000000000000000e+03
8.600000000000000699e-02 7.392505000000000326e-01 2.848390000000000200e+01 1.209314999999999998e+02 1.644115000000000009e+03
8.700000000000000788e-02 7.393035000000000023e-01 2.793554999999999922e+01 1.211034999999999968e+02 1.644190000000000055e+03
8.800000000000000877e-02 7.393264999999999976e-01 2.734199999999999875e+01 1.211529999999999916e+02 1.644234999999999900e+03
8.899999999999999578e-02 7.393259999999999277e-01 2.671405000000000030e+01 1.210999999999999943e+02 1.644250000000000000e+03
8.999999999999999667e-02 7.393069999999999364e-01 2.606299999999999883e+01 1.209645000000000010e+02 1.644244999999999891e+03
9.099999999999999756e-02 7.392734999999999168e-01 2.539985000000000070e+01 1.207684999999999889e+02 1.644220000000000027e+03
9.199999999999999845e-02 7.392320000000000002e-01 2.473519999999999897e+01 1.205335000000000036e+02 1.644179999999999836e+03
9.299999999999999933e-02 7.391860000000000097e-01 2.407860000000000156e+01 1.202769999999999868e+02 1.644134999999999991e+03
9.400000000000000022e-02 7.391395000000000604e-01 2.343815000000000026e+01 1.200165000000000077e+02 1.644085000000000036e+03
9.500000000000000111e-02 7.390950000000000575e-01 2.282010000000000005e+01 1.197640000000000100e+02 1.644025000000000091e+03
9.600000000000000200e-02 7.390544999999999476e-01 2.222889999999999944e+01 1.195305000000000035e+02 1.643974999999999909e+03
9.700000000000000289e-02 7.390194999999999403e-01 2.166689999999999827e+01 1.193209999999999980e+02 1.643920000000000073e+03
9.800000000000000377e-02 7.389894999999999659e-01 2.113430000000000319e+01 1.191375000000000028e+02 1.643875000000000000e+03
9.900000000000000466e-02 7.389634999999999954e-01 2.062955000000000183e+01 1.189789999999999992e+02 1.643835000000000036e+03
1.000000000000000056e-01 7.389405000000000001e-01 2.014925000000000210e+01 1.188389999999999986e+02 1.643799999999999955e+03
1.010000000000000064e-01 7.389170000000000460e-01 1.968880000000000052e+01 1.187094999999999914e+02 1.643759999999999991e+03
1.020000000000000073e-01 7.388915000000000344e-01 1.924245000000000161e+01 1.185809999999999889e+02 1.643724999999999909e+03
1.030000000000000082e-01 7.388609999999999900e-01 1.880385000000000062e+01 1.184415000000000049e+02 1.643690000000000055e+03
1.040000000000000091e-01 7.388215000000000199e-01 1.836645000000000039e+01 1.182789999999999964e+02 1.643650000000000091e+03
1.050000000000000100e-01 7.387714999999999144e-01 1.792370000000000019e+01 1.180809999999999889e+02 1.643595000000000027e+03
1.059999999999999970e-01 7.387079999999999202e-01 1.746965000000000146e+01 1.178375000000000057e+02 1.643539999999999964e+03
1.069999999999999979e-01 7.386280000000000623e-01 1.699895000000000067e+01 1.175384999999999991e+02 1.643469999999999800e+03
1.079999999999999988e-01 7.385315000000000074e-01 1.650760000000000005e+01 1.171765000000000043e+02 1.643384999999999991e+03
1.089999999999999997e-01 7.384169999999999900e-01 1.599259999999999948e+01 1.167464999999999975e+02 1.643289999999999964e+03
1.100000000000000006e-01 7.382845000000000102e-01 1.545265000000000022e+01 1.162469999999999999e+02 1.643170000000000073e+03
1.110000000000000014e-01 7.381345000000000267e-01 1.488789999999999836e+01 1.156794999999999902e+02 1.643045000000000073e+03
1.120000000000000023e-01 7.379690000000000971e-01 1.430020000000000024e+01 1.150469999999999970e+02 1.642894999999999982e+03
1.130000000000000032e-01 7.377894999999999870e-01 1.369286500000000117e+01 1.143589999999999947e+02 1.642735000000000127e+03
1.140000000000000041e-01 7.376000000000000334e-01 1.307077500000000114e+01 1.136229999999999905e+02 1.642565000000000055e+03
1.150000000000000050e-01 7.374034999999999895e-01 1.243996499999999905e+01 1.128529999999999944e+02 1.642384999999999991e+03
1.160000000000000059e-01 7.372024999999999828e-01 1.180750500000000081e+01 1.120635000000000048e+02 1.642199999999999818e+03
1.170000000000000068e-01 7.370034999999999226e-01 1.118119500000000066e+01 1.112700000000000102e+02 1.642009999999999991e+03
1.180000000000000077e-01 7.368090000000000472e-01 1.056917999999999935e+01 1.104885000000000019e+02 1.641820000000000164e+03
1.190000000000000085e-01 7.366230000000000278e-01 9.979565000000000907e+00 1.097355000000000018e+02 1.641634999999999991e+03
1.200000000000000094e-01 7.364504999999998969e-01 9.420165000000000788e+00 1.090275000000000034e+02 1.641460000000000036e+03
1.209999999999999964e-01 7.362929999999999753e-01 8.898184999999999789e+00 1.083770000000000095e+02 1.641300000000000182e+03
1.219999999999999973e-01 7.361549999999998928e-01 8.419674999999999798e+00 1.077974999999999994e+02 1.641150000000000091e+03
1.229999999999999982e-01 7.360385000000000399e-01 7.989630000000000010e+00 1.072980000000000018e+02 1.641014999999999873e+03
1.239999999999999991e-01 7.359440000000000426e-01 7.611549999999999372e+00 1.068864999999999981e+02 1.640904999999999973e+03
1.250000000000000000e-01 7.358720000000000816e-01 7.287479999999999514e+00 1.065660000000000025e+02 1.640809999999999945e+03
1.260000000000000009e-01 7.358234999999999637e-01 7.017875000000000085e+00 1.063370000000000033e+02 1.640740000000000009e+03
1.270000000000000018e-01 7.357964999999999645e-01 6.801719999999999544e+00 1.061984999999999957e+02 1.640690000000000055e+03
1.280000000000000027e-01 7.357895000000000962e-01 6.636599999999999611e+00 1.061444999999999936e+02 1.640659999999999854e+03
1.290000000000000036e-01 7.358014999999999972e-01 6.518905000000000172e+00 1.061690000000000111e+02 1.640650000000000091e+03
1.300000000000000044e-01 7.358294999999999142e-01 6.444029999999999703e+00 1.062605000000000075e+02 1.640654999999999973e+03
1.310000000000000053e-01 7.358694999999999542e-01 6.406639999999999446e+00 1.064104999999999990e+02 1.640674999999999955e+03
1.320000000000000062e-01 7.359204999999999774e-01 6.400924999999999976e+00 1.066069999999999993e+02 1.640710000000000036e+03
1.330000000000000071e-01 7.359784999999999799e-01 6.420844999999999914e+00 1.068384999999999962e+02 1.640755000000000109e+03
1.340000000000000080e-01 7.360415000000000152e-01 6.460385000000000488e+00 1.070929999999999893e+02 1.640800000000000182e+03
1.350000000000000089e-01 7.361059999999999270e-01 6.513754999999999740e+00 1.073599999999999994e+02 1.640860000000000127e+03
1.360000000000000098e-01 7.361704999999999499e-01 6.575549999999999784e+00 1.076304999999999978e+02 1.640920000000000073e+03
1.370000000000000107e-01 7.362324999999999564e-01 6.640930000000000000e+00 1.078950000000000102e+02 1.640974999999999909e+03
1.380000000000000115e-01 7.362919999999999465e-01 6.705669999999999575e+00 1.081475000000000080e+02 1.641029999999999973e+03
1.390000000000000124e-01 7.363454999999999862e-01 6.766259999999999941e+00 1.083824999999999932e+02 1.641090000000000146e+03
1.400000000000000133e-01 7.363950000000000218e-01 6.819905000000000328e+00 1.085955000000000013e+02 1.641139999999999873e+03
1.410000000000000142e-01 7.364379999999999260e-01 6.864559999999999995e+00 1.087860000000000014e+02 1.641184999999999945e+03
1.420000000000000151e-01 7.364749999999999908e-01 6.898884999999999934e+00 1.089519999999999982e+02 1.641230000000000018e+03
1.430000000000000160e-01 7.365064999999999529e-01 6.922209999999999752e+00 1.090939999999999941e+02 1.641264999999999873e+03
1.440000000000000169e-01 7.365334999999999521e-01 6.934469999999999246e+00 1.092139999999999986e+02 1.641299999999999955e+03
1.450000000000000178e-01 7.365559999999999885e-01 6.936154999999999404e+00 1.093139999999999930e+02 1.641324999999999818e+03
1.459999999999999909e-01 7.365744999999999099e-01 6.928195000000000547e+00 1.093975000000000080e+02 1.641349999999999909e+03
1.469999999999999918e-01 7.365905000000000369e-01 6.911889999999999645e+00 1.094675000000000011e+02 1.641369999999999891e+03
1.479999999999999927e-01 7.366055000000000241e-01 6.888790000000000191e+00 1.095285000000000082e+02 1.641389999999999873e+03
1.489999999999999936e-01 7.366194999999999826e-01 6.860610000000000319e+00 1.095835000000000008e+02 1.641404999999999973e+03
1.499999999999999944e-01 7.366329999999999822e-01 6.829105000000000203e+00 1.096370000000000005e+02 1.641420000000000073e+03
1.509999999999999953e-01 7.366479999999999695e-01 6.796005000000000074e+00 1.096915000000000049e+02 1.641434999999999945e+03
1.519999999999999962e-01 7.366645000000000554e-01 6.762869999999999493e+00 1.097500000000000000e+02 1.641449999999999818e+03
1.529999999999999971e-01 7.366829999999999767e-01 6.731074999999999697e+00 1.098149999999999977e+02 1.641469999999999800e+03
1.539999999999999980e-01 7.367034999999999556e-01 6.701694999999999958e+00 1.098875000000000028e+02 1.641484999999999900e+03
1.549999999999999989e-01 7.367264999999999509e-01 6.675504999999999356e+00 1.099685000000000059e+02 1.641505000000000109e+03
1.559999999999999998e-01 7.367515000000000036e-01 6.652939999999999188e+00 1.100585000000000093e+02 1.641530000000000200e+03
1.570000000000000007e-01 7.367785000000000029e-01 6.634104999999999919e+00 1.101550000000000011e+02 1.641555000000000064e+03
1.580000000000000016e-01 7.368064999999999198e-01 6.618814999999999671e+00 1.102584999999999980e+02 1.641579999999999927e+03
1.590000000000000024e-01 7.368354999999999766e-01 6.606619999999999493e+00 1.103659999999999997e+02 1.641605000000000018e+03
