# t [s], A [cm^2], U [cm/s], P [cPa], c [cm/s]
1.000000000000000021e-03 6.339095000000000146e-01 7.277499999999999247e-03 1.096454999999999984e+02 1.813505000000000109e+03
2.000000000000000042e-03 6.339029999999999943e-01 6.132649999999999907e-03 1.096140000000000043e+02 1.813500000000000000e+03
3.000000000000000062e-03 6.339725000000000499e-01 1.494286499999999962e-01 1.097924999999999898e+02 1.813534999999999854e+03
4.000000000000000083e-03 6.339980000000000615e-01 2.261624999999999885e-01 1.098855000000000075e+02 1.813559999999999945e+03
5.000000000000000104e-03 6.339304999999999524e-01 1.252505000000000146e-01 1.096574999999999989e+02 1.813515000000000100e+03
6.000000000000000125e-03 6.338595000000000201e-01 4.445499999999991125e-03 1.092874999999999943e+02 1.813434999999999945e+03
7.000000000000000146e-03 6.337725000000000719e-01 -1.619000000000000439e-01 1.087830000000000013e+02 1.813325000000000045e+03
8.000000000000000167e-03 6.336129999999999818e-01 -4.976949999999998875e-01 1.079585000000000008e+02 1.813144999999999982e+03
9.000000000000001055e-03 6.333785000000000664e-01 -1.005574999999999886e+00 1.067475000000000023e+02 1.812880000000000109e+03
1.000000000000000194e-02 6.330459999999999976e-01 -1.715110000000000134e+00 1.050485500000000059e+02 1.812509999999999991e+03
1.099999999999999936e-02 6.325990000000000224e-01 -2.637760000000000105e+00 1.027690000000000055e+02 1.812005000000000109e+03
1.200000000000000025e-02 6.320915000000000283e-01 -3.629414999999999836e+00 1.000482999999999976e+02 1.811384999999999991e+03
1.300000000000000114e-02 6.316260000000000208e-01 -4.431329999999999991e+00 9.725799999999999557e+01 1.810724999999999909e+03
1.400000000000000203e-02 6.312800000000000633e-01 -4.834449999999999470e+00 9.478215000000000146e+01 1.810105000000000018e+03
1.499999999999999944e-02 6.310590000000000366e-01 -4.784575000000000244e+00 9.281135000000000446e+01 1.809570000000000164e+03
1.600000000000000033e-02 6.309119999999999173e-01 -4.375115000000000087e+00 9.129220000000000823e+01 1.809119999999999891e+03
1.700000000000000122e-02 6.307635000000000325e-01 -3.774264999999999759e+00 8.999944999999999595e+01 1.808715000000000146e+03
1.800000000000000211e-02 6.305545000000000178e-01 -3.139498000000000122e+00 8.866575000000000273e+01 1.808309999999999945e+03
1.900000000000000300e-02 6.302624999999999478e-01 -2.554644500000000207e+00 8.710455000000000325e+01 1.807865000000000009e+03
2.000000000000000042e-02 6.299049999999999372e-01 -2.011585000000000178e+00 8.527750000000000341e+01 1.807365000000000009e+03
2.100000000000000130e-02 6.295239999999999725e-01 -1.440559999999999841e+00 8.327965000000000373e+01 1.806829999999999927e+03
2.200000000000000219e-02 6.291599999999999415e-01 -7.678499999999996994e-01 8.126229999999999620e+01 1.806279999999999973e+03
2.299999999999999961e-02 6.288309999999999178e-01 3.240500000000023917e-02 7.934014999999999418e+01 1.805750000000000000e+03
2.400000000000000050e-02 6.285244999999999305e-01 9.140649999999999054e-01 7.752860000000001151e+01 1.805230000000000018e+03
2.500000000000000139e-02 6.282034999999999147e-01 1.765999999999999792e+00 7.572700000000000387e+01 1.804719999999999800e+03
2.600000000000000228e-02 6.278179999999999872e-01 2.442425000000000068e+00 7.374760000000000559e+01 1.804175000000000182e+03
2.700000000000000316e-02 6.273244999999999516e-01 2.805304999999999715e+00 7.137645000000000550e+01 1.803550000000000182e+03
2.800000000000000058e-02 6.266990000000000061e-01 2.766410000000000036e+00 6.844745000000000346e+01 1.802815000000000055e+03
2.900000000000000147e-02 6.259494999999999365e-01 2.315364999999999451e+00 6.490600000000000591e+01 1.801950000000000045e+03
3.000000000000000236e-02 6.251115000000000421e-01 1.522429999999999950e+00 6.083749999999999858e+01 1.800965000000000146e+03
3.099999999999999978e-02 6.242430000000001034e-01 5.164499999999998536e-01 5.645125000000000171e+01 1.799904999999999973e+03
3.200000000000000067e-02 6.234060000000000157e-01 -5.510000000000001563e-01 5.203114999999999668e+01 1.798815000000000055e+03
3.300000000000000155e-02 6.226549999999999585e-01 -1.540375000000000050e+00 4.787425000000000352e+01 1.797764999999999873e+03
3.400000000000000244e-02 6.220284999999999842e-01 -2.346179999999999932e+00 4.423879999999999768e+01 1.796819999999999936e+03
3.500000000000000333e-02 6.215479999999999894e-01 -2.905514999999999848e+00 4.131184999999999974e+01 1.796019999999999982e+03
3.600000000000000422e-02 6.212189999999999657e-01 -3.194034999999999958e+00 3.919800000000000040e+01 1.795410000000000082e+03
3.700000000000000511e-02 6.210364999999999913e-01 -3.214815499999999826e+00 3.792690000000000339e+01 1.794994999999999891e+03
3.799999999999999906e-02 6.209899999999999309e-01 -2.984280000000000044e+00 3.747299999999999898e+01 1.794784999999999854e+03
3.899999999999999994e-02 6.210679999999999534e-01 -2.519874999999999865e+00 3.777974999999999994e+01 1.794759999999999991e+03
4.000000000000000083e-02 6.212600000000000344e-01 -1.832644999999999857e+00 3.878159999999999741e+01 1.794914999999999964e+03
4.100000000000000172e-02 6.215589999999999726e-01 -9.261349999999999305e-01 4.041719999999999402e+01 1.795235000000000127e+03
4.200000000000000261e-02 6.219594999999999985e-01 1.991549999999997489e-01 4.263219999999999743e+01 1.795714999999999918e+03
4.300000000000000350e-02 6.224534999999999929e-01 1.538669999999999760e+00 4.537470000000000425e+01 1.796335000000000036e+03
4.400000000000000439e-02 6.230314999999999603e-01 3.077324999999999644e+00 4.858620000000000516e+01 1.797074999999999818e+03
4.499999999999999833e-02 6.236789999999999834e-01 4.785865000000000258e+00 5.219459999999999411e+01 1.797924999999999955e+03
4.599999999999999922e-02 6.243769999999999598e-01 6.621494999999999465e+00 5.611135000000000161e+01 1.798865000000000009e+03
4.700000000000000011e-02 6.251050000000000217e-01 8.531343079999999190e+00 6.023360000000000269e+01 1.799869999999999891e+03
4.800000000000000100e-02 6.258410000000000917e-01 1.045846500000000034e+01 6.445140000000000668e+01 1.800910000000000082e+03
4.900000000000000189e-02 6.265665000000000262e-01 1.234816499999999984e+01 6.865715000000000146e+01 1.801965000000000146e+03
5.000000000000000278e-02 6.272659999999999902e-01 1.415349499999999949e+01 7.275575000000000614e+01 1.803014999999999873e+03
5.100000000000000366e-02 6.279280000000000417e-01 1.583881999999999834e+01 7.667215000000000202e+01 1.804030000000000200e+03
5.200000000000000455e-02 6.285469999999999668e-01 1.738149999999999906e+01 8.035654999999999859e+01 1.805000000000000000e+03
5.300000000000000544e-02 6.291219999999999590e-01 1.877154999999999774e+01 8.378575000000000728e+01 1.805920000000000073e+03
5.399999999999999939e-02 6.296559999999999935e-01 2.000970000000000226e+01 8.696135000000001014e+01 1.806779999999999973e+03
5.500000000000000028e-02 6.301550000000000207e-01 2.110519999999999996e+01 8.990545000000000186e+01 1.807585000000000036e+03
5.600000000000000117e-02 6.306264999999999787e-01 2.207325000000000159e+01 9.265550000000000352e+01 1.808345000000000027e+03
5.700000000000000205e-02 6.310795000000000154e-01 2.293270000000000053e+01 9.525880000000000791e+01 1.809070000000000164e+03
5.800000000000000294e-02 6.315230000000000565e-01 2.370404999999999873e+01 9.776675000000000182e+01 1.809759999999999991e+03
5.900000000000000383e-02 6.319649999999999990e-01 2.440764999999999674e+01 1.002300500000000056e+02 1.810440000000000055e+03
6.000000000000000472e-02 6.324125000000000441e-01 2.506204999999999927e+01 1.026931500000000028e+02 1.811115000000000009e+03
6.099999999999999867e-02 6.328700000000000436e-01 2.568224999999999980e+01 1.051920000000000073e+02 1.811789999999999964e+03
6.199999999999999956e-02 6.333410000000000428e-01 2.627850000000000108e+01 1.077475000000000023e+02 1.812480000000000018e+03
6.300000000000000044e-02 6.338250000000000828e-01 2.685539999999999949e+01 1.103679999999999950e+02 1.813179999999999836e+03
6.400000000000000133e-02 6.343174999999999786e-01 2.741154999999999831e+01 1.130439999999999969e+02 1.813894999999999982e+03
6.500000000000000222e-02 6.348145000000000593e-01 2.794004999999999939e+01 1.157505000000000024e+02 1.814619999999999891e+03
6.600000000000000311e-02 6.353079999999999838e-01 2.842944999999999922e+01 1.184519999999999982e+02 1.815339999999999918e+03
6.700000000000000400e-02 6.357884999999999787e-01 2.886514999999999986e+01 1.211020000000000039e+02 1.816050000000000182e+03
6.800000000000000488e-02 6.362475000000000769e-01 2.923140000000000072e+01 1.236504999999999939e+02 1.816735000000000127e+03
6.900000000000000577e-02 6.366760000000000197e-01 2.951249999999999929e+01 1.260469999999999970e+02 1.817389999999999873e+03
7.000000000000000666e-02 6.370664999999999800e-01 2.969460000000000122e+01 1.282439999999999998e+02 1.817994999999999891e+03
7.100000000000000755e-02 6.374119999999999786e-01 2.976644999999999897e+01 1.302015000000000100e+02 1.818550000000000182e+03
7.200000000000000844e-02 6.377089999999999703e-01 2.972034999999999982e+01 1.318880000000000052e+02 1.819035000000000082e+03
7.300000000000000933e-02 6.379529999999999923e-01 2.955255000000000010e+01 1.332824999999999989e+02 1.819444999999999936e+03
7.399999999999999634e-02 6.381445000000000034e-01 2.926335000000000264e+01 1.343774999999999977e+02 1.819784999999999854e+03
7.499999999999999722e-02 6.382839999999999625e-01 2.885719999999999885e+01 1.351740000000000066e+02 1.820039999999999964e+03
7.599999999999999811e-02 6.383745000000000669e-01 2.834224999999999994e+01 1.356839999999999975e+02 1.820230000000000018e+03
7.699999999999999900e-02 6.384205000000000574e-01 2.773029999999999973e+01 1.359304999999999950e+02 1.820349999999999909e+03
7.799999999999999989e-02 6.384275000000000366e-01 2.703600000000000136e+01 1.359429999999999836e+02 1.820394999999999982e+03
7.900000000000000078e-02 6.384015000000000661e-01 2.627645000000000053e+01 1.357565000000000168e+02 1.820394999999999982e+03
8.000000000000000167e-02 6.383495000000000141e-01 2.547019999999999840e+01 1.354114999999999895e+02 1.820345000000000027e+03
8.100000000000000255e-02 6.382799999999999585e-01 2.463654999999999973e+01 1.349495000000000005e+02 1.820260000000000218e+03
8.200000000000000344e-02 6.381989999999999608e-01 2.379449999999999932e+01 1.344130000000000109e+02 1.820144999999999982e+03
8.300000000000000433e-02 6.381140000000000700e-01 2.296189999999999998e+01 1.338419999999999845e+02 1.820019999999999982e+03
8.400000000000000522e-02 6.380300000000000971e-01 2.215425000000000111e+01 1.332710000000000150e+02 1.819880000000000109e+03
8.500000000000000611e-02 6.379515000000000047e-01 2.138445000000000107e+01 1.327309999999999945e+02 1.819744999999999891e+03
8.600000000000000699e-02 6.378829999999999778e-01 2.066150000000000020e+01 1.322434999999999832e+02 1.819625000000000000e+03
8.700000000000000788e-02 6.378254999999999342e-01 1.999074999999999847e+01 1.318224999999999909e+02 1.819505000000000109e+03
8.800000000000000877e-02 6.377794999999999437e-01 1.937349999999999994e+01 1.314739999999999895e+02 1.819410000000000082e+03
8.899999999999999578e-02 6.377435000000000187e-01 1.880740000000000123e+01 1.311965000000000146e+02 1.819325000000000045e+03
8.999999999999999667e-02 6.377159999999999496e-01 1.828659999999999997e+01 1.309790000000000134e+02 1.819259999999999991e+03
9.099999999999999756e-02 6.376935000000000242e-01 1.780260000000000176e+01 1.308064999999999998e+02 1.819199999999999818e+03
9.199999999999999845e-02 6.376729999999999343e-01 1.734465000000000146e+01 1.306589999999999918e+02 1.819150000000000091e+03
9.299999999999999933e-02 6.376485000000000625e-01 1.690105000000000146e+01 1.305124999999999886e+02 1.819105000000000018e+03
9.400000000000000022e-02 6.376174999999999482e-01 1.645920000000000272e+01 1.303419999999999845e+02 1.819050000000000182e+03
9.500000000000000111e-02 6.375750000000000028e-01 1.600710000000000122e+01 1.301239999999999952e+02 1.818990000000000009e+03
9.600000000000000200e-02 6.375180000000000291e-01 1.553369999999999962e+01 1.298360000000000127e+02 1.818914999999999964e+03
9.700000000000000289e-02 6.374435000000000517e-01 1.502984999999999971e+01 1.294610000000000127e+02 1.818819999999999936e+03
9.800000000000000377e-02 6.373500000000000831e-01 1.448884999999999934e+01 1.289849999999999852e+02 1.818704999999999927e+03
9.900000000000000466e-02 6.372364999999999835e-01 1.390680000000000049e+01 1.284004999999999939e+02 1.818559999999999945e+03
1.000000000000000056e-01 6.371035000000000448e-01 1.328323500000000124e+01 1.277090000000000032e+02 1.818394999999999982e+03
1.010000000000000064e-01 6.369534999999999503e-01 1.262085000000000079e+01 1.269159999999999968e+02 1.818200000000000045e+03
1.020000000000000073e-01 6.367895000000000083e-01 1.192581999999999987e+01 1.260360000000000014e+02 1.817974999999999909e+03
1.030000000000000082e-01 6.366155000000000008e-01 1.120698499999999953e+01 1.250889999999999986e+02 1.817739999999999782e+03
1.040000000000000091e-01 6.364354999999999318e-01 1.047589999999999932e+01 1.241005000000000109e+02 1.817494999999999891e+03
1.050000000000000100e-01 6.362565000000000026e-01 9.745699999999999363e+00 1.230985000000000014e+02 1.817240000000000009e+03
1.059999999999999970e-01 6.360829999999999540e-01 9.030594999999999928e+00 1.221140000000000043e+02 1.816990000000000009e+03
1.069999999999999979e-01 6.359204999999999997e-01 8.344920000000000115e+00 1.211794999999999902e+02 1.816744999999999891e+03
1.079999999999999988e-01 6.357740000000000613e-01 7.702454999999999607e+00 1.203239999999999981e+02 1.816514999999999873e+03
1.089999999999999997e-01 6.356490000000000196e-01 7.115465000000000373e+00 1.195739999999999981e+02 1.816315000000000055e+03
1.100000000000000006e-01 6.355480000000000018e-01 6.594179999999999708e+00 1.189519999999999982e+02 1.816134999999999991e+03
1.110000000000000014e-01 6.354735000000000245e-01 6.146174999999999500e+00 1.184735000000000014e+02 1.815994999999999891e+03
1.120000000000000023e-01 6.354265000000000052e-01 5.776089999999999947e+00 1.181484999999999985e+02 1.815889999999999873e+03
1.130000000000000032e-01 6.354070000000000551e-01 5.485479999999999912e+00 1.179789999999999992e+02 1.815819999999999936e+03
1.140000000000000041e-01 6.354139999999999233e-01 5.272845000000000226e+00 1.179620000000000033e+02 1.815795000000000073e+03
1.150000000000000050e-01 6.354444999999999677e-01 5.133919999999999817e+00 1.180859999999999985e+02 1.815800000000000182e+03
1.160000000000000059e-01 6.354960000000000608e-01 5.062034999999999840e+00 1.183365000000000009e+02 1.815845000000000027e+03
1.170000000000000068e-01 6.355644999999999767e-01 5.048630000000000173e+00 1.186929999999999978e+02 1.815914999999999964e+03
1.180000000000000077e-01 6.356465000000000032e-01 5.083809999999999718e+00 1.191345000000000027e+02 1.816005000000000109e+03
1.190000000000000085e-01 6.357369999999999965e-01 5.156934999999999825e+00 1.196359999999999957e+02 1.816119999999999891e+03
1.200000000000000094e-01 6.358325000000000227e-01 5.257144999999999513e+00 1.201744999999999948e+02 1.816244999999999891e+03
1.209999999999999964e-01 6.359289999999999665e-01 5.373865000000000336e+00 1.207274999999999920e+02 1.816375000000000000e+03
1.219999999999999973e-01 6.360224999999999351e-01 5.497239999999999682e+00 1.212750000000000057e+02 1.816505000000000109e+03
1.229999999999999982e-01 6.361114999999999409e-01 5.618420000000000414e+00 1.217990000000000066e+02 1.816639999999999873e+03
1.239999999999999991e-01 6.361930000000000085e-01 5.729849999999999888e+00 1.222849999999999966e+02 1.816764999999999873e+03
1.250000000000000000e-01 6.362650000000000805e-01 5.825404999999999944e+00 1.227229999999999990e+02 1.816880000000000109e+03
1.260000000000000009e-01 6.363280000000000047e-01 5.900460000000000704e+00 1.231045000000000016e+02 1.816984999999999900e+03
1.270000000000000018e-01 6.363799999999999457e-01 5.951945000000000263e+00 1.234275000000000091e+02 1.817075000000000045e+03
1.280000000000000027e-01 6.364225000000000021e-01 5.978275000000000006e+00 1.236899999999999977e+02 1.817150000000000091e+03
1.290000000000000036e-01 6.364545000000000341e-01 5.979279999999999262e+00 1.238944999999999936e+02 1.817210000000000036e+03
1.300000000000000044e-01 6.364779999999999882e-01 5.956064999999999721e+00 1.240459999999999923e+02 1.817259999999999991e+03
1.310000000000000053e-01 6.364944999999999631e-01 5.910790000000000433e+00 1.241504999999999939e+02 1.817295000000000073e+03
1.320000000000000062e-01 6.365049999999999875e-01 5.846529999999999561e+00 1.242164999999999964e+02 1.817319999999999936e+03
1.330000000000000071e-01 6.365110000000000490e-01 5.766960000000000086e+00 1.242524999999999977e+02 1.817335000000000036e+03
1.340000000000000080e-01 6.365134999999999543e-01 5.676120000000000054e+00 1.242669999999999959e+02 1.817349999999999909e+03
1.350000000000000089e-01 6.365159999999999707e-01 5.578149999999999942e+00 1.242694999999999936e+02 1.817355000000000018e+03
1.360000000000000098e-01 6.365175000000000693e-01 5.477005000000000123e+00 1.242665000000000077e+02 1.817365000000000009e+03
1.370000000000000107e-01 6.365205000000000446e-01 5.376235000000000319e+00 1.242655000000000030e+02 1.817365000000000009e+03
1.380000000000000115e-01 6.365250000000000075e-01 5.278800000000000381e+00 1.242704999999999984e+02 1.817369999999999891e+03
1.390000000000000124e-01 6.365315000000000278e-01 5.186925000000000452e+00 1.242865000000000038e+02 1.817380000000000109e+03
1.400000000000000133e-01 6.365395000000000358e-01 5.102024999999999366e+00 1.243130000000000024e+02 1.817384999999999991e+03
1.410000000000000142e-01 6.365494999999999903e-01 5.024734999999999729e+00 1.243495000000000061e+02 1.817394999999999982e+03
1.420000000000000151e-01 6.365609999999999324e-01 4.954940000000000566e+00 1.243940000000000055e+02 1.817404999999999973e+03
1.430000000000000160e-01 6.365730000000000555e-01 4.891930000000000334e+00 1.244435000000000002e+02 1.817420000000000073e+03
1.440000000000000169e-01 6.365840000000000387e-01 4.834529999999999994e+00 1.244925000000000068e+02 1.817430000000000064e+03
1.450000000000000178e-01 6.365939999999999932e-01 4.781295000000000073e+00 1.245365000000000038e+02 1.817445000000000164e+03
1.459999999999999909e-01 6.366020000000000012e-01 4.730690000000000062e+00 1.245699999999999932e+02 1.817454999999999927e+03
1.469999999999999918e-01 6.366070000000000340e-01 4.681275000000000297e+00 1.245895000000000010e+02 1.817460000000000036e+03
1.479999999999999927e-01 6.366080000000000627e-01 4.631809999999999761e+00 1.245904999999999916e+02 1.817460000000000036e+03
1.489999999999999936e-01 6.366050000000000875e-01 4.581385000000000041e+00 1.245709999999999980e+02 1.817454999999999927e+03
1.499999999999999944e-01 6.365979999999999972e-01 4.529499999999999638e+00 1.245294999999999987e+02 1.817450000000000045e+03
1.509999999999999953e-01 6.365864999999999441e-01 4.476074999999999804e+00 1.244660000000000082e+02 1.817434999999999945e+03
1.519999999999999962e-01 6.365724999999999856e-01 4.421470000000000233e+00 1.243814999999999884e+02 1.817410000000000082e+03
1.529999999999999971e-01 6.365540000000000642e-01 4.366450000000000387e+00 1.242794999999999987e+02 1.817385000000000218e+03
1.539999999999999980e-01 6.365340000000000442e-01 4.312139999999999418e+00 1.241640000000000015e+02 1.817359999999999900e+03
1.549999999999999989e-01 6.365125000000000366e-01 4.259979999999999656e+00 1.240384999999999991e+02 1.817329999999999927e+03
1.559999999999999998e-01 6.364905000000000701e-01 4.211655000000000371e+00 1.239095000000000084e+02 1.817295000000000073e+03
1.570000000000000007e-01 6.364689999999999515e-01 4.169014999999999915e+00 1.237824999999999989e+02 1.817259999999999991e+03
1.580000000000000016e-01 6.364490000000000425e-01 4.133995000000000530e+00 1.236630000000000109e+02 1.817230000000000018e+03
1.590000000000000024e-01 6.364315000000000389e-01 4.108534999999999826e+00 1.235579999999999927e+02 1.817200000000000045e+03
