# t [s], A [cm^2], U [cm/s], P [cPa], c [cm/s]
1.000000000000000021e-03 1.683755000000000113e-01 3.814562999999999704e-01 1.047554999999999978e+02 2.283079999999999927e+03
2.000000000000000042e-03 1.683185000000000098e-01 2.064540999999999737e+00 1.007031499999999937e+02 2.282465000000000146e+03
3.000000000000000062e-03 1.681829999999999992e-01 4.144726499999999980e+00 9.506940000000000168e+01 2.281060000000000400e+03
4.000000000000000083e-03 1.680085000000000051e-01 6.499522499999999425e+00 8.921469999999999345e+01 2.279269999999999982e+03
5.000000000000000104e-03 1.678304999999999936e-01 9.000469999999999970e+00 8.425929999999999609e+01 2.277465000000000146e+03
6.000000000000000125e-03 1.676650000000000085e-01 1.135539999999999949e+01 8.027985000000001037e+01 2.275815000000000055e+03
7.000000000000000146e-03 1.675119999999999942e-01 1.332328499999999849e+01 7.678659999999999286e+01 2.274324999999999818e+03
8.000000000000000167e-03 1.673775000000000124e-01 1.491040000000000099e+01 7.370420000000000016e+01 2.273034999999999854e+03
9.000000000000001055e-03 1.672649999999999970e-01 1.618404999999999916e+01 7.120510000000000161e+01 2.271975000000000364e+03
1.000000000000000194e-02 1.671750000000000180e-01 1.717290000000000205e+01 6.929609999999999559e+01 2.271139999999999873e+03
1.099999999999999936e-02 1.671070000000000055e-01 1.790234999999999843e+01 6.789995000000000402e+01 2.270510000000000218e+03
1.200000000000000025e-02 1.670550000000000090e-01 1.837774999999999892e+01 6.686549999999999727e+01 2.270045000000000073e+03
1.300000000000000114e-02 1.670139999999999958e-01 1.860685000000000144e+01 6.598730000000000473e+01 2.269684999999999945e+03
1.400000000000000203e-02 1.669820000000000193e-01 1.869229999999999947e+01 6.528329999999999700e+01 2.269414999999999964e+03
1.499999999999999944e-02 1.669660000000000033e-01 1.885110000000000241e+01 6.518869999999999720e+01 2.269284999999999854e+03
1.600000000000000033e-02 1.669799999999999895e-01 1.929849999999999710e+01 6.631459999999999866e+01 2.269425000000000182e+03
1.700000000000000122e-02 1.670314999999999994e-01 2.009925000000000139e+01 6.895005000000000450e+01 2.269909999999999854e+03
1.800000000000000211e-02 1.671175000000000022e-01 2.111265000000000214e+01 7.274330000000000496e+01 2.270720000000000255e+03
1.900000000000000300e-02 1.672194999999999931e-01 2.206109999999999971e+01 7.679009999999999536e+01 2.271699999999999818e+03
2.000000000000000042e-02 1.673155000000000059e-01 2.266454999999999842e+01 8.003454999999999586e+01 2.272635000000000218e+03
2.100000000000000130e-02 1.673844999999999916e-01 2.276149999999999807e+01 8.172339999999999804e+01 2.273329999999999927e+03
2.200000000000000219e-02 1.674150000000000083e-01 2.236220000000000141e+01 8.168489999999999895e+01 2.273659999999999854e+03
2.299999999999999961e-02 1.674105000000000176e-01 2.161905000000000143e+01 8.032224999999999682e+01 2.273654999999999745e+03
2.400000000000000050e-02 1.673820000000000030e-01 2.074145000000000039e+01 7.836365000000000691e+01 2.273404999999999745e+03
2.500000000000000139e-02 1.673449999999999938e-01 1.990109999999999957e+01 7.651490000000001146e+01 2.273055000000000291e+03
2.600000000000000228e-02 1.673115000000000019e-01 1.917150000000000176e+01 7.518344999999999345e+01 2.272730000000000018e+03
2.700000000000000316e-02 1.672855000000000036e-01 1.852074999999999960e+01 7.437855000000000416e+01 2.272474999999999909e+03
2.800000000000000058e-02 1.672649999999999970e-01 1.784915000000000163e+01 7.379300000000000637e+01 2.272275000000000091e+03
2.900000000000000147e-02 1.672425000000000161e-01 1.705069999999999908e+01 7.300315000000000509e+01 2.272055000000000291e+03
3.000000000000000236e-02 1.672095000000000109e-01 1.607114999999999938e+01 7.169290000000000873e+01 2.271755000000000109e+03
3.099999999999999978e-02 1.671639999999999793e-01 1.494330000000000069e+01 6.981775000000000375e+01 2.271335000000000036e+03
3.200000000000000067e-02 1.671084999999999932e-01 1.378614999999999924e+01 6.765084999999999127e+01 2.270810000000000400e+03
3.300000000000000155e-02 1.670534999999999937e-01 1.276955000000000062e+01 6.569854999999999734e+01 2.270279999999999745e+03
3.400000000000000244e-02 1.670110000000000205e-01 1.205790000000000006e+01 6.452089999999999748e+01 2.269864999999999782e+03
3.500000000000000333e-02 1.669930000000000025e-01 1.175605000000000011e+01 6.453200000000001069e+01 2.269675000000000182e+03
3.600000000000000422e-02 1.670059999999999878e-01 1.187674999999999947e+01 6.585604999999999620e+01 2.269769999999999982e+03
3.700000000000000511e-02 1.670494999999999897e-01 1.233735000000000070e+01 6.828430000000000177e+01 2.270154999999999745e+03
3.799999999999999906e-02 1.671159999999999868e-01 1.298369999999999891e+01 7.133484999999998877e+01 2.270769999999999982e+03
3.899999999999999994e-02 1.671920000000000073e-01 1.362920000000000087e+01 7.438190000000000168e+01 2.271484999999999673e+03
4.000000000000000083e-02 1.672629999999999950e-01 1.409554999999999936e+01 7.680620000000000402e+01 2.272164999999999964e+03
4.100000000000000172e-02 1.673145000000000049e-01 1.424524999999999864e+01 7.812344999999999118e+01 2.272670000000000073e+03
4.200000000000000261e-02 1.673364999999999991e-01 1.399915000000000020e+01 7.806189999999999429e+01 2.272900000000000091e+03
4.300000000000000350e-02 1.673235000000000139e-01 1.333899999999999864e+01 7.657914999999999850e+01 2.272800000000000182e+03
4.400000000000000439e-02 1.672760000000000080e-01 1.229657999999999873e+01 7.382659999999999911e+01 2.272360000000000127e+03
4.499999999999999833e-02 1.671964999999999979e-01 1.093683000000000050e+01 7.008105000000000473e+01 2.271619999999999891e+03
4.599999999999999922e-02 1.670925000000000049e-01 9.339665000000000106e+00 6.566894999999999527e+01 2.270645000000000437e+03
4.700000000000000011e-02 1.669714999999999949e-01 7.586204999999999643e+00 6.090330000000000155e+01 2.269489999999999782e+03
4.800000000000000100e-02 1.668405000000000027e-01 5.751040000000000596e+00 5.604744999999999777e+01 2.268239999999999782e+03
4.900000000000000189e-02 1.667055000000000065e-01 3.900806999999999913e+00 5.130499999999999972e+01 2.266949999999999818e+03
5.000000000000000278e-02 1.665729999999999988e-01 2.096505000000000063e+00 4.683089999999999975e+01 2.265684999999999945e+03
5.100000000000000366e-02 1.664464999999999972e-01 3.973000000000002085e-01 4.275204999999999700e+01 2.264465000000000146e+03
5.200000000000000455e-02 1.663304999999999922e-01 -1.136684999999999945e+00 3.918720000000000425e+01 2.263349999999999909e+03
5.300000000000000544e-02 1.662290000000000156e-01 -2.443924500000000055e+00 3.625914999999999822e+01 2.262369999999999891e+03
5.399999999999999939e-02 1.661459999999999881e-01 -3.463784999999999670e+00 3.409550000000000125e+01 2.261560000000000400e+03
5.500000000000000028e-02 1.660854999999999970e-01 -4.141045000000000087e+00 3.281950000000000500e+01 2.260954999999999927e+03
5.600000000000000117e-02 1.660500000000000032e-01 -4.431365000000000443e+00 3.253444999999999965e+01 2.260595000000000255e+03
5.700000000000000205e-02 1.660439999999999972e-01 -4.306434999999999569e+00 3.330684999999999718e+01 2.260505000000000109e+03
5.800000000000000294e-02 1.660665000000000058e-01 -3.757554999999999978e+00 3.515295000000000414e+01 2.260694999999999709e+03
5.900000000000000383e-02 1.661199999999999899e-01 -2.796980500000000092e+00 3.803260000000000218e+01 2.261175000000000182e+03
6.000000000000000472e-02 1.662020000000000164e-01 -1.456994999999999818e+00 4.185020000000000095e+01 2.261925000000000182e+03
6.099999999999999867e-02 1.663094999999999990e-01 2.129450000000001619e-01 4.646325000000000216e+01 2.262929999999999836e+03
6.199999999999999956e-02 1.664395000000000180e-01 2.150320000000000231e+00 5.169509999999999650e+01 2.264150000000000091e+03
6.300000000000000044e-02 1.665869999999999851e-01 4.284286600000000611e+00 5.735034999999999883e+01 2.265539999999999964e+03
6.400000000000000133e-02 1.667454999999999909e-01 6.540485000000000326e+00 6.322965000000000657e+01 2.267050000000000182e+03
6.500000000000000222e-02 1.669114999999999904e-01 8.845734999999999459e+00 6.914400000000000546e+01 2.268635000000000218e+03
6.600000000000000311e-02 1.670790000000000053e-01 1.113225500000000068e+01 7.492680000000000007e+01 2.270239999999999782e+03
6.700000000000000400e-02 1.672434999999999894e-01 1.334151999999999916e+01 8.044325000000000614e+01 2.271824999999999818e+03
6.800000000000000488e-02 1.674014999999999809e-01 1.542730000000000068e+01 8.559789999999999566e+01 2.273360000000000127e+03
6.900000000000000577e-02 1.675510000000000055e-01 1.735754999999999981e+01 9.033844999999999459e+01 2.274809999999999945e+03
7.000000000000000666e-02 1.676900000000000057e-01 1.911545000000000272e+01 9.465579999999999927e+01 2.276170000000000073e+03
7.100000000000000755e-02 1.678189999999999960e-01 2.069845000000000113e+01 9.858064999999999145e+01 2.277429999999999836e+03
7.200000000000000844e-02 1.679379999999999762e-01 2.211700000000000088e+01 1.021760999999999910e+02 2.278600000000000364e+03
7.300000000000000933e-02 1.680484999999999896e-01 2.339104999999999990e+01 1.055265500000000003e+02 2.279694999999999709e+03
7.399999999999999634e-02 1.681535000000000113e-01 2.454690000000000083e+01 1.087270000000000039e+02 2.280735000000000127e+03
7.499999999999999722e-02 1.682555000000000023e-01 2.561350000000000193e+01 1.118725000000000023e+02 2.281730000000000018e+03
7.599999999999999811e-02 1.683554999999999913e-01 2.661864999999999881e+01 1.150439999999999969e+02 2.282715000000000146e+03
7.699999999999999900e-02 1.684559999999999946e-01 2.758630000000000138e+01 1.183034999999999997e+02 2.283715000000000146e+03
7.799999999999999989e-02 1.685585000000000000e-01 2.853425000000000011e+01 1.216889999999999930e+02 2.284720000000000255e+03
7.900000000000000078e-02 1.686650000000000094e-01 2.947319999999999851e+01 1.252100000000000080e+02 2.285760000000000218e+03
8.000000000000000167e-02 1.687740000000000073e-01 3.040585000000000093e+01 1.288524999999999920e+02 2.286829999999999927e+03
8.100000000000000255e-02 1.688859999999999806e-01 3.132740000000000080e+01 1.325784999999999911e+02 2.287930000000000291e+03
8.200000000000000344e-02 1.689990000000000103e-01 3.222655000000000314e+01 1.363315000000000055e+02 2.289039999999999964e+03
8.300000000000000433e-02 1.691119999999999846e-01 3.308674999999999500e+01 1.400440000000000111e+02 2.290150000000000091e+03
8.400000000000000522e-02 1.692234999999999989e-01 3.388759999999999906e+01 1.436404999999999745e+02 2.291244999999999891e+03
8.500000000000000611e-02 1.693304999999999949e-01 3.460689999999999600e+01 1.470439999999999827e+02 2.292305000000000291e+03
8.600000000000000699e-02 1.694319999999999993e-01 3.522189999999999799e+01 1.501814999999999998e+02 2.293309999999999945e+03
8.700000000000000788e-02 1.695260000000000100e-01 3.571119999999999806e+01 1.529875000000000114e+02 2.294239999999999782e+03
8.800000000000000877e-02 1.696094999999999964e-01 3.605624999999999858e+01 1.554085000000000036e+02 2.295069999999999709e+03
8.899999999999999578e-02 1.696819999999999995e-01 3.624224999999999852e+01 1.574039999999999964e+02 2.295795000000000073e+03
8.999999999999999667e-02 1.697424999999999906e-01 3.625959999999999894e+01 1.589490000000000123e+02 2.296404999999999745e+03
9.099999999999999756e-02 1.697905000000000109e-01 3.610430000000000206e+01 1.600364999999999895e+02 2.296889999999999873e+03
9.199999999999999845e-02 1.698250000000000037e-01 3.577864999999999895e+01 1.606765000000000043e+02 2.297244999999999891e+03
9.299999999999999933e-02 1.698474999999999846e-01 3.529080000000000439e+01 1.608935000000000173e+02 2.297480000000000018e+03
9.400000000000000022e-02 1.698574999999999946e-01 3.465465000000000373e+01 1.607295000000000016e+02 2.297590000000000146e+03
9.500000000000000111e-02 1.698569999999999802e-01 3.388899999999999579e+01 1.602350000000000136e+02 2.297599999999999909e+03
9.600000000000000200e-02 1.698465000000000114e-01 3.301624999999999943e+01 1.594714999999999918e+02 2.297510000000000218e+03
9.700000000000000289e-02 1.698284999999999934e-01 3.206170000000000186e+01 1.585045000000000073e+02 2.297345000000000255e+03
9.800000000000000377e-02 1.698050000000000115e-01 3.105160000000000053e+01 1.574010000000000105e+02 2.297119999999999891e+03
9.900000000000000466e-02 1.697770000000000112e-01 3.001225000000000165e+01 1.562259999999999991e+02 2.296849999999999909e+03
1.000000000000000056e-01 1.697464999999999946e-01 2.896849999999999881e+01 1.550380000000000109e+02 2.296554999999999836e+03
1.010000000000000064e-01 1.697150000000000047e-01 2.794300000000000139e+01 1.538884999999999934e+02 2.296250000000000000e+03
1.020000000000000073e-01 1.696845000000000159e-01 2.695479999999999876e+01 1.528185000000000002e+02 2.295949999999999818e+03
1.030000000000000082e-01 1.696560000000000012e-01 2.601885000000000048e+01 1.518590000000000089e+02 2.295664999999999964e+03
1.040000000000000091e-01 1.696300000000000030e-01 2.514555000000000007e+01 1.510260000000000105e+02 2.295404999999999745e+03
1.050000000000000100e-01 1.696064999999999934e-01 2.434024999999999750e+01 1.503260000000000218e+02 2.295175000000000182e+03
1.059999999999999970e-01 1.695865000000000011e-01 2.360334999999999894e+01 1.497504999999999882e+02 2.294970000000000255e+03
1.069999999999999979e-01 1.695689999999999975e-01 2.293039999999999878e+01 1.492805000000000177e+02 2.294795000000000073e+03
1.079999999999999988e-01 1.695550000000000113e-01 2.231289999999999907e+01 1.488870000000000005e+02 2.294650000000000091e+03
1.089999999999999997e-01 1.695419999999999983e-01 2.173859999999999815e+01 1.485330000000000155e+02 2.294515000000000327e+03
1.100000000000000006e-01 1.695300000000000140e-01 2.119270000000000209e+01 1.481765000000000043e+02 2.294395000000000437e+03
1.110000000000000014e-01 1.695170000000000010e-01 2.065899999999999892e+01 1.477729999999999961e+02 2.294264999999999873e+03
1.120000000000000023e-01 1.695035000000000014e-01 2.012089999999999890e+01 1.472789999999999964e+02 2.294125000000000000e+03
1.130000000000000032e-01 1.694865000000000121e-01 1.956275000000000119e+01 1.466550000000000011e+02 2.293954999999999927e+03
1.140000000000000041e-01 1.694660000000000055e-01 1.897075000000000244e+01 1.458695000000000164e+02 2.293750000000000000e+03
1.150000000000000050e-01 1.694410000000000083e-01 1.833429999999999893e+01 1.448969999999999914e+02 2.293505000000000109e+03
1.160000000000000059e-01 1.694105000000000194e-01 1.764635000000000176e+01 1.437270000000000039e+02 2.293210000000000036e+03
1.170000000000000068e-01 1.693744999999999834e-01 1.690439999999999898e+01 1.423600000000000136e+02 2.292864999999999782e+03
1.180000000000000077e-01 1.693334999999999979e-01 1.611035000000000039e+01 1.408075000000000045e+02 2.292465000000000146e+03
1.190000000000000085e-01 1.692870000000000208e-01 1.527059999999999995e+01 1.390949999999999989e+02 2.292014999999999873e+03
1.200000000000000094e-01 1.692365000000000119e-01 1.439580000000000126e+01 1.372585000000000264e+02 2.291519999999999982e+03
1.209999999999999964e-01 1.691830000000000001e-01 1.350000000000000000e+01 1.353405000000000200e+02 2.291000000000000000e+03
1.219999999999999973e-01 1.691269999999999996e-01 1.259984999999999999e+01 1.333910000000000196e+02 2.290449999999999818e+03
1.229999999999999982e-01 1.690709999999999991e-01 1.171351499999999923e+01 1.314624999999999773e+02 2.289894999999999982e+03
1.239999999999999991e-01 1.690149999999999986e-01 1.085963999999999885e+01 1.296059999999999945e+02 2.289349999999999909e+03
1.250000000000000000e-01 1.689610000000000001e-01 1.005610000000000070e+01 1.278700000000000045e+02 2.288819999999999709e+03
1.260000000000000009e-01 1.689110000000000056e-01 9.319264999999999688e+00 1.262960000000000065e+02 2.288329999999999927e+03
1.270000000000000018e-01 1.688649999999999873e-01 8.662749999999999062e+00 1.249184999999999945e+02 2.287869999999999891e+03
1.280000000000000027e-01 1.688244999999999885e-01 8.097215000000000273e+00 1.237614999999999981e+02 2.287474999999999909e+03
1.290000000000000036e-01 1.687905000000000100e-01 7.629509999999999792e+00 1.228389999999999986e+02 2.287130000000000109e+03
1.300000000000000044e-01 1.687624999999999820e-01 7.262825000000000308e+00 1.221544999999999987e+02 2.286855000000000018e+03
1.310000000000000053e-01 1.687414999999999887e-01 6.996640000000000192e+00 1.217019999999999982e+02 2.286635000000000218e+03
1.320000000000000062e-01 1.687265000000000015e-01 6.826959999999999695e+00 1.214675000000000011e+02 2.286480000000000018e+03
1.330000000000000071e-01 1.687180000000000069e-01 6.746785000000000032e+00 1.214279999999999973e+02 2.286390000000000327e+03
1.340000000000000080e-01 1.687150000000000039e-01 6.746610000000000440e+00 1.215579999999999927e+02 2.286355000000000018e+03
1.350000000000000089e-01 1.687164999999999915e-01 6.815020000000000522e+00 1.218265000000000100e+02 2.286360000000000127e+03
1.360000000000000098e-01 1.687219999999999831e-01 6.939309999999999867e+00 1.222009999999999934e+02 2.286409999999999854e+03
1.370000000000000107e-01 1.687310000000000199e-01 7.106135000000000090e+00 1.226484999999999985e+02 2.286485000000000127e+03
1.380000000000000115e-01 1.687414999999999887e-01 7.302010000000000112e+00 1.231375000000000028e+02 2.286590000000000146e+03
1.390000000000000124e-01 1.687540000000000151e-01 7.513950000000000351e+00 1.236384999999999934e+02 2.286699999999999818e+03
1.400000000000000133e-01 1.687664999999999860e-01 7.729865000000000208e+00 1.241250000000000000e+02 2.286824999999999818e+03
1.410000000000000142e-01 1.687790000000000123e-01 7.939009999999999678e+00 1.245745000000000005e+02 2.286944999999999709e+03
1.420000000000000151e-01 1.687909999999999966e-01 8.132274999999999920e+00 1.249710000000000036e+02 2.287059999999999945e+03
1.430000000000000160e-01 1.688014999999999932e-01 8.302474999999999383e+00 1.252994999999999948e+02 2.287164999999999964e+03
1.440000000000000169e-01 1.688105000000000022e-01 8.444454999999999600e+00 1.255529999999999973e+02 2.287250000000000000e+03
1.450000000000000178e-01 1.688169999999999948e-01 8.555170000000000385e+00 1.257300000000000040e+02 2.287320000000000164e+03
1.459999999999999909e-01 1.688219999999999998e-01 8.633604999999999308e+00 1.258305000000000007e+02 2.287369999999999891e+03
1.469999999999999918e-01 1.688250000000000028e-01 8.680635000000000545e+00 1.258629999999999995e+02 2.287400000000000091e+03
1.479999999999999927e-01 1.688260000000000038e-01 8.698764999999999858e+00 1.258354999999999961e+02 2.287414999999999964e+03
1.489999999999999936e-01 1.688255000000000172e-01 8.691784999999999428e+00 1.257605000000000075e+02 2.287414999999999964e+03
1.499999999999999944e-01 1.688244999999999885e-01 8.664400000000000546e+00 1.256525000000000034e+02 2.287399999999999636e+03
1.509999999999999953e-01 1.688215000000000132e-01 8.621780000000001110e+00 1.255244999999999891e+02 2.287375000000000000e+03
1.519999999999999962e-01 1.688189999999999968e-01 8.569190000000000751e+00 1.253900000000000006e+02 2.287349999999999909e+03
1.529999999999999971e-01 1.688149999999999928e-01 8.511585000000000178e+00 1.252609999999999957e+02 2.287320000000000164e+03
1.539999999999999980e-01 1.688125000000000042e-01 8.453279999999999461e+00 1.251460000000000008e+02 2.287289999999999964e+03
1.549999999999999989e-01 1.688095000000000012e-01 8.397750000000000270e+00 1.250515000000000043e+02 2.287265000000000327e+03
1.559999999999999998e-01 1.688069999999999848e-01 8.347459999999999880e+00 1.249809999999999945e+02 2.287239999999999782e+03
1.570000000000000007e-01 1.688054999999999972e-01 8.303834999999999411e+00 1.249350000000000023e+02 2.287225000000000364e+03
1.580000000000000016e-01 1.688040000000000096e-01 8.267284999999999329e+00 1.249110000000000014e+02 2.287215000000000146e+03
1.590000000000000024e-01 1.688034999999999952e-01 8.237345000000001249e+00 1.249039999999999964e+02 2.287210000000000036e+03
