# t [s], A [cm^2], U [cm/s], P [cPa], c [cm/s]
1.000000000000000021e-03 1.376425000000000010e-01 4.064134999999999831e-01 9.938609999999999900e+01 1.856545000000000073e+03
2.000000000000000042e-03 1.376080000000000081e-01 2.111774000000000040e+00 9.600615000000000521e+01 1.856144999999999982e+03
3.000000000000000062e-03 1.375014999999999987e-01 4.163403500000000257e+00 9.157189999999999941e+01 1.854960000000000036e+03
4.000000000000000083e-03 1.373484999999999845e-01 6.429999000000000464e+00 8.681359999999999388e+01 1.853289999999999964e+03
5.000000000000000104e-03 1.371784999999999810e-01 8.845480000000000231e+00 8.253970000000001050e+01 1.851445000000000164e+03
6.000000000000000125e-03 1.370100000000000207e-01 1.125792500000000018e+01 7.903700000000000614e+01 1.849639999999999873e+03
7.000000000000000146e-03 1.368499999999999994e-01 1.347493500000000033e+01 7.611609999999998877e+01 1.847945000000000164e+03
8.000000000000000167e-03 1.366999999999999882e-01 1.539458499999999930e+01 7.351890000000000214e+01 1.846384999999999991e+03
9.000000000000001055e-03 1.365649999999999920e-01 1.703354999999999819e+01 7.121415000000000362e+01 1.844994999999999891e+03
1.000000000000000194e-02 1.364460000000000117e-01 1.843064999999999998e+01 6.926794999999999902e+01 1.843789999999999964e+03
1.099999999999999936e-02 1.363449999999999940e-01 1.960260000000000247e+01 6.767619999999999436e+01 1.842769999999999982e+03
1.200000000000000025e-02 1.362599999999999922e-01 2.056255000000000166e+01 6.638984999999999559e+01 1.841929999999999836e+03
1.300000000000000114e-02 1.361904999999999921e-01 2.132509999999999906e+01 6.535635000000000616e+01 1.841244999999999891e+03
1.400000000000000203e-02 1.361330000000000040e-01 2.189824999999999733e+01 6.450430000000000064e+01 1.840694999999999936e+03
1.499999999999999944e-02 1.360854999999999981e-01 2.230085000000000051e+01 6.376809999999999690e+01 1.840240000000000009e+03
1.600000000000000033e-02 1.360464999999999869e-01 2.259364999999999668e+01 6.317409999999999570e+01 1.839875000000000000e+03
1.700000000000000122e-02 1.360184999999999866e-01 2.288349999999999795e+01 6.289254999999999995e+01 1.839619999999999891e+03
1.800000000000000211e-02 1.360075000000000034e-01 2.328594999999999970e+01 6.317534999999999457e+01 1.839530000000000200e+03
1.900000000000000300e-02 1.360184999999999866e-01 2.387080000000000268e+01 6.421105000000000018e+01 1.839655000000000200e+03
2.000000000000000042e-02 1.360540000000000083e-01 2.462555000000000049e+01 6.599330000000000496e+01 1.840019999999999982e+03
2.100000000000000130e-02 1.361110000000000098e-01 2.545649999999999835e+01 6.828135000000000332e+01 1.840595000000000027e+03
2.200000000000000219e-02 1.361800000000000233e-01 2.622305000000000064e+01 7.066490000000000293e+01 1.841295000000000073e+03
2.299999999999999961e-02 1.362499999999999822e-01 2.678549999999999898e+01 7.269419999999999504e+01 1.842019999999999982e+03
2.400000000000000050e-02 1.363095000000000001e-01 2.704840000000000089e+01 7.401744999999999663e+01 1.842639999999999873e+03
2.500000000000000139e-02 1.363504999999999856e-01 2.698479999999999990e+01 7.447505000000001019e+01 1.843085000000000036e+03
2.600000000000000228e-02 1.363694999999999768e-01 2.663569999999999993e+01 7.412460000000000093e+01 1.843304999999999836e+03
2.700000000000000316e-02 1.363679999999999892e-01 2.608930000000000149e+01 7.319624999999999204e+01 1.843309999999999945e+03
2.800000000000000058e-02 1.363520000000000010e-01 2.544875000000000043e+01 7.200155000000000882e+01 1.843170000000000073e+03
2.900000000000000147e-02 1.363280000000000047e-01 2.480154999999999887e+01 7.083209999999999695e+01 1.842944999999999936e+03
3.000000000000000236e-02 1.363030000000000075e-01 2.419870000000000232e+01 6.988210000000000832e+01 1.842690000000000055e+03
3.099999999999999978e-02 1.362809999999999855e-01 2.364979999999999905e+01 6.921379999999999200e+01 1.842470000000000027e+03
3.200000000000000067e-02 1.362629999999999952e-01 2.313094999999999857e+01 6.876945000000000618e+01 1.842289999999999964e+03
3.300000000000000155e-02 1.362480000000000080e-01 2.260179999999999723e+01 6.841624999999999091e+01 1.842135000000000218e+03
3.400000000000000244e-02 1.362329999999999930e-01 2.202465000000000117e+01 6.800650000000000261e+01 1.841985000000000127e+03
3.500000000000000333e-02 1.362154999999999894e-01 2.138084999999999880e+01 6.743370000000000175e+01 1.841815000000000055e+03
3.600000000000000422e-02 1.361930000000000085e-01 2.068010000000000304e+01 6.667064999999999486e+01 1.841590000000000146e+03
3.700000000000000511e-02 1.361665000000000236e-01 1.996130000000000138e+01 6.578175000000000239e+01 1.841325000000000045e+03
3.799999999999999906e-02 1.361379999999999812e-01 1.928450000000000131e+01 6.490765000000000384e+01 1.841045000000000073e+03
3.899999999999999994e-02 1.361120000000000108e-01 1.871724999999999994e+01 6.422874999999999091e+01 1.840775000000000091e+03
4.000000000000000083e-02 1.360919999999999908e-01 1.831804999999999950e+01 6.391729999999999734e+01 1.840575000000000045e+03
4.100000000000000172e-02 1.360844999999999971e-01 1.812274999999999991e+01 6.409250000000000114e+01 1.840485000000000127e+03
4.200000000000000261e-02 1.360910000000000175e-01 1.813530000000000086e+01 6.478839999999999577e+01 1.840539999999999964e+03
4.300000000000000350e-02 1.361120000000000108e-01 1.832630000000000337e+01 6.594320000000000448e+01 1.840739999999999782e+03
4.400000000000000439e-02 1.361459999999999892e-01 1.863759999999999906e+01 6.740895000000000437e+01 1.841070000000000164e+03
4.499999999999999833e-02 1.361890000000000045e-01 1.899244999999999806e+01 6.897800000000000864e+01 1.841494999999999891e+03
4.599999999999999922e-02 1.362345000000000084e-01 1.930729999999999791e+01 7.041884999999999195e+01 1.841949999999999818e+03
4.700000000000000011e-02 1.362764999999999949e-01 1.950359999999999872e+01 7.151269999999999527e+01 1.842375000000000000e+03
4.800000000000000100e-02 1.363090000000000135e-01 1.951745000000000019e+01 7.208369999999999322e+01 1.842700000000000045e+03
4.900000000000000189e-02 1.363254999999999884e-01 1.930559999999999832e+01 7.201890000000000214e+01 1.842880000000000109e+03
5.000000000000000278e-02 1.363240000000000007e-01 1.884775000000000134e+01 7.127530000000000143e+01 1.842875000000000000e+03
5.100000000000000366e-02 1.363024999999999931e-01 1.814515000000000100e+01 6.987610000000000809e+01 1.842664999999999964e+03
5.200000000000000455e-02 1.362605000000000066e-01 1.721740000000000137e+01 6.789779999999998950e+01 1.842255000000000109e+03
5.300000000000000544e-02 1.362005000000000021e-01 1.609745000000000203e+01 6.545315000000000794e+01 1.841650000000000091e+03
5.399999999999999939e-02 1.361239999999999950e-01 1.482655000000000101e+01 6.267350000000000421e+01 1.840894999999999982e+03
5.500000000000000028e-02 1.360365000000000046e-01 1.345007000000000019e+01 5.969350000000000023e+01 1.840005000000000109e+03
5.600000000000000117e-02 1.359394999999999909e-01 1.201443500000000064e+01 5.664065000000000083e+01 1.839035000000000082e+03
5.700000000000000205e-02 1.358380000000000143e-01 1.056537999999999933e+01 5.362969999999999970e+01 1.838014999999999873e+03
5.800000000000000294e-02 1.357364999999999822e-01 9.147024999999999295e+00 5.076130000000000564e+01 1.836985000000000127e+03
5.900000000000000383e-02 1.356370000000000076e-01 7.801895000000000024e+00 4.812400000000000233e+01 1.835980000000000018e+03
6.000000000000000472e-02 1.355434999999999834e-01 6.570959999999999468e+00 4.579649999999999466e+01 1.835034999999999854e+03
6.099999999999999867e-02 1.354595000000000105e-01 5.493504999999999860e+00 4.385075000000000500e+01 1.834174999999999955e+03
6.199999999999999956e-02 1.353864999999999930e-01 4.606664999999999566e+00 4.235330000000000439e+01 1.833429999999999836e+03
6.300000000000000044e-02 1.353274999999999895e-01 3.944475000000000176e+00 4.136464999999999748e+01 1.832824999999999818e+03
6.400000000000000133e-02 1.352855000000000030e-01 3.536519999999999886e+00 4.093755000000000166e+01 1.832389999999999873e+03
6.500000000000000222e-02 1.352614999999999790e-01 3.406355000000000022e+00 4.111350000000000193e+01 1.832130000000000109e+03
6.600000000000000311e-02 1.352585000000000037e-01 3.569955000000000211e+00 4.191915000000000191e+01 1.832075000000000045e+03
6.700000000000000400e-02 1.352760000000000074e-01 4.034480000000000288e+00 4.336294999999999789e+01 1.832240000000000009e+03
6.800000000000000488e-02 1.353159999999999918e-01 4.797525000000000261e+00 4.543300000000000693e+01 1.832615000000000009e+03
6.900000000000000577e-02 1.353774999999999840e-01 5.847025000000000361e+00 4.809640000000000271e+01 1.833215000000000146e+03
7.000000000000000666e-02 1.354599999999999971e-01 7.161860000000000781e+00 5.130039999999999623e+01 1.834025000000000091e+03
7.100000000000000755e-02 1.355609999999999871e-01 8.712994999999999379e+00 5.497514999999999930e+01 1.835030000000000200e+03
7.200000000000000844e-02 1.356800000000000228e-01 1.046513500000000008e+01 5.903804999999999836e+01 1.836210000000000036e+03
7.300000000000000933e-02 1.358129999999999893e-01 1.237860000000000049e+01 6.339855000000000018e+01 1.837549999999999955e+03
7.399999999999999634e-02 1.359584999999999821e-01 1.441145000000000209e+01 6.796320000000000050e+01 1.839009999999999991e+03
7.499999999999999722e-02 1.361129999999999840e-01 1.652125000000000199e+01 7.264050000000000296e+01 1.840569999999999936e+03
7.599999999999999811e-02 1.362734999999999919e-01 1.866679999999999851e+01 7.734505000000000052e+01 1.842194999999999936e+03
7.699999999999999900e-02 1.364374999999999893e-01 2.081000000000000227e+01 8.200114999999999554e+01 1.843860000000000127e+03
7.799999999999999989e-02 1.366010000000000002e-01 2.291684999999999661e+01 8.654540000000000077e+01 1.845535000000000082e+03
7.900000000000000078e-02 1.367634999999999823e-01 2.495864999999999867e+01 9.092834999999999468e+01 1.847194999999999936e+03
8.000000000000000167e-02 1.369219999999999882e-01 2.691264999999999930e+01 9.511554999999999893e+01 1.848825000000000045e+03
8.100000000000000255e-02 1.370755000000000168e-01 2.876275000000000048e+01 9.908830000000000382e+01 1.850409999999999854e+03
8.200000000000000344e-02 1.372234999999999983e-01 3.049950000000000117e+01 1.028428000000000111e+02 1.851940000000000055e+03
8.300000000000000433e-02 1.373650000000000149e-01 3.212000000000000455e+01 1.063892999999999915e+02 1.853409999999999854e+03
8.400000000000000522e-02 1.375004999999999977e-01 3.362720000000000198e+01 1.097500000000000000e+02 1.854825000000000045e+03
8.500000000000000611e-02 1.376300000000000023e-01 3.502944999999999709e+01 1.129559999999999889e+02 1.856170000000000073e+03
8.600000000000000699e-02 1.377550000000000163e-01 3.633894999999999698e+01 1.160464999999999947e+02 1.857480000000000018e+03
8.700000000000000788e-02 1.378754999999999842e-01 3.757079999999999842e+01 1.190635000000000048e+02 1.858744999999999891e+03
8.800000000000000877e-02 1.379940000000000055e-01 3.874150000000000205e+01 1.220475000000000136e+02 1.859980000000000018e+03
8.899999999999999578e-02 1.381104999999999972e-01 3.986735000000000184e+01 1.250390000000000015e+02 1.861204999999999927e+03
8.999999999999999667e-02 1.382264999999999744e-01 4.096344999999999459e+01 1.280690000000000168e+02 1.862430000000000064e+03
9.099999999999999756e-02 1.383439999999999948e-01 4.204234999999999900e+01 1.311614999999999895e+02 1.863654999999999973e+03
9.199999999999999845e-02 1.384624999999999884e-01 4.311330000000000240e+01 1.343305000000000007e+02 1.864900000000000091e+03
9.299999999999999933e-02 1.385830000000000117e-01 4.418149999999999977e+01 1.375774999999999864e+02 1.866170000000000073e+03
9.400000000000000022e-02 1.387054999999999816e-01 4.524800000000000466e+01 1.408960000000000150e+02 1.867454999999999927e+03
9.500000000000000111e-02 1.388304999999999956e-01 4.630955000000000155e+01 1.442660000000000196e+02 1.868764999999999873e+03
9.600000000000000200e-02 1.389564999999999828e-01 4.735894999999999300e+01 1.476599999999999966e+02 1.870090000000000146e+03
9.700000000000000289e-02 1.390830000000000122e-01 4.838575000000000159e+01 1.510434999999999945e+02 1.871420000000000073e+03
9.800000000000000377e-02 1.392085000000000128e-01 4.937675000000000125e+01 1.543764999999999930e+02 1.872750000000000000e+03
9.900000000000000466e-02 1.393329999999999846e-01 5.031685000000000230e+01 1.576154999999999973e+02 1.874065000000000055e+03
1.000000000000000056e-01 1.394540000000000224e-01 5.119004999999999939e+01 1.607185000000000059e+02 1.875345000000000027e+03
1.010000000000000064e-01 1.395710000000000006e-01 5.198029999999999973e+01 1.636434999999999889e+02 1.876579999999999927e+03
1.020000000000000073e-01 1.396820000000000006e-01 5.267225000000000534e+01 1.663520000000000039e+02 1.877755000000000109e+03
1.030000000000000082e-01 1.397855000000000070e-01 5.325204999999999700e+01 1.688114999999999952e+02 1.878865000000000009e+03
1.040000000000000091e-01 1.398810000000000053e-01 5.370799999999999841e+01 1.709950000000000045e+02 1.879884999999999991e+03
1.050000000000000100e-01 1.399675000000000225e-01 5.403099999999999881e+01 1.728834999999999980e+02 1.880805000000000064e+03
1.059999999999999970e-01 1.400440000000000018e-01 5.421509999999999962e+01 1.744650000000000034e+02 1.881625000000000000e+03
1.069999999999999979e-01 1.401100000000000123e-01 5.425739999999999696e+01 1.757350000000000136e+02 1.882340000000000146e+03
1.079999999999999988e-01 1.401649999999999840e-01 5.415854999999999819e+01 1.766974999999999909e+02 1.882940000000000055e+03
1.089999999999999997e-01 1.402094999999999869e-01 5.392244999999999777e+01 1.773629999999999995e+02 1.883425000000000182e+03
1.100000000000000006e-01 1.402439999999999798e-01 5.355620000000000402e+01 1.777490000000000236e+02 1.883800000000000182e+03
1.110000000000000014e-01 1.402674999999999894e-01 5.306969999999999743e+01 1.778790000000000191e+02 1.884069999999999936e+03
1.120000000000000023e-01 1.402825000000000044e-01 5.247529999999999717e+01 1.777805000000000177e+02 1.884240000000000009e+03
1.130000000000000032e-01 1.402889999999999970e-01 5.178744999999999976e+01 1.774855000000000018e+02 1.884320000000000164e+03
1.140000000000000041e-01 1.402875000000000094e-01 5.102190000000000225e+01 1.770280000000000200e+02 1.884315000000000055e+03
1.150000000000000050e-01 1.402800000000000158e-01 5.019530000000000314e+01 1.764424999999999955e+02 1.884250000000000000e+03
1.160000000000000059e-01 1.402669999999999750e-01 4.932444999999999879e+01 1.757634999999999934e+02 1.884119999999999891e+03
1.170000000000000068e-01 1.402499999999999858e-01 4.842589999999999861e+01 1.750235000000000127e+02 1.883944999999999936e+03
1.180000000000000077e-01 1.402295000000000069e-01 4.751515000000000555e+01 1.742529999999999859e+02 1.883735000000000127e+03
1.190000000000000085e-01 1.402074999999999849e-01 4.660640000000000072e+01 1.734784999999999968e+02 1.883505000000000109e+03
1.200000000000000094e-01 1.401839999999999753e-01 4.571184999999999832e+01 1.727230000000000132e+02 1.883259999999999991e+03
1.209999999999999964e-01 1.401604999999999934e-01 4.484179999999999922e+01 1.720024999999999977e+02 1.883009999999999991e+03
1.219999999999999973e-01 1.401374999999999982e-01 4.400395000000000323e+01 1.713294999999999959e+02 1.882764999999999873e+03
1.229999999999999982e-01 1.401145000000000029e-01 4.320364999999999611e+01 1.707119999999999891e+02 1.882519999999999982e+03
1.239999999999999991e-01 1.400934999999999819e-01 4.244355000000000189e+01 1.701494999999999891e+02 1.882295000000000073e+03
1.250000000000000000e-01 1.400735000000000174e-01 4.172400000000000375e+01 1.696399999999999864e+02 1.882075000000000045e+03
1.260000000000000009e-01 1.400549999999999851e-01 4.104309999999999548e+01 1.691754999999999995e+02 1.881880000000000109e+03
1.270000000000000018e-01 1.400370000000000226e-01 4.039670000000000272e+01 1.687445000000000164e+02 1.881690000000000055e+03
1.280000000000000027e-01 1.400204999999999922e-01 3.977915000000000134e+01 1.683315000000000055e+02 1.881509999999999991e+03
1.290000000000000036e-01 1.400045000000000039e-01 3.918345000000000056e+01 1.679200000000000159e+02 1.881329999999999927e+03
1.300000000000000044e-01 1.399880000000000013e-01 3.860134999999999650e+01 1.674920000000000186e+02 1.881154999999999973e+03
1.310000000000000053e-01 1.399715000000000265e-01 3.802445000000000164e+01 1.670285000000000082e+02 1.880974999999999909e+03
1.320000000000000062e-01 1.399535000000000085e-01 3.744405000000000427e+01 1.665115000000000123e+02 1.880785000000000082e+03
1.330000000000000071e-01 1.399340000000000028e-01 3.685184999999999889e+01 1.659240000000000066e+02 1.880570000000000164e+03
1.340000000000000080e-01 1.399120000000000086e-01 3.624014999999999986e+01 1.652520000000000095e+02 1.880340000000000146e+03
1.350000000000000089e-01 1.398880000000000123e-01 3.560244999999999749e+01 1.644834999999999923e+02 1.880079999999999927e+03
1.360000000000000098e-01 1.398600000000000121e-01 3.493350000000000222e+01 1.636094999999999970e+02 1.879779999999999973e+03
1.370000000000000107e-01 1.398285000000000222e-01 3.422970000000000113e+01 1.626254999999999882e+02 1.879454999999999927e+03
1.380000000000000115e-01 1.397935000000000150e-01 3.348940000000000339e+01 1.615314999999999941e+02 1.879090000000000146e+03
1.390000000000000124e-01 1.397555000000000047e-01 3.271260000000000190e+01 1.603310000000000173e+02 1.878679999999999836e+03
1.400000000000000133e-01 1.397134999999999905e-01 3.190129999999999910e+01 1.590314999999999941e+02 1.878235000000000127e+03
1.410000000000000142e-01 1.396675000000000000e-01 3.105949999999999989e+01 1.576449999999999818e+02 1.877760000000000218e+03
1.420000000000000151e-01 1.396189999999999931e-01 3.019279999999999831e+01 1.561864999999999952e+02 1.877244999999999891e+03
1.430000000000000160e-01 1.395675000000000110e-01 2.930835000000000079e+01 1.546744999999999948e+02 1.876704999999999927e+03
1.440000000000000169e-01 1.395139999999999991e-01 2.841454999999999842e+01 1.531295000000000073e+02 1.876144999999999982e+03
1.450000000000000178e-01 1.394595000000000140e-01 2.752080000000000126e+01 1.515734999999999957e+02 1.875569999999999936e+03
1.459999999999999909e-01 1.394040000000000001e-01 2.663700000000000045e+01 1.500295000000000130e+02 1.874985000000000127e+03
1.469999999999999918e-01 1.393484999999999863e-01 2.577340000000000231e+01 1.485204999999999984e+02 1.874400000000000091e+03
1.479999999999999927e-01 1.392940000000000011e-01 2.493984999999999985e+01 1.470685000000000002e+02 1.873824999999999818e+03
1.489999999999999936e-01 1.392410000000000037e-01 2.414585000000000292e+01 1.456935000000000002e+02 1.873264999999999873e+03
1.499999999999999944e-01 1.391904999999999948e-01 2.339985000000000070e+01 1.444134999999999991e+02 1.872724999999999909e+03
1.509999999999999953e-01 1.391430000000000167e-01 2.270935000000000059e+01 1.432429999999999950e+02 1.872224999999999909e+03
1.519999999999999962e-01 1.390985000000000138e-01 2.208019999999999783e+01 1.421940000000000168e+02 1.871750000000000000e+03
1.529999999999999971e-01 1.390580000000000149e-01 2.151684999999999803e+01 1.412744999999999891e+02 1.871319999999999936e+03
1.539999999999999980e-01 1.390215000000000201e-01 2.102195000000000036e+01 1.404879999999999995e+02 1.870934999999999945e+03
1.549999999999999989e-01 1.389894999999999881e-01 2.059660000000000224e+01 1.398360000000000127e+02 1.870595000000000027e+03
1.559999999999999998e-01 1.389620000000000022e-01 2.024009999999999820e+01 1.393139999999999930e+02 1.870295000000000073e+03
1.570000000000000007e-01 1.389389999999999792e-01 1.995025000000000048e+01 1.389174999999999898e+02 1.870049999999999955e+03
1.580000000000000016e-01 1.389205000000000023e-01 1.972344999999999970e+01 1.386365000000000123e+02 1.869849999999999909e+03
1.590000000000000024e-01 1.389060000000000017e-01 1.955495000000000161e+01 1.384590000000000032e+02 1.869690000000000055e+03
