# t [s], A [cm^2], U [cm/s], P [cPa], c [cm/s]
1.000000000000000021e-03 7.240900000000000114e-01 4.706599999999998285e-03 9.829660000000001219e+01 1.585785000000000082e+03
2.000000000000000042e-03 7.240779999999999994e-01 -2.669499999999999998e-03 9.827214999999999634e+01 1.585779999999999973e+03
3.000000000000000062e-03 7.241284999999999528e-01 7.232175000000000409e-02 9.835009999999999764e+01 1.585799999999999955e+03
4.000000000000000083e-03 7.241885000000000128e-01 1.674586999999999881e-01 9.846895000000000664e+01 1.585825000000000045e+03
5.000000000000000104e-03 7.241775000000000295e-01 1.677184999999999926e-01 9.845740000000000691e+01 1.585829999999999927e+03
6.000000000000000125e-03 7.241130000000000067e-01 8.681750000000001966e-02 9.829224999999999568e+01 1.585795000000000073e+03
7.000000000000000146e-03 7.240545000000000453e-01 8.870999999999962249e-03 9.806950000000000500e+01 1.585750000000000000e+03
8.000000000000000167e-03 7.239809999999999857e-01 -1.002544999999999686e-01 9.776789999999999736e+01 1.585684999999999945e+03
9.000000000000001055e-03 7.238515000000000921e-01 -3.068950000000000289e-01 9.730044999999999789e+01 1.585585000000000036e+03
1.000000000000000194e-02 7.236584999999999823e-01 -6.245000000000000551e-01 9.662064999999999770e+01 1.585450000000000045e+03
1.099999999999999936e-02 7.233884999999999899e-01 -1.065010000000000012e+00 9.568090000000000828e+01 1.585250000000000000e+03
1.200000000000000025e-02 7.230250000000000288e-01 -1.642795000000000005e+00 9.442634999999999934e+01 1.584980000000000018e+03
1.300000000000000114e-02 7.225785000000000124e-01 -2.323315000000000019e+00 9.285980000000000700e+01 1.584639999999999873e+03
1.400000000000000203e-02 7.221005000000000340e-01 -3.005434999999999857e+00 9.108204999999999529e+01 1.584240000000000009e+03
1.499999999999999944e-02 7.216525000000000301e-01 -3.562292499999999862e+00 8.925730000000000075e+01 1.583819999999999936e+03
1.600000000000000033e-02 7.212794999999999623e-01 -3.897542999999999758e+00 8.754099999999999682e+01 1.583405000000000200e+03
1.700000000000000122e-02 7.209885000000000321e-01 -3.976129499999999872e+00 8.602360000000000184e+01 1.583019999999999982e+03
1.800000000000000211e-02 7.207574999999999399e-01 -3.822319000000000244e+00 8.471399999999999864e+01 1.582664999999999964e+03
1.900000000000000300e-02 7.205485000000000362e-01 -3.497860499999999817e+00 8.355510000000001014e+01 1.582335000000000036e+03
2.000000000000000042e-02 7.203230000000000466e-01 -3.074357500000000076e+00 8.245640000000000214e+01 1.582019999999999982e+03
2.100000000000000130e-02 7.200554999999999595e-01 -2.609315499999999677e+00 8.133044999999999902e+01 1.581690000000000055e+03
2.200000000000000219e-02 7.197389999999999066e-01 -2.131664999999999921e+00 8.012094999999999345e+01 1.581349999999999909e+03
2.299999999999999961e-02 7.193825000000000358e-01 -1.640009999999999968e+00 7.881614999999999327e+01 1.580994999999999891e+03
2.400000000000000050e-02 7.190075000000000216e-01 -1.113144999999999829e+00 7.744274999999998954e+01 1.580619999999999891e+03
2.500000000000000139e-02 7.186330000000000773e-01 -5.273600000000002730e-01 7.604659999999999798e+01 1.580240000000000009e+03
2.600000000000000228e-02 7.182714999999999517e-01 1.269249999999999545e-01 7.466779999999999973e+01 1.579860000000000127e+03
2.700000000000000316e-02 7.179214999999999902e-01 8.350549999999998807e-01 7.332115000000000293e+01 1.579480000000000018e+03
2.800000000000000058e-02 7.175679999999999836e-01 1.556899999999999951e+00 7.198629999999999995e+01 1.579105000000000018e+03
2.900000000000000147e-02 7.171864999999999490e-01 2.233475000000000321e+00 7.061050000000000182e+01 1.578720000000000027e+03
3.000000000000000236e-02 7.167514999999999858e-01 2.798754999999999882e+00 6.912005000000000621e+01 1.578320000000000164e+03
3.099999999999999978e-02 7.162399999999999878e-01 3.193724999999999703e+00 6.743934999999999036e+01 1.577875000000000000e+03
3.200000000000000067e-02 7.156405000000000127e-01 3.379154999999999909e+00 6.551059999999999661e+01 1.577384999999999991e+03
3.300000000000000155e-02 7.149560000000000359e-01 3.344154999999999767e+00 6.331104999999999450e+01 1.576835000000000036e+03
3.400000000000000244e-02 7.142045000000000199e-01 3.108084999999999987e+00 6.086194999999999311e+01 1.576240000000000009e+03
3.500000000000000333e-02 7.134139999999999926e-01 2.715884999999999661e+00 5.822790000000000532e+01 1.575594999999999800e+03
3.600000000000000422e-02 7.126200000000000312e-01 2.227974999999999817e+00 5.550659999999999883e+01 1.574925000000000182e+03
3.700000000000000511e-02 7.118580000000001018e-01 1.709255000000000191e+00 5.281334999999999980e+01 1.574259999999999991e+03
3.799999999999999906e-02 7.111589999999999856e-01 1.219085000000000196e+00 5.026470000000000482e+01 1.573615000000000009e+03
3.899999999999999994e-02 7.105474999999999985e-01 8.047499999999998543e-01 4.796439999999999770e+01 1.573025000000000091e+03
4.000000000000000083e-02 7.100379999999999470e-01 4.989550000000000374e-01 4.599459999999999837e+01 1.572500000000000000e+03
4.100000000000000172e-02 7.096390000000000198e-01 3.206100000000002836e-01 4.441174999999999784e+01 1.572065000000000055e+03
4.200000000000000261e-02 7.093534999999999702e-01 2.778700000000002834e-01 4.324759999999999849e+01 1.571720000000000027e+03
4.300000000000000350e-02 7.091790000000000038e-01 3.722550000000000026e-01 4.251314999999999600e+01 1.571480000000000018e+03
4.400000000000000439e-02 7.091129999999999933e-01 6.026934999999999931e-01 4.220485000000000042e+01 1.571344999999999800e+03
4.499999999999999833e-02 7.091510000000000868e-01 9.685065000000000479e-01 4.231054999999999922e+01 1.571305000000000064e+03
4.599999999999999922e-02 7.092905000000000459e-01 1.470858699999999963e+00 4.281439999999999912e+01 1.571369999999999891e+03
4.700000000000000011e-02 7.095285000000000064e-01 2.112510499999999958e+00 4.369975000000000165e+01 1.571529999999999973e+03
4.800000000000000100e-02 7.098629999999999107e-01 2.896323999999999899e+00 4.494950000000000045e+01 1.571784999999999854e+03
4.900000000000000189e-02 7.102895000000000181e-01 3.823049000000000142e+00 4.654534999999999911e+01 1.572130000000000109e+03
5.000000000000000278e-02 7.108025000000000038e-01 4.889193000000000566e+00 4.846519999999999584e+01 1.572559999999999945e+03
5.100000000000000366e-02 7.113939999999999708e-01 6.085624499999999770e+00 5.068164999999999765e+01 1.573059999999999945e+03
5.200000000000000455e-02 7.120539999999999647e-01 7.396975000000000300e+00 5.316055000000000064e+01 1.573634999999999991e+03
5.300000000000000544e-02 7.127695000000000558e-01 8.802214999999998568e+00 5.586059999999999803e+01 1.574275000000000091e+03
5.399999999999999939e-02 7.135270000000000223e-01 1.027618499999999990e+01 5.873524999999999352e+01 1.574954999999999927e+03
5.500000000000000028e-02 7.143120000000000580e-01 1.179140999999999906e+01 6.173420000000000130e+01 1.575684999999999945e+03
5.600000000000000117e-02 7.151104999999999823e-01 1.332019499999999823e+01 6.480664999999999054e+01 1.576430000000000064e+03
5.700000000000000205e-02 7.159094999999999764e-01 1.483666499999999999e+01 6.790449999999999875e+01 1.577200000000000045e+03
5.800000000000000294e-02 7.167000000000000037e-01 1.631836000000000197e+01 7.098465000000000202e+01 1.577970000000000027e+03
5.900000000000000383e-02 7.174734999999999863e-01 1.774709999999999965e+01 7.401174999999999216e+01 1.578740000000000009e+03
6.000000000000000472e-02 7.182239999999999736e-01 1.910979999999999990e+01 7.695935000000000059e+01 1.579500000000000000e+03
6.099999999999999867e-02 7.189505000000000479e-01 2.039804999999999779e+01 7.981024999999999636e+01 1.580240000000000009e+03
6.199999999999999956e-02 7.196510000000000407e-01 2.160779999999999745e+01 8.255649999999999977e+01 1.580960000000000036e+03
6.300000000000000044e-02 7.203279999999999683e-01 2.273884999999999934e+01 8.519830000000000325e+01 1.581659999999999854e+03
6.400000000000000133e-02 7.209834999999999994e-01 2.379379999999999740e+01 8.774235000000000184e+01 1.582329999999999927e+03
6.500000000000000222e-02 7.216219999999999857e-01 2.477730000000000032e+01 9.020045000000000357e+01 1.582990000000000009e+03
6.600000000000000311e-02 7.222465000000000135e-01 2.569519999999999982e+01 9.258744999999998981e+01 1.583630000000000109e+03
6.700000000000000400e-02 7.228620000000000045e-01 2.655395000000000039e+01 9.491984999999999673e+01 1.584255000000000109e+03
6.800000000000000488e-02 7.234715000000000451e-01 2.735965000000000202e+01 9.721290000000000475e+01 1.584875000000000000e+03
6.900000000000000577e-02 7.240789999999999171e-01 2.811785000000000068e+01 9.948104999999999620e+01 1.585480000000000018e+03
7.000000000000000666e-02 7.246859999999999413e-01 2.883265000000000100e+01 1.017352999999999952e+02 1.586085000000000036e+03
7.100000000000000755e-02 7.252925000000000066e-01 2.950670000000000215e+01 1.039812500000000028e+02 1.586684999999999945e+03
7.200000000000000844e-02 7.258994999999999198e-01 3.014079999999999870e+01 1.062214999999999918e+02 1.587284999999999854e+03
7.300000000000000933e-02 7.265044999999999975e-01 3.073395000000000010e+01 1.084530000000000030e+02 1.587880000000000109e+03
7.399999999999999634e-02 7.271039999999999726e-01 3.128350000000000364e+01 1.106665000000000134e+02 1.588470000000000027e+03
7.499999999999999722e-02 7.276955000000000506e-01 3.178545000000000087e+01 1.128520000000000039e+02 1.589059999999999945e+03
7.599999999999999811e-02 7.282740000000000880e-01 3.223479999999999990e+01 1.149929999999999950e+02 1.589634999999999991e+03
7.699999999999999900e-02 7.288345000000000518e-01 3.262610000000000099e+01 1.170725000000000051e+02 1.590194999999999936e+03
7.799999999999999989e-02 7.293720000000000203e-01 3.295369999999999777e+01 1.190730000000000075e+02 1.590735000000000127e+03
7.900000000000000078e-02 7.298824999999999896e-01 3.321255000000000024e+01 1.209749999999999943e+02 1.591255000000000109e+03
8.000000000000000167e-02 7.303619999999999557e-01 3.339804999999999779e+01 1.227620000000000005e+02 1.591750000000000000e+03
8.100000000000000255e-02 7.308054999999999968e-01 3.350679999999999836e+01 1.244194999999999993e+02 1.592210000000000036e+03
8.200000000000000344e-02 7.312110000000000554e-01 3.353625000000000256e+01 1.259350000000000023e+02 1.592639999999999873e+03
8.300000000000000433e-02 7.315765000000000740e-01 3.348534999999999684e+01 1.272984999999999900e+02 1.593030000000000200e+03
8.400000000000000522e-02 7.318999999999999950e-01 3.335410000000000252e+01 1.285035000000000025e+02 1.593380000000000109e+03
8.500000000000000611e-02 7.321815000000000406e-01 3.314405000000000001e+01 1.295475000000000136e+02 1.593684999999999945e+03
8.600000000000000699e-02 7.324220000000000175e-01 3.285784999999999911e+01 1.304304999999999950e+02 1.593954999999999927e+03
8.700000000000000788e-02 7.326209999999999667e-01 3.249949999999999761e+01 1.311564999999999941e+02 1.594179999999999836e+03
8.800000000000000877e-02 7.327814999999999745e-01 3.207435000000000258e+01 1.317309999999999945e+02 1.594369999999999891e+03
8.899999999999999578e-02 7.329054999999999875e-01 3.158875000000000099e+01 1.321634999999999991e+02 1.594525000000000091e+03
8.999999999999999667e-02 7.329959999999999809e-01 3.105010000000000048e+01 1.324654999999999916e+02 1.594634999999999991e+03
9.099999999999999756e-02 7.330574999999999175e-01 3.046669999999999590e+01 1.326504999999999939e+02 1.594720000000000027e+03
9.199999999999999845e-02 7.330934999999999535e-01 2.984759999999999991e+01 1.327340000000000089e+02 1.594769999999999982e+03
9.299999999999999933e-02 7.331084999999999408e-01 2.920195000000000007e+01 1.327319999999999993e+02 1.594800000000000182e+03
9.400000000000000022e-02 7.331060000000000354e-01 2.853920000000000101e+01 1.326605000000000132e+02 1.594804999999999836e+03
9.500000000000000111e-02 7.330904999999999783e-01 2.786840000000000117e+01 1.325370000000000061e+02 1.594795000000000073e+03
9.600000000000000200e-02 7.330670000000000242e-01 2.719800000000000040e+01 1.323770000000000095e+02 1.594775000000000091e+03
9.700000000000000289e-02 7.330370000000000497e-01 2.653545000000000087e+01 1.321940000000000168e+02 1.594740000000000009e+03
9.800000000000000377e-02 7.330050000000000177e-01 2.588710000000000022e+01 1.320020000000000095e+02 1.594700000000000045e+03
9.900000000000000466e-02 7.329734999999999445e-01 2.525764999999999816e+01 1.318089999999999975e+02 1.594659999999999854e+03
1.000000000000000056e-01 7.329430000000000112e-01 2.465050000000000097e+01 1.316245000000000118e+02 1.594619999999999891e+03
1.010000000000000064e-01 7.329140000000000654e-01 2.406719999999999970e+01 1.314515000000000100e+02 1.594574999999999818e+03
1.020000000000000073e-01 7.328874999999999140e-01 2.350775000000000148e+01 1.312914999999999850e+02 1.594535000000000082e+03
1.030000000000000082e-01 7.328619999999999024e-01 2.297070000000000078e+01 1.311440000000000055e+02 1.594490000000000009e+03
1.040000000000000091e-01 7.328369999999999607e-01 2.245340000000000202e+01 1.310045000000000073e+02 1.594454999999999927e+03
1.050000000000000100e-01 7.328105000000000313e-01 2.195204999999999984e+01 1.308689999999999998e+02 1.594414999999999964e+03
1.059999999999999970e-01 7.327805000000000568e-01 2.146229999999999905e+01 1.307290000000000134e+02 1.594375000000000000e+03
1.069999999999999979e-01 7.327445000000000208e-01 2.097910000000000252e+01 1.305769999999999982e+02 1.594340000000000146e+03
1.079999999999999988e-01 7.327015000000000056e-01 2.049730000000000274e+01 1.304039999999999964e+02 1.594295000000000073e+03
1.089999999999999997e-01 7.326475000000000071e-01 2.001194999999999879e+01 1.302015000000000100e+02 1.594240000000000009e+03
1.100000000000000006e-01 7.325824999999999143e-01 1.951834999999999809e+01 1.299624999999999773e+02 1.594174999999999955e+03
1.110000000000000014e-01 7.325049999999999617e-01 1.901235000000000142e+01 1.296804999999999950e+02 1.594105000000000018e+03
1.120000000000000023e-01 7.324125000000000218e-01 1.849074999999999847e+01 1.293495000000000061e+02 1.594019999999999982e+03
1.130000000000000032e-01 7.323055000000000536e-01 1.795110000000000028e+01 1.289675000000000011e+02 1.593929999999999836e+03
1.140000000000000041e-01 7.321839999999999460e-01 1.739215000000000089e+01 1.285310000000000059e+02 1.593819999999999936e+03
1.150000000000000050e-01 7.320480000000000320e-01 1.681380000000000052e+01 1.280425000000000182e+02 1.593704999999999927e+03
1.160000000000000059e-01 7.318990000000000773e-01 1.621705000000000041e+01 1.275045000000000073e+02 1.593570000000000164e+03
1.170000000000000068e-01 7.317390000000000283e-01 1.560435000000000016e+01 1.269225000000000136e+02 1.593424999999999955e+03
1.180000000000000077e-01 7.315694999999999837e-01 1.497884999999999955e+01 1.263029999999999973e+02 1.593269999999999982e+03
1.190000000000000085e-01 7.313944999999999474e-01 1.434509999999999863e+01 1.256555000000000035e+02 1.593110000000000127e+03
1.200000000000000094e-01 7.312155000000000182e-01 1.370834999999999937e+01 1.249909999999999997e+02 1.592940000000000055e+03
1.209999999999999964e-01 7.310364999999999780e-01 1.307440000000000069e+01 1.243200000000000074e+02 1.592775000000000091e+03
1.219999999999999973e-01 7.308605000000000240e-01 1.244964500000000029e+01 1.236555000000000035e+02 1.592605000000000018e+03
1.229999999999999982e-01 7.306915000000000493e-01 1.184057999999999922e+01 1.230095000000000027e+02 1.592440000000000055e+03
1.239999999999999991e-01 7.305319999999999592e-01 1.125368499999999905e+01 1.223954999999999984e+02 1.592279999999999973e+03
1.250000000000000000e-01 7.303855000000000208e-01 1.069508000000000081e+01 1.218249999999999886e+02 1.592125000000000000e+03
1.260000000000000009e-01 7.302545000000000286e-01 1.017035500000000070e+01 1.213075000000000045e+02 1.591985000000000127e+03
1.270000000000000018e-01 7.301409999999999290e-01 9.684264999999999901e+00 1.208525000000000063e+02 1.591859999999999900e+03
1.280000000000000027e-01 7.300465000000000426e-01 9.240755000000000052e+00 1.204675000000000011e+02 1.591750000000000000e+03
1.290000000000000036e-01 7.299724999999999131e-01 8.842534999999999812e+00 1.201570000000000107e+02 1.591659999999999854e+03
1.300000000000000044e-01 7.299189999999999845e-01 8.491179999999999950e+00 1.199240000000000066e+02 1.591585000000000036e+03
1.310000000000000053e-01 7.298854999999999649e-01 8.187210000000000321e+00 1.197690000000000055e+02 1.591529999999999973e+03
1.320000000000000062e-01 7.298719999999999652e-01 7.929770000000000429e+00 1.196894999999999953e+02 1.591494999999999891e+03
1.330000000000000071e-01 7.298774999999999569e-01 7.717050000000000409e+00 1.196825000000000045e+02 1.591480000000000018e+03
1.340000000000000080e-01 7.298985000000000056e-01 7.546244999999999870e+00 1.197404999999999973e+02 1.591474999999999909e+03
1.350000000000000089e-01 7.299345000000000416e-01 7.413730000000000153e+00 1.198580000000000041e+02 1.591489999999999782e+03
1.360000000000000098e-01 7.299824999999999786e-01 7.315305000000000391e+00 1.200254999999999939e+02 1.591519999999999982e+03
1.370000000000000107e-01 7.300400000000000222e-01 7.246304999999999552e+00 1.202339999999999947e+02 1.591559999999999945e+03
1.380000000000000115e-01 7.301050000000000040e-01 7.201855000000000118e+00 1.204740000000000038e+02 1.591610000000000127e+03
1.390000000000000124e-01 7.301744999999999486e-01 7.177059999999999995e+00 1.207359999999999900e+02 1.591664999999999964e+03
1.400000000000000133e-01 7.302465000000000206e-01 7.167119999999999713e+00 1.210109999999999957e+02 1.591730000000000018e+03
1.410000000000000142e-01 7.303185000000000926e-01 7.167529999999999291e+00 1.212909999999999968e+02 1.591795000000000073e+03
1.420000000000000151e-01 7.303889999999999549e-01 7.174154999999999838e+00 1.215674999999999955e+02 1.591860000000000127e+03
1.430000000000000160e-01 7.304574999999999818e-01 7.183334999999999582e+00 1.218359999999999985e+02 1.591925000000000182e+03
1.440000000000000169e-01 7.305215000000000458e-01 7.191945000000000476e+00 1.220900000000000034e+02 1.591990000000000009e+03
1.450000000000000178e-01 7.305809999999999249e-01 7.197390000000000398e+00 1.223259999999999934e+02 1.592049999999999955e+03
1.459999999999999909e-01 7.306349999999999234e-01 7.197670000000000456e+00 1.225420000000000016e+02 1.592105000000000018e+03
1.469999999999999918e-01 7.306829999999999714e-01 7.191314999999999458e+00 1.227359999999999900e+02 1.592154999999999973e+03
1.479999999999999927e-01 7.307259999999999867e-01 7.177394999999999747e+00 1.229074999999999989e+02 1.592204999999999927e+03
1.489999999999999936e-01 7.307635000000000103e-01 7.155459999999999710e+00 1.230575000000000045e+02 1.592244999999999891e+03
1.499999999999999944e-01 7.307954999999999313e-01 7.125500000000000611e+00 1.231869999999999976e+02 1.592279999999999973e+03
1.509999999999999953e-01 7.308235000000000703e-01 7.087884999999999991e+00 1.232974999999999994e+02 1.592309999999999945e+03
1.519999999999999962e-01 7.308475000000000943e-01 7.043289999999999829e+00 1.233909999999999911e+02 1.592339999999999918e+03
1.529999999999999971e-01 7.308684999999999210e-01 6.992639999999999745e+00 1.234715000000000060e+02 1.592364999999999782e+03
1.539999999999999980e-01 7.308870000000000644e-01 6.937039999999999651e+00 1.235400000000000063e+02 1.592384999999999991e+03
1.549999999999999989e-01 7.309039999999999981e-01 6.877684999999999604e+00 1.235999999999999943e+02 1.592405000000000200e+03
1.559999999999999998e-01 7.309194999999999443e-01 6.815810000000000812e+00 1.236539999999999964e+02 1.592420000000000073e+03
1.570000000000000007e-01 7.309345000000000425e-01 6.752615000000000478e+00 1.237039999999999935e+02 1.592434999999999945e+03
1.580000000000000016e-01 7.309494999999999187e-01 6.689210000000000100e+00 1.237530000000000001e+02 1.592454999999999927e+03
1.590000000000000024e-01 7.309649999999999759e-01 6.626565000000000261e+00 1.238010000000000019e+02 1.592470000000000027e+03
