# t [s], A [cm^2], U [cm/s], P [cPa], c [cm/s]
1.000000000000000021e-03 7.341805000000000136e-01 5.162450000000005923e-03 9.110405000000000086e+01 1.639755000000000109e+03
2.000000000000000042e-03 7.341670000000000140e-01 -4.396014999999999645e-03 9.107480000000001041e+01 1.639744999999999891e+03
3.000000000000000062e-03 7.342215000000000824e-01 7.982635000000000425e-02 9.116390000000001237e+01 1.639764999999999873e+03
4.000000000000000083e-03 7.342794999999999739e-01 1.805816000000000088e-01 9.128874999999999318e+01 1.639795000000000073e+03
5.000000000000000104e-03 7.342585000000000361e-01 1.714244000000000046e-01 9.125485000000000468e+01 1.639784999999999854e+03
6.000000000000000125e-03 7.341845000000000176e-01 7.840650000000001785e-02 9.105279999999999063e+01 1.639744999999999891e+03
7.000000000000000146e-03 7.341225000000000112e-01 -2.945500000000045304e-03 9.080244999999999322e+01 1.639694999999999936e+03
8.000000000000000167e-03 7.340375000000000094e-01 -1.313474999999999504e-01 9.045465000000000089e+01 1.639619999999999891e+03
9.000000000000001055e-03 7.338894999999999724e-01 -3.738550000000000484e-01 8.991280000000000427e+01 1.639509999999999991e+03
1.000000000000000194e-02 7.336749999999999661e-01 -7.364899999999998670e-01 8.913544999999999163e+01 1.639355000000000018e+03
1.099999999999999936e-02 7.333769999999999456e-01 -1.237689999999999957e+00 8.806504999999999939e+01 1.639130000000000109e+03
1.200000000000000025e-02 7.329784999999999773e-01 -1.890534999999999854e+00 8.664350000000000307e+01 1.638835000000000036e+03
1.300000000000000114e-02 7.325055000000000316e-01 -2.635809999999999764e+00 8.490504999999998859e+01 1.638469999999999800e+03
1.400000000000000203e-02 7.320264999999999134e-01 -3.339754999999999807e+00 8.300454999999999472e+01 1.638055000000000064e+03
1.499999999999999944e-02 7.316110000000000113e-01 -3.860031499999999838e+00 8.114740000000000464e+01 1.637630000000000109e+03
1.600000000000000033e-02 7.312929999999999708e-01 -4.111145500000000119e+00 7.949375000000000568e+01 1.637235000000000127e+03
1.700000000000000122e-02 7.310639999999999361e-01 -4.086972499999999897e+00 7.810444999999999993e+01 1.636875000000000000e+03
1.800000000000000211e-02 7.308840000000000892e-01 -3.844554999999999723e+00 7.694024999999999181e+01 1.636559999999999945e+03
1.900000000000000300e-02 7.307044999999999790e-01 -3.469939999999999802e+00 7.589789999999999281e+01 1.636269999999999982e+03
2.000000000000000042e-02 7.304850000000000509e-01 -3.043305499999999775e+00 7.485849999999999227e+01 1.635974999999999909e+03
2.100000000000000130e-02 7.302079999999999682e-01 -2.613691199999999881e+00 7.373255000000000337e+01 1.635664999999999964e+03
2.200000000000000219e-02 7.298800000000000843e-01 -2.189442999999999806e+00 7.248660000000000991e+01 1.635335000000000036e+03
2.299999999999999961e-02 7.295240000000000613e-01 -1.746279999999999832e+00 7.114455000000000950e+01 1.634985000000000127e+03
2.400000000000000050e-02 7.291680000000000383e-01 -1.248054999999999914e+00 6.976609999999999445e+01 1.634630000000000109e+03
2.500000000000000139e-02 7.288315000000000765e-01 -6.703949999999998521e-01 6.841310000000000002e+01 1.634269999999999982e+03
2.600000000000000228e-02 7.285174999999999290e-01 -1.747000000000031861e-02 6.711920000000000641e+01 1.633924999999999955e+03
2.700000000000000316e-02 7.282135000000000691e-01 6.726650000000000684e-01 6.587225000000000819e+01 1.633585000000000036e+03
2.800000000000000058e-02 7.278899999999999260e-01 1.334095000000000253e+00 6.461339999999999861e+01 1.633244999999999891e+03
2.900000000000000147e-02 7.275145000000000639e-01 1.887085000000000123e+00 6.325069999999999482e+01 1.632884999999999991e+03
3.000000000000000236e-02 7.270564999999999944e-01 2.256384999999999863e+00 6.168274999999999864e+01 1.632490000000000009e+03
3.099999999999999978e-02 7.264990000000000059e-01 2.389089999999999936e+00 5.982699999999999818e+01 1.632039999999999964e+03
3.200000000000000067e-02 7.258419999999999872e-01 2.267459999999999809e+00 5.764444999999999908e+01 1.631525000000000091e+03
3.300000000000000155e-02 7.251045000000000407e-01 1.912924999999999542e+00 5.515399999999999636e+01 1.630945000000000164e+03
3.400000000000000244e-02 7.243205000000000338e-01 1.380150000000000432e+00 5.243219999999999459e+01 1.630309999999999945e+03
3.500000000000000333e-02 7.235324999999999118e-01 7.438549999999999329e-01 4.959924999999999784e+01 1.629654999999999973e+03
3.600000000000000422e-02 7.227820000000000356e-01 8.322499999999966036e-02 4.679744999999999777e+01 1.628990000000000009e+03
3.700000000000000511e-02 7.221055000000000668e-01 -5.312450000000001893e-01 4.416799999999999926e+01 1.628355000000000018e+03
3.799999999999999906e-02 7.215275000000000993e-01 -1.045919999999999739e+00 4.183310000000000173e+01 1.627779999999999973e+03
3.899999999999999994e-02 7.210630000000000095e-01 -1.426654999999999784e+00 3.988455000000000439e+01 1.627279999999999973e+03
4.000000000000000083e-02 7.207179999999999698e-01 -1.656875000000000098e+00 3.837999999999999545e+01 1.626875000000000000e+03
4.100000000000000172e-02 7.204920000000000213e-01 -1.732830000000000314e+00 3.734590000000000032e+01 1.626575000000000045e+03
4.200000000000000261e-02 7.203800000000000203e-01 -1.657658499999999924e+00 3.678444999999999965e+01 1.626380000000000109e+03
4.300000000000000350e-02 7.203770000000000451e-01 -1.435915000000000052e+00 3.668234999999999957e+01 1.626295000000000073e+03
4.400000000000000439e-02 7.204774999999999929e-01 -1.069807000000000174e+00 3.701935000000000286e+01 1.626320000000000164e+03
4.499999999999999833e-02 7.206784999999999997e-01 -5.577550000000000008e-01 3.777445000000000164e+01 1.626445000000000164e+03
4.599999999999999922e-02 7.209775000000000489e-01 1.046350000000000335e-01 3.892855000000000132e+01 1.626659999999999854e+03
4.700000000000000011e-02 7.213730000000000420e-01 9.219349999999999490e-01 4.046415000000000362e+01 1.626980000000000018e+03
4.800000000000000100e-02 7.218610000000000859e-01 1.895550000000000068e+00 4.236244999999999550e+01 1.627384999999999991e+03
4.900000000000000189e-02 7.224359999999999671e-01 3.020875000000000199e+00 4.459955000000000069e+01 1.627869999999999891e+03
5.000000000000000278e-02 7.230874999999999941e-01 4.285560000000000258e+00 4.714395000000000380e+01 1.628440000000000055e+03
5.100000000000000366e-02 7.238040000000000029e-01 5.669455000000000133e+00 4.995459999999999923e+01 1.629075000000000045e+03
5.200000000000000455e-02 7.245705000000000062e-01 7.145532499999999843e+00 5.298144999999999527e+01 1.629764999999999873e+03
5.300000000000000544e-02 7.253705000000000291e-01 8.682570500000000635e+00 5.616790000000000305e+01 1.630505000000000109e+03
5.399999999999999939e-02 7.261880000000000557e-01 1.024754500000000057e+01 5.945374999999999943e+01 1.631279999999999973e+03
5.500000000000000028e-02 7.270084999999999464e-01 1.180859499999999862e+01 6.278004999999999569e+01 1.632070000000000164e+03
5.600000000000000117e-02 7.278185000000000349e-01 1.333736999999999995e+01 6.609250000000000114e+01 1.632865000000000009e+03
5.700000000000000205e-02 7.286084999999999923e-01 1.481059500000000106e+01 6.934505000000000052e+01 1.633654999999999973e+03
5.800000000000000294e-02 7.293715000000000614e-01 1.621086500000000186e+01 7.250239999999999441e+01 1.634434999999999945e+03
5.900000000000000383e-02 7.301040000000000862e-01 1.752689999999999770e+01 7.554049999999999443e+01 1.635195000000000164e+03
6.000000000000000472e-02 7.308049999999999269e-01 1.875294999999999845e+01 7.844714999999999350e+01 1.635925000000000182e+03
6.099999999999999867e-02 7.314760000000000151e-01 1.988799999999999812e+01 8.122024999999999295e+01 1.636630000000000109e+03
6.199999999999999956e-02 7.321199999999999930e-01 2.093475000000000108e+01 8.386660000000000537e+01 1.637305000000000064e+03
6.300000000000000044e-02 7.327410000000000867e-01 2.189855000000000018e+01 8.639955000000000496e+01 1.637960000000000036e+03
6.400000000000000133e-02 7.333434999999999260e-01 2.278650000000000020e+01 8.883674999999999500e+01 1.638585000000000036e+03
6.500000000000000222e-02 7.339329999999999465e-01 2.360640000000000072e+01 9.119809999999999661e+01 1.639200000000000045e+03
6.600000000000000311e-02 7.345135000000000414e-01 2.436619999999999919e+01 9.350350000000000250e+01 1.639799999999999955e+03
6.700000000000000400e-02 7.350894999999999513e-01 2.507294999999999874e+01 9.577074999999999250e+01 1.640384999999999991e+03
6.800000000000000488e-02 7.356629999999999558e-01 2.573239999999999839e+01 9.801404999999999745e+01 1.640960000000000036e+03
6.900000000000000577e-02 7.362355000000000427e-01 2.634830000000000183e+01 1.002430999999999983e+02 1.641535000000000082e+03
7.000000000000000666e-02 7.368069999999999897e-01 2.692239999999999966e+01 1.024612500000000068e+02 1.642105000000000018e+03
7.100000000000000755e-02 7.373750000000000027e-01 2.745410000000000039e+01 1.046655000000000086e+02 1.642670000000000073e+03
7.200000000000000844e-02 7.379379999999999828e-01 2.794084999999999752e+01 1.068479999999999990e+02 1.643230000000000018e+03
7.300000000000000933e-02 7.384900000000000908e-01 2.837839999999999918e+01 1.089950000000000045e+02 1.643784999999999854e+03
7.399999999999999634e-02 7.390274999999999483e-01 2.876129999999999853e+01 1.110889999999999986e+02 1.644324999999999818e+03
7.499999999999999722e-02 7.395445000000000491e-01 2.908370000000000033e+01 1.131105000000000018e+02 1.644849999999999909e+03
7.599999999999999811e-02 7.400360000000000271e-01 2.933964999999999890e+01 1.150384999999999991e+02 1.645355000000000018e+03
7.699999999999999900e-02 7.404975000000000307e-01 2.952394999999999925e+01 1.168529999999999944e+02 1.645829999999999927e+03
7.799999999999999989e-02 7.409244999999999859e-01 2.963214999999999932e+01 1.185349999999999966e+02 1.646275000000000091e+03
7.900000000000000078e-02 7.413125000000000409e-01 2.966109999999999758e+01 1.200695000000000050e+02 1.646690000000000055e+03
8.000000000000000167e-02 7.416605000000000558e-01 2.960880000000000223e+01 1.214424999999999955e+02 1.647059999999999945e+03
8.100000000000000255e-02 7.419645000000000268e-01 2.947484999999999999e+01 1.226454999999999984e+02 1.647400000000000091e+03
8.200000000000000344e-02 7.422260000000000524e-01 2.926019999999999754e+01 1.236734999999999900e+02 1.647684999999999945e+03
8.300000000000000433e-02 7.424435000000000340e-01 2.896730000000000160e+01 1.245245000000000033e+02 1.647934999999999945e+03
8.400000000000000522e-02 7.426170000000000826e-01 2.859989999999999810e+01 1.252005000000000052e+02 1.648139999999999873e+03
8.500000000000000611e-02 7.427505000000000912e-01 2.816335000000000122e+01 1.257095000000000056e+02 1.648305000000000064e+03
8.600000000000000699e-02 7.428445000000000187e-01 2.766409999999999769e+01 1.260585000000000093e+02 1.648425000000000182e+03
8.700000000000000788e-02 7.429034999999999389e-01 2.711014999999999731e+01 1.262609999999999957e+02 1.648509999999999991e+03
8.800000000000000877e-02 7.429315000000000779e-01 2.651044999999999874e+01 1.263319999999999936e+02 1.648559999999999945e+03
8.899999999999999578e-02 7.429319999999999258e-01 2.587480000000000047e+01 1.262905000000000086e+02 1.648575000000000045e+03
8.999999999999999667e-02 7.429105000000000292e-01 2.521374999999999744e+01 1.261535000000000082e+02 1.648569999999999936e+03
9.099999999999999756e-02 7.428719999999999768e-01 2.453795000000000215e+01 1.259424999999999955e+02 1.648539999999999964e+03
9.199999999999999845e-02 7.428209999999999535e-01 2.385764999999999958e+01 1.256770000000000067e+02 1.648494999999999891e+03
9.299999999999999933e-02 7.427630000000000621e-01 2.318280000000000030e+01 1.253774999999999977e+02 1.648434999999999945e+03
9.400000000000000022e-02 7.427015000000000144e-01 2.252199999999999847e+01 1.250610000000000070e+02 1.648369999999999891e+03
9.500000000000000111e-02 7.426399999999999668e-01 2.188255000000000194e+01 1.247445000000000022e+02 1.648300000000000182e+03
9.600000000000000200e-02 7.425820000000000753e-01 2.126984999999999815e+01 1.244405000000000001e+02 1.648224999999999909e+03
9.700000000000000289e-02 7.425289999999999946e-01 2.068750000000000000e+01 1.241585000000000036e+02 1.648160000000000082e+03
9.800000000000000377e-02 7.424815000000000165e-01 2.013705000000000211e+01 1.239044999999999987e+02 1.648095000000000027e+03
9.900000000000000466e-02 7.424405000000000587e-01 1.961814999999999998e+01 1.236820000000000022e+02 1.648034999999999854e+03
1.000000000000000056e-01 7.424045000000000227e-01 1.912869999999999848e+01 1.234890000000000043e+02 1.647980000000000018e+03
1.010000000000000064e-01 7.423729999999999496e-01 1.866489999999999938e+01 1.233215000000000003e+02 1.647934999999999945e+03
1.020000000000000073e-01 7.423440000000000039e-01 1.822189999999999799e+01 1.231735000000000042e+02 1.647889999999999873e+03
1.030000000000000082e-01 7.423139999999999183e-01 1.779390000000000072e+01 1.230365000000000038e+02 1.647849999999999909e+03
1.040000000000000091e-01 7.422819999999999974e-01 1.737454999999999927e+01 1.229004999999999939e+02 1.647809999999999945e+03
1.050000000000000100e-01 7.422450000000000436e-01 1.695730000000000004e+01 1.227549999999999955e+02 1.647764999999999873e+03
1.059999999999999970e-01 7.422005000000000408e-01 1.653590000000000160e+01 1.225910000000000082e+02 1.647724999999999909e+03
1.069999999999999979e-01 7.421470000000000011e-01 1.610435000000000016e+01 1.223969999999999914e+02 1.647674999999999955e+03
1.079999999999999988e-01 7.420815000000000605e-01 1.565760000000000041e+01 1.221674999999999898e+02 1.647615000000000009e+03
1.089999999999999997e-01 7.420050000000000257e-01 1.519164999999999921e+01 1.218944999999999936e+02 1.647549999999999955e+03
1.100000000000000006e-01 7.419154999999999500e-01 1.470364999999999966e+01 1.215750000000000028e+02 1.647474999999999909e+03
1.110000000000000014e-01 7.418130000000000557e-01 1.419219999999999970e+01 1.212069999999999936e+02 1.647384999999999991e+03
1.120000000000000023e-01 7.416985000000000383e-01 1.365735000000000099e+01 1.207930000000000064e+02 1.647289999999999964e+03
1.130000000000000032e-01 7.415745000000000253e-01 1.310070500000000138e+01 1.203359999999999985e+02 1.647184999999999945e+03
1.140000000000000041e-01 7.414419999999999344e-01 1.252531499999999909e+01 1.198429999999999893e+02 1.647065000000000055e+03
1.150000000000000050e-01 7.413039999999999630e-01 1.193549499999999952e+01 1.193225000000000051e+02 1.646940000000000055e+03
1.160000000000000059e-01 7.411634999999999751e-01 1.133677499999999938e+01 1.187864999999999895e+02 1.646809999999999945e+03
1.170000000000000068e-01 7.410240000000000160e-01 1.073564499999999988e+01 1.182475000000000023e+02 1.646684999999999945e+03
1.180000000000000077e-01 7.408894999999999786e-01 1.013902999999999999e+01 1.177194999999999965e+02 1.646554999999999836e+03
1.190000000000000085e-01 7.407630000000000603e-01 9.554285000000000139e+00 1.172160000000000082e+02 1.646429999999999836e+03
1.200000000000000094e-01 7.406485000000000429e-01 8.988694999999999879e+00 1.167510000000000048e+02 1.646315000000000055e+03
1.209999999999999964e-01 7.405485000000000539e-01 8.449184999999999945e+00 1.163375000000000057e+02 1.646210000000000036e+03
1.219999999999999973e-01 7.404659999999999576e-01 7.941980000000000040e+00 1.159874999999999972e+02 1.646115000000000009e+03
1.229999999999999982e-01 7.404040000000000621e-01 7.472395000000000564e+00 1.157094999999999914e+02 1.646034999999999854e+03
1.239999999999999991e-01 7.403619999999999646e-01 7.044579999999999842e+00 1.155115000000000123e+02 1.645980000000000018e+03
1.250000000000000000e-01 7.403429999999999733e-01 6.661389999999999922e+00 1.153979999999999961e+02 1.645940000000000055e+03
1.260000000000000009e-01 7.403450000000000308e-01 6.324244999999999450e+00 1.153704999999999927e+02 1.645924999999999955e+03
1.270000000000000018e-01 7.403684999999999850e-01 6.033174999999999955e+00 1.154275000000000091e+02 1.645924999999999955e+03
1.280000000000000027e-01 7.404120000000000701e-01 5.786850000000000271e+00 1.155639999999999930e+02 1.645945000000000164e+03
1.290000000000000036e-01 7.404725000000000890e-01 5.582695000000000185e+00 1.157745000000000033e+02 1.645985000000000127e+03
1.300000000000000044e-01 7.405489999999999018e-01 5.417085000000000150e+00 1.160504999999999995e+02 1.646039999999999964e+03
1.310000000000000053e-01 7.406375000000000597e-01 5.285565000000000069e+00 1.163799999999999955e+02 1.646110000000000127e+03
1.320000000000000062e-01 7.407360000000000610e-01 5.183089999999999975e+00 1.167539999999999907e+02 1.646190000000000055e+03
1.330000000000000071e-01 7.408409999999999718e-01 5.104244999999999699e+00 1.171580000000000013e+02 1.646279999999999973e+03
1.340000000000000080e-01 7.409494999999999276e-01 5.043535000000000323e+00 1.175810000000000031e+02 1.646380000000000109e+03
1.350000000000000089e-01 7.410579999999999945e-01 4.995560000000000223e+00 1.180115000000000123e+02 1.646474999999999909e+03
1.360000000000000098e-01 7.411654999999999216e-01 4.955220000000000624e+00 1.184385000000000048e+02 1.646579999999999927e+03
1.370000000000000107e-01 7.412684999999999969e-01 4.917844999999999800e+00 1.188520000000000039e+02 1.646674999999999955e+03
1.380000000000000115e-01 7.413650000000000517e-01 4.879324999999999690e+00 1.192445000000000022e+02 1.646775000000000091e+03
1.390000000000000124e-01 7.414549999999999752e-01 4.836174999999999891e+00 1.196084999999999923e+02 1.646865000000000009e+03
1.400000000000000133e-01 7.415359999999999729e-01 4.785565000000000069e+00 1.199395000000000095e+02 1.646950000000000045e+03
1.410000000000000142e-01 7.416080000000000449e-01 4.725340000000000096e+00 1.202330000000000041e+02 1.647025000000000091e+03
1.420000000000000151e-01 7.416700000000000514e-01 4.654009999999999536e+00 1.204875000000000114e+02 1.647090000000000146e+03
1.430000000000000160e-01 7.417225000000000623e-01 4.570694999999999730e+00 1.207025000000000006e+02 1.647154999999999973e+03
1.440000000000000169e-01 7.417655000000000776e-01 4.475105000000000111e+00 1.208780000000000001e+02 1.647199999999999818e+03
1.450000000000000178e-01 7.417994999999999450e-01 4.367465000000000153e+00 1.210150000000000006e+02 1.647240000000000009e+03
1.459999999999999909e-01 7.418249999999999567e-01 4.248450000000000060e+00 1.211170000000000044e+02 1.647275000000000091e+03
1.469999999999999918e-01 7.418430000000000302e-01 4.119085000000000107e+00 1.211854999999999905e+02 1.647295000000000073e+03
1.479999999999999927e-01 7.418540000000000134e-01 3.980709999999999749e+00 1.212245000000000061e+02 1.647309999999999945e+03
1.489999999999999936e-01 7.418590000000000462e-01 3.834859999999999935e+00 1.212365000000000066e+02 1.647319999999999936e+03
1.499999999999999944e-01 7.418584999999999763e-01 3.683189999999999742e+00 1.212265000000000015e+02 1.647325000000000045e+03
1.509999999999999953e-01 7.418534999999999435e-01 3.527390000000000470e+00 1.211959999999999980e+02 1.647325000000000045e+03
1.519999999999999962e-01 7.418454999999999355e-01 3.369114999999999860e+00 1.211494999999999891e+02 1.647315000000000055e+03
1.529999999999999971e-01 7.418339999999999934e-01 3.209929999999999950e+00 1.210889999999999986e+02 1.647305000000000064e+03
1.539999999999999980e-01 7.418194999999999650e-01 3.051219999999999821e+00 1.210165000000000077e+02 1.647289999999999964e+03
1.549999999999999989e-01 7.418029999999999902e-01 2.894169999999999909e+00 1.209339999999999975e+02 1.647269999999999982e+03
1.559999999999999998e-01 7.417839999999999989e-01 2.739745000000000097e+00 1.208430000000000035e+02 1.647255000000000109e+03
1.570000000000000007e-01 7.417635000000000201e-01 2.588644999999999641e+00 1.207435000000000116e+02 1.647230000000000018e+03
1.580000000000000016e-01 7.417405000000000248e-01 2.441345000000000098e+00 1.206364999999999981e+02 1.647210000000000036e+03
1.590000000000000024e-01 7.417154999999999720e-01 2.298089999999999744e+00 1.205210000000000008e+02 1.647180000000000064e+03
