# t [s], A [cm^2], U [cm/s], P [cPa], c [cm/s]
1.000000000000000021e-03 1.291104999999999892e-01 4.073620000000000019e-01 9.463535000000000252e+01 1.824295000000000073e+03
2.000000000000000042e-03 1.290820000000000023e-01 2.040130999999999695e+00 9.139910000000000423e+01 1.823990000000000009e+03
3.000000000000000062e-03 1.289885000000000059e-01 3.990743499999999777e+00 8.722560000000000002e+01 1.823039999999999964e+03
4.000000000000000083e-03 1.288535000000000097e-01 6.137461999999999307e+00 8.278079999999999927e+01 1.821690000000000055e+03
5.000000000000000104e-03 1.287024999999999975e-01 8.421210000000000306e+00 7.880379999999999541e+01 1.820184999999999945e+03
6.000000000000000125e-03 1.285505000000000120e-01 1.070512500000000067e+01 7.555500000000000682e+01 1.818695000000000164e+03
7.000000000000000146e-03 1.284064999999999790e-01 1.281445499999999882e+01 7.285869999999999891e+01 1.817295000000000073e+03
8.000000000000000167e-03 1.282709999999999961e-01 1.465324500000000185e+01 7.046899999999999409e+01 1.816005000000000109e+03
9.000000000000001055e-03 1.281470000000000109e-01 1.623329999999999984e+01 6.834319999999999595e+01 1.814835000000000036e+03
1.000000000000000194e-02 1.280374999999999985e-01 1.759025000000000105e+01 6.653855000000000075e+01 1.813819999999999936e+03
1.099999999999999936e-02 1.279434999999999878e-01 1.873830000000000240e+01 6.505174999999999841e+01 1.812950000000000045e+03
1.200000000000000025e-02 1.278640000000000054e-01 1.968599999999999994e+01 6.383204999999999529e+01 1.812220000000000027e+03
1.300000000000000114e-02 1.277969999999999939e-01 2.044500000000000028e+01 6.282779999999999632e+01 1.811619999999999891e+03
1.400000000000000203e-02 1.277415000000000078e-01 2.102490000000000236e+01 6.198090000000000543e+01 1.811125000000000000e+03
1.499999999999999944e-02 1.276944999999999886e-01 2.144364999999999810e+01 6.124014999999999986e+01 1.810710000000000036e+03
1.600000000000000033e-02 1.276549999999999907e-01 2.175169999999999959e+01 6.062489999999999668e+01 1.810369999999999891e+03
1.700000000000000122e-02 1.276255000000000028e-01 2.203869999999999862e+01 6.027089999999999748e+01 1.810115000000000009e+03
1.800000000000000211e-02 1.276090000000000002e-01 2.240659999999999741e+01 6.039099999999999824e+01 1.809985000000000127e+03
1.900000000000000300e-02 1.276120000000000032e-01 2.292544999999999789e+01 6.116290000000000049e+01 1.810019999999999982e+03
2.000000000000000042e-02 1.276349999999999985e-01 2.360000000000000142e+01 6.261634999999999707e+01 1.810240000000000009e+03
2.100000000000000130e-02 1.276779999999999859e-01 2.436469999999999914e+01 6.458544999999999447e+01 1.810644999999999982e+03
2.200000000000000219e-02 1.277345000000000008e-01 2.510644999999999882e+01 6.674594999999999345e+01 1.811170000000000073e+03
2.299999999999999961e-02 1.277955000000000063e-01 2.570230000000000103e+01 6.871314999999999884e+01 1.811744999999999891e+03
2.400000000000000050e-02 1.278509999999999924e-01 2.605685000000000073e+01 7.015444999999999709e+01 1.812279999999999973e+03
2.500000000000000139e-02 1.278944999999999943e-01 2.612635000000000218e+01 7.087800000000000011e+01 1.812694999999999936e+03
2.600000000000000228e-02 1.279204999999999925e-01 2.592490000000000094e+01 7.086895000000001232e+01 1.812954999999999927e+03
2.700000000000000316e-02 1.279285000000000005e-01 2.551219999999999999e+01 7.027029999999999177e+01 1.813055000000000064e+03
2.800000000000000058e-02 1.279220000000000079e-01 2.497015000000000029e+01 6.931895000000000095e+01 1.813014999999999873e+03
2.900000000000000147e-02 1.279059999999999919e-01 2.437695000000000078e+01 6.826554999999999040e+01 1.812880000000000109e+03
3.000000000000000236e-02 1.278855000000000131e-01 2.378734999999999999e+01 6.730339999999999634e+01 1.812699999999999818e+03
3.099999999999999978e-02 1.278655000000000208e-01 2.322390000000000043e+01 6.652830000000000155e+01 1.812514999999999873e+03
3.200000000000000067e-02 1.278465000000000018e-01 2.267980000000000018e+01 6.593504999999998972e+01 1.812339999999999918e+03
3.300000000000000155e-02 1.278294999999999848e-01 2.213005000000000067e+01 6.544435000000000002e+01 1.812184999999999945e+03
3.400000000000000244e-02 1.278130000000000099e-01 2.154645000000000010e+01 6.494750000000000512e+01 1.812029999999999973e+03
3.500000000000000333e-02 1.277945000000000053e-01 2.091174999999999784e+01 6.435275000000000034e+01 1.811869999999999891e+03
3.600000000000000422e-02 1.277729999999999977e-01 2.022929999999999851e+01 6.362199999999999989e+01 1.811675000000000182e+03
3.700000000000000511e-02 1.277484999999999871e-01 1.952595000000000169e+01 6.278744999999999976e+01 1.811450000000000045e+03
3.799999999999999906e-02 1.277220000000000022e-01 1.884819999999999851e+01 6.194764999999999588e+01 1.811204999999999927e+03
3.899999999999999994e-02 1.276964999999999906e-01 1.825270000000000081e+01 6.124389999999999645e+01 1.810969999999999800e+03
4.000000000000000083e-02 1.276760000000000117e-01 1.779325000000000045e+01 6.082424999999999926e+01 1.810775000000000091e+03
4.100000000000000172e-02 1.276639999999999997e-01 1.750849999999999795e+01 6.080570000000000164e+01 1.810659999999999854e+03
4.200000000000000261e-02 1.276625000000000121e-01 1.741274999999999906e+01 6.124370000000000402e+01 1.810639999999999873e+03
4.300000000000000350e-02 1.276745000000000241e-01 1.749204999999999899e+01 6.211570000000000391e+01 1.810740000000000009e+03
4.400000000000000439e-02 1.276984999999999926e-01 1.770599999999999952e+01 6.332269999999999754e+01 1.810950000000000045e+03
4.499999999999999833e-02 1.277314999999999978e-01 1.799415000000000120e+01 6.470529999999999404e+01 1.811250000000000000e+03
4.599999999999999922e-02 1.277699999999999947e-01 1.828535000000000110e+01 6.607044999999999391e+01 1.811595000000000027e+03
4.700000000000000011e-02 1.278084999999999916e-01 1.850795000000000101e+01 6.722194999999999254e+01 1.811950000000000045e+03
4.800000000000000100e-02 1.278410000000000102e-01 1.859870000000000090e+01 6.798784999999999457e+01 1.812250000000000000e+03
4.900000000000000189e-02 1.278640000000000054e-01 1.850919999999999987e+01 6.824145000000000039e+01 1.812465000000000146e+03
5.000000000000000278e-02 1.278725000000000001e-01 1.820974999999999966e+01 6.791235000000000355e+01 1.812550000000000182e+03
5.100000000000000366e-02 1.278644999999999921e-01 1.768949999999999889e+01 6.698769999999998959e+01 1.812485000000000127e+03
5.200000000000000455e-02 1.278404999999999958e-01 1.695495000000000019e+01 6.550544999999999618e+01 1.812264999999999873e+03
5.300000000000000544e-02 1.277979999999999949e-01 1.602635000000000076e+01 6.354214999999999947e+01 1.811884999999999991e+03
5.399999999999999939e-02 1.277415000000000078e-01 1.493394999999999939e+01 6.119915000000000305e+01 1.811365000000000009e+03
5.500000000000000028e-02 1.276714999999999933e-01 1.371409999999999840e+01 5.858865000000000123e+01 1.810724999999999909e+03
5.600000000000000117e-02 1.275919999999999832e-01 1.240624499999999841e+01 5.582359999999999900e+01 1.809990000000000009e+03
5.700000000000000205e-02 1.275054999999999938e-01 1.105076500000000017e+01 5.301019999999999754e+01 1.809195000000000164e+03
5.800000000000000294e-02 1.274155000000000149e-01 9.688010000000000232e+00 5.024535000000000196e+01 1.808365000000000009e+03
5.900000000000000383e-02 1.273250000000000215e-01 8.357610000000001094e+00 4.761605000000000132e+01 1.807519999999999982e+03
6.000000000000000472e-02 1.272365000000000024e-01 7.098319999999999297e+00 4.520090000000000430e+01 1.806700000000000045e+03
6.099999999999999867e-02 1.271530000000000160e-01 5.948145000000000238e+00 4.307249999999999801e+01 1.805924999999999955e+03
6.199999999999999956e-02 1.270775000000000099e-01 4.943839999999999790e+00 4.129855000000000587e+01 1.805224999999999909e+03
6.300000000000000044e-02 1.270125000000000004e-01 4.120344999999999480e+00 3.994225000000000136e+01 1.804609999999999900e+03
6.400000000000000133e-02 1.269595000000000029e-01 3.509774999999999867e+00 3.906175000000000352e+01 1.804115000000000009e+03
6.500000000000000222e-02 1.269210000000000060e-01 3.140134999999999899e+00 3.870730000000000359e+01 1.803750000000000000e+03
6.600000000000000311e-02 1.268994999999999984e-01 3.033920000000000172e+00 3.891884999999999906e+01 1.803539999999999964e+03
6.700000000000000400e-02 1.268960000000000088e-01 3.206814999999999749e+00 3.972254999999999825e+01 1.803494999999999891e+03
6.800000000000000488e-02 1.269119999999999970e-01 3.666615000000000180e+00 4.112815000000000509e+01 1.803619999999999891e+03
6.900000000000000577e-02 1.269474999999999909e-01 4.412630000000000052e+00 4.312770000000000437e+01 1.803930000000000064e+03
7.000000000000000666e-02 1.270024999999999904e-01 5.435584999999999667e+00 4.569424999999999670e+01 1.804425000000000182e+03
7.100000000000000755e-02 1.270769999999999955e-01 6.718049999999999855e+00 4.878369999999999607e+01 1.805094999999999800e+03
7.200000000000000844e-02 1.271694999999999909e-01 8.235360000000000014e+00 5.233660000000000423e+01 1.805940000000000055e+03
7.300000000000000933e-02 1.272785000000000166e-01 9.956910000000000593e+00 5.628150000000000119e+01 1.806940000000000055e+03
7.399999999999999634e-02 1.274020000000000152e-01 1.184766499999999922e+01 6.053915000000000646e+01 1.808065000000000055e+03
7.499999999999999722e-02 1.275374999999999981e-01 1.386985500000000116e+01 6.502609999999999957e+01 1.809315000000000055e+03
7.599999999999999811e-02 1.276829999999999909e-01 1.598470000000000013e+01 6.965940000000000509e+01 1.810659999999999854e+03
7.699999999999999900e-02 1.278350000000000042e-01 1.815370000000000061e+01 7.435980000000000700e+01 1.812075000000000045e+03
7.799999999999999989e-02 1.279925000000000090e-01 2.034045000000000059e+01 7.905539999999999168e+01 1.813529999999999973e+03
7.900000000000000078e-02 1.281515000000000015e-01 2.251174999999999926e+01 8.368349999999999511e+01 1.815014999999999873e+03
8.000000000000000167e-02 1.283104999999999940e-01 2.463839999999999719e+01 8.819339999999999691e+01 1.816505000000000109e+03
8.100000000000000255e-02 1.284675000000000122e-01 2.669660000000000011e+01 9.254695000000000960e+01 1.817974999999999909e+03
8.200000000000000344e-02 1.286209999999999853e-01 2.866785000000000139e+01 9.671995000000001141e+01 1.819429999999999836e+03
8.300000000000000433e-02 1.287705000000000100e-01 3.053960000000000008e+01 1.007006000000000085e+02 1.820840000000000146e+03
8.400000000000000522e-02 1.289150000000000018e-01 3.230514999999999759e+01 1.044903999999999940e+02 1.822210000000000036e+03
8.500000000000000611e-02 1.290545000000000164e-01 3.396325000000000216e+01 1.081020000000000039e+02 1.823529999999999973e+03
8.600000000000000699e-02 1.291884999999999839e-01 3.551744999999999663e+01 1.115570000000000022e+02 1.824809999999999945e+03
8.700000000000000788e-02 1.293179999999999885e-01 3.697520000000000095e+01 1.148830000000000098e+02 1.826039999999999964e+03
8.800000000000000877e-02 1.294440000000000035e-01 3.834704999999999586e+01 1.181140000000000043e+02 1.827244999999999891e+03
8.899999999999999578e-02 1.295660000000000145e-01 3.964499999999999602e+01 1.212810000000000059e+02 1.828409999999999854e+03
8.999999999999999667e-02 1.296855000000000091e-01 4.088200000000000500e+01 1.244170000000000016e+02 1.829559999999999945e+03
9.099999999999999756e-02 1.298044999999999893e-01 4.207030000000000314e+01 1.275490000000000066e+02 1.830690000000000055e+03
9.199999999999999845e-02 1.299224999999999963e-01 4.322074999999999534e+01 1.306995000000000005e+02 1.831824999999999818e+03
9.299999999999999933e-02 1.300399999999999889e-01 4.434194999999999709e+01 1.338815000000000168e+02 1.832954999999999927e+03
9.400000000000000022e-02 1.301585000000000103e-01 4.543989999999999441e+01 1.371014999999999873e+02 1.834095000000000027e+03
9.500000000000000111e-02 1.302780000000000049e-01 4.651704999999999757e+01 1.403559999999999945e+02 1.835235000000000127e+03
9.600000000000000200e-02 1.303980000000000139e-01 4.757300000000000040e+01 1.436345000000000027e+02 1.836384999999999991e+03
9.700000000000000289e-02 1.305179999999999951e-01 4.860394999999999754e+01 1.469184999999999945e+02 1.837539999999999964e+03
9.800000000000000377e-02 1.306380000000000041e-01 4.960330000000000439e+01 1.501820000000000164e+02 1.838695000000000164e+03
9.900000000000000466e-02 1.307574999999999987e-01 5.056204999999999927e+01 1.533965000000000032e+02 1.839839999999999918e+03
1.000000000000000056e-01 1.308755000000000057e-01 5.146940000000000026e+01 1.565289999999999964e+02 1.840980000000000018e+03
1.010000000000000064e-01 1.309905000000000097e-01 5.231324999999999648e+01 1.595444999999999993e+02 1.842085000000000036e+03
1.020000000000000073e-01 1.311019999999999963e-01 5.308105000000000473e+01 1.624099999999999966e+02 1.843164999999999964e+03
1.030000000000000082e-01 1.312089999999999923e-01 5.376015000000000299e+01 1.650919999999999845e+02 1.844195000000000164e+03
1.040000000000000091e-01 1.313099999999999823e-01 5.433879999999999910e+01 1.675614999999999952e+02 1.845170000000000073e+03
1.050000000000000100e-01 1.314039999999999930e-01 5.480639999999999645e+01 1.697934999999999945e+02 1.846085000000000036e+03
1.059999999999999970e-01 1.314899999999999958e-01 5.515415000000000134e+01 1.717660000000000196e+02 1.846924999999999955e+03
1.069999999999999979e-01 1.315679999999999905e-01 5.537525000000000119e+01 1.734664999999999964e+02 1.847684999999999945e+03
1.079999999999999988e-01 1.316370000000000040e-01 5.546564999999999657e+01 1.748840000000000146e+02 1.848365000000000009e+03
1.089999999999999997e-01 1.316970000000000085e-01 5.542354999999999876e+01 1.760165000000000077e+02 1.848949999999999818e+03
1.100000000000000006e-01 1.317470000000000030e-01 5.525029999999999575e+01 1.768675000000000068e+02 1.849440000000000055e+03
1.110000000000000014e-01 1.317875000000000019e-01 5.494960000000000377e+01 1.774474999999999909e+02 1.849845000000000027e+03
1.120000000000000023e-01 1.318185000000000051e-01 5.452805000000000035e+01 1.777700000000000102e+02 1.850154999999999973e+03
1.130000000000000032e-01 1.318410000000000137e-01 5.399465000000000003e+01 1.778555000000000064e+02 1.850380000000000109e+03
1.140000000000000041e-01 1.318539999999999990e-01 5.336029999999999518e+01 1.777280000000000086e+02 1.850519999999999982e+03
1.150000000000000050e-01 1.318600000000000050e-01 5.263799999999999812e+01 1.774149999999999920e+02 1.850590000000000146e+03
1.160000000000000059e-01 1.318590000000000040e-01 5.184165000000000134e+01 1.769449999999999932e+02 1.850585000000000036e+03
1.170000000000000068e-01 1.318519999999999970e-01 5.098615000000000208e+01 1.763489999999999895e+02 1.850525000000000091e+03
1.180000000000000077e-01 1.318394999999999984e-01 5.008674999999999500e+01 1.756574999999999989e+02 1.850414999999999964e+03
1.190000000000000085e-01 1.318225000000000091e-01 4.915834999999999866e+01 1.748994999999999891e+02 1.850255000000000109e+03
1.200000000000000094e-01 1.318030000000000035e-01 4.821529999999999916e+01 1.741034999999999968e+02 1.850075000000000045e+03
1.209999999999999964e-01 1.317810000000000092e-01 4.727070000000000505e+01 1.732930000000000064e+02 1.849865000000000009e+03
1.219999999999999973e-01 1.317574999999999996e-01 4.633615000000000350e+01 1.724894999999999925e+02 1.849639999999999873e+03
1.229999999999999982e-01 1.317329999999999890e-01 4.542150000000000176e+01 1.717100000000000080e+02 1.849405000000000200e+03
1.239999999999999991e-01 1.317085000000000061e-01 4.453444999999999965e+01 1.709660000000000082e+02 1.849170000000000073e+03
1.250000000000000000e-01 1.316845000000000099e-01 4.368064999999999998e+01 1.702665000000000077e+02 1.848934999999999945e+03
1.260000000000000009e-01 1.316610000000000003e-01 4.286334999999999695e+01 1.696134999999999877e+02 1.848715000000000146e+03
1.270000000000000018e-01 1.316390000000000060e-01 4.208370000000000033e+01 1.690065000000000168e+02 1.848490000000000009e+03
1.280000000000000027e-01 1.316174999999999984e-01 4.134074999999999989e+01 1.684399999999999977e+02 1.848284999999999854e+03
1.290000000000000036e-01 1.315970000000000195e-01 4.063170000000000215e+01 1.679044999999999845e+02 1.848085000000000036e+03
1.300000000000000044e-01 1.315769999999999995e-01 3.995210000000000150e+01 1.673890000000000100e+02 1.847889999999999873e+03
1.310000000000000053e-01 1.315580000000000083e-01 3.929609999999999559e+01 1.668789999999999907e+02 1.847700000000000045e+03
1.320000000000000062e-01 1.315390000000000170e-01 3.865709999999999980e+01 1.663600000000000136e+02 1.847509999999999991e+03
1.330000000000000071e-01 1.315195000000000114e-01 3.802779999999999916e+01 1.658154999999999859e+02 1.847319999999999936e+03
1.340000000000000080e-01 1.314994999999999914e-01 3.740064999999999884e+01 1.652295000000000016e+02 1.847125000000000000e+03
1.350000000000000089e-01 1.314780000000000115e-01 3.676825000000000188e+01 1.645880000000000223e+02 1.846914999999999964e+03
1.360000000000000098e-01 1.314545000000000019e-01 3.612380000000000280e+01 1.638779999999999859e+02 1.846690000000000055e+03
1.370000000000000107e-01 1.314289999999999903e-01 3.546119999999999806e+01 1.630885000000000105e+02 1.846444999999999936e+03
1.380000000000000115e-01 1.314015000000000044e-01 3.477550000000000097e+01 1.622110000000000127e+02 1.846174999999999955e+03
1.390000000000000124e-01 1.313709999999999878e-01 3.406309999999999860e+01 1.612410000000000139e+02 1.845880000000000109e+03
1.400000000000000133e-01 1.313374999999999959e-01 3.332175000000000153e+01 1.601770000000000209e+02 1.845555000000000064e+03
1.410000000000000142e-01 1.313010000000000010e-01 3.255085000000000406e+01 1.590215000000000032e+02 1.845210000000000036e+03
1.420000000000000151e-01 1.312615000000000032e-01 3.175144999999999840e+01 1.577785000000000082e+02 1.844829999999999927e+03
1.430000000000000160e-01 1.312190000000000023e-01 3.092614999999999981e+01 1.564574999999999818e+02 1.844424999999999955e+03
1.440000000000000169e-01 1.311739999999999851e-01 3.007914999999999850e+01 1.550709999999999980e+02 1.843990000000000009e+03
1.450000000000000178e-01 1.311265000000000069e-01 2.921584999999999965e+01 1.536324999999999932e+02 1.843535000000000082e+03
1.459999999999999909e-01 1.310769999999999991e-01 2.834295000000000186e+01 1.521585000000000036e+02 1.843059999999999945e+03
1.469999999999999918e-01 1.310264999999999902e-01 2.746805000000000163e+01 1.506674999999999898e+02 1.842575000000000045e+03
1.479999999999999927e-01 1.309750000000000081e-01 2.659935000000000116e+01 1.491784999999999854e+02 1.842075000000000045e+03
1.489999999999999936e-01 1.309230000000000116e-01 2.574540000000000006e+01 1.477110000000000127e+02 1.841579999999999927e+03
1.499999999999999944e-01 1.308715000000000017e-01 2.491469999999999985e+01 1.462835000000000036e+02 1.841085000000000036e+03
1.509999999999999953e-01 1.308205000000000062e-01 2.411550000000000082e+01 1.449134999999999991e+02 1.840595000000000027e+03
1.519999999999999962e-01 1.307709999999999984e-01 2.335565000000000069e+01 1.436175000000000068e+02 1.840125000000000000e+03
1.529999999999999971e-01 1.307240000000000069e-01 2.264204999999999757e+01 1.424105000000000132e+02 1.839674999999999955e+03
1.539999999999999980e-01 1.306799999999999906e-01 2.198029999999999973e+01 1.413025000000000091e+02 1.839240000000000009e+03
1.549999999999999989e-01 1.306384999999999907e-01 2.137519999999999953e+01 1.403025000000000091e+02 1.838845000000000027e+03
1.559999999999999998e-01 1.306005000000000082e-01 2.082995000000000019e+01 1.394164999999999850e+02 1.838474999999999909e+03
1.570000000000000007e-01 1.305655000000000010e-01 2.034639999999999915e+01 1.386465000000000032e+02 1.838139999999999873e+03
1.580000000000000016e-01 1.305350000000000121e-01 1.992504999999999882e+01 1.379914999999999736e+02 1.837840000000000146e+03
1.590000000000000024e-01 1.305080000000000129e-01 1.956490000000000151e+01 1.374495000000000005e+02 1.837579999999999927e+03
