# t [s], A [cm^2], U [cm/s], P [cPa], c [cm/s]
1.000000000000000021e-03 4.860389999999999988e-01 2.788449999999997875e-03 9.991679999999999495e+01 1.448985000000000127e+03
2.000000000000000042e-03 4.860324999999999784e-01 1.297269999999999890e-03 9.989869999999999095e+01 1.448980000000000018e+03
3.000000000000000062e-03 4.860734999999999917e-01 8.431859999999999356e-02 9.997495000000000687e+01 1.449000000000000000e+03
4.000000000000000083e-03 4.861154999999999782e-01 1.721960999999999908e-01 1.000780500000000046e+02 1.449025000000000091e+03
5.000000000000000104e-03 4.861070000000000113e-01 1.619044000000000039e-01 1.000600500000000039e+02 1.449029999999999973e+03
6.000000000000000125e-03 4.860645000000000104e-01 7.866100000000000869e-02 9.990729999999999222e+01 1.448994999999999891e+03
7.000000000000000146e-03 4.860204999999999664e-01 -1.322300000000004028e-02 9.968054999999999666e+01 1.448949999999999818e+03
8.000000000000000167e-03 4.859605000000000175e-01 -1.451129999999999920e-01 9.935710000000000264e+01 1.448880000000000109e+03
9.000000000000001055e-03 4.858565000000000245e-01 -3.753499999999999615e-01 9.886045000000000016e+01 1.448765000000000100e+03
1.000000000000000194e-02 4.857035000000000102e-01 -7.134050000000000669e-01 9.814744999999999209e+01 1.448599999999999909e+03
1.099999999999999936e-02 4.854954999999999687e-01 -1.160144999999999982e+00 9.718510000000000559e+01 1.448380000000000109e+03
1.200000000000000025e-02 4.852219999999999867e-01 -1.724504999999999733e+00 9.593219999999999459e+01 1.448079999999999927e+03
1.300000000000000114e-02 4.848830000000000640e-01 -2.386915000000000120e+00 9.437779999999999347e+01 1.447700000000000045e+03
1.400000000000000203e-02 4.845030000000000170e-01 -3.071959999999999802e+00 9.258414999999999395e+01 1.447250000000000000e+03
1.499999999999999944e-02 4.841239999999999988e-01 -3.665864999999999707e+00 9.068299999999999272e+01 1.446755000000000109e+03
1.600000000000000033e-02 4.837845000000000062e-01 -4.061277500000000096e+00 8.882894999999999186e+01 1.446250000000000000e+03
1.700000000000000122e-02 4.835049999999999626e-01 -4.194913499999999296e+00 8.714560000000000173e+01 1.445775000000000091e+03
1.800000000000000211e-02 4.832835000000000325e-01 -4.060878650000000256e+00 8.569225000000000136e+01 1.445329999999999927e+03
1.900000000000000300e-02 4.831019999999999759e-01 -3.702091999999999938e+00 8.445830000000000837e+01 1.444930000000000064e+03
2.000000000000000042e-02 4.829330000000000012e-01 -3.189488860000000425e+00 8.337895000000000323e+01 1.444559999999999945e+03
2.100000000000000130e-02 4.827515000000000001e-01 -2.597856500000000235e+00 8.236299999999999955e+01 1.444204999999999927e+03
2.200000000000000219e-02 4.825399999999999689e-01 -1.985110000000000152e+00 8.132380000000000564e+01 1.443845000000000027e+03
2.299999999999999961e-02 4.822919999999999430e-01 -1.380420000000000202e+00 8.020320000000000960e+01 1.443480000000000018e+03
2.400000000000000050e-02 4.820139999999999980e-01 -7.841599999999999682e-01 7.898269999999999413e+01 1.443085000000000036e+03
2.500000000000000139e-02 4.817184999999999939e-01 -1.785849999999999937e-01 7.767810000000000059e+01 1.442675000000000182e+03
2.600000000000000228e-02 4.814169999999999838e-01 4.563450000000002227e-01 7.632359999999999900e+01 1.442250000000000000e+03
2.700000000000000316e-02 4.811174999999999757e-01 1.128454999999999764e+00 7.495125000000000171e+01 1.441819999999999936e+03
2.800000000000000058e-02 4.808189999999999964e-01 1.824809999999999821e+00 7.357474999999999454e+01 1.441384999999999991e+03
2.900000000000000147e-02 4.805135000000000378e-01 2.510654999999999859e+00 7.218084999999999241e+01 1.440945000000000164e+03
3.000000000000000236e-02 4.801864999999999606e-01 3.134890000000000398e+00 7.072990000000000066e+01 1.440485000000000127e+03
3.099999999999999978e-02 4.798215000000000119e-01 3.639870000000000161e+00 6.916445000000000221e+01 1.440000000000000000e+03
3.200000000000000067e-02 4.794034999999999824e-01 3.973135000000000083e+00 6.742265000000000441e+01 1.439485000000000127e+03
3.300000000000000155e-02 4.789249999999999896e-01 4.098035000000000316e+00 6.545429999999998927e+01 1.438904999999999973e+03
3.400000000000000244e-02 4.783840000000000314e-01 4.001910000000000522e+00 6.323479999999999990e+01 1.438279999999999973e+03
3.500000000000000333e-02 4.777910000000000212e-01 3.699014999999999720e+00 6.077505000000000024e+01 1.437585000000000036e+03
3.600000000000000422e-02 4.771619999999999751e-01 3.228549999999999809e+00 5.812344999999999828e+01 1.436849999999999909e+03
3.700000000000000511e-02 4.765215000000000423e-01 2.647839999999999971e+00 5.536184999999999690e+01 1.436079999999999927e+03
3.799999999999999906e-02 4.758944999999999981e-01 2.023700000000000720e+00 5.259525000000000006e+01 1.435300000000000182e+03
3.899999999999999994e-02 4.753065000000000206e-01 1.423115000000000130e+00 4.993885000000000218e+01 1.434539999999999964e+03
4.000000000000000083e-02 4.747810000000000086e-01 9.058999999999999275e-01 4.750515000000000043e+01 1.433829999999999927e+03
4.100000000000000172e-02 4.743349999999999511e-01 5.201250000000001705e-01 4.539379999999999882e+01 1.433190000000000055e+03
4.200000000000000261e-02 4.739820000000000144e-01 3.000949999999997786e-01 4.368370000000000175e+01 1.432650000000000091e+03
4.300000000000000350e-02 4.737284999999999968e-01 2.669299999999998896e-01 4.243014999999999759e+01 1.432214999999999918e+03
4.400000000000000439e-02 4.735779999999999990e-01 4.308400000000001118e-01 4.166490000000000293e+01 1.431914999999999964e+03
4.499999999999999833e-02 4.735304999999999653e-01 7.941240000000000521e-01 4.139849999999999852e+01 1.431744999999999891e+03
4.599999999999999922e-02 4.735829999999999762e-01 1.354241999999999946e+00 4.162515000000000498e+01 1.431710000000000036e+03
4.700000000000000011e-02 4.737320000000000420e-01 2.106140499999999971e+00 4.232699999999999818e+01 1.431809999999999945e+03
4.800000000000000100e-02 4.739720000000000044e-01 3.043602499999999988e+00 4.347865000000000180e+01 1.432034999999999854e+03
4.900000000000000189e-02 4.742984999999999562e-01 4.159481500000000054e+00 4.505015000000000214e+01 1.432389999999999873e+03
5.000000000000000278e-02 4.747040000000000148e-01 5.445103499999999208e+00 4.700820000000000221e+01 1.432855000000000018e+03
5.100000000000000366e-02 4.751834999999999809e-01 6.889096499999999956e+00 4.931714999999999804e+01 1.433430000000000064e+03
5.200000000000000455e-02 4.757270000000000110e-01 8.476445000000000007e+00 5.193795000000000073e+01 1.434099999999999909e+03
5.300000000000000544e-02 4.763270000000000004e-01 1.018793499999999952e+01 5.482845000000000368e+01 1.434845000000000027e+03
5.399999999999999939e-02 4.769735000000000502e-01 1.199986499999999978e+01 5.794259999999999877e+01 1.435675000000000182e+03
5.500000000000000028e-02 4.776544999999999819e-01 1.388504000000000005e+01 6.123134999999999906e+01 1.436565000000000055e+03
5.600000000000000117e-02 4.783600000000000074e-01 1.581387499999999946e+01 6.464359999999999218e+01 1.437500000000000000e+03
5.700000000000000205e-02 4.790784999999999627e-01 1.775613999999999848e+01 6.812825000000000841e+01 1.438469999999999800e+03
5.800000000000000294e-02 4.797995000000000454e-01 1.968234999999999957e+01 7.163589999999999236e+01 1.439454999999999927e+03
5.900000000000000383e-02 4.805145000000000111e-01 2.156575000000000131e+01 7.512165000000000248e+01 1.440445000000000164e+03
6.000000000000000472e-02 4.812155000000000182e-01 2.338339999999999819e+01 7.854670000000000130e+01 1.441440000000000055e+03
6.099999999999999867e-02 4.818974999999999786e-01 2.511684999999999945e+01 8.187999999999999545e+01 1.442414999999999964e+03
6.199999999999999956e-02 4.825564999999999993e-01 2.675300000000000011e+01 8.509935000000000116e+01 1.443375000000000000e+03
6.300000000000000044e-02 4.831905000000000228e-01 2.828375000000000128e+01 8.819134999999999991e+01 1.444304999999999836e+03
6.400000000000000133e-02 4.838000000000000078e-01 2.970555000000000234e+01 9.115234999999999843e+01 1.445200000000000045e+03
6.500000000000000222e-02 4.843859999999999832e-01 3.101930000000000121e+01 9.398484999999999445e+01 1.446075000000000045e+03
6.600000000000000311e-02 4.849519999999999387e-01 3.222934999999999661e+01 9.669899999999999807e+01 1.446914999999999964e+03
6.700000000000000400e-02 4.854999999999999871e-01 3.334260000000000446e+01 9.931109999999999616e+01 1.447730000000000018e+03
6.800000000000000488e-02 4.860349999999999948e-01 3.436800000000000210e+01 1.018393499999999960e+02 1.448519999999999982e+03
6.900000000000000577e-02 4.865610000000000213e-01 3.531579999999999586e+01 1.043045500000000061e+02 1.449295000000000073e+03
7.000000000000000666e-02 4.870824999999999738e-01 3.619669999999999987e+01 1.067290000000000134e+02 1.450050000000000182e+03
7.100000000000000755e-02 4.876024999999999943e-01 3.702120000000000033e+01 1.091320000000000050e+02 1.450804999999999836e+03
7.200000000000000844e-02 4.881250000000000311e-01 3.779914999999999736e+01 1.115324999999999989e+02 1.451550000000000182e+03
7.300000000000000933e-02 4.886530000000000040e-01 3.853900000000000148e+01 1.139449999999999932e+02 1.452304999999999836e+03
7.399999999999999634e-02 4.891870000000000385e-01 3.924739999999999895e+01 1.163795000000000073e+02 1.453055000000000064e+03
7.499999999999999722e-02 4.897279999999999966e-01 3.992874999999999375e+01 1.188419999999999987e+02 1.453815000000000055e+03
7.599999999999999811e-02 4.902760000000000451e-01 4.058495000000000630e+01 1.213309999999999889e+02 1.454574999999999818e+03
7.699999999999999900e-02 4.908280000000000420e-01 4.121515000000000128e+01 1.238410000000000082e+02 1.455349999999999909e+03
7.799999999999999989e-02 4.913819999999999855e-01 4.181619999999999493e+01 1.263599999999999994e+02 1.456125000000000000e+03
7.900000000000000078e-02 4.919330000000000092e-01 4.238264999999999816e+01 1.288725000000000023e+02 1.456894999999999982e+03
8.000000000000000167e-02 4.924775000000000125e-01 4.290704999999999814e+01 1.313575000000000159e+02 1.457660000000000082e+03
8.100000000000000255e-02 4.930100000000000038e-01 4.338085000000000235e+01 1.337914999999999850e+02 1.458409999999999854e+03
8.200000000000000344e-02 4.935254999999999503e-01 4.379470000000000596e+01 1.361499999999999773e+02 1.459144999999999982e+03
8.300000000000000433e-02 4.940180000000000127e-01 4.413899999999999579e+01 1.384074999999999989e+02 1.459855000000000018e+03
8.400000000000000522e-02 4.944825000000000470e-01 4.440470000000000539e+01 1.405409999999999968e+02 1.460534999999999854e+03
8.500000000000000611e-02 4.949155000000000082e-01 4.458369999999999322e+01 1.425260000000000105e+02 1.461170000000000073e+03
8.600000000000000699e-02 4.953124999999999889e-01 4.466934999999999434e+01 1.443449999999999989e+02 1.461759999999999991e+03
8.700000000000000788e-02 4.956699999999999995e-01 4.465659999999999741e+01 1.459814999999999827e+02 1.462299999999999955e+03
8.800000000000000877e-02 4.959870000000000112e-01 4.454245000000000232e+01 1.474250000000000114e+02 1.462789999999999964e+03
8.899999999999999578e-02 4.962619999999999809e-01 4.432614999999999839e+01 1.486680000000000064e+02 1.463220000000000027e+03
8.999999999999999667e-02 4.964950000000000196e-01 4.400900000000000034e+01 1.497094999999999914e+02 1.463594999999999800e+03
9.099999999999999756e-02 4.966860000000000164e-01 4.359454999999999814e+01 1.505525000000000091e+02 1.463910000000000082e+03
9.199999999999999845e-02 4.968374999999999875e-01 4.308825000000000216e+01 1.512040000000000077e+02 1.464170000000000073e+03
9.299999999999999933e-02 4.969525000000000192e-01 4.249755000000000393e+01 1.516754999999999995e+02 1.464369999999999891e+03
9.400000000000000022e-02 4.970324999999999882e-01 4.183160000000000167e+01 1.519819999999999993e+02 1.464525000000000091e+03
9.500000000000000111e-02 4.970824999999999827e-01 4.110065000000000168e+01 1.521409999999999911e+02 1.464630000000000109e+03
9.600000000000000200e-02 4.971059999999999923e-01 4.031615000000000038e+01 1.521715000000000089e+02 1.464695000000000164e+03
9.700000000000000289e-02 4.971084999999999532e-01 3.949004999999999654e+01 1.520960000000000036e+02 1.464719999999999800e+03
9.800000000000000377e-02 4.970930000000000071e-01 3.863470000000000226e+01 1.519354999999999905e+02 1.464715000000000146e+03
9.900000000000000466e-02 4.970640000000000058e-01 3.776219999999999999e+01 1.517110000000000127e+02 1.464695000000000164e+03
1.000000000000000056e-01 4.970269999999999966e-01 3.688414999999999822e+01 1.514440000000000168e+02 1.464644999999999982e+03
1.010000000000000064e-01 4.969839999999999813e-01 3.601115000000000066e+01 1.511530000000000200e+02 1.464585000000000036e+03
1.020000000000000073e-01 4.969400000000000484e-01 3.515285000000000082e+01 1.508555000000000064e+02 1.464514999999999873e+03
1.030000000000000082e-01 4.968970000000000331e-01 3.431705000000000183e+01 1.505654999999999859e+02 1.464450000000000045e+03
1.040000000000000091e-01 4.968564999999999787e-01 3.350994999999999635e+01 1.502939999999999827e+02 1.464380000000000109e+03
1.050000000000000100e-01 4.968214999999999715e-01 3.273590000000000089e+01 1.500495000000000232e+02 1.464309999999999945e+03
1.059999999999999970e-01 4.967914999999999970e-01 3.199725000000000108e+01 1.498360000000000127e+02 1.464250000000000000e+03
1.069999999999999979e-01 4.967669999999999586e-01 3.129429999999999978e+01 1.496539999999999964e+02 1.464190000000000055e+03
1.079999999999999988e-01 4.967469999999999941e-01 3.062575000000000358e+01 1.495024999999999977e+02 1.464144999999999982e+03
1.089999999999999997e-01 4.967300000000000049e-01 2.998855000000000004e+01 1.493750000000000000e+02 1.464099999999999909e+03
1.100000000000000006e-01 4.967154999999999765e-01 2.937825000000000131e+01 1.492655000000000030e+02 1.464065000000000055e+03
1.110000000000000014e-01 4.967004999999999892e-01 2.878940000000000055e+01 1.491625000000000227e+02 1.464025000000000091e+03
1.120000000000000023e-01 4.966824999999999712e-01 2.821565000000000012e+01 1.490564999999999998e+02 1.463985000000000127e+03
1.130000000000000032e-01 4.966604999999999492e-01 2.765034999999999954e+01 1.489354999999999905e+02 1.463949999999999818e+03
1.140000000000000041e-01 4.966304999999999747e-01 2.708664999999999878e+01 1.487880000000000109e+02 1.463900000000000091e+03
1.150000000000000050e-01 4.965915000000000190e-01 2.651810000000000045e+01 1.486019999999999754e+02 1.463840000000000146e+03
1.160000000000000059e-01 4.965410000000000101e-01 2.593860000000000099e+01 1.483689999999999998e+02 1.463775000000000091e+03
1.170000000000000068e-01 4.964769999999999461e-01 2.534309999999999974e+01 1.480784999999999911e+02 1.463694999999999936e+03
1.180000000000000077e-01 4.963994999999999935e-01 2.472740000000000293e+01 1.477255000000000109e+02 1.463590000000000146e+03
1.190000000000000085e-01 4.963070000000000537e-01 2.408874999999999744e+01 1.473040000000000020e+02 1.463474999999999909e+03
1.200000000000000094e-01 4.961995000000000156e-01 2.342544999999999789e+01 1.468140000000000214e+02 1.463335000000000036e+03
1.209999999999999964e-01 4.960775000000000046e-01 2.273740000000000094e+01 1.462549999999999955e+02 1.463184999999999945e+03
1.219999999999999973e-01 4.959419999999999940e-01 2.202605000000000146e+01 1.456304999999999836e+02 1.463009999999999991e+03
1.229999999999999982e-01 4.957940000000000125e-01 2.129384999999999906e+01 1.449465000000000146e+02 1.462819999999999936e+03
1.239999999999999991e-01 4.956355000000000066e-01 2.054489999999999839e+01 1.442100000000000080e+02 1.462615000000000009e+03
1.250000000000000000e-01 4.954695000000000071e-01 1.978429999999999822e+01 1.434325000000000045e+02 1.462394999999999982e+03
1.260000000000000009e-01 4.952965000000000284e-01 1.901804999999999879e+01 1.426239999999999952e+02 1.462159999999999854e+03
1.270000000000000018e-01 4.951214999999999922e-01 1.825290000000000035e+01 1.417969999999999970e+02 1.461924999999999955e+03
1.280000000000000027e-01 4.949464999999999559e-01 1.749620000000000175e+01 1.409660000000000082e+02 1.461684999999999945e+03
1.290000000000000036e-01 4.947739999999999361e-01 1.675540000000000163e+01 1.401440000000000055e+02 1.461440000000000055e+03
1.300000000000000044e-01 4.946070000000000189e-01 1.603800000000000026e+01 1.393449999999999989e+02 1.461204999999999927e+03
1.310000000000000053e-01 4.944484999999999575e-01 1.535109999999999886e+01 1.385805000000000007e+02 1.460974999999999909e+03
1.320000000000000062e-01 4.943004999999999760e-01 1.470148999999999972e+01 1.378634999999999877e+02 1.460750000000000000e+03
1.330000000000000071e-01 4.941645000000000065e-01 1.409486500000000042e+01 1.372034999999999911e+02 1.460550000000000182e+03
1.340000000000000080e-01 4.940435000000000243e-01 1.353616500000000045e+01 1.366089999999999804e+02 1.460359999999999900e+03
1.350000000000000089e-01 4.939369999999999594e-01 1.302923000000000009e+01 1.360865000000000009e+02 1.460190000000000055e+03
1.360000000000000098e-01 4.938474999999999948e-01 1.257658499999999968e+01 1.356399999999999864e+02 1.460034999999999854e+03
1.370000000000000107e-01 4.937735000000000318e-01 1.217961000000000027e+01 1.352715000000000032e+02 1.459909999999999854e+03
1.380000000000000115e-01 4.937160000000000437e-01 1.183827499999999944e+01 1.349809999999999945e+02 1.459799999999999955e+03
1.390000000000000124e-01 4.936734999999999873e-01 1.155148499999999956e+01 1.347654999999999745e+02 1.459715000000000146e+03
1.400000000000000133e-01 4.936460000000000292e-01 1.131691499999999984e+01 1.346210000000000093e+02 1.459644999999999982e+03
1.410000000000000142e-01 4.936309999999999865e-01 1.113121999999999900e+01 1.345409999999999968e+02 1.459599999999999909e+03
1.420000000000000151e-01 4.936274999999999968e-01 1.099025500000000122e+01 1.345194999999999936e+02 1.459570000000000164e+03
1.430000000000000160e-01 4.936335000000000583e-01 1.088930000000000042e+01 1.345469999999999970e+02 1.459559999999999945e+03
1.440000000000000169e-01 4.936475000000000168e-01 1.082300500000000021e+01 1.346140000000000043e+02 1.459559999999999945e+03
1.450000000000000178e-01 4.936669999999999670e-01 1.078584999999999994e+01 1.347119999999999891e+02 1.459565000000000055e+03
1.459999999999999909e-01 4.936905000000000321e-01 1.077222500000000061e+01 1.348319999999999936e+02 1.459585000000000036e+03
1.469999999999999918e-01 4.937154999999999738e-01 1.077666999999999931e+01 1.349639999999999986e+02 1.459614999999999782e+03
1.479999999999999927e-01 4.937414999999999998e-01 1.079382000000000019e+01 1.351009999999999991e+02 1.459634999999999991e+03
1.489999999999999936e-01 4.937664999999999971e-01 1.081892500000000013e+01 1.352350000000000136e+02 1.459670000000000073e+03
1.499999999999999944e-01 4.937889999999999779e-01 1.084764999999999979e+01 1.353605000000000018e+02 1.459700000000000045e+03
1.509999999999999953e-01 4.938084999999999836e-01 1.087614500000000106e+01 1.354720000000000084e+02 1.459724999999999909e+03
1.519999999999999962e-01 4.938249999999999584e-01 1.090132999999999974e+01 1.355660000000000025e+02 1.459750000000000000e+03
1.529999999999999971e-01 4.938365000000000116e-01 1.092070999999999970e+01 1.356399999999999864e+02 1.459769999999999982e+03
1.539999999999999980e-01 4.938439999999999497e-01 1.093252000000000024e+01 1.356935000000000002e+02 1.459784999999999854e+03
1.549999999999999989e-01 4.938474999999999948e-01 1.093557999999999986e+01 1.357250000000000227e+02 1.459789999999999964e+03
1.559999999999999998e-01 4.938464999999999661e-01 1.092943999999999960e+01 1.357364999999999782e+02 1.459799999999999955e+03
1.570000000000000007e-01 4.938424999999999621e-01 1.091396999999999906e+01 1.357289999999999850e+02 1.459799999999999955e+03
1.580000000000000016e-01 4.938354999999999828e-01 1.088981000000000066e+01 1.357049999999999841e+02 1.459795000000000073e+03
1.590000000000000024e-01 4.938255000000000283e-01 1.085781499999999866e+01 1.356684999999999945e+02 1.459789999999999964e+03
