# t [s], A [cm^2], U [cm/s], P [cPa], c [cm/s]
1.000000000000000021e-03 1.312409999999999966e-01 2.521680000000000033e-01 8.628014999999999191e+01 1.888625000000000000e+03
2.000000000000000042e-03 1.312230000000000063e-01 1.519537499999999985e+00 8.368970000000000198e+01 1.888429999999999836e+03
3.000000000000000062e-03 1.311545000000000072e-01 3.073017000000000110e+00 8.031765000000000043e+01 1.887710000000000036e+03
4.000000000000000083e-03 1.310505000000000142e-01 4.797344000000000719e+00 7.656374999999999886e+01 1.886634999999999991e+03
5.000000000000000104e-03 1.309290000000000176e-01 6.651360000000000383e+00 7.302815000000001078e+01 1.885404999999999973e+03
6.000000000000000125e-03 1.308060000000000056e-01 8.549285000000001133e+00 7.002719999999999345e+01 1.884155000000000200e+03
7.000000000000000146e-03 1.306859999999999966e-01 1.035759000000000007e+01 6.752375000000000682e+01 1.882954999999999927e+03
8.000000000000000167e-03 1.305719999999999936e-01 1.197219499999999925e+01 6.532509999999999195e+01 1.881829999999999927e+03
9.000000000000001055e-03 1.304659999999999986e-01 1.337321999999999989e+01 6.334239999999999782e+01 1.880800000000000182e+03
1.000000000000000194e-02 1.303705000000000003e-01 1.458539999999999992e+01 6.161184999999999690e+01 1.879884999999999991e+03
1.099999999999999936e-02 1.302864999999999995e-01 1.562569999999999837e+01 6.016249999999999432e+01 1.879094999999999800e+03
1.200000000000000025e-02 1.302155000000000118e-01 1.649919999999999831e+01 5.897070000000000789e+01 1.878420000000000073e+03
1.300000000000000114e-02 1.301549999999999929e-01 1.720814999999999984e+01 5.798659999999999570e+01 1.877855000000000018e+03
1.400000000000000203e-02 1.301035000000000108e-01 1.775359999999999872e+01 5.714789999999999992e+01 1.877384999999999991e+03
1.499999999999999944e-02 1.300600000000000089e-01 1.814219999999999899e+01 5.639325000000000188e+01 1.876985000000000127e+03
1.600000000000000033e-02 1.300214999999999843e-01 1.840330000000000155e+01 5.570680000000000121e+01 1.876644999999999982e+03
1.700000000000000122e-02 1.299899999999999944e-01 1.859935000000000116e+01 5.516349999999999909e+01 1.876369999999999891e+03
1.800000000000000211e-02 1.299675000000000136e-01 1.881325000000000003e+01 5.492279999999999518e+01 1.876174999999999955e+03
1.900000000000000300e-02 1.299580000000000179e-01 1.911885000000000190e+01 5.516070000000000562e+01 1.876099999999999909e+03
2.000000000000000042e-02 1.299639999999999962e-01 1.955205000000000126e+01 5.598035000000000139e+01 1.876164999999999964e+03
2.100000000000000130e-02 1.299879999999999924e-01 2.009720000000000084e+01 5.735105000000000075e+01 1.876400000000000091e+03
2.200000000000000219e-02 1.300260000000000027e-01 2.069369999999999976e+01 5.910325000000000273e+01 1.876759999999999991e+03
2.299999999999999961e-02 1.300735000000000086e-01 2.125779999999999959e+01 6.097589999999999577e+01 1.877220000000000027e+03
2.400000000000000050e-02 1.301240000000000174e-01 2.170799999999999841e+01 6.269034999999999513e+01 1.877710000000000036e+03
2.500000000000000139e-02 1.301714999999999955e-01 2.198659999999999926e+01 6.402235000000000298e+01 1.878170000000000073e+03
2.600000000000000228e-02 1.302099999999999924e-01 2.207100000000000151e+01 6.485009999999999764e+01 1.878554999999999836e+03
2.700000000000000316e-02 1.302375000000000060e-01 2.197325000000000017e+01 6.516784999999998718e+01 1.878835000000000036e+03
2.800000000000000058e-02 1.302539999999999809e-01 2.173055000000000092e+01 6.506520000000000437e+01 1.879005000000000109e+03
2.900000000000000147e-02 1.302600000000000147e-01 2.138974999999999937e+01 6.468484999999999729e+01 1.879079999999999927e+03
3.000000000000000236e-02 1.302589999999999859e-01 2.099300000000000210e+01 6.417289999999999850e+01 1.879085000000000036e+03
3.099999999999999978e-02 1.302534999999999943e-01 2.056734999999999758e+01 6.363870000000000005e+01 1.879039999999999964e+03
3.200000000000000067e-02 1.302454999999999863e-01 2.012124999999999986e+01 6.313389999999999702e+01 1.878964999999999918e+03
3.300000000000000155e-02 1.302359999999999907e-01 1.964815000000000111e+01 6.265294999999999703e+01 1.878880000000000109e+03
3.400000000000000244e-02 1.302240000000000064e-01 1.913369999999999749e+01 6.215155000000000030e+01 1.878769999999999982e+03
3.500000000000000333e-02 1.302099999999999924e-01 1.856524999999999892e+01 6.157465000000000543e+01 1.878639999999999873e+03
3.600000000000000422e-02 1.301930000000000032e-01 1.794024999999999892e+01 6.088445000000000107e+01 1.878480000000000018e+03
3.700000000000000511e-02 1.301720000000000099e-01 1.727074999999999960e+01 6.008145000000000380e+01 1.878284999999999854e+03
3.799999999999999906e-02 1.301479999999999859e-01 1.658469999999999800e+01 5.921264999999999645e+01 1.878065000000000055e+03
3.899999999999999994e-02 1.301229999999999887e-01 1.592120000000000068e+01 5.836589999999999634e+01 1.877829999999999927e+03
4.000000000000000083e-02 1.300989999999999924e-01 1.532424999999999926e+01 5.765255000000000507e+01 1.877599999999999909e+03
4.100000000000000172e-02 1.300790000000000002e-01 1.483384999999999998e+01 5.718260000000000076e+01 1.877409999999999854e+03
4.200000000000000261e-02 1.300659999999999872e-01 1.447794999999999987e+01 5.704039999999999822e+01 1.877280000000000200e+03
4.300000000000000350e-02 1.300614999999999966e-01 1.426719999999999899e+01 5.726494999999999891e+01 1.877235000000000127e+03
4.400000000000000439e-02 1.300669999999999882e-01 1.419299999999999962e+01 5.784090000000000487e+01 1.877275000000000091e+03
4.499999999999999833e-02 1.300814999999999888e-01 1.422949999999999982e+01 5.870035000000000025e+01 1.877404999999999973e+03
4.599999999999999922e-02 1.301034999999999831e-01 1.433745000000000047e+01 5.973400000000000176e+01 1.877605000000000018e+03
4.700000000000000011e-02 1.301305000000000101e-01 1.447084999999999866e+01 6.080955000000000155e+01 1.877855000000000018e+03
4.800000000000000100e-02 1.301589999999999969e-01 1.458309999999999995e+01 6.179129999999999967e+01 1.878119999999999891e+03
4.900000000000000189e-02 1.301855000000000095e-01 1.463255000000000017e+01 6.255835000000000434e+01 1.878369999999999891e+03
5.000000000000000278e-02 1.302065000000000028e-01 1.458654999999999902e+01 6.301789999999999736e+01 1.878575000000000045e+03
5.100000000000000366e-02 1.302194999999999880e-01 1.442324999999999946e+01 6.311270000000000380e+01 1.878704999999999927e+03
5.200000000000000455e-02 1.302240000000000064e-01 1.413180000000000014e+01 6.282144999999999868e+01 1.878744999999999891e+03
5.300000000000000544e-02 1.302174999999999860e-01 1.371129999999999960e+01 6.215520000000000067e+01 1.878695000000000164e+03
5.399999999999999939e-02 1.302010000000000112e-01 1.316864999999999952e+01 6.114945000000000164e+01 1.878535000000000082e+03
5.500000000000000028e-02 1.301740000000000119e-01 1.251634999999999920e+01 5.985590000000000543e+01 1.878289999999999964e+03
5.600000000000000117e-02 1.301384999999999903e-01 1.177053000000000083e+01 5.833409999999999940e+01 1.877949999999999818e+03
5.700000000000000205e-02 1.300949999999999884e-01 1.094945000000000057e+01 5.664565000000000339e+01 1.877545000000000073e+03
5.800000000000000294e-02 1.300455000000000083e-01 1.007273999999999958e+01 5.485034999999999883e+01 1.877079999999999927e+03
5.900000000000000383e-02 1.299925000000000108e-01 9.161165000000000447e+00 5.300480000000000302e+01 1.876570000000000164e+03
6.000000000000000472e-02 1.299359999999999959e-01 8.236554999999999183e+00 5.116310000000000002e+01 1.876034999999999854e+03
6.099999999999999867e-02 1.298785000000000078e-01 7.322269999999999612e+00 4.937794999999999845e+01 1.875490000000000009e+03
6.199999999999999956e-02 1.298219999999999930e-01 6.443159999999999776e+00 4.770255000000000223e+01 1.874950000000000045e+03
6.300000000000000044e-02 1.297675000000000078e-01 5.625539999999999985e+00 4.619155000000000655e+01 1.874429999999999836e+03
6.400000000000000133e-02 1.297175000000000133e-01 4.896805000000000518e+00 4.490115000000000123e+01 1.873954999999999927e+03
6.500000000000000222e-02 1.296740000000000115e-01 4.284634999999999749e+00 4.388850000000000051e+01 1.873529999999999973e+03
6.600000000000000311e-02 1.296380000000000032e-01 3.815984999999999516e+00 4.320940000000000225e+01 1.873184999999999945e+03
6.700000000000000400e-02 1.296114999999999906e-01 3.515844999999999665e+00 4.291575000000000273e+01 1.872924999999999955e+03
6.800000000000000488e-02 1.295969999999999900e-01 3.405985000000000262e+00 4.305275000000000318e+01 1.872779999999999973e+03
6.900000000000000577e-02 1.295955000000000024e-01 3.503795000000000215e+00 4.365569999999999595e+01 1.872750000000000000e+03
7.000000000000000666e-02 1.296075000000000144e-01 3.821299999999999919e+00 4.474755000000000393e+01 1.872855000000000018e+03
7.100000000000000755e-02 1.296355000000000146e-01 4.364504999999999413e+00 4.633735000000000070e+01 1.873105000000000018e+03
7.200000000000000844e-02 1.296779999999999877e-01 5.133034999999999570e+00 4.841915000000000191e+01 1.873505000000000109e+03
7.300000000000000933e-02 1.297365000000000046e-01 6.120179999999999509e+00 5.097240000000000038e+01 1.874045000000000073e+03
7.399999999999999634e-02 1.298104999999999953e-01 7.313270000000000159e+00 5.396300000000000097e+01 1.874730000000000018e+03
7.499999999999999722e-02 1.298985000000000001e-01 8.694364999999999455e+00 5.734505000000000052e+01 1.875559999999999945e+03
7.599999999999999811e-02 1.299990000000000034e-01 1.024112000000000045e+01 6.106360000000000099e+01 1.876505000000000109e+03
7.699999999999999900e-02 1.301120000000000054e-01 1.192791500000000049e+01 6.505750000000000455e+01 1.877574999999999818e+03
7.799999999999999989e-02 1.302345000000000030e-01 1.372688999999999915e+01 6.926224999999999454e+01 1.878735000000000127e+03
7.900000000000000078e-02 1.303650000000000087e-01 1.560940000000000083e+01 7.361359999999999104e+01 1.879974999999999909e+03
8.000000000000000167e-02 1.305014999999999925e-01 1.754690000000000083e+01 7.804999999999999716e+01 1.881284999999999854e+03
8.100000000000000255e-02 1.306434999999999957e-01 1.951239999999999952e+01 8.251534999999999798e+01 1.882634999999999991e+03
8.200000000000000344e-02 1.307865000000000000e-01 2.148085000000000022e+01 8.696094999999999686e+01 1.884009999999999991e+03
8.300000000000000433e-02 1.309314999999999785e-01 2.343014999999999759e+01 9.134675000000000011e+01 1.885409999999999854e+03
8.400000000000000522e-02 1.310759999999999981e-01 2.534155000000000157e+01 9.564209999999999923e+01 1.886800000000000182e+03
8.500000000000000611e-02 1.312194999999999889e-01 2.720009999999999906e+01 9.982630000000000337e+01 1.888184999999999945e+03
8.600000000000000699e-02 1.313600000000000045e-01 2.899409999999999954e+01 1.038872499999999945e+02 1.889550000000000182e+03
8.700000000000000788e-02 1.314980000000000038e-01 3.071539999999999893e+01 1.078199999999999932e+02 1.890894999999999982e+03
8.800000000000000877e-02 1.316330000000000000e-01 3.235869999999999891e+01 1.116260000000000048e+02 1.892210000000000036e+03
8.899999999999999578e-02 1.317649999999999932e-01 3.392119999999999891e+01 1.153125000000000000e+02 1.893494999999999891e+03
8.999999999999999667e-02 1.318930000000000102e-01 3.540200000000000102e+01 1.188875000000000028e+02 1.894755000000000109e+03
9.099999999999999756e-02 1.320184999999999831e-01 3.680154999999999887e+01 1.223615000000000066e+02 1.895980000000000018e+03
9.199999999999999845e-02 1.321410000000000085e-01 3.812109999999999843e+01 1.257429999999999950e+02 1.897184999999999945e+03
9.299999999999999933e-02 1.322605000000000031e-01 3.936220000000000141e+01 1.290395000000000039e+02 1.898355000000000018e+03
9.400000000000000022e-02 1.323765000000000081e-01 4.052644999999999698e+01 1.322565000000000168e+02 1.899505000000000109e+03
9.500000000000000111e-02 1.324905000000000110e-01 4.161495000000000033e+01 1.353954999999999984e+02 1.900630000000000109e+03
9.600000000000000200e-02 1.326025000000000120e-01 4.262839999999999918e+01 1.384555000000000007e+02 1.901724999999999909e+03
9.700000000000000289e-02 1.327109999999999956e-01 4.356685000000000230e+01 1.414329999999999927e+02 1.902800000000000182e+03
9.800000000000000377e-02 1.328169999999999906e-01 4.442964999999999520e+01 1.443195000000000050e+02 1.903849999999999909e+03
9.900000000000000466e-02 1.329200000000000104e-01 4.521540000000000248e+01 1.471075000000000159e+02 1.904869999999999891e+03
1.000000000000000056e-01 1.330195000000000127e-01 4.592230000000000700e+01 1.497845000000000084e+02 1.905855000000000018e+03
1.010000000000000064e-01 1.331160000000000121e-01 4.654795000000000016e+01 1.523389999999999986e+02 1.906809999999999945e+03
1.020000000000000073e-01 1.332075000000000065e-01 4.708964999999999890e+01 1.547570000000000050e+02 1.907730000000000018e+03
1.030000000000000082e-01 1.332955000000000112e-01 4.754449999999999932e+01 1.570264999999999986e+02 1.908599999999999909e+03
1.040000000000000091e-01 1.333779999999999966e-01 4.790959999999999752e+01 1.591345000000000027e+02 1.909424999999999955e+03
1.050000000000000100e-01 1.334559999999999913e-01 4.818229999999999791e+01 1.610679999999999836e+02 1.910204999999999927e+03
1.059999999999999970e-01 1.335280000000000078e-01 4.836010000000000275e+01 1.628174999999999955e+02 1.910924999999999955e+03
1.069999999999999979e-01 1.335945000000000049e-01 4.844115000000000038e+01 1.643729999999999905e+02 1.911585000000000036e+03
1.079999999999999988e-01 1.336539999999999950e-01 4.842445000000000022e+01 1.657284999999999968e+02 1.912179999999999836e+03
1.089999999999999997e-01 1.337069999999999925e-01 4.830979999999999563e+01 1.668790000000000191e+02 1.912720000000000027e+03
1.100000000000000006e-01 1.337539999999999840e-01 4.809805000000000064e+01 1.678240000000000123e+02 1.913190000000000055e+03
1.110000000000000014e-01 1.337935000000000096e-01 4.779120000000000346e+01 1.685645000000000095e+02 1.913595000000000027e+03
1.120000000000000023e-01 1.338265000000000149e-01 4.739269999999999783e+01 1.691039999999999850e+02 1.913929999999999836e+03
1.130000000000000032e-01 1.338529999999999998e-01 4.690720000000000312e+01 1.694530000000000030e+02 1.914200000000000045e+03
1.140000000000000041e-01 1.338730000000000198e-01 4.634040000000000248e+01 1.696200000000000045e+02 1.914404999999999973e+03
1.150000000000000050e-01 1.338865000000000194e-01 4.569944999999999879e+01 1.696200000000000045e+02 1.914549999999999955e+03
1.160000000000000059e-01 1.338944999999999996e-01 4.499224999999999852e+01 1.694689999999999941e+02 1.914639999999999873e+03
1.170000000000000068e-01 1.338969999999999883e-01 4.422749999999999915e+01 1.691839999999999975e+02 1.914664999999999964e+03
1.180000000000000077e-01 1.338944999999999996e-01 4.341454999999999842e+01 1.687845000000000084e+02 1.914654999999999973e+03
1.190000000000000085e-01 1.338880000000000070e-01 4.256279999999999575e+01 1.682889999999999873e+02 1.914595000000000027e+03
1.200000000000000094e-01 1.338779999999999970e-01 4.168179999999999552e+01 1.677169999999999845e+02 1.914500000000000000e+03
1.209999999999999964e-01 1.338644999999999974e-01 4.078055000000000518e+01 1.670860000000000127e+02 1.914375000000000000e+03
1.219999999999999973e-01 1.338484999999999814e-01 3.986759999999999593e+01 1.664130000000000109e+02 1.914220000000000027e+03
1.229999999999999982e-01 1.338305000000000189e-01 3.895064999999999600e+01 1.657115000000000009e+02 1.914045000000000073e+03
1.239999999999999991e-01 1.338110000000000133e-01 3.803640000000000043e+01 1.649939999999999998e+02 1.913849999999999909e+03
1.250000000000000000e-01 1.337905000000000066e-01 3.713049999999999784e+01 1.642694999999999936e+02 1.913644999999999982e+03
1.260000000000000009e-01 1.337685000000000124e-01 3.623729999999999762e+01 1.635444999999999993e+02 1.913429999999999836e+03
1.270000000000000018e-01 1.337464999999999904e-01 3.535985000000000156e+01 1.628240000000000123e+02 1.913214999999999918e+03
1.280000000000000027e-01 1.337240000000000095e-01 3.450019999999999953e+01 1.621080000000000041e+02 1.912990000000000009e+03
1.290000000000000036e-01 1.337010000000000143e-01 3.365899999999999892e+01 1.613965000000000032e+02 1.912759999999999991e+03
1.300000000000000044e-01 1.336780000000000190e-01 3.283590000000000231e+01 1.606845000000000141e+02 1.912534999999999854e+03
1.310000000000000053e-01 1.336549999999999960e-01 3.202960000000000207e+01 1.599689999999999941e+02 1.912304999999999836e+03
1.320000000000000062e-01 1.336315000000000142e-01 3.123799999999999955e+01 1.592425000000000068e+02 1.912065000000000055e+03
1.330000000000000071e-01 1.336069999999999758e-01 3.045834999999999937e+01 1.584985000000000070e+02 1.911829999999999927e+03
1.340000000000000080e-01 1.335819999999999785e-01 2.968740000000000379e+01 1.577284999999999968e+02 1.911574999999999818e+03
1.350000000000000089e-01 1.335560000000000080e-01 2.892164999999999964e+01 1.569250000000000114e+02 1.911320000000000164e+03
1.360000000000000098e-01 1.335290000000000088e-01 2.815760000000000218e+01 1.560794999999999959e+02 1.911050000000000182e+03
1.370000000000000107e-01 1.335009999999999808e-01 2.739159999999999684e+01 1.551854999999999905e+02 1.910769999999999982e+03
1.380000000000000115e-01 1.334710000000000063e-01 2.662040000000000006e+01 1.542365000000000066e+02 1.910469999999999800e+03
1.390000000000000124e-01 1.334394999999999887e-01 2.584100000000000108e+01 1.532270000000000039e+02 1.910159999999999854e+03
1.400000000000000133e-01 1.334059999999999968e-01 2.505105000000000004e+01 1.521539999999999964e+02 1.909829999999999927e+03
1.410000000000000142e-01 1.333699999999999886e-01 2.424869999999999948e+01 1.510144999999999982e+02 1.909480000000000018e+03
1.420000000000000151e-01 1.333325000000000204e-01 2.343285000000000196e+01 1.498079999999999927e+02 1.909105000000000018e+03
1.430000000000000160e-01 1.332929999999999948e-01 2.260325000000000273e+01 1.485364999999999895e+02 1.908715000000000146e+03
1.440000000000000169e-01 1.332510000000000083e-01 2.176035000000000252e+01 1.472019999999999982e+02 1.908299999999999955e+03
1.450000000000000178e-01 1.332069999999999921e-01 2.090555000000000163e+01 1.458110000000000070e+02 1.907869999999999891e+03
1.459999999999999909e-01 1.331610000000000016e-01 2.004110000000000014e+01 1.443689999999999998e+02 1.907420000000000073e+03
1.469999999999999918e-01 1.331134999999999957e-01 1.916995000000000005e+01 1.428845000000000027e+02 1.906950000000000045e+03
1.479999999999999927e-01 1.330645000000000022e-01 1.829584999999999795e+01 1.413689999999999998e+02 1.906470000000000027e+03
1.489999999999999936e-01 1.330145000000000077e-01 1.742309999999999803e+01 1.398319999999999936e+02 1.905974999999999909e+03
1.499999999999999944e-01 1.329629999999999979e-01 1.655655000000000143e+01 1.382855000000000132e+02 1.905470000000000027e+03
1.509999999999999953e-01 1.329115000000000157e-01 1.570135000000000147e+01 1.367429999999999950e+02 1.904965000000000146e+03
1.519999999999999962e-01 1.328600000000000059e-01 1.486270000000000024e+01 1.352160000000000082e+02 1.904454999999999927e+03
1.529999999999999971e-01 1.328084999999999960e-01 1.404600000000000115e+01 1.337175000000000011e+02 1.903950000000000045e+03
1.539999999999999980e-01 1.327575000000000005e-01 1.325619999999999976e+01 1.322590000000000146e+02 1.903450000000000045e+03
1.549999999999999989e-01 1.327079999999999926e-01 1.249794999999999945e+01 1.308505000000000109e+02 1.902954999999999927e+03
1.559999999999999998e-01 1.326594999999999858e-01 1.177555500000000066e+01 1.295014999999999930e+02 1.902480000000000018e+03
1.570000000000000007e-01 1.326124999999999943e-01 1.109248000000000012e+01 1.282189999999999941e+02 1.902019999999999982e+03
1.580000000000000016e-01 1.325675000000000048e-01 1.045143999999999984e+01 1.270084999999999980e+02 1.901579999999999927e+03
1.590000000000000024e-01 1.325250000000000039e-01 9.854354999999999976e+00 1.258750000000000000e+02 1.901150000000000091e+03
