# t [s], A [cm^2], U [cm/s], P [cPa], c [cm/s]
1.000000000000000021e-03 1.333509999999999973e-01 4.391180000000000083e-01 1.041975000000000051e+02 1.956235000000000127e+03
2.000000000000000042e-03 1.333130000000000148e-01 2.228321999999999914e+00 1.004759999999999991e+02 1.955809999999999945e+03
3.000000000000000062e-03 1.332030000000000158e-01 4.383672499999999417e+00 9.554335000000000377e+01 1.954650000000000091e+03
4.000000000000000083e-03 1.330510000000000026e-01 6.774709499999999274e+00 9.032499999999998863e+01 1.953074999999999818e+03
5.000000000000000104e-03 1.328854999999999897e-01 9.317494999999999195e+00 8.572800000000000864e+01 1.951369999999999891e+03
6.000000000000000125e-03 1.327244999999999953e-01 1.182170500000000146e+01 8.199325000000000330e+01 1.949720000000000027e+03
7.000000000000000146e-03 1.325725000000000098e-01 1.407254000000000005e+01 7.883420000000000982e+01 1.948190000000000055e+03
8.000000000000000167e-03 1.324315000000000075e-01 1.599065000000000047e+01 7.599909999999999854e+01 1.946804999999999836e+03
9.000000000000001055e-03 1.323064999999999936e-01 1.761609999999999943e+01 7.352400000000000091e+01 1.945585000000000036e+03
1.000000000000000194e-02 1.321990000000000109e-01 1.898595000000000255e+01 7.147704999999999131e+01 1.944545000000000073e+03
1.099999999999999936e-02 1.321084999999999898e-01 2.011480000000000246e+01 6.982589999999999009e+01 1.943684999999999945e+03
1.200000000000000025e-02 1.320344999999999991e-01 2.101939999999999742e+01 6.850880000000000791e+01 1.942984999999999900e+03
1.300000000000000114e-02 1.319740000000000080e-01 2.171184999999999832e+01 6.745029999999999859e+01 1.942425000000000182e+03
1.400000000000000203e-02 1.319249999999999867e-01 2.220349999999999824e+01 6.655485000000000184e+01 1.941974999999999909e+03
1.499999999999999944e-02 1.318840000000000012e-01 2.254204999999999970e+01 6.579465000000000430e+01 1.941610000000000127e+03
1.600000000000000033e-02 1.318535000000000124e-01 2.283610000000000184e+01 6.531499999999999773e+01 1.941340000000000146e+03
1.700000000000000122e-02 1.318374999999999964e-01 2.322500000000000142e+01 6.541055000000000064e+01 1.941210000000000036e+03
1.800000000000000211e-02 1.318445000000000034e-01 2.381094999999999828e+01 6.635394999999999754e+01 1.941284999999999854e+03
1.900000000000000300e-02 1.318755000000000066e-01 2.460265000000000057e+01 6.820250000000000057e+01 1.941590000000000146e+03
2.000000000000000042e-02 1.319299999999999917e-01 2.550515000000000043e+01 7.071154999999998836e+01 1.942110000000000127e+03
2.100000000000000130e-02 1.319974999999999898e-01 2.635719999999999885e+01 7.339709999999999468e+01 1.942769999999999982e+03
2.200000000000000219e-02 1.320665000000000033e-01 2.699214999999999876e+01 7.570255000000000223e+01 1.943445000000000164e+03
2.299999999999999961e-02 1.321245000000000058e-01 2.729485000000000028e+01 7.718489999999999895e+01 1.944029999999999973e+03
2.400000000000000050e-02 1.321620000000000017e-01 2.723385000000000034e+01 7.764635000000001241e+01 1.944420000000000073e+03
2.500000000000000139e-02 1.321775000000000033e-01 2.686124999999999829e+01 7.716859999999999786e+01 1.944594999999999800e+03
2.600000000000000228e-02 1.321720000000000117e-01 2.628390000000000271e+01 7.604904999999999404e+01 1.944570000000000164e+03
2.700000000000000316e-02 1.321529999999999927e-01 2.562160000000000082e+01 7.467349999999999000e+01 1.944400000000000091e+03
2.800000000000000058e-02 1.321279999999999955e-01 2.496734999999999971e+01 7.337979999999998881e+01 1.944159999999999854e+03
2.900000000000000147e-02 1.321025000000000116e-01 2.436540000000000106e+01 7.236249999999999716e+01 1.943920000000000073e+03
3.000000000000000236e-02 1.320804999999999896e-01 2.380940000000000012e+01 7.164294999999999902e+01 1.943704999999999927e+03
3.099999999999999978e-02 1.320620000000000127e-01 2.325874999999999915e+01 7.110314999999999941e+01 1.943525000000000091e+03
3.200000000000000067e-02 1.320445000000000091e-01 2.266310000000000002e+01 7.055944999999999823e+01 1.943355000000000018e+03
3.300000000000000155e-02 1.320244999999999891e-01 2.198765000000000214e+01 6.984789999999999566e+01 1.943170000000000073e+03
3.400000000000000244e-02 1.319990000000000052e-01 2.123130000000000095e+01 6.889294999999999902e+01 1.942930000000000064e+03
3.500000000000000333e-02 1.319690000000000030e-01 2.043220000000000169e+01 6.774230000000000018e+01 1.942644999999999982e+03
3.600000000000000422e-02 1.319354999999999833e-01 1.966165000000000163e+01 6.655975000000000819e+01 1.942325000000000045e+03
3.700000000000000511e-02 1.319040000000000212e-01 1.900625000000000142e+01 6.558084999999999809e+01 1.942014999999999873e+03
3.799999999999999906e-02 1.318794999999999829e-01 1.854554999999999865e+01 6.504540000000000077e+01 1.941769999999999982e+03
3.899999999999999994e-02 1.318674999999999986e-01 1.833109999999999928e+01 6.512870000000000914e+01 1.941650000000000091e+03
4.000000000000000083e-02 1.318715000000000026e-01 1.837250000000000227e+01 6.589064999999999372e+01 1.941679999999999836e+03
4.100000000000000172e-02 1.318930000000000102e-01 1.863449999999999918e+01 6.725589999999999691e+01 1.941869999999999891e+03
4.200000000000000261e-02 1.319295000000000051e-01 1.904325000000000045e+01 6.902735000000001264e+01 1.942204999999999927e+03
4.300000000000000350e-02 1.319750000000000090e-01 1.950070000000000192e+01 7.092545000000001210e+01 1.942635000000000218e+03
4.400000000000000439e-02 1.320224999999999871e-01 1.990135000000000076e+01 7.264144999999999186e+01 1.943090000000000146e+03
4.499999999999999833e-02 1.320659999999999890e-01 2.014874999999999972e+01 7.389074999999999704e+01 1.943509999999999991e+03
4.599999999999999922e-02 1.320969999999999922e-01 2.016779999999999973e+01 7.445515000000000327e+01 1.943809999999999945e+03
4.700000000000000011e-02 1.321100000000000052e-01 1.991185000000000116e+01 7.420750000000001023e+01 1.943945000000000164e+03
4.800000000000000100e-02 1.321019999999999972e-01 1.936415000000000219e+01 7.311769999999999925e+01 1.943880000000000109e+03
4.900000000000000189e-02 1.320725000000000093e-01 1.853464999999999918e+01 7.124119999999999209e+01 1.943610000000000127e+03
5.000000000000000278e-02 1.320214999999999861e-01 1.745420000000000016e+01 6.869774999999999920e+01 1.943119999999999891e+03
5.100000000000000366e-02 1.319514999999999993e-01 1.616750000000000043e+01 6.564454999999999529e+01 1.942454999999999927e+03
5.200000000000000455e-02 1.318660000000000110e-01 1.472625000000000028e+01 6.225169999999999959e+01 1.941644999999999982e+03
5.300000000000000544e-02 1.317699999999999982e-01 1.318435500000000005e+01 5.868355000000000388e+01 1.940720000000000027e+03
5.399999999999999939e-02 1.316674999999999929e-01 1.159487500000000004e+01 5.508805000000000263e+01 1.939730000000000018e+03
5.500000000000000028e-02 1.315614999999999979e-01 1.000887499999999974e+01 5.159290000000000020e+01 1.938714999999999918e+03
5.600000000000000117e-02 1.314569999999999905e-01 8.475220000000000198e+00 4.830785000000000196e+01 1.937700000000000045e+03
5.700000000000000205e-02 1.313570000000000015e-01 7.041120000000000267e+00 4.532945000000000135e+01 1.936730000000000018e+03
5.800000000000000294e-02 1.312639999999999918e-01 5.752360000000000362e+00 4.274595000000000056e+01 1.935829999999999927e+03
5.900000000000000383e-02 1.311824999999999797e-01 4.653044999999999654e+00 4.064025000000000176e+01 1.935025000000000091e+03
6.000000000000000472e-02 1.311134999999999939e-01 3.784569999999999990e+00 3.909005000000000507e+01 1.934355000000000018e+03
6.099999999999999867e-02 1.310604999999999964e-01 3.183889999999999887e+00 3.816594999999999516e+01 1.933829999999999927e+03
6.199999999999999956e-02 1.310255000000000170e-01 2.881334999999999980e+00 3.792600000000000193e+01 1.933480000000000018e+03
6.300000000000000044e-02 1.310109999999999886e-01 2.898519999999999985e+00 3.841080000000000183e+01 1.933319999999999936e+03
6.400000000000000133e-02 1.310175000000000090e-01 3.246430000000000149e+00 3.963769999999999527e+01 1.933365000000000009e+03
6.500000000000000222e-02 1.310465000000000102e-01 3.924395000000000078e+00 4.159785000000000110e+01 1.933619999999999891e+03
6.600000000000000311e-02 1.310969999999999913e-01 4.919800000000000395e+00 4.425464999999999804e+01 1.934090000000000146e+03
6.700000000000000400e-02 1.311694999999999944e-01 6.208795000000000286e+00 4.754514999999999958e+01 1.934764999999999873e+03
6.800000000000000488e-02 1.312610000000000166e-01 7.757785000000000153e+00 5.138389999999999702e+01 1.935630000000000109e+03
6.900000000000000577e-02 1.313699999999999868e-01 9.525555000000000661e+00 5.566890000000000072e+01 1.936670000000000073e+03
7.000000000000000666e-02 1.314929999999999988e-01 1.146559500000000043e+01 6.028759999999999764e+01 1.937845000000000027e+03
7.100000000000000755e-02 1.316284999999999816e-01 1.352860500000000066e+01 6.512420000000000186e+01 1.939139999999999873e+03
7.200000000000000844e-02 1.317714999999999859e-01 1.566499999999999915e+01 7.006544999999999845e+01 1.940519999999999982e+03
7.300000000000000933e-02 1.319194999999999951e-01 1.782699999999999818e+01 7.500655000000000427e+01 1.941954999999999927e+03
7.399999999999999634e-02 1.320695000000000063e-01 1.997064999999999912e+01 7.985535000000000139e+01 1.943409999999999854e+03
7.499999999999999722e-02 1.322190000000000032e-01 2.205744999999999933e+01 8.453600000000000136e+01 1.944865000000000009e+03
7.599999999999999811e-02 1.323650000000000104e-01 2.405584999999999951e+01 8.899125000000000796e+01 1.946295000000000073e+03
7.699999999999999900e-02 1.325059999999999849e-01 2.594200000000000017e+01 9.318434999999999491e+01 1.947675000000000182e+03
7.799999999999999989e-02 1.326410000000000089e-01 2.770040000000000191e+01 9.709835000000001060e+01 1.949005000000000109e+03
7.900000000000000078e-02 1.327685000000000115e-01 2.932410000000000139e+01 1.007368000000000023e+02 1.950264999999999873e+03
8.000000000000000167e-02 1.328889999999999794e-01 3.081385000000000218e+01 1.041206999999999994e+02 1.951465000000000146e+03
8.100000000000000255e-02 1.330030000000000101e-01 3.217770000000000152e+01 1.072860000000000014e+02 1.952590000000000146e+03
8.200000000000000344e-02 1.331110000000000071e-01 3.342920000000000158e+01 1.102785000000000082e+02 1.953659999999999854e+03
8.300000000000000433e-02 1.332134999999999847e-01 3.458610000000000184e+01 1.131509999999999962e+02 1.954684999999999945e+03
8.400000000000000522e-02 1.333125000000000004e-01 3.566830000000000211e+01 1.159579999999999984e+02 1.955670000000000073e+03
8.500000000000000611e-02 1.334095000000000142e-01 3.669604999999999961e+01 1.187510000000000048e+02 1.956644999999999982e+03
8.600000000000000699e-02 1.335060000000000136e-01 3.768840000000000146e+01 1.215720000000000027e+02 1.957599999999999909e+03
8.700000000000000788e-02 1.336025000000000129e-01 3.866150000000000375e+01 1.244555000000000007e+02 1.958559999999999945e+03
8.800000000000000877e-02 1.336999999999999855e-01 3.962770000000000437e+01 1.274230000000000018e+02 1.959534999999999854e+03
8.899999999999999578e-02 1.337995000000000156e-01 4.059470000000000312e+01 1.304800000000000182e+02 1.960525000000000091e+03
8.999999999999999667e-02 1.339015000000000066e-01 4.156515000000000271e+01 1.336215000000000259e+02 1.961535000000000082e+03
9.099999999999999756e-02 1.340044999999999986e-01 4.253669999999999618e+01 1.368274999999999864e+02 1.962570000000000164e+03
9.199999999999999845e-02 1.341100000000000070e-01 4.350240000000000151e+01 1.400679999999999836e+02 1.963615000000000009e+03
9.299999999999999933e-02 1.342160000000000020e-01 4.445139999999999958e+01 1.433040000000000020e+02 1.964664999999999964e+03
9.400000000000000022e-02 1.343209999999999960e-01 4.536959999999999837e+01 1.464900000000000091e+02 1.965720000000000027e+03
9.500000000000000111e-02 1.344250000000000167e-01 4.624089999999999634e+01 1.495784999999999911e+02 1.966750000000000000e+03
9.600000000000000200e-02 1.345255000000000201e-01 4.704789999999999850e+01 1.525204999999999984e+02 1.967759999999999991e+03
9.700000000000000289e-02 1.346225000000000060e-01 4.777315000000000111e+01 1.552690000000000055e+02 1.968724999999999909e+03
9.800000000000000377e-02 1.347134999999999860e-01 4.840014999999999645e+01 1.577824999999999989e+02 1.969639999999999873e+03
9.900000000000000466e-02 1.347970000000000002e-01 4.891409999999999769e+01 1.600235000000000127e+02 1.970485000000000127e+03
1.000000000000000056e-01 1.348734999999999795e-01 4.930249999999999488e+01 1.619639999999999986e+02 1.971250000000000000e+03
1.010000000000000064e-01 1.349405000000000188e-01 4.955615000000000236e+01 1.635844999999999914e+02 1.971930000000000064e+03
1.020000000000000073e-01 1.349980000000000069e-01 4.966924999999999812e+01 1.648725000000000023e+02 1.972509999999999991e+03
1.030000000000000082e-01 1.350454999999999850e-01 4.963980000000000103e+01 1.658274999999999864e+02 1.973000000000000000e+03
1.040000000000000091e-01 1.350830000000000086e-01 4.946970000000000312e+01 1.664569999999999936e+02 1.973384999999999991e+03
1.050000000000000100e-01 1.351109999999999811e-01 4.916455000000000553e+01 1.667760000000000105e+02 1.973670000000000073e+03
1.059999999999999970e-01 1.351284999999999847e-01 4.873364999999999725e+01 1.668095000000000141e+02 1.973860000000000127e+03
1.069999999999999979e-01 1.351374999999999937e-01 4.818919999999999959e+01 1.665875000000000057e+02 1.973960000000000036e+03
1.079999999999999988e-01 1.351384999999999947e-01 4.754614999999999725e+01 1.661460000000000150e+02 1.973980000000000018e+03
1.089999999999999997e-01 1.351320000000000021e-01 4.682119999999999749e+01 1.655235000000000127e+02 1.973925000000000182e+03
1.100000000000000006e-01 1.351195000000000035e-01 4.603239999999999554e+01 1.647605000000000075e+02 1.973809999999999945e+03
1.110000000000000014e-01 1.351019999999999999e-01 4.519814999999999827e+01 1.638974999999999795e+02 1.973644999999999982e+03
1.120000000000000023e-01 1.350804999999999922e-01 4.433660000000000423e+01 1.629744999999999777e+02 1.973434999999999945e+03
1.130000000000000032e-01 1.350564999999999960e-01 4.346490000000000009e+01 1.620264999999999986e+02 1.973199999999999818e+03
1.140000000000000041e-01 1.350314999999999988e-01 4.259864999999999924e+01 1.610849999999999795e+02 1.972949999999999818e+03
1.150000000000000050e-01 1.350049999999999861e-01 4.175130000000000052e+01 1.601759999999999877e+02 1.972690000000000055e+03
1.160000000000000059e-01 1.349790000000000156e-01 4.093380000000000507e+01 1.593195000000000050e+02 1.972424999999999955e+03
1.170000000000000068e-01 1.349540000000000184e-01 4.015435000000000088e+01 1.585294999999999845e+02 1.972174999999999955e+03
1.180000000000000077e-01 1.349299999999999944e-01 3.941799999999999926e+01 1.578125000000000000e+02 1.971934999999999945e+03
1.190000000000000085e-01 1.349075000000000135e-01 3.872700000000000387e+01 1.571680000000000064e+02 1.971714999999999918e+03
1.200000000000000094e-01 1.348870000000000069e-01 3.808070000000000022e+01 1.565910000000000082e+02 1.971505000000000109e+03
1.209999999999999964e-01 1.348679999999999879e-01 3.747575000000000500e+01 1.560690000000000168e+02 1.971309999999999945e+03
1.219999999999999973e-01 1.348499999999999976e-01 3.690640000000000498e+01 1.555865000000000009e+02 1.971125000000000000e+03
1.229999999999999982e-01 1.348334999999999950e-01 3.636504999999999654e+01 1.551234999999999786e+02 1.970960000000000036e+03
1.239999999999999991e-01 1.348175000000000068e-01 3.584255000000000280e+01 1.546580000000000155e+02 1.970795000000000073e+03
1.250000000000000000e-01 1.348010000000000042e-01 3.532900000000000063e+01 1.541655000000000086e+02 1.970625000000000000e+03
1.260000000000000009e-01 1.347840000000000149e-01 3.481394999999999840e+01 1.536239999999999952e+02 1.970449999999999818e+03
1.270000000000000018e-01 1.347655000000000103e-01 3.428719999999999857e+01 1.530105000000000075e+02 1.970264999999999873e+03
1.280000000000000027e-01 1.347444999999999893e-01 3.373924999999999841e+01 1.523050000000000068e+02 1.970059999999999945e+03
1.290000000000000036e-01 1.347214999999999940e-01 3.316174999999999784e+01 1.514909999999999854e+02 1.969829999999999927e+03
1.300000000000000044e-01 1.346950000000000092e-01 3.254800000000000182e+01 1.505570000000000164e+02 1.969565000000000055e+03
1.310000000000000053e-01 1.346654999999999935e-01 3.189325000000000188e+01 1.494944999999999879e+02 1.969264999999999873e+03
1.320000000000000062e-01 1.346320000000000017e-01 3.119505000000000194e+01 1.483025000000000091e+02 1.968934999999999945e+03
1.330000000000000071e-01 1.345949999999999924e-01 3.045309999999999917e+01 1.469834999999999923e+02 1.968565000000000055e+03
1.340000000000000080e-01 1.345534999999999926e-01 2.966980000000000217e+01 1.455480000000000018e+02 1.968159999999999854e+03
1.350000000000000089e-01 1.345089999999999897e-01 2.884984999999999999e+01 1.440099999999999909e+02 1.967719999999999800e+03
1.360000000000000098e-01 1.344615000000000116e-01 2.800000000000000000e+01 1.423884999999999934e+02 1.967244999999999891e+03
1.370000000000000107e-01 1.344115000000000171e-01 2.712904999999999944e+01 1.407065000000000055e+02 1.966750000000000000e+03
1.380000000000000115e-01 1.343590000000000062e-01 2.624725000000000108e+01 1.389909999999999854e+02 1.966235000000000127e+03
1.390000000000000124e-01 1.343059999999999810e-01 2.536599999999999966e+01 1.372694999999999936e+02 1.965700000000000045e+03
1.400000000000000133e-01 1.342519999999999825e-01 2.449729999999999919e+01 1.355710000000000264e+02 1.965170000000000073e+03
1.410000000000000142e-01 1.341984999999999983e-01 2.365334999999999965e+01 1.339234999999999900e+02 1.964635000000000218e+03
1.420000000000000151e-01 1.341459999999999875e-01 2.284570000000000078e+01 1.323545000000000016e+02 1.964114999999999782e+03
1.430000000000000160e-01 1.340959999999999930e-01 2.208539999999999992e+01 1.308874999999999886e+02 1.963615000000000009e+03
1.440000000000000169e-01 1.340485000000000149e-01 2.138190000000000168e+01 1.295444999999999993e+02 1.963139999999999873e+03
1.450000000000000178e-01 1.340040000000000120e-01 2.074314999999999998e+01 1.283410000000000082e+02 1.962699999999999818e+03
1.459999999999999909e-01 1.339639999999999997e-01 2.017524999999999835e+01 1.272884999999999991e+02 1.962295000000000073e+03
1.469999999999999918e-01 1.339279999999999915e-01 1.968215000000000003e+01 1.263944999999999936e+02 1.961934999999999945e+03
1.479999999999999927e-01 1.338969999999999883e-01 1.926579999999999870e+01 1.256610000000000014e+02 1.961625000000000000e+03
1.489999999999999936e-01 1.338705000000000034e-01 1.892595000000000027e+01 1.250854999999999961e+02 1.961355000000000018e+03
1.499999999999999944e-01 1.338484999999999814e-01 1.866049999999999898e+01 1.246604999999999990e+02 1.961134999999999991e+03
1.509999999999999953e-01 1.338314999999999921e-01 1.846539999999999893e+01 1.243754999999999882e+02 1.960954999999999927e+03
1.519999999999999962e-01 1.338190000000000213e-01 1.833525000000000205e+01 1.242169999999999987e+02 1.960820000000000164e+03
1.529999999999999971e-01 1.338099999999999845e-01 1.826335000000000264e+01 1.241684999999999945e+02 1.960730000000000018e+03
1.539999999999999980e-01 1.338044999999999929e-01 1.824215000000000231e+01 1.242139999999999986e+02 1.960670000000000073e+03
1.549999999999999989e-01 1.338020000000000043e-01 1.826344999999999885e+01 1.243340000000000032e+02 1.960644999999999982e+03
1.559999999999999998e-01 1.338024999999999909e-01 1.831875000000000142e+01 1.245109999999999957e+02 1.960639999999999873e+03
1.570000000000000007e-01 1.338050000000000073e-01 1.839985000000000070e+01 1.247280000000000086e+02 1.960659999999999854e+03
1.580000000000000016e-01 1.338094999999999979e-01 1.849859999999999971e+01 1.249679999999999893e+02 1.960695000000000164e+03
1.590000000000000024e-01 1.338145000000000029e-01 1.860754999999999981e+01 1.252180000000000035e+02 1.960744999999999891e+03
