# t [s], A [cm^2], U [cm/s], P [cPa], c [cm/s]
1.000000000000000021e-03 7.333549999999999791e-01 5.639999999999999181e-03 1.059099999999999966e+02 1.600509999999999991e+03
2.000000000000000042e-03 7.333434999999999260e-01 -2.626030000000000118e-03 1.058880000000000052e+02 1.600505000000000109e+03
3.000000000000000062e-03 7.333699999999999664e-01 3.241329999999999906e-02 1.059265000000000043e+02 1.600514999999999873e+03
4.000000000000000083e-03 7.334304999999999852e-01 1.202544999999999864e-01 1.060409999999999968e+02 1.600539999999999964e+03
5.000000000000000104e-03 7.334499999999999353e-01 1.617224500000000176e-01 1.060914999999999964e+02 1.600555000000000064e+03
6.000000000000000125e-03 7.334024999999999572e-01 1.112233000000000110e-01 1.059929999999999950e+02 1.600534999999999854e+03
7.000000000000000146e-03 7.333450000000000246e-01 4.461499999999998800e-02 1.058220000000000027e+02 1.600500000000000000e+03
8.000000000000000167e-03 7.333020000000000094e-01 -4.974499999999992816e-03 1.056370000000000005e+02 1.600454999999999927e+03
9.000000000000001055e-03 7.332334999999999825e-01 -1.016719999999999846e-01 1.053744999999999976e+02 1.600400000000000091e+03
1.000000000000000194e-02 7.331194999999999240e-01 -2.814274999999999971e-01 1.049795000000000016e+02 1.600319999999999936e+03
1.099999999999999936e-02 7.329565000000000108e-01 -5.505799999999999583e-01 1.044209999999999923e+02 1.600210000000000036e+03
1.200000000000000025e-02 7.327265000000000583e-01 -9.280100000000000016e-01 1.036510000000000105e+02 1.600045000000000073e+03
1.300000000000000114e-02 7.324195000000000011e-01 -1.421770000000000200e+00 1.026248999999999967e+02 1.599835000000000036e+03
1.400000000000000203e-02 7.320539999999999825e-01 -1.987575000000000092e+00 1.013627000000000038e+02 1.599569999999999936e+03
1.499999999999999944e-02 7.316780000000000506e-01 -2.531824999999999992e+00 9.995924999999999727e+01 1.599259999999999991e+03
1.600000000000000033e-02 7.313384999999998914e-01 -2.954825000000000035e+00 9.854005000000000791e+01 1.598934999999999945e+03
1.700000000000000122e-02 7.310604999999998910e-01 -3.192393499999999662e+00 9.720220000000000482e+01 1.598619999999999891e+03
1.800000000000000211e-02 7.308384999999999465e-01 -3.230853549999999963e+00 9.598564999999999259e+01 1.598315000000000055e+03
1.900000000000000300e-02 7.306449999999999889e-01 -3.097829500000000014e+00 9.487024999999999864e+01 1.598030000000000200e+03
2.000000000000000042e-02 7.304485000000000561e-01 -2.841706799999999866e+00 9.379894999999999072e+01 1.597744999999999891e+03
2.100000000000000130e-02 7.302204999999999391e-01 -2.510781000000000152e+00 9.270420000000000016e+01 1.597450000000000045e+03
2.200000000000000219e-02 7.299450000000000660e-01 -2.138276499999999913e+00 9.153284999999999627e+01 1.597134999999999991e+03
2.299999999999999961e-02 7.296240000000000503e-01 -1.735670000000000046e+00 9.026089999999999236e+01 1.596799999999999955e+03
2.400000000000000050e-02 7.292689999999999451e-01 -1.294285000000000130e+00 8.889764999999999873e+01 1.596440000000000055e+03
2.500000000000000139e-02 7.288995000000000335e-01 -7.936549999999997773e-01 8.747860000000000014e+01 1.596069999999999936e+03
2.600000000000000228e-02 7.285345000000000848e-01 -2.134649999999997938e-01 8.605004999999999882e+01 1.595695000000000164e+03
2.700000000000000316e-02 7.281845000000000123e-01 4.551750000000001073e-01 8.465215000000000600e+01 1.595315000000000055e+03
2.800000000000000058e-02 7.278504999999999558e-01 1.202610000000000179e+00 8.330490000000000350e+01 1.594950000000000045e+03
2.900000000000000147e-02 7.275225000000000719e-01 1.999179999999999735e+00 8.200149999999999295e+01 1.594594999999999800e+03
3.000000000000000236e-02 7.271834999999999827e-01 2.799250000000000682e+00 8.070859999999998990e+01 1.594235000000000127e+03
3.099999999999999978e-02 7.268120000000000136e-01 3.549219999999999597e+00 7.937495000000001255e+01 1.593880000000000109e+03
3.200000000000000067e-02 7.263899999999999801e-01 4.197610000000000063e+00 7.794360000000000355e+01 1.593500000000000000e+03
3.300000000000000155e-02 7.259054999999999813e-01 4.705239999999999867e+00 7.636684999999999945e+01 1.593095000000000027e+03
3.400000000000000244e-02 7.253585000000000171e-01 5.052639999999999354e+00 7.461939999999999884e+01 1.592660000000000082e+03
3.500000000000000333e-02 7.247600000000000708e-01 5.243610000000000326e+00 7.270725000000000193e+01 1.592190000000000055e+03
3.600000000000000422e-02 7.241305000000000103e-01 5.302740000000000009e+00 7.066830000000000211e+01 1.591690000000000055e+03
3.700000000000000511e-02 7.234970000000000567e-01 5.268864999999999910e+00 6.856634999999999991e+01 1.591179999999999836e+03
3.799999999999999906e-02 7.228855000000000697e-01 5.186535000000000117e+00 6.648019999999999641e+01 1.590670000000000073e+03
3.899999999999999994e-02 7.223209999999999908e-01 5.097615000000000229e+00 6.449105000000000132e+01 1.590179999999999836e+03
4.000000000000000083e-02 7.218210000000000459e-01 5.035809999999999675e+00 6.267215000000000202e+01 1.589724999999999909e+03
4.100000000000000172e-02 7.213964999999999961e-01 5.024140000000000050e+00 6.108169999999999789e+01 1.589315000000000055e+03
4.200000000000000261e-02 7.210529999999999440e-01 5.075484499999999954e+00 5.976035000000000252e+01 1.588965000000000146e+03
4.300000000000000350e-02 7.207909999999999595e-01 5.194921500000000414e+00 5.873199999999999932e+01 1.588684999999999945e+03
4.400000000000000439e-02 7.206084999999999852e-01 5.383334999999999759e+00 5.800724999999999909e+01 1.588474999999999909e+03
4.499999999999999833e-02 7.205055000000000209e-01 5.640945000000000320e+00 5.758834999999999837e+01 1.588335000000000036e+03
4.599999999999999922e-02 7.204794999999999394e-01 5.970145000000000479e+00 5.747415000000000163e+01 1.588264999999999873e+03
4.700000000000000011e-02 7.205319999999999503e-01 6.377079999999999416e+00 5.766375000000000028e+01 1.588280000000000200e+03
4.800000000000000100e-02 7.206654999999999589e-01 6.871695000000000775e+00 5.815895000000000437e+01 1.588360000000000127e+03
4.900000000000000189e-02 7.208829999999999405e-01 7.466459999999999653e+00 5.896405000000000030e+01 1.588519999999999982e+03
5.000000000000000278e-02 7.211885000000000101e-01 8.174129999999999896e+00 6.008459999999999468e+01 1.588759999999999991e+03
5.100000000000000366e-02 7.215829999999999744e-01 9.005290000000000461e+00 6.152465000000000117e+01 1.589075000000000045e+03
5.200000000000000455e-02 7.220659999999999856e-01 9.966075000000000017e+00 6.328359999999999275e+01 1.589469999999999800e+03
5.300000000000000544e-02 7.226344999999999574e-01 1.105675499999999900e+01 6.535415000000000418e+01 1.589940000000000055e+03
5.399999999999999939e-02 7.232819999999999805e-01 1.227102000000000004e+01 6.772025000000000716e+01 1.590485000000000127e+03
5.500000000000000028e-02 7.240005000000000468e-01 1.359657499999999963e+01 7.035734999999999673e+01 1.591099999999999909e+03
5.600000000000000117e-02 7.247775000000000745e-01 1.501609000000000016e+01 7.323284999999999911e+01 1.591769999999999982e+03
5.700000000000000205e-02 7.256015000000000104e-01 1.650873999999999953e+01 7.630805000000000859e+01 1.592500000000000000e+03
5.800000000000000294e-02 7.264604999999999535e-01 1.805212999999999823e+01 7.954085000000000605e+01 1.593269999999999982e+03
5.900000000000000383e-02 7.273425000000000029e-01 1.962395000000000067e+01 8.288800000000000523e+01 1.594074999999999818e+03
6.000000000000000472e-02 7.282370000000000232e-01 2.120339999999999847e+01 8.630834999999999013e+01 1.594909999999999854e+03
6.099999999999999867e-02 7.291354999999999364e-01 2.277219999999999800e+01 8.976319999999999766e+01 1.595755000000000109e+03
6.199999999999999956e-02 7.300294999999999979e-01 2.431515000000000271e+01 9.322180000000000177e+01 1.596610000000000127e+03
6.300000000000000044e-02 7.309149999999999814e-01 2.582004999999999839e+01 9.665619999999999834e+01 1.597470000000000027e+03
6.400000000000000133e-02 7.317884999999999529e-01 2.727794999999999703e+01 1.000478999999999985e+02 1.598325000000000045e+03
6.500000000000000222e-02 7.326464999999999783e-01 2.868210000000000193e+01 1.033810499999999877e+02 1.599164999999999964e+03
6.600000000000000311e-02 7.334884999999999877e-01 3.002779999999999916e+01 1.066479500000000087e+02 1.599994999999999891e+03
6.700000000000000400e-02 7.343140000000000223e-01 3.131174999999999642e+01 1.098418000000000063e+02 1.600815000000000055e+03
6.800000000000000488e-02 7.351235000000000408e-01 3.253150000000000119e+01 1.129619999999999891e+02 1.601615000000000009e+03
6.900000000000000577e-02 7.359149999999999858e-01 3.368515000000000015e+01 1.160060000000000002e+02 1.602400000000000091e+03
7.000000000000000666e-02 7.366905000000000259e-01 3.477089999999999748e+01 1.189759999999999991e+02 1.603164999999999964e+03
7.100000000000000755e-02 7.374490000000000212e-01 3.578674999999999784e+01 1.218704999999999927e+02 1.603920000000000073e+03
7.200000000000000844e-02 7.381885000000000252e-01 3.673059999999999548e+01 1.246889999999999930e+02 1.604654999999999973e+03
7.300000000000000933e-02 7.389099999999999557e-01 3.759989999999999810e+01 1.274304999999999950e+02 1.605369999999999891e+03
7.399999999999999634e-02 7.396104999999999485e-01 3.839170000000000016e+01 1.300904999999999916e+02 1.606069999999999936e+03
7.499999999999999722e-02 7.402889999999999748e-01 3.910285000000000366e+01 1.326634999999999991e+02 1.606744999999999891e+03
7.599999999999999811e-02 7.409425000000000594e-01 3.973024999999999807e+01 1.351435000000000173e+02 1.607394999999999982e+03
7.699999999999999900e-02 7.415689999999999227e-01 4.027100000000000080e+01 1.375219999999999914e+02 1.608029999999999973e+03
7.799999999999999989e-02 7.421664999999999512e-01 4.072244999999999493e+01 1.397920000000000016e+02 1.608634999999999991e+03
7.900000000000000078e-02 7.427325000000000177e-01 4.108294999999999675e+01 1.419449999999999932e+02 1.609210000000000036e+03
8.000000000000000167e-02 7.432654999999999124e-01 4.135159999999999769e+01 1.439739999999999895e+02 1.609759999999999991e+03
8.100000000000000255e-02 7.437644999999999396e-01 4.152859999999999729e+01 1.458729999999999905e+02 1.610275000000000091e+03
8.200000000000000344e-02 7.442284999999999595e-01 4.161504999999999654e+01 1.476370000000000005e+02 1.610759999999999991e+03
8.300000000000000433e-02 7.446565000000000545e-01 4.161315000000000452e+01 1.492634999999999934e+02 1.611204999999999927e+03
8.400000000000000522e-02 7.450490000000000723e-01 4.152564999999999884e+01 1.507509999999999764e+02 1.611619999999999891e+03
8.500000000000000611e-02 7.454060000000000130e-01 4.135594999999999999e+01 1.520989999999999895e+02 1.611994999999999891e+03
8.600000000000000699e-02 7.457275000000000986e-01 4.110795000000000243e+01 1.533095000000000141e+02 1.612340000000000146e+03
8.700000000000000788e-02 7.460149999999999837e-01 4.078579999999999472e+01 1.543840000000000146e+02 1.612650000000000091e+03
8.800000000000000877e-02 7.462679999999999314e-01 4.039370000000000260e+01 1.553255000000000052e+02 1.612920000000000073e+03
8.899999999999999578e-02 7.464880000000000404e-01 3.993625000000000114e+01 1.561374999999999886e+02 1.613159999999999854e+03
8.999999999999999667e-02 7.466764999999999652e-01 3.941825000000000045e+01 1.568240000000000123e+02 1.613369999999999891e+03
9.099999999999999756e-02 7.468330000000000801e-01 3.884494999999999720e+01 1.573905000000000030e+02 1.613539999999999964e+03
9.199999999999999845e-02 7.469609999999999861e-01 3.822185000000000343e+01 1.578425000000000011e+02 1.613684999999999945e+03
9.299999999999999933e-02 7.470615000000000450e-01 3.755519999999999925e+01 1.581870000000000118e+02 1.613805000000000064e+03
9.400000000000000022e-02 7.471365000000000922e-01 3.685150000000000148e+01 1.584329999999999927e+02 1.613894999999999982e+03
9.500000000000000111e-02 7.471889999999999921e-01 3.611780000000000257e+01 1.585885000000000105e+02 1.613960000000000036e+03
9.600000000000000200e-02 7.472214999999999829e-01 3.536129999999999995e+01 1.586639999999999873e+02 1.614000000000000000e+03
9.700000000000000289e-02 7.472369999999999290e-01 3.458944999999999936e+01 1.586694999999999993e+02 1.614019999999999982e+03
9.800000000000000377e-02 7.472374999999999989e-01 3.380930000000000035e+01 1.586165000000000020e+02 1.614029999999999973e+03
9.900000000000000466e-02 7.472265000000000157e-01 3.302749999999999631e+01 1.585144999999999982e+02 1.614019999999999982e+03
1.000000000000000056e-01 7.472064999999999957e-01 3.224994999999999834e+01 1.583734999999999786e+02 1.613994999999999891e+03
1.010000000000000064e-01 7.471790000000000376e-01 3.148165000000000191e+01 1.582019999999999982e+02 1.613964999999999918e+03
1.020000000000000073e-01 7.471449999999999481e-01 3.072644999999999982e+01 1.580079999999999814e+02 1.613924999999999955e+03
1.030000000000000082e-01 7.471065000000000067e-01 2.998704999999999643e+01 1.577955000000000041e+02 1.613875000000000000e+03
1.040000000000000091e-01 7.470635000000001025e-01 2.926500000000000057e+01 1.575695000000000050e+02 1.613819999999999936e+03
1.050000000000000100e-01 7.470170000000000421e-01 2.856070000000000064e+01 1.573324999999999818e+02 1.613764999999999873e+03
1.059999999999999970e-01 7.469660000000000188e-01 2.787364999999999782e+01 1.570829999999999984e+02 1.613704999999999927e+03
1.069999999999999979e-01 7.469095000000000040e-01 2.720235000000000269e+01 1.568215000000000146e+02 1.613634999999999991e+03
1.079999999999999988e-01 7.468470000000000386e-01 2.654475000000000051e+01 1.565450000000000159e+02 1.613569999999999936e+03
1.089999999999999997e-01 7.467779999999999418e-01 2.589825000000000088e+01 1.562510000000000048e+02 1.613490000000000009e+03
1.100000000000000006e-01 7.467015000000000180e-01 2.525999999999999801e+01 1.559350000000000023e+02 1.613409999999999854e+03
1.110000000000000014e-01 7.466165000000000163e-01 2.462705000000000055e+01 1.555944999999999823e+02 1.613329999999999927e+03
1.120000000000000023e-01 7.465215000000000600e-01 2.399624999999999986e+01 1.552244999999999777e+02 1.613230000000000018e+03
1.130000000000000032e-01 7.464159999999999684e-01 2.336475000000000080e+01 1.548224999999999909e+02 1.613130000000000109e+03
1.140000000000000041e-01 7.462995000000000045e-01 2.272994999999999877e+01 1.543840000000000146e+02 1.613019999999999982e+03
1.150000000000000050e-01 7.461720000000000574e-01 2.208950000000000102e+01 1.539085000000000036e+02 1.612904999999999973e+03
1.160000000000000059e-01 7.460324999999999873e-01 2.144149999999999778e+01 1.533935000000000173e+02 1.612775000000000091e+03
1.170000000000000068e-01 7.458820000000000450e-01 2.078470000000000084e+01 1.528394999999999868e+02 1.612634999999999991e+03
1.180000000000000077e-01 7.457205000000000084e-01 2.011834999999999951e+01 1.522454999999999927e+02 1.612490000000000009e+03
1.190000000000000085e-01 7.455484999999999474e-01 1.944245000000000090e+01 1.516140000000000043e+02 1.612335000000000036e+03
1.200000000000000094e-01 7.453674999999999606e-01 1.875764999999999816e+01 1.509495000000000005e+02 1.612170000000000073e+03
1.209999999999999964e-01 7.451784999999999659e-01 1.806544999999999845e+01 1.502540000000000191e+02 1.612000000000000000e+03
1.219999999999999973e-01 7.449835000000000207e-01 1.736795000000000044e+01 1.495335000000000036e+02 1.611819999999999936e+03
1.229999999999999982e-01 7.447840000000000016e-01 1.666789999999999949e+01 1.487944999999999993e+02 1.611630000000000109e+03
1.239999999999999991e-01 7.445825000000000360e-01 1.596870000000000012e+01 1.480450000000000159e+02 1.611450000000000045e+03
1.250000000000000000e-01 7.443819999999999881e-01 1.527425000000000033e+01 1.472914999999999850e+02 1.611259999999999991e+03
1.260000000000000009e-01 7.441830000000000389e-01 1.458871000000000073e+01 1.465434999999999945e+02 1.611069999999999936e+03
1.270000000000000018e-01 7.439895000000000813e-01 1.391647000000000034e+01 1.458089999999999975e+02 1.610880000000000109e+03
1.280000000000000027e-01 7.438029999999999919e-01 1.326192999999999955e+01 1.450969999999999800e+02 1.610700000000000045e+03
1.290000000000000036e-01 7.436264999999999681e-01 1.262941000000000003e+01 1.444149999999999920e+02 1.610525000000000091e+03
1.300000000000000044e-01 7.434609999999999275e-01 1.202294000000000018e+01 1.437699999999999818e+02 1.610355000000000018e+03
1.310000000000000053e-01 7.433079999999999687e-01 1.144608999999999988e+01 1.431705000000000041e+02 1.610200000000000045e+03
1.320000000000000062e-01 7.431689999999999685e-01 1.090187500000000043e+01 1.426200000000000045e+02 1.610049999999999955e+03
1.330000000000000071e-01 7.430455000000000254e-01 1.039267500000000055e+01 1.421235000000000070e+02 1.609920000000000073e+03
1.340000000000000080e-01 7.429369999999999585e-01 9.920120000000000715e+00 1.416839999999999975e+02 1.609795000000000073e+03
1.350000000000000089e-01 7.428434999999999899e-01 9.485125000000000028e+00 1.413014999999999759e+02 1.609690000000000055e+03
1.360000000000000098e-01 7.427660000000000373e-01 9.087790000000000035e+00 1.409770000000000039e+02 1.609595000000000027e+03
1.370000000000000107e-01 7.427025000000000432e-01 8.727550000000000807e+00 1.407079999999999984e+02 1.609514999999999873e+03
1.380000000000000115e-01 7.426530000000000076e-01 8.403150000000000119e+00 1.404909999999999854e+02 1.609449999999999818e+03
1.390000000000000124e-01 7.426144999999999552e-01 8.112854999999999706e+00 1.403235000000000241e+02 1.609400000000000091e+03
1.400000000000000133e-01 7.425880000000000258e-01 7.854395000000000238e+00 1.401995000000000005e+02 1.609360000000000127e+03
1.410000000000000142e-01 7.425699999999999523e-01 7.625230000000000175e+00 1.401134999999999877e+02 1.609325000000000045e+03
1.420000000000000151e-01 7.425589999999999691e-01 7.422629999999999839e+00 1.400595000000000141e+02 1.609299999999999955e+03
1.430000000000000160e-01 7.425549999999999651e-01 7.243779999999999220e+00 1.400324999999999989e+02 1.609284999999999854e+03
1.440000000000000169e-01 7.425554999999999239e-01 7.085855000000000459e+00 1.400264999999999986e+02 1.609275000000000091e+03
1.450000000000000178e-01 7.425589999999999691e-01 6.946150000000000269e+00 1.400360000000000014e+02 1.609269999999999982e+03
1.459999999999999909e-01 7.425654999999999895e-01 6.822079999999999700e+00 1.400554999999999950e+02 1.609265000000000100e+03
1.469999999999999918e-01 7.425720000000000098e-01 6.711240000000000094e+00 1.400824999999999818e+02 1.609264999999999873e+03
1.479999999999999927e-01 7.425794999999999479e-01 6.611439999999999984e+00 1.401109999999999900e+02 1.609269999999999982e+03
1.489999999999999936e-01 7.425859999999999683e-01 6.520645000000000024e+00 1.401399999999999864e+02 1.609275000000000091e+03
1.499999999999999944e-01 7.425919999999999188e-01 6.437054999999999971e+00 1.401650000000000205e+02 1.609275000000000091e+03
1.509999999999999953e-01 7.425960000000000338e-01 6.359030000000000626e+00 1.401854999999999905e+02 1.609279999999999973e+03
1.519999999999999962e-01 7.425984999999999392e-01 6.285120000000000040e+00 1.401985000000000241e+02 1.609279999999999973e+03
1.529999999999999971e-01 7.425990000000000091e-01 6.214050000000000296e+00 1.402040000000000077e+02 1.609279999999999973e+03
1.539999999999999980e-01 7.425964999999999927e-01 6.144705000000000084e+00 1.402005000000000052e+02 1.609279999999999973e+03
1.549999999999999989e-01 7.425914999999999599e-01 6.076164999999999594e+00 1.401870000000000118e+02 1.609275000000000091e+03
1.559999999999999998e-01 7.425844999999999807e-01 6.007674999999999876e+00 1.401644999999999754e+02 1.609269999999999982e+03
1.570000000000000007e-01 7.425745000000000262e-01 5.938649999999999984e+00 1.401315000000000168e+02 1.609264999999999873e+03
1.580000000000000016e-01 7.425619999999999443e-01 5.868694999999999773e+00 1.400889999999999986e+02 1.609250000000000000e+03
1.590000000000000024e-01 7.425475000000000270e-01 5.797564999999999635e+00 1.400370000000000061e+02 1.609240000000000009e+03
