# t [s], A [cm^2], U [cm/s], P [cPa], c [cm/s]
1.000000000000000021e-03 1.349809999999999899e-01 1.991950000000000109e-01 9.215225000000000932e+01 1.840420000000000073e+03
2.000000000000000042e-03 1.349675000000000180e-01 1.447629999999999972e+00 8.966819999999999879e+01 1.840269999999999982e+03
3.000000000000000062e-03 1.349019999999999941e-01 3.004968000000000306e+00 8.648224999999999341e+01 1.839570000000000164e+03
4.000000000000000083e-03 1.347975000000000145e-01 4.736293400000000098e+00 8.282554999999999268e+01 1.838485000000000127e+03
5.000000000000000104e-03 1.346709999999999852e-01 6.599534999999999485e+00 7.923400000000000887e+01 1.837190000000000055e+03
6.000000000000000125e-03 1.345379999999999909e-01 8.529225000000000279e+00 7.606010000000000559e+01 1.835829999999999927e+03
7.000000000000000146e-03 1.344069999999999987e-01 1.041668499999999931e+01 7.337090000000000600e+01 1.834500000000000000e+03
8.000000000000000167e-03 1.342804999999999971e-01 1.215418000000000021e+01 7.104134999999999422e+01 1.833244999999999891e+03
9.000000000000001055e-03 1.341610000000000025e-01 1.369195500000000010e+01 6.895295000000000130e+01 1.832070000000000164e+03
1.000000000000000194e-02 1.340514999999999901e-01 1.503591000000000122e+01 6.709405000000000996e+01 1.831005000000000109e+03
1.099999999999999936e-02 1.339539999999999897e-01 1.620470000000000255e+01 6.549674999999999159e+01 1.830065000000000055e+03
1.200000000000000025e-02 1.338679999999999870e-01 1.720805000000000007e+01 6.416454999999999131e+01 1.829244999999999891e+03
1.300000000000000114e-02 1.337949999999999973e-01 1.804984999999999928e+01 6.306770000000000209e+01 1.828555000000000064e+03
1.400000000000000203e-02 1.337324999999999764e-01 1.873195000000000121e+01 6.215909999999999513e+01 1.827974999999999909e+03
1.499999999999999944e-02 1.336795000000000067e-01 1.925570000000000093e+01 6.138150000000000261e+01 1.827485000000000127e+03
1.600000000000000033e-02 1.336344999999999894e-01 1.963134999999999764e+01 6.068710000000000093e+01 1.827079999999999927e+03
1.700000000000000122e-02 1.335954999999999782e-01 1.989034999999999798e+01 6.007404999999999973e+01 1.826724999999999909e+03
1.800000000000000211e-02 1.335635000000000017e-01 2.008845000000000169e+01 5.961100000000000421e+01 1.826450000000000045e+03
1.900000000000000300e-02 1.335410000000000208e-01 2.029335000000000022e+01 5.942280000000000229e+01 1.826255000000000109e+03
2.000000000000000042e-02 1.335314999999999974e-01 2.056340000000000146e+01 5.963939999999999486e+01 1.826180000000000064e+03
2.100000000000000130e-02 1.335365000000000024e-01 2.092770000000000152e+01 6.033575000000000443e+01 1.826240000000000009e+03
2.200000000000000219e-02 1.335565000000000224e-01 2.137819999999999965e+01 6.149289999999999168e+01 1.826440000000000055e+03
2.299999999999999961e-02 1.335910000000000153e-01 2.187424999999999997e+01 6.299479999999999791e+01 1.826775000000000091e+03
2.400000000000000050e-02 1.336350000000000038e-01 2.235664999999999836e+01 6.465735000000000809e+01 1.827204999999999927e+03
2.500000000000000139e-02 1.336839999999999973e-01 2.276484999999999914e+01 6.627575000000000216e+01 1.827680000000000064e+03
2.600000000000000228e-02 1.337329999999999908e-01 2.305189999999999984e+01 6.767224999999999113e+01 1.828159999999999854e+03
2.700000000000000316e-02 1.337774999999999936e-01 2.319334999999999880e+01 6.873109999999999786e+01 1.828599999999999909e+03
2.800000000000000058e-02 1.338139999999999885e-01 2.318890000000000029e+01 6.941294999999999504e+01 1.828965000000000146e+03
2.900000000000000147e-02 1.338415000000000021e-01 2.305754999999999910e+01 6.974860000000001037e+01 1.829244999999999891e+03
3.000000000000000236e-02 1.338604999999999934e-01 2.282925000000000182e+01 6.981665000000000987e+01 1.829445000000000164e+03
3.099999999999999978e-02 1.338729999999999920e-01 2.253459999999999752e+01 6.971365000000000123e+01 1.829575000000000045e+03
3.200000000000000067e-02 1.338799999999999990e-01 2.219729999999999848e+01 6.952564999999999884e+01 1.829650000000000091e+03
3.300000000000000155e-02 1.338825000000000154e-01 2.182974999999999710e+01 6.930875000000000341e+01 1.829684999999999945e+03
3.400000000000000244e-02 1.338834999999999886e-01 2.143309999999999960e+01 6.908220000000000027e+01 1.829700000000000045e+03
3.500000000000000333e-02 1.338814999999999866e-01 2.100059999999999860e+01 6.883339999999999748e+01 1.829684999999999945e+03
3.600000000000000422e-02 1.338770000000000238e-01 2.052289999999999992e+01 6.853159999999999741e+01 1.829644999999999982e+03
3.700000000000000511e-02 1.338695000000000024e-01 1.999399999999999977e+01 6.814529999999999177e+01 1.829585000000000036e+03
3.799999999999999906e-02 1.338584999999999914e-01 1.941600000000000037e+01 6.765834999999999866e+01 1.829485000000000127e+03
3.899999999999999994e-02 1.338445000000000051e-01 1.880100000000000193e+01 6.708100000000000307e+01 1.829355000000000018e+03
4.000000000000000083e-02 1.338270000000000015e-01 1.817145000000000010e+01 6.645289999999999964e+01 1.829195000000000164e+03
4.100000000000000172e-02 1.338084999999999969e-01 1.755664999999999765e+01 6.583875000000000455e+01 1.829019999999999982e+03
4.200000000000000261e-02 1.337909999999999933e-01 1.698855000000000004e+01 6.531669999999999732e+01 1.828855000000000018e+03
4.300000000000000350e-02 1.337760000000000060e-01 1.649624999999999986e+01 6.496340000000000714e+01 1.828715000000000146e+03
4.400000000000000439e-02 1.337659999999999960e-01 1.610094999999999743e+01 6.483929999999999438e+01 1.828610000000000127e+03
4.499999999999999833e-02 1.337625000000000064e-01 1.581259999999999977e+01 6.497630000000000905e+01 1.828574999999999818e+03
4.599999999999999922e-02 1.337659999999999960e-01 1.562859999999999872e+01 6.537199999999999989e+01 1.828599999999999909e+03
4.700000000000000011e-02 1.337774999999999936e-01 1.553444999999999965e+01 6.598969999999999914e+01 1.828704999999999927e+03
4.800000000000000100e-02 1.337949999999999973e-01 1.550639999999999930e+01 6.676429999999999154e+01 1.828865000000000009e+03
4.900000000000000189e-02 1.338170000000000193e-01 1.551494999999999891e+01 6.761254999999999882e+01 1.829065000000000055e+03
5.000000000000000278e-02 1.338419999999999888e-01 1.552890000000000015e+01 6.844454999999999245e+01 1.829299999999999955e+03
5.100000000000000366e-02 1.338664999999999994e-01 1.551865000000000094e+01 6.917525000000000546e+01 1.829534999999999854e+03
5.200000000000000455e-02 1.338884999999999936e-01 1.545925000000000082e+01 6.973364999999999725e+01 1.829750000000000000e+03
5.300000000000000544e-02 1.339065000000000116e-01 1.533180000000000121e+01 7.006825000000000614e+01 1.829920000000000073e+03
5.399999999999999939e-02 1.339184999999999959e-01 1.512415000000000020e+01 7.014955000000000496e+01 1.830034999999999854e+03
5.500000000000000028e-02 1.339235000000000009e-01 1.483024999999999949e+01 6.996880000000000166e+01 1.830085000000000036e+03
5.600000000000000117e-02 1.339199999999999835e-01 1.444960000000000022e+01 6.953435000000000343e+01 1.830054999999999836e+03
5.700000000000000205e-02 1.339095000000000146e-01 1.398550000000000004e+01 6.886740000000000350e+01 1.829960000000000036e+03
5.800000000000000294e-02 1.338904999999999956e-01 1.344439999999999991e+01 6.799705000000000155e+01 1.829780000000000200e+03
5.900000000000000383e-02 1.338654999999999984e-01 1.283429999999999893e+01 6.695605000000000473e+01 1.829545000000000073e+03
6.000000000000000472e-02 1.338340000000000085e-01 1.216484999999999950e+01 6.577809999999999491e+01 1.829250000000000000e+03
6.099999999999999867e-02 1.337975000000000136e-01 1.144650999999999996e+01 6.449660000000000082e+01 1.828900000000000091e+03
6.199999999999999956e-02 1.337565000000000004e-01 1.069114000000000075e+01 6.314394999999999669e+01 1.828509999999999991e+03
6.300000000000000044e-02 1.337125000000000119e-01 9.911699999999999733e+00 6.175254999999999939e+01 1.828089999999999918e+03
6.400000000000000133e-02 1.336660000000000070e-01 9.122989999999999711e+00 6.035585000000000377e+01 1.827644999999999982e+03
6.500000000000000222e-02 1.336189999999999878e-01 8.341480000000000672e+00 5.898924999999999841e+01 1.827194999999999936e+03
6.600000000000000311e-02 1.335715000000000097e-01 7.585475000000000634e+00 5.769100000000000250e+01 1.826744999999999891e+03
6.700000000000000400e-02 1.335259999999999780e-01 6.874640000000000306e+00 5.650199999999999534e+01 1.826305000000000064e+03
6.800000000000000488e-02 1.334835000000000049e-01 6.229725000000000179e+00 5.546545000000000414e+01 1.825894999999999982e+03
6.900000000000000577e-02 1.334460000000000091e-01 5.671744999999999592e+00 5.462510000000000332e+01 1.825535000000000082e+03
7.000000000000000666e-02 1.334139999999999771e-01 5.221165000000000056e+00 5.402394999999999925e+01 1.825219999999999800e+03
7.100000000000000755e-02 1.333889999999999798e-01 4.896990000000000620e+00 5.370180000000000575e+01 1.824974999999999909e+03
7.200000000000000844e-02 1.333734999999999782e-01 4.715919999999999668e+00 5.369320000000000448e+01 1.824820000000000164e+03
7.300000000000000933e-02 1.333679999999999866e-01 4.691515000000000768e+00 5.402554999999999552e+01 1.824755000000000109e+03
7.399999999999999634e-02 1.333734999999999782e-01 4.833634999999999238e+00 5.471769999999999357e+01 1.824799999999999955e+03
7.499999999999999722e-02 1.333909999999999818e-01 5.147994999999999877e+00 5.577870000000000061e+01 1.824954999999999927e+03
7.599999999999999811e-02 1.334204999999999974e-01 5.635989999999999611e+00 5.720765000000000100e+01 1.825230000000000018e+03
7.699999999999999900e-02 1.334629999999999983e-01 6.294710000000000250e+00 5.899380000000000024e+01 1.825615000000000009e+03
7.799999999999999989e-02 1.335175000000000112e-01 7.117225000000000357e+00 6.111740000000000350e+01 1.826125000000000000e+03
7.900000000000000078e-02 1.335840000000000083e-01 8.093019999999999214e+00 6.355095000000000027e+01 1.826750000000000000e+03
8.000000000000000167e-02 1.336610000000000020e-01 9.208490000000001174e+00 6.626059999999999661e+01 1.827480000000000018e+03
8.100000000000000255e-02 1.337484999999999924e-01 1.044766999999999868e+01 6.920840000000001169e+01 1.828309999999999945e+03
8.200000000000000344e-02 1.338455000000000061e-01 1.179311500000000024e+01 7.235405000000000086e+01 1.829230000000000018e+03
8.300000000000000433e-02 1.339500000000000135e-01 1.322635499999999986e+01 7.565659999999999741e+01 1.830230000000000018e+03
8.400000000000000522e-02 1.340609999999999857e-01 1.472879999999999967e+01 7.907649999999999579e+01 1.831289999999999964e+03
8.500000000000000611e-02 1.341775000000000051e-01 1.628229999999999933e+01 8.257704999999999984e+01 1.832409999999999854e+03
8.600000000000000699e-02 1.342980000000000007e-01 1.786965000000000003e+01 8.612539999999999907e+01 1.833570000000000164e+03
8.700000000000000788e-02 1.344214999999999993e-01 1.947524999999999906e+01 8.969360000000000355e+01 1.834755000000000109e+03
8.800000000000000877e-02 1.345469999999999999e-01 2.108489999999999753e+01 9.325854999999999961e+01 1.835969999999999800e+03
8.899999999999999578e-02 1.346735000000000015e-01 2.268629999999999924e+01 9.680254999999999654e+01 1.837199999999999818e+03
8.999999999999999667e-02 1.348000000000000032e-01 2.426910000000000167e+01 1.003127499999999941e+02 1.838429999999999836e+03
9.099999999999999756e-02 1.349274999999999780e-01 2.582455000000000211e+01 1.037805500000000052e+02 1.839670000000000073e+03
9.199999999999999845e-02 1.350529999999999786e-01 2.734530000000000172e+01 1.071995000000000005e+02 1.840900000000000091e+03
9.299999999999999933e-02 1.351789999999999936e-01 2.882544999999999646e+01 1.105679999999999978e+02 1.842119999999999891e+03
9.400000000000000022e-02 1.353030000000000066e-01 3.026004999999999967e+01 1.138820000000000050e+02 1.843340000000000146e+03
9.500000000000000111e-02 1.354259999999999908e-01 3.164505000000000123e+01 1.171430000000000007e+02 1.844550000000000182e+03
9.600000000000000200e-02 1.355474999999999874e-01 3.297684999999999889e+01 1.203474999999999966e+02 1.845744999999999891e+03
9.700000000000000289e-02 1.356669999999999821e-01 3.425234999999999985e+01 1.234950000000000045e+02 1.846925000000000182e+03
9.800000000000000377e-02 1.357855000000000034e-01 3.546845000000000425e+01 1.265819999999999936e+02 1.848090000000000146e+03
9.900000000000000466e-02 1.359009999999999940e-01 3.662234999999999729e+01 1.296045000000000016e+02 1.849235000000000127e+03
1.000000000000000056e-01 1.360155000000000114e-01 3.771139999999999759e+01 1.325575000000000045e+02 1.850365000000000009e+03
1.010000000000000064e-01 1.361275000000000124e-01 3.873284999999999911e+01 1.354339999999999975e+02 1.851474999999999909e+03
1.020000000000000073e-01 1.362365000000000104e-01 3.968404999999999916e+01 1.382284999999999968e+02 1.852559999999999945e+03
1.030000000000000082e-01 1.363435000000000064e-01 4.056250000000000000e+01 1.409314999999999998e+02 1.853625000000000000e+03
1.040000000000000091e-01 1.364469999999999850e-01 4.136565000000000225e+01 1.435355000000000132e+02 1.854654999999999973e+03
1.050000000000000100e-01 1.365474999999999883e-01 4.209114999999999895e+01 1.460324999999999989e+02 1.855659999999999854e+03
1.059999999999999970e-01 1.366439999999999877e-01 4.273680000000000234e+01 1.484139999999999873e+02 1.856619999999999891e+03
1.069999999999999979e-01 1.367364999999999831e-01 4.330049999999999955e+01 1.506709999999999923e+02 1.857549999999999955e+03
1.079999999999999988e-01 1.368249999999999744e-01 4.378050000000000352e+01 1.527970000000000255e+02 1.858440000000000055e+03
1.089999999999999997e-01 1.369090000000000029e-01 4.417504999999999882e+01 1.547835000000000036e+02 1.859279999999999973e+03
1.100000000000000006e-01 1.369879999999999987e-01 4.448290000000000077e+01 1.566250000000000000e+02 1.860079999999999927e+03
1.110000000000000014e-01 1.370625000000000038e-01 4.470295000000000130e+01 1.583145000000000095e+02 1.860820000000000164e+03
1.120000000000000023e-01 1.371310000000000029e-01 4.483474999999999966e+01 1.598464999999999918e+02 1.861519999999999982e+03
1.130000000000000032e-01 1.371944999999999970e-01 4.487814999999999799e+01 1.612185000000000059e+02 1.862154999999999973e+03
1.140000000000000041e-01 1.372519999999999851e-01 4.483364999999999867e+01 1.624264999999999759e+02 1.862740000000000009e+03
1.150000000000000050e-01 1.373039999999999816e-01 4.470239999999999725e+01 1.634699999999999989e+02 1.863269999999999982e+03
1.160000000000000059e-01 1.373495000000000132e-01 4.448640000000000327e+01 1.643489999999999895e+02 1.863740000000000009e+03
1.170000000000000068e-01 1.373900000000000121e-01 4.418829999999999814e+01 1.650670000000000073e+02 1.864150000000000091e+03
1.180000000000000077e-01 1.374239999999999906e-01 4.381159999999999854e+01 1.656270000000000095e+02 1.864500000000000000e+03
1.190000000000000085e-01 1.374529999999999919e-01 4.336074999999999591e+01 1.660370000000000061e+02 1.864789999999999964e+03
1.200000000000000094e-01 1.374759999999999871e-01 4.284085000000000321e+01 1.663044999999999902e+02 1.865029999999999973e+03
1.209999999999999964e-01 1.374934999999999907e-01 4.225785000000000480e+01 1.664389999999999930e+02 1.865214999999999918e+03
1.219999999999999973e-01 1.375064999999999760e-01 4.161804999999999666e+01 1.664530000000000030e+02 1.865349999999999909e+03
1.229999999999999982e-01 1.375144999999999840e-01 4.092839999999999634e+01 1.663575000000000159e+02 1.865440000000000055e+03
1.239999999999999991e-01 1.375180000000000013e-01 4.019610000000000127e+01 1.661670000000000016e+02 1.865484999999999900e+03
1.250000000000000000e-01 1.375175000000000147e-01 3.942849999999999966e+01 1.658935000000000173e+02 1.865490000000000009e+03
1.260000000000000009e-01 1.375139999999999973e-01 3.863280000000000314e+01 1.655509999999999877e+02 1.865460000000000036e+03
1.270000000000000018e-01 1.375075000000000047e-01 3.781600000000000250e+01 1.651519999999999868e+02 1.865400000000000091e+03
1.280000000000000027e-01 1.374984999999999957e-01 3.698460000000000036e+01 1.647079999999999984e+02 1.865315000000000055e+03
1.290000000000000036e-01 1.374874999999999847e-01 3.614485000000000525e+01 1.642289999999999850e+02 1.865204999999999927e+03
1.300000000000000044e-01 1.374744999999999995e-01 3.530205000000000126e+01 1.637239999999999895e+02 1.865079999999999927e+03
1.310000000000000053e-01 1.374599999999999989e-01 3.446094999999999686e+01 1.632005000000000052e+02 1.864934999999999945e+03
1.320000000000000062e-01 1.374440000000000106e-01 3.362534999999999741e+01 1.626645000000000039e+02 1.864779999999999973e+03
1.330000000000000071e-01 1.374274999999999802e-01 3.279845000000000255e+01 1.621184999999999832e+02 1.864615000000000009e+03
1.340000000000000080e-01 1.374100000000000044e-01 3.198234999999999673e+01 1.615660000000000025e+02 1.864440000000000055e+03
1.350000000000000089e-01 1.373920000000000141e-01 3.117855000000000132e+01 1.610065000000000168e+02 1.864259999999999991e+03
1.360000000000000098e-01 1.373734999999999817e-01 3.038765000000000072e+01 1.604404999999999859e+02 1.864074999999999818e+03
1.370000000000000107e-01 1.373540000000000039e-01 2.960974999999999824e+01 1.598650000000000091e+02 1.863880000000000109e+03
1.380000000000000115e-01 1.373344999999999982e-01 2.884420000000000073e+01 1.592775000000000034e+02 1.863684999999999945e+03
1.390000000000000124e-01 1.373139999999999916e-01 2.808984999999999843e+01 1.586739999999999782e+02 1.863474999999999909e+03
1.400000000000000133e-01 1.372924999999999840e-01 2.734525000000000006e+01 1.580500000000000114e+02 1.863259999999999991e+03
1.410000000000000142e-01 1.372705000000000175e-01 2.660844999999999771e+01 1.574014999999999986e+02 1.863039999999999964e+03
1.420000000000000151e-01 1.372474999999999945e-01 2.587754999999999939e+01 1.567230000000000132e+02 1.862809999999999945e+03
1.430000000000000160e-01 1.372234999999999983e-01 2.515039999999999765e+01 1.560109999999999957e+02 1.862565000000000055e+03
1.440000000000000169e-01 1.371979999999999866e-01 2.442490000000000094e+01 1.552615000000000123e+02 1.862315000000000055e+03
1.450000000000000178e-01 1.371715000000000018e-01 2.369919999999999760e+01 1.544694999999999823e+02 1.862045000000000073e+03
1.459999999999999909e-01 1.371430000000000149e-01 2.297139999999999915e+01 1.536334999999999980e+02 1.861764999999999873e+03
1.469999999999999918e-01 1.371134999999999993e-01 2.224020000000000152e+01 1.527515000000000214e+02 1.861465000000000146e+03
1.479999999999999927e-01 1.370819999999999816e-01 2.150450000000000017e+01 1.518209999999999980e+02 1.861150000000000091e+03
1.489999999999999936e-01 1.370490000000000042e-01 2.076364999999999839e+01 1.508439999999999941e+02 1.860824999999999818e+03
1.499999999999999944e-01 1.370139999999999969e-01 2.001764999999999972e+01 1.498199999999999932e+02 1.860474999999999909e+03
1.509999999999999953e-01 1.369779999999999887e-01 1.926679999999999993e+01 1.487524999999999977e+02 1.860115000000000009e+03
1.519999999999999962e-01 1.369400000000000062e-01 1.851210000000000022e+01 1.476449999999999818e+02 1.859735000000000127e+03
1.529999999999999971e-01 1.369005000000000083e-01 1.775495000000000090e+01 1.465020000000000095e+02 1.859345000000000027e+03
1.539999999999999980e-01 1.368594999999999950e-01 1.699745000000000061e+01 1.453285000000000196e+02 1.858940000000000055e+03
1.549999999999999989e-01 1.368174999999999808e-01 1.624210000000000065e+01 1.441329999999999814e+02 1.858525000000000091e+03
1.559999999999999998e-01 1.367750000000000077e-01 1.549169999999999803e+01 1.429215000000000089e+02 1.858099999999999909e+03
1.570000000000000007e-01 1.367309999999999914e-01 1.474960000000000093e+01 1.417030000000000030e+02 1.857664999999999964e+03
1.580000000000000016e-01 1.366870000000000029e-01 1.401929999999999943e+01 1.404865000000000066e+02 1.857224999999999909e+03
1.590000000000000024e-01 1.366430000000000144e-01 1.330440000000000111e+01 1.392794999999999845e+02 1.856789999999999964e+03
