# t [s], A [cm^2], U [cm/s], P [cPa], c [cm/s]
1.000000000000000021e-03 5.784205000000000041e-01 3.272500000000001102e-03 1.072205000000000013e+02 1.403694999999999936e+03
2.000000000000000042e-03 5.784139999999999837e-01 2.691449999999999745e-03 1.072109999999999985e+02 1.403690000000000055e+03
3.000000000000000062e-03 5.784289999999999710e-01 2.352984999999999799e-02 1.072280000000000086e+02 1.403694999999999936e+03
4.000000000000000083e-03 5.784745000000000026e-01 8.898700000000001054e-02 1.073064999999999998e+02 1.403720000000000027e+03
5.000000000000000104e-03 5.785009999999999319e-01 1.296063999999999827e-01 1.073629999999999995e+02 1.403744999999999891e+03
6.000000000000000125e-03 5.784909999999999775e-01 1.153659999999999963e-01 1.073455000000000013e+02 1.403744999999999891e+03
7.000000000000000146e-03 5.784610000000000030e-01 6.856349999999999945e-02 1.072615000000000123e+02 1.403724999999999909e+03
8.000000000000000167e-03 5.784325000000000161e-01 2.386450000000001070e-02 1.071450000000000102e+02 1.403695000000000164e+03
9.000000000000001055e-03 5.784004999999999841e-01 -2.920549999999999535e-02 1.069925000000000068e+02 1.403654999999999973e+03
1.000000000000000194e-02 5.783460000000000267e-01 -1.230809999999999960e-01 1.067699999999999960e+02 1.403599999999999909e+03
1.099999999999999936e-02 5.782599999999999962e-01 -2.751939999999999387e-01 1.064455000000000098e+02 1.403509999999999991e+03
1.200000000000000025e-02 5.781359999999999832e-01 -4.935150000000000370e-01 1.059954999999999927e+02 1.403389999999999873e+03
1.300000000000000114e-02 5.779650000000000620e-01 -7.868850000000000566e-01 1.053900000000000006e+02 1.403224999999999909e+03
1.400000000000000203e-02 5.777430000000000065e-01 -1.155299999999999994e+00 1.046099999999999994e+02 1.403000000000000000e+03
1.499999999999999944e-02 5.774770000000000181e-01 -1.575714999999999755e+00 1.036587499999999977e+02 1.402730000000000018e+03
1.600000000000000033e-02 5.771859999999999769e-01 -2.001539999999999875e+00 1.025733999999999924e+02 1.402410000000000082e+03
1.700000000000000122e-02 5.768935000000000590e-01 -2.376595000000000013e+00 1.014117999999999995e+02 1.402055000000000064e+03
1.800000000000000211e-02 5.766195000000000626e-01 -2.652425000000000033e+00 1.002355500000000035e+02 1.401684999999999945e+03
1.900000000000000300e-02 5.763719999999999954e-01 -2.799710000000000143e+00 9.909024999999999750e+01 1.401309999999999945e+03
2.000000000000000042e-02 5.761494999999999811e-01 -2.811029500000000070e+00 9.800055000000000405e+01 1.400934999999999945e+03
2.100000000000000130e-02 5.759440000000000115e-01 -2.697032999999999792e+00 9.696905000000000996e+01 1.400570000000000164e+03
2.200000000000000219e-02 5.757425000000000459e-01 -2.479400000000000048e+00 9.597990000000000066e+01 1.400210000000000036e+03
2.299999999999999961e-02 5.755335000000000312e-01 -2.183250000000000135e+00 9.500900000000000034e+01 1.399849999999999909e+03
2.400000000000000050e-02 5.753074999999999717e-01 -1.830834999999999990e+00 9.403079999999999927e+01 1.399474999999999909e+03
2.500000000000000139e-02 5.750610000000000444e-01 -1.437395000000000200e+00 9.302604999999999791e+01 1.399095000000000027e+03
2.600000000000000228e-02 5.747934999999999572e-01 -1.009775000000000311e+00 9.198510000000000275e+01 1.398699999999999818e+03
2.700000000000000316e-02 5.745100000000000762e-01 -5.476699999999998791e-01 9.090919999999999845e+01 1.398289999999999964e+03
2.800000000000000058e-02 5.742165000000000186e-01 -4.690500000000019654e-02 8.980769999999999698e+01 1.397869999999999891e+03
2.900000000000000147e-02 5.739190000000000680e-01 4.963949999999996976e-01 8.869405000000000427e+01 1.397454999999999927e+03
3.000000000000000236e-02 5.736209999999999365e-01 1.082015000000000171e+00 8.758039999999999736e+01 1.397025000000000091e+03
3.099999999999999978e-02 5.733234999999999859e-01 1.703255000000000186e+00 8.647374999999999545e+01 1.396599999999999909e+03
3.200000000000000067e-02 5.730234999999999079e-01 2.346225000000000005e+00 8.537344999999999118e+01 1.396174999999999955e+03
3.300000000000000155e-02 5.727165000000000727e-01 2.990985000000000227e+00 8.427039999999999509e+01 1.395750000000000000e+03
3.400000000000000244e-02 5.723955000000000570e-01 3.613904999999999923e+00 8.314934999999999832e+01 1.395315000000000055e+03
3.500000000000000333e-02 5.720545000000000213e-01 4.190879999999999939e+00 8.199154999999998950e+01 1.394875000000000000e+03
3.600000000000000422e-02 5.716875000000000151e-01 4.700590000000000046e+00 8.077854999999999563e+01 1.394425000000000182e+03
3.700000000000000511e-02 5.712924999999999809e-01 5.127470000000000638e+00 7.949680000000000746e+01 1.393950000000000045e+03
3.799999999999999906e-02 5.708699999999999886e-01 5.463709999999999845e+00 7.814039999999999964e+01 1.393460000000000036e+03
3.899999999999999994e-02 5.704249999999999599e-01 5.709920000000000329e+00 7.671365000000000123e+01 1.392950000000000045e+03
4.000000000000000083e-02 5.699644999999999850e-01 5.874480000000000146e+00 7.523135000000000616e+01 1.392429999999999836e+03
4.100000000000000172e-02 5.694989999999999775e-01 5.972149999999999181e+00 7.371800000000000352e+01 1.391894999999999982e+03
4.200000000000000261e-02 5.690395000000000314e-01 6.021480000000000388e+00 7.220490000000000919e+01 1.391365000000000009e+03
4.300000000000000350e-02 5.685970000000000191e-01 6.042609999999999815e+00 7.072764999999999702e+01 1.390845000000000027e+03
4.400000000000000439e-02 5.681825000000000347e-01 6.054764999999999731e+00 6.932259999999999422e+01 1.390344999999999800e+03
4.499999999999999833e-02 5.678035000000000165e-01 6.075149999999999828e+00 6.802414999999999168e+01 1.389875000000000000e+03
4.599999999999999922e-02 5.674685000000000423e-01 6.117860000000000298e+00 6.686289999999999623e+01 1.389449999999999818e+03
4.700000000000000011e-02 5.671819999999999640e-01 6.193982500000000613e+00 6.586424999999999841e+01 1.389069999999999936e+03
4.800000000000000100e-02 5.669480000000000075e-01 6.311849999999999739e+00 6.504840000000000089e+01 1.388750000000000000e+03
4.900000000000000189e-02 5.667694999999999261e-01 6.478035000000000210e+00 6.443035000000000423e+01 1.388500000000000000e+03
5.000000000000000278e-02 5.666480000000000405e-01 6.697784999999999656e+00 6.402090000000001169e+01 1.388309999999999945e+03
5.100000000000000366e-02 5.665850000000000053e-01 6.976105000000000445e+00 6.382744999999999891e+01 1.388190000000000055e+03
5.200000000000000455e-02 5.665820000000000300e-01 7.317944999999999922e+00 6.385514999999999475e+01 1.388144999999999982e+03
5.300000000000000544e-02 5.666404999999999914e-01 7.728389999999999205e+00 6.410689999999999600e+01 1.388175000000000182e+03
5.399999999999999939e-02 5.667609999999999593e-01 8.212514999999999787e+00 6.458449999999999136e+01 1.388284999999999854e+03
5.500000000000000028e-02 5.669435000000000446e-01 8.774915000000000020e+00 6.528804999999999836e+01 1.388474999999999909e+03
5.600000000000000117e-02 5.671874999999999556e-01 9.419174999999999187e+00 6.621590000000000487e+01 1.388735000000000127e+03
5.700000000000000205e-02 5.674930000000000252e-01 1.014728500000000011e+01 6.736430000000000007e+01 1.389074999999999818e+03
5.800000000000000294e-02 5.678570000000000562e-01 1.095919499999999935e+01 6.872665000000000646e+01 1.389490000000000009e+03
5.900000000000000383e-02 5.682774999999999910e-01 1.185244499999999945e+01 7.029349999999999454e+01 1.389974999999999909e+03
6.000000000000000472e-02 5.687495000000000189e-01 1.282216000000000022e+01 7.205214999999999748e+01 1.390529999999999973e+03
6.099999999999999867e-02 5.692684999999999551e-01 1.386119000000000057e+01 7.398699999999999477e+01 1.391150000000000091e+03
6.199999999999999956e-02 5.698294999999999888e-01 1.496040499999999973e+01 7.607935000000000514e+01 1.391824999999999818e+03
6.300000000000000044e-02 5.704255000000000297e-01 1.610910499999999956e+01 7.830854999999999677e+01 1.392554999999999836e+03
6.400000000000000133e-02 5.710505000000000164e-01 1.729575499999999977e+01 8.065240000000000009e+01 1.393329999999999927e+03
6.500000000000000222e-02 5.716980000000000395e-01 1.850835000000000008e+01 8.308805000000000973e+01 1.394140000000000100e+03
6.600000000000000311e-02 5.723629999999999551e-01 1.973505000000000109e+01 8.559270000000000778e+01 1.394985000000000127e+03
6.700000000000000400e-02 5.730385000000000062e-01 2.096480000000000032e+01 8.814445000000000618e+01 1.395855000000000018e+03
6.800000000000000488e-02 5.737195000000000489e-01 2.218740000000000023e+01 9.072390000000000043e+01 1.396744999999999891e+03
6.900000000000000577e-02 5.744029999999999969e-01 2.339385000000000048e+01 9.331194999999999595e+01 1.397635000000000218e+03
7.000000000000000666e-02 5.750840000000000396e-01 2.457650000000000290e+01 9.589420000000001210e+01 1.398539999999999964e+03
7.100000000000000755e-02 5.757605000000000084e-01 2.572910000000000252e+01 9.845779999999999177e+01 1.399440000000000055e+03
7.200000000000000844e-02 5.764304999999999568e-01 2.684645000000000081e+01 1.009919500000000028e+02 1.400340000000000146e+03
7.300000000000000933e-02 5.770914999999999795e-01 2.792459999999999809e+01 1.034894500000000050e+02 1.401235000000000127e+03
7.399999999999999634e-02 5.777425000000000477e-01 2.896035000000000181e+01 1.059444500000000033e+02 1.402115000000000009e+03
7.499999999999999722e-02 5.783834999999999393e-01 2.995134999999999792e+01 1.083533500000000060e+02 1.402990000000000009e+03
7.599999999999999811e-02 5.790140000000000287e-01 3.089560000000000173e+01 1.107129999999999939e+02 1.403845000000000027e+03
7.699999999999999900e-02 5.796329999999999538e-01 3.179149999999999920e+01 1.130234999999999985e+02 1.404690000000000055e+03
7.799999999999999989e-02 5.802399999999999780e-01 3.263755000000000450e+01 1.152824999999999989e+02 1.405519999999999982e+03
7.900000000000000078e-02 5.808349999999999902e-01 3.343234999999999957e+01 1.174885000000000019e+02 1.406335000000000036e+03
8.000000000000000167e-02 5.814169999999999616e-01 3.417430000000000234e+01 1.196424999999999983e+02 1.407130000000000109e+03
8.100000000000000255e-02 5.819864999999999622e-01 3.486189999999999856e+01 1.217420000000000044e+02 1.407910000000000082e+03
8.200000000000000344e-02 5.825415000000000454e-01 3.549330000000000496e+01 1.237845000000000084e+02 1.408674999999999955e+03
8.300000000000000433e-02 5.830809999999999604e-01 3.606680000000000064e+01 1.257680000000000007e+02 1.409420000000000073e+03
8.400000000000000522e-02 5.836049999999999294e-01 3.658050000000000068e+01 1.276894999999999953e+02 1.410139999999999873e+03
8.500000000000000611e-02 5.841115000000000057e-01 3.703269999999999840e+01 1.295434999999999945e+02 1.410845000000000027e+03
8.600000000000000699e-02 5.845985000000000209e-01 3.742159999999999798e+01 1.313275000000000148e+02 1.411519999999999982e+03
8.700000000000000788e-02 5.850664999999999338e-01 3.774580000000000268e+01 1.330364999999999895e+02 1.412180000000000064e+03
8.800000000000000877e-02 5.855124999999999913e-01 3.800410000000000110e+01 1.346650000000000205e+02 1.412804999999999836e+03
8.899999999999999578e-02 5.859360000000000124e-01 3.819585000000000008e+01 1.362094999999999914e+02 1.413404999999999973e+03
8.999999999999999667e-02 5.863365000000000382e-01 3.832065000000000055e+01 1.376659999999999968e+02 1.413974999999999909e+03
9.099999999999999756e-02 5.867120000000000113e-01 3.837859999999999872e+01 1.390310000000000059e+02 1.414509999999999991e+03
9.199999999999999845e-02 5.870625000000000426e-01 3.837040000000000362e+01 1.403004999999999995e+02 1.415014999999999873e+03
9.299999999999999933e-02 5.873880000000000212e-01 3.829720000000000368e+01 1.414730000000000132e+02 1.415490000000000009e+03
9.400000000000000022e-02 5.876869999999999594e-01 3.816049999999999898e+01 1.425475000000000136e+02 1.415929999999999836e+03
9.500000000000000111e-02 5.879600000000000382e-01 3.796224999999999739e+01 1.435225000000000080e+02 1.416335000000000036e+03
9.600000000000000200e-02 5.882074999999999942e-01 3.770494999999999663e+01 1.443990000000000009e+02 1.416700000000000045e+03
9.700000000000000289e-02 5.884295000000000497e-01 3.739110000000000156e+01 1.451775000000000091e+02 1.417029999999999973e+03
9.800000000000000377e-02 5.886255000000000237e-01 3.702380000000000138e+01 1.458594999999999970e+02 1.417324999999999818e+03
9.900000000000000466e-02 5.887974999999999737e-01 3.660625000000000284e+01 1.464465000000000146e+02 1.417590000000000146e+03
1.000000000000000056e-01 5.889450000000000518e-01 3.614194999999999425e+01 1.469424999999999955e+02 1.417815000000000055e+03
1.010000000000000064e-01 5.890699999999999825e-01 3.563465000000000060e+01 1.473505000000000109e+02 1.418014999999999873e+03
1.020000000000000073e-01 5.891720000000000290e-01 3.508814999999999884e+01 1.476739999999999782e+02 1.418174999999999955e+03
1.030000000000000082e-01 5.892534999999999856e-01 3.450654999999999717e+01 1.479175000000000182e+02 1.418304999999999836e+03
1.040000000000000091e-01 5.893144999999999634e-01 3.389414999999999623e+01 1.480860000000000127e+02 1.418409999999999854e+03
1.050000000000000100e-01 5.893574999999999786e-01 3.325525000000000375e+01 1.481845000000000141e+02 1.418490000000000009e+03
1.059999999999999970e-01 5.893834999999999491e-01 3.259434999999999860e+01 1.482189999999999941e+02 1.418539999999999964e+03
1.069999999999999979e-01 5.893935000000000146e-01 3.191590000000000060e+01 1.481945000000000050e+02 1.418565000000000055e+03
1.079999999999999988e-01 5.893895000000000106e-01 3.122435000000000116e+01 1.481170000000000186e+02 1.418570000000000164e+03
1.089999999999999997e-01 5.893734999999999946e-01 3.052405000000000257e+01 1.479925000000000068e+02 1.418554999999999836e+03
1.100000000000000006e-01 5.893459999999999255e-01 2.981920000000000215e+01 1.478274999999999864e+02 1.418525000000000091e+03
1.110000000000000014e-01 5.893089999999999717e-01 2.911374999999999957e+01 1.476285000000000025e+02 1.418474999999999909e+03
1.120000000000000023e-01 5.892644999999999689e-01 2.841120000000000090e+01 1.473994999999999891e+02 1.418414999999999964e+03
1.130000000000000032e-01 5.892129999999999868e-01 2.771455000000000268e+01 1.471469999999999914e+02 1.418340000000000146e+03
1.140000000000000041e-01 5.891554999999999431e-01 2.702665000000000006e+01 1.468750000000000000e+02 1.418259999999999991e+03
1.150000000000000050e-01 5.890940000000000065e-01 2.634935000000000116e+01 1.465879999999999939e+02 1.418170000000000073e+03
1.160000000000000059e-01 5.890275000000000372e-01 2.568430000000000035e+01 1.462889999999999873e+02 1.418070000000000164e+03
1.170000000000000068e-01 5.889579999999999815e-01 2.503245000000000076e+01 1.459800000000000182e+02 1.417970000000000027e+03
1.180000000000000077e-01 5.888855000000000617e-01 2.439410000000000167e+01 1.456634999999999991e+02 1.417860000000000127e+03
1.190000000000000085e-01 5.888094999999999857e-01 2.376899999999999835e+01 1.453410000000000082e+02 1.417744999999999891e+03
1.200000000000000094e-01 5.887310000000000043e-01 2.315670000000000073e+01 1.450120000000000005e+02 1.417630000000000109e+03
1.209999999999999964e-01 5.886495000000000477e-01 2.255600000000000094e+01 1.446765000000000043e+02 1.417509999999999991e+03
1.219999999999999973e-01 5.885650000000000048e-01 2.196565000000000012e+01 1.443340000000000032e+02 1.417384999999999991e+03
1.229999999999999982e-01 5.884759999999999991e-01 2.138394999999999868e+01 1.439830000000000041e+02 1.417260000000000218e+03
1.239999999999999991e-01 5.883829999999999893e-01 2.080904999999999916e+01 1.436225000000000023e+02 1.417125000000000000e+03
1.250000000000000000e-01 5.882859999999999756e-01 2.023920000000000030e+01 1.432510000000000048e+02 1.416994999999999891e+03
1.260000000000000009e-01 5.881844999999999990e-01 1.967244999999999777e+01 1.428665000000000020e+02 1.416855000000000018e+03
1.270000000000000018e-01 5.880769999999999609e-01 1.910699999999999932e+01 1.424679999999999893e+02 1.416710000000000036e+03
1.280000000000000027e-01 5.879650000000000709e-01 1.854115000000000180e+01 1.420534999999999854e+02 1.416559999999999945e+03
1.290000000000000036e-01 5.878474999999999673e-01 1.797339999999999804e+01 1.416229999999999905e+02 1.416405000000000200e+03
1.300000000000000044e-01 5.877240000000000242e-01 1.740249999999999986e+01 1.411754999999999995e+02 1.416240000000000009e+03
1.310000000000000053e-01 5.875955000000000483e-01 1.682744999999999891e+01 1.407104999999999961e+02 1.416074999999999818e+03
1.320000000000000062e-01 5.874619999999999287e-01 1.624765000000000015e+01 1.402284999999999968e+02 1.415905000000000200e+03
1.330000000000000071e-01 5.873234999999999983e-01 1.566260000000000119e+01 1.397305000000000064e+02 1.415730000000000018e+03
1.340000000000000080e-01 5.871810000000000640e-01 1.507249999999999979e+01 1.392179999999999893e+02 1.415539999999999964e+03
1.350000000000000089e-01 5.870345000000000146e-01 1.447755000000000081e+01 1.386920000000000073e+02 1.415360000000000127e+03
1.360000000000000098e-01 5.868854999999999489e-01 1.387863499999999917e+01 1.381555000000000177e+02 1.415164999999999964e+03
1.370000000000000107e-01 5.867339999999999778e-01 1.327675499999999964e+01 1.376105000000000018e+02 1.414969999999999800e+03
1.380000000000000115e-01 5.865819999999999368e-01 1.267332499999999840e+01 1.370614999999999952e+02 1.414775000000000091e+03
1.390000000000000124e-01 5.864289999999999781e-01 1.207001999999999953e+01 1.365105000000000075e+02 1.414579999999999927e+03
1.400000000000000133e-01 5.862780000000000769e-01 1.146888500000000022e+01 1.359624999999999773e+02 1.414380000000000109e+03
1.410000000000000142e-01 5.861285000000000522e-01 1.087209999999999965e+01 1.354209999999999923e+02 1.414184999999999945e+03
1.420000000000000151e-01 5.859830000000000316e-01 1.028204000000000029e+01 1.348909999999999911e+02 1.413989999999999782e+03
1.430000000000000160e-01 5.858419999999999739e-01 9.701119999999999521e+00 1.343754999999999882e+02 1.413805000000000064e+03
1.440000000000000169e-01 5.857069999999999776e-01 9.131985000000000241e+00 1.338795000000000073e+02 1.413625000000000000e+03
1.450000000000000178e-01 5.855790000000000717e-01 8.577059999999999462e+00 1.334074999999999989e+02 1.413450000000000045e+03
1.459999999999999909e-01 5.854589999999999517e-01 8.038879999999998915e+00 1.329619999999999891e+02 1.413279999999999973e+03
1.469999999999999918e-01 5.853475000000000206e-01 7.519655000000000200e+00 1.325480000000000018e+02 1.413125000000000000e+03
1.479999999999999927e-01 5.852465000000000028e-01 7.021564999999999834e+00 1.321670000000000016e+02 1.412985000000000127e+03
1.489999999999999936e-01 5.851549999999999807e-01 6.546394999999999520e+00 1.318230000000000075e+02 1.412849999999999909e+03
1.499999999999999944e-01 5.850744999999999418e-01 6.095670000000000144e+00 1.315165000000000077e+02 1.412724999999999909e+03
1.509999999999999953e-01 5.850049999999999972e-01 5.670564999999999856e+00 1.312504999999999882e+02 1.412619999999999891e+03
1.519999999999999962e-01 5.849465000000000359e-01 5.271880000000000344e+00 1.310244999999999891e+02 1.412525000000000091e+03
1.529999999999999971e-01 5.848989999999999467e-01 4.900014999999999787e+00 1.308379999999999939e+02 1.412450000000000045e+03
1.539999999999999980e-01 5.848619999999999930e-01 4.554999999999999716e+00 1.306914999999999907e+02 1.412380000000000109e+03
1.549999999999999989e-01 5.848349999999999937e-01 4.236480000000000246e+00 1.305825000000000102e+02 1.412324999999999818e+03
1.559999999999999998e-01 5.848180000000000600e-01 3.943755000000000344e+00 1.305090000000000146e+02 1.412289999999999964e+03
1.570000000000000007e-01 5.848099999999999410e-01 3.675799999999999734e+00 1.304689999999999941e+02 1.412259999999999991e+03
1.580000000000000016e-01 5.848090000000000233e-01 3.431320000000000370e+00 1.304594999999999914e+02 1.412240000000000009e+03
1.590000000000000024e-01 5.848160000000000025e-01 3.208789999999999587e+00 1.304759999999999991e+02 1.412230000000000018e+03
