# t [s], A [cm^2], U [cm/s], P [cPa], c [cm/s]
1.000000000000000021e-03 1.536560000000000148e-01 1.445298499999999875e-01 1.026409000000000020e+02 1.767375000000000000e+03
2.000000000000000042e-03 1.536454999999999904e-01 1.442135500000000015e+00 1.001606500000000040e+02 1.767259999999999991e+03
3.000000000000000062e-03 1.535699999999999843e-01 3.098494999999999777e+00 9.703669999999999618e+01 1.766529999999999973e+03
4.000000000000000083e-03 1.534444999999999837e-01 4.946420499999999443e+00 9.334270000000000778e+01 1.765349999999999909e+03
5.000000000000000104e-03 1.532874999999999932e-01 6.937446500000000071e+00 8.956919999999999504e+01 1.763884999999999991e+03
6.000000000000000125e-03 1.531170000000000031e-01 9.015404999999999447e+00 8.609954999999999359e+01 1.762309999999999945e+03
7.000000000000000146e-03 1.529449999999999976e-01 1.108746000000000009e+01 8.308584999999999354e+01 1.760740000000000009e+03
8.000000000000000167e-03 1.527779999999999971e-01 1.304635999999999996e+01 8.048134999999999195e+01 1.759230000000000018e+03
9.000000000000001055e-03 1.526190000000000047e-01 1.481776499999999963e+01 7.817314999999999259e+01 1.757815000000000055e+03
1.000000000000000194e-02 1.524709999999999954e-01 1.638224999999999909e+01 7.610689999999999600e+01 1.756509999999999991e+03
1.099999999999999936e-02 1.523370000000000002e-01 1.775150000000000006e+01 7.429435000000000855e+01 1.755339999999999918e+03
1.200000000000000025e-02 1.522175000000000056e-01 1.893945000000000078e+01 7.275305000000000177e+01 1.754309999999999945e+03
1.300000000000000114e-02 1.521139999999999992e-01 1.995469999999999899e+01 7.147534999999999172e+01 1.753420000000000073e+03
1.400000000000000203e-02 1.520250000000000212e-01 2.080300000000000082e+01 7.043285000000000196e+01 1.752674999999999955e+03
1.499999999999999944e-02 1.519504999999999884e-01 2.148789999999999978e+01 6.958350000000000080e+01 1.752049999999999955e+03
1.600000000000000033e-02 1.518875000000000086e-01 2.201340000000000074e+01 6.887699999999999534e+01 1.751530000000000200e+03
1.700000000000000122e-02 1.518349999999999977e-01 2.239175000000000182e+01 6.827330000000000609e+01 1.751105000000000018e+03
1.800000000000000211e-02 1.517899999999999805e-01 2.265295000000000059e+01 6.776990000000000691e+01 1.750750000000000000e+03
1.900000000000000300e-02 1.517554999999999876e-01 2.284564999999999912e+01 6.741729999999999734e+01 1.750474999999999909e+03
2.000000000000000042e-02 1.517314999999999914e-01 2.302749999999999986e+01 6.730804999999999438e+01 1.750295000000000073e+03
2.100000000000000130e-02 1.517215000000000091e-01 2.324919999999999831e+01 6.754059999999999775e+01 1.750235000000000127e+03
2.200000000000000219e-02 1.517280000000000018e-01 2.353979999999999961e+01 6.817734999999998990e+01 1.750305000000000064e+03
2.299999999999999961e-02 1.517509999999999970e-01 2.390010000000000190e+01 6.921514999999999418e+01 1.750514999999999873e+03
2.400000000000000050e-02 1.517895000000000216e-01 2.430420000000000158e+01 7.057859999999999445e+01 1.750860000000000127e+03
2.500000000000000139e-02 1.518404999999999894e-01 2.470915000000000106e+01 7.213665000000000305e+01 1.751300000000000182e+03
2.600000000000000228e-02 1.518990000000000062e-01 2.506709999999999994e+01 7.373279999999999745e+01 1.751815000000000055e+03
2.700000000000000316e-02 1.519594999999999974e-01 2.533684999999999832e+01 7.521875000000000000e+01 1.752349999999999909e+03
2.800000000000000058e-02 1.520185000000000008e-01 2.549200000000000088e+01 7.648234999999999673e+01 1.752869999999999891e+03
2.900000000000000147e-02 1.520714999999999983e-01 2.552420000000000044e+01 7.746369999999998868e+01 1.753345000000000027e+03
3.000000000000000236e-02 1.521164999999999878e-01 2.544154999999999944e+01 7.815659999999999741e+01 1.753750000000000000e+03
3.099999999999999978e-02 1.521524999999999961e-01 2.526359999999999673e+01 7.859899999999998954e+01 1.754085000000000036e+03
3.200000000000000067e-02 1.521810000000000107e-01 2.501464999999999961e+01 7.885444999999999993e+01 1.754345000000000027e+03
3.300000000000000155e-02 1.522034999999999916e-01 2.471705000000000041e+01 7.899205000000000609e+01 1.754549999999999955e+03
3.400000000000000244e-02 1.522209999999999952e-01 2.438644999999999996e+01 7.906880000000001019e+01 1.754715000000000146e+03
3.500000000000000333e-02 1.522344999999999948e-01 2.402974999999999994e+01 7.911875000000000568e+01 1.754839999999999918e+03
3.600000000000000422e-02 1.522459999999999924e-01 2.364589999999999748e+01 7.915024999999999977e+01 1.754940000000000055e+03
3.700000000000000511e-02 1.522540000000000004e-01 2.322834999999999894e+01 7.915040000000000475e+01 1.755025000000000091e+03
3.799999999999999906e-02 1.522594999999999921e-01 2.276919999999999789e+01 7.909469999999998890e+01 1.755074999999999818e+03
3.899999999999999994e-02 1.522609999999999797e-01 2.226320000000000121e+01 7.895850000000000080e+01 1.755099999999999909e+03
4.000000000000000083e-02 1.522590000000000054e-01 2.171119999999999806e+01 7.872819999999998686e+01 1.755085000000000036e+03
4.100000000000000172e-02 1.522534999999999861e-01 2.112160000000000082e+01 7.840854999999999109e+01 1.755039999999999964e+03
4.200000000000000261e-02 1.522434999999999761e-01 2.051060000000000016e+01 7.802545000000000641e+01 1.754965000000000146e+03
4.300000000000000350e-02 1.522315000000000196e-01 1.990050000000000097e+01 7.762389999999999191e+01 1.754869999999999891e+03
4.400000000000000439e-02 1.522195000000000076e-01 1.931644999999999968e+01 7.726124999999998977e+01 1.754764999999999873e+03
4.499999999999999833e-02 1.522084999999999966e-01 1.878280000000000172e+01 7.699739999999999895e+01 1.754670000000000073e+03
4.599999999999999922e-02 1.522009999999999752e-01 1.831944999999999979e+01 7.688464999999999350e+01 1.754605000000000018e+03
4.700000000000000011e-02 1.521985000000000143e-01 1.793905000000000172e+01 7.695889999999999986e+01 1.754575000000000045e+03
4.800000000000000100e-02 1.522025000000000183e-01 1.764529999999999887e+01 7.723335000000000150e+01 1.754610000000000127e+03
4.900000000000000189e-02 1.522135000000000016e-01 1.743299999999999983e+01 7.769689999999999941e+01 1.754700000000000045e+03
5.000000000000000278e-02 1.522310000000000052e-01 1.728889999999999816e+01 7.831589999999999918e+01 1.754840000000000146e+03
5.100000000000000366e-02 1.522545000000000148e-01 1.719395000000000095e+01 7.903934999999999889e+01 1.755039999999999964e+03
5.200000000000000455e-02 1.522815000000000141e-01 1.712594999999999956e+01 7.980575000000000330e+01 1.755264999999999873e+03
5.300000000000000544e-02 1.523100000000000009e-01 1.706190000000000140e+01 8.055140000000000100e+01 1.755509999999999991e+03
5.399999999999999939e-02 1.523395000000000166e-01 1.698069999999999879e+01 8.121680000000000632e+01 1.755759999999999991e+03
5.500000000000000028e-02 1.523654999999999871e-01 1.686435000000000173e+01 8.175260000000000105e+01 1.755990000000000009e+03
5.600000000000000117e-02 1.523875000000000091e-01 1.669910000000000139e+01 8.212264999999999304e+01 1.756180000000000064e+03
5.700000000000000205e-02 1.524044999999999983e-01 1.647564999999999813e+01 8.230504999999999427e+01 1.756325000000000045e+03
5.800000000000000294e-02 1.524145000000000083e-01 1.618894999999999840e+01 8.229169999999999163e+01 1.756414999999999964e+03
5.900000000000000383e-02 1.524175000000000113e-01 1.583735000000000070e+01 8.208549999999999613e+01 1.756444999999999936e+03
6.000000000000000472e-02 1.524129999999999929e-01 1.542204999999999870e+01 8.169819999999999993e+01 1.756409999999999854e+03
6.099999999999999867e-02 1.524010000000000087e-01 1.494600000000000151e+01 8.114685000000000059e+01 1.756309999999999945e+03
6.199999999999999956e-02 1.523825000000000041e-01 1.441375000000000028e+01 8.045154999999999745e+01 1.756154999999999973e+03
6.300000000000000044e-02 1.523579999999999934e-01 1.383085000000000164e+01 7.963360000000000127e+01 1.755940000000000055e+03
6.400000000000000133e-02 1.523275000000000046e-01 1.320364999999999966e+01 7.871450000000000102e+01 1.755684999999999945e+03
6.500000000000000222e-02 1.522919999999999829e-01 1.253969999999999985e+01 7.771584999999998900e+01 1.755380000000000109e+03
6.600000000000000311e-02 1.522529999999999994e-01 1.184755000000000003e+01 7.665975000000000250e+01 1.755039999999999964e+03
6.700000000000000400e-02 1.522100000000000120e-01 1.113746499999999884e+01 7.556940000000000168e+01 1.754674999999999955e+03
6.800000000000000488e-02 1.521655000000000091e-01 1.042108500000000149e+01 7.447004999999998631e+01 1.754289999999999964e+03
6.900000000000000577e-02 1.521200000000000052e-01 9.711854999999999905e+00 7.338970000000000482e+01 1.753894999999999982e+03
7.000000000000000666e-02 1.520739999999999870e-01 9.024799999999999045e+00 7.235875000000000057e+01 1.753500000000000000e+03
7.100000000000000755e-02 1.520299999999999985e-01 8.376139999999999475e+00 7.141030000000000655e+01 1.753119999999999891e+03
7.200000000000000844e-02 1.519884999999999986e-01 7.782994999999999663e+00 7.057914999999999850e+01 1.752755000000000109e+03
7.300000000000000933e-02 1.519510000000000027e-01 7.262630000000000585e+00 6.990064999999999884e+01 1.752430000000000064e+03
7.399999999999999634e-02 1.519199999999999995e-01 6.831984999999999530e+00 6.940944999999999254e+01 1.752154999999999973e+03
7.499999999999999722e-02 1.518955000000000166e-01 6.506859999999999644e+00 6.913759999999999195e+01 1.751934999999999945e+03
7.599999999999999811e-02 1.518795000000000006e-01 6.301294999999999646e+00 6.911350000000000193e+01 1.751789999999999964e+03
7.699999999999999900e-02 1.518734999999999946e-01 6.226964999999999861e+00 6.936010000000000275e+01 1.751730000000000018e+03
7.799999999999999989e-02 1.518784999999999996e-01 6.292735000000000412e+00 6.989390000000000214e+01 1.751764999999999873e+03
7.900000000000000078e-02 1.518950000000000022e-01 6.504355000000000331e+00 7.072450000000000614e+01 1.751889999999999873e+03
8.000000000000000167e-02 1.519234999999999891e-01 6.864269999999999428e+00 7.185405000000000086e+01 1.752130000000000109e+03
8.100000000000000255e-02 1.519645000000000024e-01 7.371644999999999115e+00 7.327725000000000932e+01 1.752474999999999909e+03
8.200000000000000344e-02 1.520179999999999865e-01 8.022510000000000474e+00 7.498234999999999673e+01 1.752924999999999955e+03
8.300000000000000433e-02 1.520839999999999970e-01 8.810069999999999624e+00 7.695144999999999413e+01 1.753480000000000018e+03
8.400000000000000522e-02 1.521615000000000051e-01 9.725080000000000169e+00 7.916194999999999027e+01 1.754139999999999873e+03
8.500000000000000611e-02 1.522494999999999821e-01 1.075629500000000149e+01 8.158750000000000568e+01 1.754889999999999873e+03
8.600000000000000699e-02 1.523474999999999968e-01 1.189100499999999982e+01 8.419964999999999122e+01 1.755724999999999909e+03
8.700000000000000788e-02 1.524540000000000062e-01 1.311552000000000007e+01 8.696885000000000332e+01 1.756644999999999982e+03
8.800000000000000877e-02 1.525684999999999958e-01 1.441570000000000107e+01 8.986609999999998877e+01 1.757634999999999991e+03
8.899999999999999578e-02 1.526894999999999780e-01 1.577744999999999820e+01 9.286349999999998772e+01 1.758680000000000064e+03
8.999999999999999667e-02 1.528160000000000074e-01 1.718700000000000117e+01 9.593555000000000632e+01 1.759775000000000091e+03
9.099999999999999756e-02 1.529469999999999996e-01 1.863135000000000119e+01 9.905949999999999989e+01 1.760914999999999964e+03
9.199999999999999845e-02 1.530815000000000092e-01 2.009839999999999804e+01 1.022163500000000056e+02 1.762085000000000036e+03
9.299999999999999933e-02 1.532184999999999797e-01 2.157704999999999984e+01 1.053890999999999991e+02 1.763284999999999854e+03
9.400000000000000022e-02 1.533574999999999799e-01 2.305729999999999791e+01 1.085655000000000001e+02 1.764500000000000000e+03
9.500000000000000111e-02 1.534975000000000089e-01 2.453034999999999854e+01 1.117349999999999994e+02 1.765724999999999909e+03
9.600000000000000200e-02 1.536385000000000112e-01 2.598819999999999908e+01 1.148890000000000100e+02 1.766964999999999918e+03
9.700000000000000289e-02 1.537789999999999990e-01 2.742374999999999829e+01 1.180219999999999914e+02 1.768210000000000036e+03
9.800000000000000377e-02 1.539200000000000013e-01 2.883064999999999856e+01 1.211285000000000025e+02 1.769454999999999927e+03
9.900000000000000466e-02 1.540600000000000025e-01 3.020309999999999917e+01 1.242040000000000077e+02 1.770694999999999936e+03
1.000000000000000056e-01 1.541994999999999894e-01 3.153569999999999851e+01 1.272439999999999998e+02 1.771934999999999945e+03
1.010000000000000064e-01 1.543379999999999752e-01 3.282344999999999402e+01 1.302439999999999998e+02 1.773164999999999964e+03
1.020000000000000073e-01 1.544750000000000012e-01 3.406150000000000233e+01 1.331980000000000075e+02 1.774384999999999991e+03
1.030000000000000082e-01 1.546109999999999984e-01 3.524530000000000030e+01 1.361005000000000109e+02 1.775599999999999909e+03
1.040000000000000091e-01 1.547439999999999927e-01 3.637049999999999983e+01 1.389445000000000050e+02 1.776795000000000073e+03
1.050000000000000100e-01 1.548760000000000137e-01 3.743299999999999983e+01 1.417224999999999966e+02 1.777974999999999909e+03
1.059999999999999970e-01 1.550050000000000039e-01 3.842884999999999707e+01 1.444279999999999973e+02 1.779134999999999991e+03
1.069999999999999979e-01 1.551305000000000045e-01 3.935460000000000491e+01 1.470525000000000091e+02 1.780264999999999873e+03
1.079999999999999988e-01 1.552540000000000031e-01 4.020674999999999955e+01 1.495889999999999986e+02 1.781369999999999891e+03
1.089999999999999997e-01 1.553734999999999977e-01 4.098255000000000337e+01 1.520285000000000082e+02 1.782454999999999927e+03
1.100000000000000006e-01 1.554885000000000017e-01 4.167940000000000111e+01 1.543659999999999854e+02 1.783494999999999891e+03
1.110000000000000014e-01 1.555999999999999883e-01 4.229524999999999579e+01 1.565930000000000177e+02 1.784500000000000000e+03
1.120000000000000023e-01 1.557064999999999977e-01 4.282824999999999704e+01 1.587049999999999841e+02 1.785469999999999800e+03
1.130000000000000032e-01 1.558084999999999887e-01 4.327710000000000434e+01 1.606955000000000098e+02 1.786394999999999982e+03
1.140000000000000041e-01 1.559050000000000158e-01 4.364079999999999870e+01 1.625604999999999905e+02 1.787279999999999973e+03
1.150000000000000050e-01 1.559964999999999824e-01 4.391884999999999906e+01 1.642955000000000041e+02 1.788115000000000009e+03
1.160000000000000059e-01 1.560825000000000129e-01 4.411100000000000421e+01 1.658965000000000032e+02 1.788900000000000091e+03
1.170000000000000068e-01 1.561629999999999963e-01 4.421760000000000446e+01 1.673605000000000018e+02 1.789634999999999991e+03
1.180000000000000077e-01 1.562370000000000148e-01 4.423914999999999509e+01 1.686870000000000118e+02 1.790315000000000055e+03
1.190000000000000085e-01 1.563049999999999995e-01 4.417665000000000219e+01 1.698725000000000023e+02 1.790940000000000055e+03
1.200000000000000094e-01 1.563670000000000060e-01 4.403185000000000571e+01 1.709180000000000064e+02 1.791519999999999982e+03
1.209999999999999964e-01 1.564229999999999787e-01 4.380660000000000309e+01 1.718234999999999957e+02 1.792029999999999973e+03
1.219999999999999973e-01 1.564730000000000010e-01 4.350350000000000250e+01 1.725904999999999916e+02 1.792494999999999891e+03
1.229999999999999982e-01 1.565165000000000028e-01 4.312570000000000192e+01 1.732214999999999918e+02 1.792900000000000091e+03
1.239999999999999991e-01 1.565539999999999987e-01 4.267685000000000173e+01 1.737199999999999989e+02 1.793250000000000000e+03
1.250000000000000000e-01 1.565854999999999886e-01 4.216110000000000468e+01 1.740919999999999845e+02 1.793545000000000073e+03
1.260000000000000009e-01 1.566110000000000002e-01 4.158324999999999960e+01 1.743435000000000059e+02 1.793789999999999964e+03
1.270000000000000018e-01 1.566314999999999791e-01 4.094839999999999947e+01 1.744809999999999945e+02 1.793980000000000018e+03
1.280000000000000027e-01 1.566460000000000075e-01 4.026219999999999999e+01 1.745140000000000100e+02 1.794125000000000000e+03
1.290000000000000036e-01 1.566559999999999897e-01 3.953050000000000352e+01 1.744504999999999768e+02 1.794224999999999909e+03
1.300000000000000044e-01 1.566609999999999947e-01 3.875930000000000319e+01 1.743009999999999877e+02 1.794280000000000200e+03
1.310000000000000053e-01 1.566624999999999823e-01 3.795479999999999876e+01 1.740740000000000123e+02 1.794289999999999964e+03
1.320000000000000062e-01 1.566595000000000071e-01 3.712310000000000088e+01 1.737804999999999893e+02 1.794275000000000091e+03
1.330000000000000071e-01 1.566535000000000011e-01 3.627009999999999934e+01 1.734284999999999854e+02 1.794224999999999909e+03
1.340000000000000080e-01 1.566434999999999911e-01 3.540155000000000030e+01 1.730274999999999750e+02 1.794144999999999982e+03
1.350000000000000089e-01 1.566319999999999935e-01 3.452285000000000537e+01 1.725865000000000009e+02 1.794039999999999964e+03
1.360000000000000098e-01 1.566175000000000206e-01 3.363875000000000171e+01 1.721114999999999782e+02 1.793910000000000082e+03
1.370000000000000107e-01 1.566009999999999902e-01 3.275365000000000038e+01 1.716094999999999970e+02 1.793769999999999982e+03
1.380000000000000115e-01 1.565830000000000000e-01 3.187149999999999750e+01 1.710854999999999961e+02 1.793599999999999909e+03
1.390000000000000124e-01 1.565630000000000077e-01 3.099549999999999983e+01 1.705444999999999993e+02 1.793429999999999836e+03
1.400000000000000133e-01 1.565425000000000011e-01 3.012825000000000131e+01 1.699884999999999877e+02 1.793240000000000009e+03
1.410000000000000142e-01 1.565205000000000068e-01 2.927185000000000059e+01 1.694200000000000159e+02 1.793039999999999964e+03
1.420000000000000151e-01 1.564975000000000116e-01 2.842775000000000318e+01 1.688394999999999868e+02 1.792829999999999927e+03
1.430000000000000160e-01 1.564740000000000020e-01 2.759684999999999988e+01 1.682475000000000023e+02 1.792615000000000009e+03
1.440000000000000169e-01 1.564494999999999914e-01 2.677949999999999875e+01 1.676424999999999841e+02 1.792389999999999873e+03
1.450000000000000178e-01 1.564234999999999931e-01 2.597569999999999979e+01 1.670235000000000127e+02 1.792155000000000200e+03
1.459999999999999909e-01 1.563970000000000082e-01 2.518489999999999895e+01 1.663880000000000052e+02 1.791914999999999964e+03
1.469999999999999918e-01 1.563700000000000090e-01 2.440630000000000166e+01 1.657339999999999804e+02 1.791664999999999964e+03
1.479999999999999927e-01 1.563414999999999944e-01 2.363884999999999792e+01 1.650579999999999927e+02 1.791404999999999973e+03
1.489999999999999936e-01 1.563124999999999931e-01 2.288119999999999976e+01 1.643575000000000159e+02 1.791139999999999873e+03
1.499999999999999944e-01 1.562815000000000176e-01 2.213179999999999836e+01 1.636290000000000191e+02 1.790860000000000127e+03
1.509999999999999953e-01 1.562494999999999856e-01 2.138929999999999865e+01 1.628704999999999927e+02 1.790570000000000164e+03
1.519999999999999962e-01 1.562159999999999938e-01 2.065209999999999724e+01 1.620790000000000077e+02 1.790269999999999982e+03
1.529999999999999971e-01 1.561815000000000009e-01 1.991880000000000095e+01 1.612514999999999930e+02 1.789950000000000045e+03
1.539999999999999980e-01 1.561454999999999926e-01 1.918815000000000026e+01 1.603870000000000005e+02 1.789625000000000000e+03
1.549999999999999989e-01 1.561069999999999958e-01 1.845915000000000106e+01 1.594839999999999804e+02 1.789279999999999973e+03
1.559999999999999998e-01 1.560674999999999979e-01 1.773094999999999999e+01 1.585424999999999898e+02 1.788920000000000073e+03
1.570000000000000007e-01 1.560265000000000124e-01 1.700325000000000131e+01 1.575625000000000000e+02 1.788550000000000182e+03
1.580000000000000016e-01 1.559829999999999828e-01 1.627595000000000169e+01 1.565444999999999993e+02 1.788159999999999854e+03
1.590000000000000024e-01 1.559380000000000210e-01 1.554929999999999879e+01 1.554920000000000186e+02 1.787750000000000000e+03
