# t [s], A [cm^2], U [cm/s], P [cPa], c [cm/s]
1.000000000000000021e-03 6.910435000000000327e-01 4.110000000000002540e-03 9.396215000000000828e+01 1.630865000000000009e+03
2.000000000000000042e-03 6.910374999999999712e-01 1.010565000000000074e-02 9.393505000000000393e+01 1.630860000000000127e+03
3.000000000000000062e-03 6.911270000000000469e-01 1.692469000000000057e-01 9.410219999999999629e+01 1.630900000000000091e+03
4.000000000000000083e-03 6.911534999999999762e-01 2.423059999999999936e-01 9.417240000000001032e+01 1.630920000000000073e+03
5.000000000000000104e-03 6.910620000000000651e-01 1.254194999999999893e-01 9.393144999999999811e+01 1.630865000000000009e+03
6.000000000000000125e-03 6.909570000000000434e-01 -3.025999999999995360e-02 9.352379999999999427e+01 1.630764999999999873e+03
7.000000000000000146e-03 6.908244999999999525e-01 -2.485049999999999759e-01 9.295555000000000234e+01 1.630630000000000109e+03
8.000000000000000167e-03 6.905890000000000084e-01 -6.618549999999999711e-01 9.204330000000000211e+01 1.630409999999999854e+03
9.000000000000001055e-03 6.902589999999999559e-01 -1.250359999999999916e+00 9.074585000000000434e+01 1.630099999999999909e+03
1.000000000000000194e-02 6.898239999999999927e-01 -2.010674999999999990e+00 8.901869999999999550e+01 1.629674999999999955e+03
1.099999999999999936e-02 6.892454999999999554e-01 -2.979890000000000150e+00 8.676125000000000398e+01 1.629109999999999900e+03
1.200000000000000025e-02 6.885535000000000405e-01 -4.077725000000000044e+00 8.401394999999999413e+01 1.628409999999999854e+03
1.300000000000000114e-02 6.878680000000000350e-01 -5.054851499999999831e+00 8.108375000000000909e+01 1.627634999999999991e+03
1.400000000000000203e-02 6.873270000000000213e-01 -5.629877500000000090e+00 7.841105000000000302e+01 1.626894999999999982e+03
1.499999999999999944e-02 6.869939999999999936e-01 -5.650059999999999860e+00 7.633189999999999031e+01 1.626264999999999873e+03
1.600000000000000033e-02 6.868395000000000472e-01 -5.147629999999999484e+00 7.493360000000001264e+01 1.625784999999999854e+03
1.700000000000000122e-02 6.867695000000000327e-01 -4.300309999999999633e+00 7.404964999999999975e+01 1.625429999999999836e+03
1.800000000000000211e-02 6.866680000000000561e-01 -3.344930000000000181e+00 7.335309999999999775e+01 1.625125000000000000e+03
1.900000000000000300e-02 6.864479999999999471e-01 -2.482037999999999744e+00 7.249934999999999263e+01 1.624805000000000064e+03
2.000000000000000042e-02 6.860794999999999533e-01 -1.805072999999999928e+00 7.126179999999999382e+01 1.624404999999999973e+03
2.100000000000000130e-02 6.855955000000000243e-01 -1.285955000000000181e+00 6.960114999999998986e+01 1.623909999999999854e+03
2.200000000000000219e-02 6.850605000000000722e-01 -8.220600000000000129e-01 6.763790000000000191e+01 1.623345000000000027e+03
2.299999999999999961e-02 6.845354999999999634e-01 -3.110550000000000814e-01 6.555644999999999811e+01 1.622735000000000127e+03
2.400000000000000050e-02 6.840500000000000469e-01 2.888700000000001822e-01 6.350169999999999959e+01 1.622125000000000000e+03
2.500000000000000139e-02 6.835890000000000022e-01 9.347949999999998205e-01 6.151179999999999382e+01 1.621519999999999982e+03
2.600000000000000228e-02 6.831054999999999211e-01 1.509514999999999940e+00 5.950124999999999886e+01 1.620900000000000091e+03
2.700000000000000316e-02 6.825339999999999741e-01 1.855844999999999523e+00 5.728790000000000049e+01 1.620240000000000009e+03
2.800000000000000058e-02 6.818144999999999900e-01 1.822484999999999911e+00 5.465250000000000341e+01 1.619485000000000127e+03
2.900000000000000147e-02 6.809085000000000276e-01 1.309540000000000148e+00 5.141249999999999432e+01 1.618595000000000027e+03
3.000000000000000236e-02 6.798180000000000334e-01 3.006499999999991957e-01 4.748845000000000027e+01 1.617534999999999854e+03
3.099999999999999978e-02 6.785835000000000061e-01 -1.129150000000000098e+00 4.294185000000000230e+01 1.616315000000000055e+03
3.200000000000000067e-02 6.772795000000000343e-01 -2.831524999999999181e+00 3.797139999999999560e+01 1.614985000000000127e+03
3.300000000000000155e-02 6.759935000000000249e-01 -4.619564999999999699e+00 3.287420000000000186e+01 1.613595000000000027e+03
3.400000000000000244e-02 6.748110000000000497e-01 -6.305310000000000414e+00 2.798919999999999675e+01 1.612230000000000018e+03
3.500000000000000333e-02 6.738045000000000284e-01 -7.728760000000000296e+00 2.364124999999999943e+01 1.610985000000000127e+03
3.600000000000000422e-02 6.730234999999999967e-01 -8.774494999999999933e+00 2.009750499999999818e+01 1.609920000000000073e+03
3.700000000000000511e-02 6.724965000000000526e-01 -9.375499999999998835e+00 1.754213500000000181e+01 1.609090000000000146e+03
3.799999999999999906e-02 6.722299999999999942e-01 -9.508004999999998930e+00 1.606885000000000119e+01 1.608539999999999964e+03
3.899999999999999994e-02 6.722150000000000070e-01 -9.180765000000000953e+00 1.568890000000000029e+01 1.608275000000000091e+03
4.000000000000000083e-02 6.724324999999999886e-01 -8.422415000000000873e+00 1.634905000000000186e+01 1.608300000000000182e+03
4.100000000000000172e-02 6.728579999999999561e-01 -7.270340000000000025e+00 1.795471999999999824e+01 1.608595000000000027e+03
4.200000000000000261e-02 6.734655000000000502e-01 -5.763939999999999841e+00 2.039043000000000205e+01 1.609130000000000109e+03
4.300000000000000350e-02 6.742285000000000084e-01 -3.942845000000000155e+00 2.353385999999999711e+01 1.609880000000000109e+03
4.400000000000000439e-02 6.751219999999999999e-01 -1.849194999999999922e+00 2.726194999999999879e+01 1.610809999999999945e+03
4.499999999999999833e-02 6.761179999999999968e-01 4.680499999999998550e-01 3.145065000000000310e+01 1.611889999999999873e+03
4.599999999999999922e-02 6.771860000000000657e-01 2.949899999999999523e+00 3.597194999999999965e+01 1.613079999999999927e+03
4.700000000000000011e-02 6.782930000000000348e-01 5.526735000000000397e+00 4.069190000000000396e+01 1.614345000000000027e+03
4.800000000000000100e-02 6.794050000000000367e-01 8.121069999999999567e+00 4.547160000000000224e+01 1.615654999999999973e+03
4.900000000000000189e-02 6.804870000000000640e-01 1.065273000000000003e+01 5.017234999999999445e+01 1.616965000000000146e+03
5.000000000000000278e-02 6.815090000000000314e-01 1.304562000000000133e+01 5.466415000000000646e+01 1.618250000000000000e+03
5.100000000000000366e-02 6.824455000000000382e-01 1.523426000000000080e+01 5.883495000000000630e+01 1.619454999999999927e+03
5.200000000000000455e-02 6.832804999999999573e-01 1.716945000000000121e+01 6.259950000000000614e+01 1.620579999999999927e+03
5.300000000000000544e-02 6.840060000000000029e-01 1.882099999999999795e+01 6.590575000000001182e+01 1.621590000000000146e+03
5.399999999999999939e-02 6.846214999999999939e-01 2.017880000000000251e+01 6.873765000000000214e+01 1.622480000000000018e+03
5.500000000000000028e-02 6.851369999999999960e-01 2.125090000000000146e+01 7.111365000000000691e+01 1.623250000000000000e+03
5.600000000000000117e-02 6.855664999999999676e-01 2.206054999999999922e+01 7.308190000000000452e+01 1.623909999999999854e+03
5.700000000000000205e-02 6.859299999999999287e-01 2.264199999999999946e+01 7.471340000000000714e+01 1.624474999999999909e+03
5.800000000000000294e-02 6.862460000000000226e-01 2.303694999999999737e+01 7.609414999999999907e+01 1.624965000000000146e+03
5.900000000000000383e-02 6.865384999999999405e-01 2.329135000000000133e+01 7.731765000000000043e+01 1.625400000000000091e+03
6.000000000000000472e-02 6.868279999999999941e-01 2.345260000000000034e+01 7.847880000000000678e+01 1.625805000000000064e+03
6.099999999999999867e-02 6.871334999999999527e-01 2.356824999999999903e+01 7.966890000000000782e+01 1.626210000000000036e+03
6.199999999999999956e-02 6.874750000000000583e-01 2.368410000000000082e+01 8.097235000000000582e+01 1.626625000000000000e+03
6.300000000000000044e-02 6.878679999999999239e-01 2.384284999999999854e+01 8.246299999999999386e+01 1.627085000000000036e+03
6.400000000000000133e-02 6.883254999999999235e-01 2.408180000000000121e+01 8.420144999999999413e+01 1.627599999999999909e+03
6.500000000000000222e-02 6.888570000000000526e-01 2.443055000000000021e+01 8.623154999999999859e+01 1.628190000000000055e+03
6.600000000000000311e-02 6.894654999999999534e-01 2.490879999999999939e+01 8.857724999999999227e+01 1.628860000000000127e+03
6.700000000000000400e-02 6.901500000000000412e-01 2.552380000000000138e+01 9.123980000000000246e+01 1.629615000000000009e+03
6.800000000000000488e-02 6.909015000000000573e-01 2.627009999999999934e+01 9.419634999999999536e+01 1.630444999999999936e+03
6.900000000000000577e-02 6.917069999999999608e-01 2.712894999999999968e+01 9.739990000000000236e+01 1.631349999999999909e+03
7.000000000000000666e-02 6.925485000000000113e-01 2.807005000000000194e+01 1.007826000000000022e+02 1.632304999999999836e+03
7.100000000000000755e-02 6.934035000000000615e-01 2.905395000000000039e+01 1.042582000000000022e+02 1.633300000000000182e+03
7.200000000000000844e-02 6.942479999999999762e-01 3.003519999999999612e+01 1.077293500000000108e+02 1.634299999999999955e+03
7.300000000000000933e-02 6.950574999999999948e-01 3.096574999999999989e+01 1.110939999999999941e+02 1.635284999999999854e+03
7.399999999999999634e-02 6.958079999999999821e-01 3.179865000000000208e+01 1.142530000000000001e+02 1.636215000000000146e+03
7.499999999999999722e-02 6.964805000000000579e-01 3.249119999999999919e+01 1.171150000000000091e+02 1.637085000000000036e+03
7.599999999999999811e-02 6.970585000000000253e-01 3.300750000000000028e+01 1.196034999999999968e+02 1.637860000000000127e+03
7.699999999999999900e-02 6.975294999999999135e-01 3.332065000000000055e+01 1.216624999999999943e+02 1.638519999999999982e+03
7.799999999999999989e-02 6.978889999999999816e-01 3.341355000000000075e+01 1.232549999999999955e+02 1.639055000000000064e+03
7.900000000000000078e-02 6.981349999999999500e-01 3.327974999999999994e+01 1.243695000000000022e+02 1.639460000000000036e+03
8.000000000000000167e-02 6.982714999999999339e-01 3.292314999999999969e+01 1.250139999999999958e+02 1.639735000000000127e+03
8.100000000000000255e-02 6.983084999999999987e-01 3.235705000000000098e+01 1.252194999999999965e+02 1.639884999999999991e+03
8.200000000000000344e-02 6.982559999999999878e-01 3.160340000000000060e+01 1.250314999999999941e+02 1.639920000000000073e+03
8.300000000000000433e-02 6.981315000000000159e-01 3.069099999999999895e+01 1.245130000000000052e+02 1.639849999999999909e+03
8.400000000000000522e-02 6.979509999999999881e-01 2.965404999999999802e+01 1.237340000000000089e+02 1.639695000000000164e+03
8.500000000000000611e-02 6.977329999999999366e-01 2.853024999999999878e+01 1.227729999999999961e+02 1.639485000000000127e+03
8.600000000000000699e-02 6.974964999999999637e-01 2.735885000000000389e+01 1.217079999999999984e+02 1.639224999999999909e+03
8.700000000000000788e-02 6.972589999999999621e-01 2.617900000000000205e+01 1.206175000000000068e+02 1.638950000000000045e+03
8.800000000000000877e-02 6.970359999999999889e-01 2.502779999999999916e+01 1.195724999999999909e+02 1.638670000000000073e+03
8.899999999999999578e-02 6.968425000000000313e-01 2.393844999999999956e+01 1.186364999999999981e+02 1.638409999999999854e+03
8.999999999999999667e-02 6.966894999999999616e-01 2.293909999999999982e+01 1.178605000000000018e+02 1.638184999999999945e+03
9.099999999999999756e-02 6.965850000000000097e-01 2.205120000000000147e+01 1.172839999999999918e+02 1.638009999999999991e+03
9.199999999999999845e-02 6.965324999999999989e-01 2.128894999999999982e+01 1.169290000000000020e+02 1.637880000000000109e+03
9.299999999999999933e-02 6.965339999999999865e-01 2.065910000000000224e+01 1.168050000000000068e+02 1.637820000000000164e+03
9.400000000000000022e-02 6.965864999999999974e-01 2.016055000000000064e+01 1.169054999999999893e+02 1.637815000000000055e+03
9.500000000000000111e-02 6.966835000000000111e-01 1.978515000000000157e+01 1.172115000000000009e+02 1.637869999999999891e+03
9.600000000000000200e-02 6.968170000000000197e-01 1.951839999999999975e+01 1.176915000000000049e+02 1.637970000000000027e+03
9.700000000000000289e-02 6.969775000000000276e-01 1.934055000000000035e+01 1.183040000000000020e+02 1.638115000000000009e+03
9.800000000000000377e-02 6.971525000000000638e-01 1.922769999999999868e+01 1.190004999999999882e+02 1.638284999999999854e+03
9.900000000000000466e-02 6.973300000000000054e-01 1.915354999999999919e+01 1.197309999999999945e+02 1.638474999999999909e+03
1.000000000000000056e-01 6.974964999999999637e-01 1.909069999999999823e+01 1.204405000000000001e+02 1.638659999999999854e+03
1.010000000000000064e-01 6.976409999999999556e-01 1.901210000000000022e+01 1.210780000000000030e+02 1.638835000000000036e+03
1.020000000000000073e-01 6.977539999999999853e-01 1.889254999999999995e+01 1.215964999999999918e+02 1.638984999999999900e+03
1.030000000000000082e-01 6.978245000000000697e-01 1.871005000000000251e+01 1.219565000000000055e+02 1.639094999999999800e+03
1.040000000000000091e-01 6.978474999999999540e-01 1.844675000000000153e+01 1.221260000000000048e+02 1.639159999999999854e+03
1.050000000000000100e-01 6.978189999999999671e-01 1.808974999999999866e+01 1.220844999999999914e+02 1.639170000000000073e+03
1.059999999999999970e-01 6.977374999999998995e-01 1.763199999999999790e+01 1.218209999999999980e+02 1.639119999999999891e+03
1.069999999999999979e-01 6.976040000000000019e-01 1.707215000000000060e+01 1.213375000000000057e+02 1.639014999999999873e+03
1.079999999999999988e-01 6.974234999999999740e-01 1.641505000000000081e+01 1.206465000000000032e+02 1.638845000000000027e+03
1.089999999999999997e-01 6.972009999999999597e-01 1.567079999999999984e+01 1.197709999999999866e+02 1.638625000000000000e+03
1.100000000000000006e-01 6.969465000000000243e-01 1.485489500000000085e+01 1.187444999999999879e+02 1.638355000000000018e+03
1.110000000000000014e-01 6.966689999999999827e-01 1.398688000000000109e+01 1.176065000000000111e+02 1.638054999999999836e+03
1.120000000000000023e-01 6.963805000000000689e-01 1.308969500000000075e+01 1.164020000000000010e+02 1.637724999999999909e+03
1.130000000000000032e-01 6.960915000000000852e-01 1.218824000000000041e+01 1.151804999999999950e+02 1.637389999999999873e+03
1.140000000000000041e-01 6.958154999999999202e-01 1.130820500000000095e+01 1.139909999999999997e+02 1.637054999999999836e+03
1.150000000000000050e-01 6.955620000000000136e-01 1.047465500000000027e+01 1.128820000000000050e+02 1.636734999999999900e+03
1.160000000000000059e-01 6.953415000000000568e-01 9.710914999999999964e+00 1.118954999999999984e+02 1.636440000000000055e+03
1.170000000000000068e-01 6.951619999999999466e-01 9.037164999999999893e+00 1.110699999999999932e+02 1.636190000000000055e+03
1.180000000000000077e-01 6.950294999999999668e-01 8.469604999999999606e+00 1.104335000000000093e+02 1.635980000000000018e+03
1.190000000000000085e-01 6.949480000000000102e-01 8.019830000000000680e+00 1.100060000000000002e+02 1.635829999999999927e+03
1.200000000000000094e-01 6.949184999999999945e-01 7.694015000000000271e+00 1.097980000000000018e+02 1.635735000000000127e+03
1.209999999999999964e-01 6.949400000000000022e-01 7.493254999999999555e+00 1.098079999999999927e+02 1.635700000000000045e+03
1.219999999999999973e-01 6.950089999999999879e-01 7.413335000000000008e+00 1.100254999999999939e+02 1.635724999999999909e+03
1.229999999999999982e-01 6.951209999999999889e-01 7.445304999999999396e+00 1.104320000000000022e+02 1.635805000000000064e+03
1.239999999999999991e-01 6.952679999999999971e-01 7.576005000000000322e+00 1.110010000000000048e+02 1.635934999999999945e+03
1.250000000000000000e-01 6.954420000000000046e-01 7.788895000000000124e+00 1.116984999999999957e+02 1.636099999999999909e+03
1.260000000000000009e-01 6.956345000000000445e-01 8.064949999999999619e+00 1.124890000000000043e+02 1.636299999999999955e+03
1.270000000000000018e-01 6.958360000000000101e-01 8.383614999999998929e+00 1.133335000000000008e+02 1.636514999999999873e+03
1.280000000000000027e-01 6.960374999999999757e-01 8.723784999999999457e+00 1.141924999999999955e+02 1.636744999999999891e+03
1.290000000000000036e-01 6.962304999999999744e-01 9.064775000000000915e+00 1.150289999999999964e+02 1.636980000000000018e+03
1.300000000000000044e-01 6.964069999999999983e-01 9.387190000000000367e+00 1.158089999999999975e+02 1.637195000000000164e+03
1.310000000000000053e-01 6.965609999999999857e-01 9.673719999999999430e+00 1.165024999999999977e+02 1.637394999999999982e+03
1.320000000000000062e-01 6.966870000000000562e-01 9.909729999999999706e+00 1.170870000000000033e+02 1.637574999999999818e+03
1.330000000000000071e-01 6.967814999999999426e-01 1.008379499999999851e+01 1.175430000000000064e+02 1.637714999999999918e+03
1.340000000000000080e-01 6.968434999999999491e-01 1.018796999999999997e+01 1.178615000000000066e+02 1.637829999999999927e+03
1.350000000000000089e-01 6.968719999999999359e-01 1.021798499999999876e+01 1.180380000000000109e+02 1.637900000000000091e+03
1.360000000000000098e-01 6.968685000000000018e-01 1.017312000000000083e+01 1.180755000000000052e+02 1.637929999999999836e+03
1.370000000000000107e-01 6.968354999999999411e-01 1.005615000000000059e+01 1.179834999999999923e+02 1.637929999999999836e+03
1.380000000000000115e-01 6.967769999999999797e-01 9.873075000000000045e+00 1.177750000000000057e+02 1.637894999999999982e+03
1.390000000000000124e-01 6.966980000000000395e-01 9.632525000000001114e+00 1.174699999999999989e+02 1.637824999999999818e+03
1.400000000000000133e-01 6.966030000000000832e-01 9.345354999999999634e+00 1.170889999999999986e+02 1.637735000000000127e+03
1.410000000000000142e-01 6.964989999999999792e-01 9.023965000000000458e+00 1.166564999999999941e+02 1.637634999999999991e+03
1.420000000000000151e-01 6.963909999999999823e-01 8.681834999999999525e+00 1.161970000000000027e+02 1.637514999999999873e+03
1.430000000000000160e-01 6.962850000000000428e-01 8.332499999999999574e+00 1.157365000000000066e+02 1.637394999999999982e+03
1.440000000000000169e-01 6.961859999999999715e-01 7.989314999999999500e+00 1.152959999999999923e+02 1.637275000000000091e+03
1.450000000000000178e-01 6.960994999999999822e-01 7.664444999999999730e+00 1.148979999999999961e+02 1.637160000000000082e+03
1.459999999999999909e-01 6.960275000000000212e-01 7.368570000000000064e+00 1.145579999999999927e+02 1.637065000000000055e+03
1.469999999999999918e-01 6.959740000000000926e-01 7.110344999999999693e+00 1.142895000000000039e+02 1.636980000000000018e+03
1.479999999999999927e-01 6.959400000000000031e-01 6.896074999999999733e+00 1.141009999999999991e+02 1.636920000000000073e+03
1.489999999999999936e-01 6.959260000000000446e-01 6.729560000000000208e+00 1.139964999999999975e+02 1.636880000000000109e+03
1.499999999999999944e-01 6.959310000000000773e-01 6.611995000000000289e+00 1.139749999999999943e+02 1.636859999999999900e+03
1.509999999999999953e-01 6.959539999999999615e-01 6.542104999999999393e+00 1.140304999999999893e+02 1.636865000000000009e+03
1.519999999999999962e-01 6.959910000000000263e-01 6.516325000000000145e+00 1.141539999999999964e+02 1.636885000000000218e+03
1.529999999999999971e-01 6.960399999999999920e-01 6.529099999999999682e+00 1.143325000000000102e+02 1.636924999999999955e+03
1.539999999999999980e-01 6.960969999999999658e-01 6.573299999999999699e+00 1.145515000000000043e+02 1.636980000000000018e+03
1.549999999999999989e-01 6.961580000000000545e-01 6.640644999999999243e+00 1.147940000000000111e+02 1.637039999999999964e+03
1.559999999999999998e-01 6.962180000000000035e-01 6.722179999999999822e+00 1.150420000000000016e+02 1.637099999999999909e+03
1.570000000000000007e-01 6.962740000000000595e-01 6.808749999999999858e+00 1.152800000000000011e+02 1.637159999999999854e+03
1.580000000000000016e-01 6.963215000000000376e-01 6.891490000000000116e+00 1.154910000000000139e+02 1.637220000000000027e+03
1.590000000000000024e-01 6.963584999999999914e-01 6.962239999999999540e+00 1.156610000000000014e+02 1.637269999999999982e+03
