# t [s], A [cm^2], U [cm/s], P [cPa], c [cm/s]
1.000000000000000021e-03 1.835515000000000063e-01 4.589938150000000272e-01 8.925384999999999991e+01 2.053159999999999854e+03
2.000000000000000042e-03 1.834814999999999918e-01 2.155400000000000205e+00 8.545709999999999695e+01 2.052534999999999854e+03
3.000000000000000062e-03 1.833174999999999943e-01 4.192056000000000004e+00 8.034405000000000996e+01 2.051139999999999873e+03
4.000000000000000083e-03 1.831110000000000237e-01 6.478559999999999874e+00 7.524089999999999634e+01 2.049394999999999982e+03
5.000000000000000104e-03 1.829045000000000254e-01 8.890745000000000786e+00 7.111084999999999923e+01 2.047670000000000073e+03
6.000000000000000125e-03 1.827139999999999875e-01 1.113297500000000007e+01 6.788354999999999961e+01 2.046099999999999909e+03
7.000000000000000146e-03 1.825394999999999934e-01 1.298016499999999951e+01 6.502899999999999636e+01 2.044695000000000164e+03
8.000000000000000167e-03 1.823850000000000193e-01 1.446374999999999922e+01 6.248304999999999865e+01 2.043480000000000018e+03
9.000000000000001055e-03 1.822570000000000023e-01 1.566094999999999970e+01 6.042225000000000534e+01 2.042470000000000027e+03
1.000000000000000194e-02 1.821530000000000094e-01 1.659404999999999930e+01 5.882949999999999591e+01 2.041674999999999955e+03
1.099999999999999936e-02 1.820729999999999849e-01 1.729874999999999829e+01 5.764809999999999945e+01 2.041059999999999945e+03
1.200000000000000025e-02 1.820134999999999947e-01 1.780420000000000158e+01 5.682439999999999714e+01 2.040619999999999891e+03
1.300000000000000114e-02 1.819684999999999775e-01 1.810679999999999978e+01 5.619960000000000377e+01 2.040295000000000073e+03
1.400000000000000203e-02 1.819330000000000114e-01 1.825484999999999758e+01 5.567730000000000246e+01 2.040039999999999964e+03
1.499999999999999944e-02 1.819120000000000181e-01 1.842524999999999835e+01 5.552055000000000007e+01 2.039900000000000091e+03
1.600000000000000033e-02 1.819199999999999984e-01 1.885604999999999976e+01 5.630545000000000044e+01 2.039974999999999909e+03
1.700000000000000122e-02 1.819720000000000226e-01 1.968120000000000047e+01 5.848250000000000171e+01 2.040384999999999991e+03
1.800000000000000211e-02 1.820705000000000240e-01 2.081654999999999944e+01 6.193720000000000425e+01 2.041150000000000091e+03
1.900000000000000300e-02 1.821995000000000142e-01 2.197834999999999894e+01 6.590264999999999418e+01 2.042164999999999964e+03
2.000000000000000042e-02 1.823285000000000045e-01 2.280980000000000274e+01 6.925575000000000614e+01 2.043195000000000164e+03
2.100000000000000130e-02 1.824240000000000028e-01 2.303535000000000110e+01 7.099734999999999729e+01 2.043970000000000027e+03
2.200000000000000219e-02 1.824620000000000131e-01 2.257070000000000221e+01 7.066419999999999391e+01 2.044315000000000055e+03
2.299999999999999961e-02 1.824379999999999891e-01 2.154329999999999856e+01 6.849125000000000796e+01 2.044170000000000073e+03
2.400000000000000050e-02 1.823664999999999869e-01 2.022334999999999994e+01 6.526715000000000089e+01 2.043634999999999991e+03
2.500000000000000139e-02 1.822710000000000163e-01 1.890544999999999831e+01 6.197639999999999816e+01 2.042894999999999982e+03
2.600000000000000228e-02 1.821794999999999942e-01 1.779925000000000068e+01 5.940964999999999918e+01 2.042170000000000073e+03
2.700000000000000316e-02 1.821085000000000065e-01 1.697354999999999947e+01 5.791465000000000174e+01 2.041605000000000018e+03
2.800000000000000058e-02 1.820650000000000046e-01 1.636514999999999986e+01 5.736079999999999757e+01 2.041245000000000118e+03
2.900000000000000147e-02 1.820419999999999816e-01 1.583350000000000080e+01 5.728799999999999670e+01 2.041050000000000182e+03
3.000000000000000236e-02 1.820249999999999924e-01 1.523434999999999917e+01 5.714555000000000007e+01 2.040909999999999854e+03
3.099999999999999978e-02 1.820019999999999971e-01 1.448310000000000031e+01 5.652644999999999698e+01 2.040730000000000018e+03
3.200000000000000067e-02 1.819635000000000002e-01 1.359029999999999916e+01 5.532014999999999816e+01 2.040440000000000055e+03
3.300000000000000155e-02 1.819124999999999770e-01 1.266024999999999956e+01 5.374604999999999677e+01 2.040039999999999964e+03
3.400000000000000244e-02 1.818580000000000196e-01 1.185484999999999900e+01 5.226394999999999413e+01 2.039609999999999900e+03
3.500000000000000333e-02 1.818150000000000044e-01 1.133720500000000087e+01 5.140124999999999744e+01 2.039259999999999991e+03
3.600000000000000422e-02 1.817975000000000008e-01 1.121545000000000059e+01 5.156184999999999974e+01 2.039110000000000127e+03
3.700000000000000511e-02 1.818164999999999920e-01 1.150649999999999906e+01 5.288455000000000439e+01 2.039234999999999900e+03
3.799999999999999906e-02 1.818715000000000193e-01 1.212795000000000023e+01 5.519239999999999924e+01 2.039640000000000100e+03
3.899999999999999994e-02 1.819545000000000190e-01 1.291779999999999973e+01 5.803674999999999784e+01 2.040275000000000091e+03
4.000000000000000083e-02 1.820475000000000010e-01 1.367145000000000010e+01 6.080975000000000108e+01 2.041000000000000000e+03
4.100000000000000172e-02 1.821329999999999893e-01 1.418355000000000032e+01 6.288390000000000413e+01 2.041674999999999955e+03
4.200000000000000261e-02 1.821905000000000052e-01 1.428430000000000000e+01 6.373850000000000193e+01 2.042134999999999991e+03
4.300000000000000350e-02 1.822039999999999771e-01 1.386400000000000077e+01 6.304670000000000130e+01 2.042264999999999873e+03
4.400000000000000439e-02 1.821645000000000070e-01 1.288160000000000061e+01 6.070980000000000132e+01 2.041975000000000136e+03
4.499999999999999833e-02 1.820684999999999942e-01 1.136158999999999963e+01 5.684340000000000259e+01 2.041244999999999891e+03
4.599999999999999922e-02 1.819215000000000138e-01 9.379804999999999282e+00 5.172599999999999909e+01 2.040105000000000018e+03
4.700000000000000011e-02 1.817314999999999903e-01 7.045524999999999594e+00 4.573094999999999999e+01 2.038625000000000000e+03
4.800000000000000100e-02 1.815104999999999913e-01 4.484045000000000059e+00 3.925974999999999682e+01 2.036900000000000091e+03
4.900000000000000189e-02 1.812715000000000021e-01 1.822740000000000027e+00 3.269149999999999778e+01 2.035025000000000091e+03
5.000000000000000278e-02 1.810275000000000079e-01 -8.172250000000000902e-01 2.635419999999999874e+01 2.033105000000000018e+03
5.100000000000000366e-02 1.807900000000000063e-01 -3.324335000000000040e+00 2.051719999999999899e+01 2.031240000000000009e+03
5.200000000000000455e-02 1.805690000000000073e-01 -5.597121500000000083e+00 1.539835000000000065e+01 2.029490000000000009e+03
5.300000000000000544e-02 1.803730000000000055e-01 -7.543280000000000207e+00 1.117674500000000037e+01 2.027934999999999945e+03
5.399999999999999939e-02 1.802094999999999947e-01 -9.079485000000000028e+00 8.004524999999999224e+00 2.026630000000000109e+03
5.500000000000000028e-02 1.800849999999999951e-01 -1.013304499999999919e+01 6.011530999999999736e+00 2.025625000000000000e+03
5.600000000000000117e-02 1.800045000000000117e-01 -1.064541499999999985e+01 5.302265000000000228e+00 2.024964999999999918e+03
5.700000000000000205e-02 1.799735000000000085e-01 -1.057714999999999961e+01 5.944815000000000182e+00 2.024679999999999836e+03
5.800000000000000294e-02 1.799929999999999863e-01 -9.913185000000000358e+00 7.957019999999999982e+00 2.024800000000000182e+03
5.900000000000000383e-02 1.800645000000000162e-01 -8.666745000000000587e+00 1.129358500000000021e+01 2.025320000000000164e+03
6.000000000000000472e-02 1.801860000000000128e-01 -6.880644999999999456e+00 1.583965000000000067e+01 2.026230000000000018e+03
6.099999999999999867e-02 1.803529999999999855e-01 -4.625274539999999490e+00 2.141335000000000122e+01 2.027505000000000109e+03
6.199999999999999956e-02 1.805585000000000107e-01 -1.993244999999999711e+00 2.777839999999999776e+01 2.029089999999999918e+03
6.300000000000000044e-02 1.807940000000000103e-01 9.080550000000000566e-01 3.466449999999999676e+01 2.030920000000000073e+03
6.400000000000000133e-02 1.810505000000000031e-01 3.965134999999999632e+00 4.179170000000000584e+01 2.032914999999999964e+03
6.500000000000000222e-02 1.813170000000000059e-01 7.066475000000000506e+00 4.889329999999999643e+01 2.035009999999999991e+03
6.600000000000000311e-02 1.815849999999999964e-01 1.010914999999999964e+01 5.573474999999999113e+01 2.037125000000000000e+03
6.700000000000000400e-02 1.818454999999999933e-01 1.300337500000000013e+01 6.212524999999999409e+01 2.039194999999999936e+03
6.800000000000000488e-02 1.820914999999999895e-01 1.567525000000000013e+01 6.792265000000000441e+01 2.041154999999999973e+03
6.900000000000000577e-02 1.823174999999999935e-01 1.806820000000000093e+01 7.303310000000000457e+01 2.042970000000000027e+03
7.000000000000000666e-02 1.825200000000000156e-01 2.014335000000000164e+01 7.740850000000000364e+01 2.044605000000000018e+03
7.100000000000000755e-02 1.826964999999999839e-01 2.188025000000000020e+01 8.104245000000000232e+01 2.046039999999999964e+03
7.200000000000000844e-02 1.828474999999999961e-01 2.327645000000000053e+01 8.396744999999999948e+01 2.047259999999999991e+03
7.300000000000000933e-02 1.829725000000000101e-01 2.434759999999999991e+01 8.625219999999998777e+01 2.048289999999999964e+03
7.399999999999999634e-02 1.830740000000000145e-01 2.512599999999999767e+01 8.799809999999999377e+01 2.049130000000000109e+03
7.499999999999999722e-02 1.831559999999999855e-01 2.565939999999999799e+01 8.933514999999999873e+01 2.049819999999999709e+03
7.599999999999999811e-02 1.832229999999999970e-01 2.600755000000000194e+01 9.041514999999999702e+01 2.050380000000000109e+03
7.699999999999999900e-02 1.832814999999999861e-01 2.623830000000000240e+01 9.140285000000000082e+01 2.050869999999999891e+03
7.799999999999999989e-02 1.833354999999999846e-01 2.642304999999999993e+01 9.246524999999999750e+01 2.051329999999999927e+03
7.900000000000000078e-02 1.833925000000000138e-01 2.663159999999999883e+01 9.375950000000000273e+01 2.051795000000000073e+03
8.000000000000000167e-02 1.834580000000000100e-01 2.692694999999999794e+01 9.542140000000000555e+01 2.052324999999999818e+03
8.100000000000000255e-02 1.835354999999999903e-01 2.736059999999999803e+01 9.755440000000000111e+01 2.052954999999999927e+03
8.200000000000000344e-02 1.836305000000000021e-01 2.796894999999999953e+01 1.002218000000000018e+02 2.053715000000000146e+03
8.300000000000000433e-02 1.837440000000000184e-01 2.877085000000000292e+01 1.034420000000000073e+02 2.054625000000000000e+03
8.400000000000000522e-02 1.838764999999999983e-01 2.976659999999999684e+01 1.071860000000000070e+02 2.055685000000000400e+03
8.500000000000000611e-02 1.840269999999999961e-01 3.093840000000000146e+01 1.113814999999999884e+02 2.056885000000000218e+03
8.600000000000000699e-02 1.841935000000000100e-01 3.225229999999999819e+01 1.159199999999999875e+02 2.058220000000000255e+03
8.700000000000000788e-02 1.843710000000000071e-01 3.366129999999999711e+01 1.206640000000000015e+02 2.059650000000000091e+03
8.800000000000000877e-02 1.845565000000000122e-01 3.510930000000000462e+01 1.254585000000000008e+02 2.061135000000000218e+03
8.899999999999999578e-02 1.847425000000000039e-01 3.653525000000000489e+01 1.301440000000000055e+02 2.062640000000000327e+03
8.999999999999999667e-02 1.849244999999999917e-01 3.787734999999999985e+01 1.345645000000000095e+02 2.064114999999999782e+03
9.099999999999999756e-02 1.850964999999999971e-01 3.907719999999999771e+01 1.385805000000000007e+02 2.065515000000000327e+03
9.199999999999999845e-02 1.852535000000000154e-01 4.008285000000000053e+01 1.420740000000000123e+02 2.066795000000000073e+03
9.299999999999999933e-02 1.853914999999999869e-01 4.085184999999999889e+01 1.449549999999999841e+02 2.067929999999999836e+03
9.400000000000000022e-02 1.855060000000000042e-01 4.135280000000000200e+01 1.471639999999999873e+02 2.068880000000000109e+03
9.500000000000000111e-02 1.855970000000000120e-01 4.156700000000000017e+01 1.486744999999999948e+02 2.069635000000000218e+03
9.600000000000000200e-02 1.856615000000000071e-01 4.148860000000000525e+01 1.494900000000000091e+02 2.070185000000000400e+03
9.700000000000000289e-02 1.857004999999999906e-01 4.112444999999999595e+01 1.496440000000000055e+02 2.070519999999999982e+03
9.800000000000000377e-02 1.857145000000000046e-01 4.049325000000000330e+01 1.491940000000000168e+02 2.070654999999999745e+03
9.900000000000000466e-02 1.857059999999999822e-01 3.962420000000000186e+01 1.482214999999999918e+02 2.070610000000000127e+03
1.000000000000000056e-01 1.856774999999999953e-01 3.855485000000000184e+01 1.468220000000000027e+02 2.070399999999999636e+03
1.010000000000000064e-01 1.856325000000000058e-01 3.732925000000000182e+01 1.451014999999999873e+02 2.070055000000000291e+03
1.020000000000000073e-01 1.855749999999999900e-01 3.599545000000000528e+01 1.431739999999999782e+02 2.069595000000000255e+03
1.030000000000000082e-01 1.855089999999999795e-01 3.460294999999999987e+01 1.411500000000000057e+02 2.069069999999999709e+03
1.040000000000000091e-01 1.854379999999999917e-01 3.320049999999999812e+01 1.391370000000000005e+02 2.068500000000000000e+03
1.050000000000000100e-01 1.853664999999999896e-01 3.183399999999999963e+01 1.372314999999999827e+02 2.067929999999999836e+03
1.059999999999999970e-01 1.852984999999999771e-01 3.054410000000000025e+01 1.355185000000000173e+02 2.067369999999999891e+03
1.069999999999999979e-01 1.852365000000000261e-01 2.936514999999999986e+01 1.340645000000000095e+02 2.066864999999999782e+03
1.079999999999999988e-01 1.851824999999999999e-01 2.832349999999999923e+01 1.329175000000000182e+02 2.066425000000000182e+03
1.089999999999999997e-01 1.851399999999999990e-01 2.743659999999999854e+01 1.321059999999999945e+02 2.066069999999999709e+03
1.100000000000000006e-01 1.851085000000000091e-01 2.671280000000000143e+01 1.316380000000000052e+02 2.065805000000000291e+03
1.110000000000000014e-01 1.850894999999999901e-01 2.615129999999999910e+01 1.314990000000000236e+02 2.065635000000000218e+03
1.120000000000000023e-01 1.850815000000000099e-01 2.574244999999999806e+01 1.316574999999999989e+02 2.065564999999999600e+03
1.130000000000000032e-01 1.850844999999999851e-01 2.546884999999999977e+01 1.320649999999999977e+02 2.065574999999999818e+03
1.140000000000000041e-01 1.850959999999999828e-01 2.530644999999999811e+01 1.326594999999999800e+02 2.065654999999999745e+03
1.150000000000000050e-01 1.851145000000000151e-01 2.522610000000000241e+01 1.333689999999999998e+02 2.065795000000000073e+03
1.160000000000000059e-01 1.851375000000000104e-01 2.519529999999999959e+01 1.341150000000000091e+02 2.065970000000000255e+03
1.170000000000000068e-01 1.851615000000000066e-01 2.517994999999999806e+01 1.348195000000000050e+02 2.066159999999999854e+03
1.180000000000000077e-01 1.851840000000000153e-01 2.514625000000000199e+01 1.354060000000000059e+02 2.066340000000000146e+03
1.190000000000000085e-01 1.852024999999999921e-01 2.506250000000000000e+01 1.358054999999999950e+02 2.066484999999999673e+03
1.200000000000000094e-01 1.852145000000000041e-01 2.490064999999999884e+01 1.359585000000000150e+02 2.066585000000000036e+03
1.209999999999999964e-01 1.852175000000000071e-01 2.463785000000000025e+01 1.358209999999999980e+02 2.066605000000000018e+03
1.219999999999999973e-01 1.852094999999999991e-01 2.425744999999999862e+01 1.353619999999999948e+02 2.066550000000000182e+03
1.229999999999999982e-01 1.851899999999999935e-01 2.375005000000000166e+01 1.345699999999999932e+02 2.066400000000000091e+03
1.239999999999999991e-01 1.851590000000000180e-01 2.311359999999999815e+01 1.334505000000000052e+02 2.066149999999999636e+03
1.250000000000000000e-01 1.851150000000000018e-01 2.235360000000000014e+01 1.320264999999999986e+02 2.065805000000000291e+03
1.260000000000000009e-01 1.850610000000000033e-01 2.148284999999999911e+01 1.303359999999999843e+02 2.065369999999999891e+03
1.270000000000000018e-01 1.849965000000000082e-01 2.052020000000000266e+01 1.284319999999999879e+02 2.064859999999999673e+03
1.280000000000000027e-01 1.849240000000000050e-01 1.948980000000000246e+01 1.263764999999999930e+02 2.064279999999999745e+03
1.290000000000000036e-01 1.848464999999999969e-01 1.841995000000000005e+01 1.242409999999999997e+02 2.063650000000000091e+03
1.300000000000000044e-01 1.847654999999999992e-01 1.734100000000000108e+01 1.220979999999999990e+02 2.062994999999999891e+03
1.310000000000000053e-01 1.846835000000000004e-01 1.628434999999999988e+01 1.200225000000000080e+02 2.062340000000000146e+03
1.320000000000000062e-01 1.846045000000000047e-01 1.528045000000000009e+01 1.180844999999999914e+02 2.061699999999999818e+03
1.330000000000000071e-01 1.845304999999999862e-01 1.435769999999999946e+01 1.163460000000000036e+02 2.061095000000000255e+03
1.340000000000000080e-01 1.844629999999999881e-01 1.354070000000000107e+01 1.148615000000000066e+02 2.060550000000000182e+03
1.350000000000000089e-01 1.844049999999999856e-01 1.284945000000000093e+01 1.136709999999999923e+02 2.060069999999999709e+03
1.360000000000000098e-01 1.843580000000000219e-01 1.229840000000000089e+01 1.128019999999999925e+02 2.059680000000000291e+03
1.370000000000000107e-01 1.843219999999999859e-01 1.189590000000000103e+01 1.122684999999999889e+02 2.059390000000000327e+03
1.380000000000000115e-01 1.842989999999999906e-01 1.164405000000000001e+01 1.120670000000000073e+02 2.059190000000000055e+03
1.390000000000000124e-01 1.842880000000000074e-01 1.153855000000000075e+01 1.121820000000000022e+02 2.059090000000000146e+03
1.400000000000000133e-01 1.842894999999999950e-01 1.156949999999999967e+01 1.125850000000000080e+02 2.059090000000000146e+03
1.410000000000000142e-01 1.843009999999999926e-01 1.172175000000000011e+01 1.132359999999999900e+02 2.059170000000000073e+03
1.420000000000000151e-01 1.843225000000000002e-01 1.197589999999999932e+01 1.140869999999999891e+02 2.059329999999999927e+03
1.430000000000000160e-01 1.843509999999999871e-01 1.230954999999999977e+01 1.150834999999999866e+02 2.059555000000000291e+03
1.440000000000000169e-01 1.843855000000000077e-01 1.269810000000000016e+01 1.161680000000000064e+02 2.059829999999999927e+03
1.450000000000000178e-01 1.844240000000000046e-01 1.311609999999999943e+01 1.172835000000000036e+02 2.060125000000000000e+03
1.459999999999999909e-01 1.844640000000000168e-01 1.353860000000000063e+01 1.183739999999999952e+02 2.060444999999999709e+03
1.469999999999999918e-01 1.845030000000000003e-01 1.394184999999999874e+01 1.193884999999999934e+02 2.060765000000000327e+03
1.479999999999999927e-01 1.845399999999999818e-01 1.430455000000000076e+01 1.202824999999999989e+02 2.061059999999999945e+03
1.489999999999999936e-01 1.845735000000000015e-01 1.460854999999999926e+01 1.210215000000000032e+02 2.061324999999999818e+03
1.499999999999999944e-01 1.846005000000000007e-01 1.483954999999999913e+01 1.215780000000000030e+02 2.061554999999999836e+03
1.509999999999999953e-01 1.846220000000000083e-01 1.498734999999999928e+01 1.219350000000000023e+02 2.061725000000000364e+03
1.519999999999999962e-01 1.846359999999999946e-01 1.504630000000000045e+01 1.220869999999999891e+02 2.061845000000000255e+03
1.529999999999999971e-01 1.846420000000000006e-01 1.501524999999999999e+01 1.220364999999999895e+02 2.061904999999999745e+03
1.539999999999999980e-01 1.846415000000000139e-01 1.489724999999999966e+01 1.217980000000000018e+02 2.061904999999999745e+03
1.549999999999999989e-01 1.846335000000000059e-01 1.469930000000000092e+01 1.213899999999999864e+02 2.061850000000000364e+03
1.559999999999999998e-01 1.846200000000000063e-01 1.443175000000000097e+01 1.208414999999999964e+02 2.061744999999999891e+03
1.570000000000000007e-01 1.846010000000000151e-01 1.410759999999999970e+01 1.201850000000000023e+02 2.061595000000000255e+03
1.580000000000000016e-01 1.845775000000000055e-01 1.374190000000000111e+01 1.194559999999999889e+02 2.061409999999999854e+03
1.590000000000000024e-01 1.845515000000000072e-01 1.335064999999999991e+01 1.186910000000000025e+02 2.061210000000000036e+03
