# t [s], A [cm^2], U [cm/s], P [cPa], c [cm/s]
1.000000000000000021e-03 1.647155000000000147e-01 2.623665000000000025e-01 9.104439999999999600e+01 1.848519999999999982e+03
2.000000000000000042e-03 1.646905000000000174e-01 1.632054000000000116e+00 8.833785000000000309e+01 1.848295000000000073e+03
3.000000000000000062e-03 1.645940000000000181e-01 3.316189500000000123e+00 8.479130000000000678e+01 1.847465000000000146e+03
4.000000000000000083e-03 1.644490000000000118e-01 5.186548700000000345e+00 8.081390000000000384e+01 1.846240000000000009e+03
5.000000000000000104e-03 1.642795000000000227e-01 7.198349999999999582e+00 7.704300000000000637e+01 1.844824999999999818e+03
6.000000000000000125e-03 1.641064999999999885e-01 9.259639999999999205e+00 7.382165000000000532e+01 1.843389999999999873e+03
7.000000000000000146e-03 1.639384999999999870e-01 1.122817500000000024e+01 7.112539999999999907e+01 1.842005000000000109e+03
8.000000000000000167e-03 1.637795000000000223e-01 1.299044999999999916e+01 6.876045000000000584e+01 1.840720000000000027e+03
9.000000000000001055e-03 1.636319999999999997e-01 1.452100499999999883e+01 6.662924999999999898e+01 1.839539999999999964e+03
1.000000000000000194e-02 1.634990000000000054e-01 1.584450000000000003e+01 6.476359999999999673e+01 1.838494999999999891e+03
1.099999999999999936e-02 1.633819999999999995e-01 1.698035000000000139e+01 6.319469999999999743e+01 1.837585000000000036e+03
1.200000000000000025e-02 1.632824999999999971e-01 1.793619999999999948e+01 6.190200000000000102e+01 1.836815000000000055e+03
1.300000000000000114e-02 1.631980000000000097e-01 1.871784999999999854e+01 6.084040000000000248e+01 1.836164999999999964e+03
1.400000000000000203e-02 1.631279999999999952e-01 1.932900000000000063e+01 5.995230000000000103e+01 1.835634999999999991e+03
1.499999999999999944e-02 1.630679999999999907e-01 1.977595000000000169e+01 5.917450000000000188e+01 1.835190000000000055e+03
1.600000000000000033e-02 1.630165000000000086e-01 2.008460000000000178e+01 5.847825000000000273e+01 1.834815000000000055e+03
1.700000000000000122e-02 1.629734999999999934e-01 2.031429999999999936e+01 5.792010000000000502e+01 1.834505000000000109e+03
1.800000000000000211e-02 1.629430000000000045e-01 2.054964999999999975e+01 5.764785000000000537e+01 1.834289999999999964e+03
1.900000000000000300e-02 1.629295000000000049e-01 2.087165000000000248e+01 5.784134999999999849e+01 1.834195000000000164e+03
2.000000000000000042e-02 1.629369999999999985e-01 2.132545000000000002e+01 5.862125000000000341e+01 1.834264999999999873e+03
2.100000000000000130e-02 1.629680000000000017e-01 2.190270000000000294e+01 5.997800000000000153e+01 1.834509999999999991e+03
2.200000000000000219e-02 1.630179999999999962e-01 2.254465000000000074e+01 6.175570000000000448e+01 1.834909999999999854e+03
2.299999999999999961e-02 1.630829999999999780e-01 2.316294999999999860e+01 6.369214999999999804e+01 1.835414999999999964e+03
2.400000000000000050e-02 1.631520000000000192e-01 2.366720000000000113e+01 6.549275000000000091e+01 1.835965000000000146e+03
2.500000000000000139e-02 1.632170000000000010e-01 2.398959999999999937e+01 6.690885000000000105e+01 1.836485000000000127e+03
2.600000000000000228e-02 1.632704999999999851e-01 2.409969999999999857e+01 6.779410000000000025e+01 1.836925000000000182e+03
2.700000000000000316e-02 1.633080000000000087e-01 2.400634999999999764e+01 6.812614999999999554e+01 1.837235000000000127e+03
2.800000000000000058e-02 1.633290000000000020e-01 2.374889999999999901e+01 6.799145000000000039e+01 1.837420000000000073e+03
2.900000000000000147e-02 1.633354999999999946e-01 2.338105000000000189e+01 6.754345000000000709e+01 1.837485000000000127e+03
3.000000000000000236e-02 1.633315000000000183e-01 2.295439999999999969e+01 6.694960000000000377e+01 1.837470000000000027e+03
3.099999999999999978e-02 1.633215000000000083e-01 2.250544999999999973e+01 6.634485000000000809e+01 1.837400000000000091e+03
3.200000000000000067e-02 1.633089999999999820e-01 2.204995000000000260e+01 6.580349999999999966e+01 1.837309999999999945e+03
3.300000000000000155e-02 1.632950000000000235e-01 2.158420000000000272e+01 6.533374999999999488e+01 1.837204999999999927e+03
3.400000000000000244e-02 1.632804999999999951e-01 2.109250000000000114e+01 6.489284999999999570e+01 1.837095000000000027e+03
3.500000000000000333e-02 1.632644999999999791e-01 2.055675000000000097e+01 6.441464999999999463e+01 1.836965000000000146e+03
3.600000000000000422e-02 1.632449999999999735e-01 1.996640000000000015e+01 6.384069999999999823e+01 1.836819999999999936e+03
3.700000000000000511e-02 1.632210000000000050e-01 1.932495000000000118e+01 6.314584999999999582e+01 1.836639999999999873e+03
3.799999999999999906e-02 1.631929999999999770e-01 1.865324999999999989e+01 6.235269999999999868e+01 1.836424999999999955e+03
3.899999999999999994e-02 1.631620000000000015e-01 1.798685000000000045e+01 6.153175000000000239e+01 1.836190000000000055e+03
4.000000000000000083e-02 1.631309999999999982e-01 1.736994999999999933e+01 6.078820000000000334e+01 1.835950000000000045e+03
4.100000000000000172e-02 1.631039999999999990e-01 1.684704999999999941e+01 6.023879999999999768e+01 1.835735000000000127e+03
4.200000000000000261e-02 1.630840000000000067e-01 1.645390000000000086e+01 5.998574999999999591e+01 1.835579999999999927e+03
4.300000000000000350e-02 1.630749999999999977e-01 1.621034999999999826e+01 6.009345000000000425e+01 1.835500000000000000e+03
4.400000000000000439e-02 1.630790000000000017e-01 1.611639999999999873e+01 6.057354999999999734e+01 1.835519999999999982e+03
4.499999999999999833e-02 1.630955000000000044e-01 1.615230000000000032e+01 6.138094999999999857e+01 1.835639999999999873e+03
4.599999999999999922e-02 1.631235000000000046e-01 1.628184999999999860e+01 6.242125000000000057e+01 1.835845000000000027e+03
4.700000000000000011e-02 1.631595000000000129e-01 1.645805000000000007e+01 6.356589999999999918e+01 1.836125000000000000e+03
4.800000000000000100e-02 1.631994999999999973e-01 1.662980000000000302e+01 6.467215000000000202e+01 1.836424999999999955e+03
4.900000000000000189e-02 1.632385000000000086e-01 1.674855000000000160e+01 6.560294999999999277e+01 1.836730000000000018e+03
5.000000000000000278e-02 1.632724999999999871e-01 1.677324999999999733e+01 6.624394999999999811e+01 1.836994999999999891e+03
5.100000000000000366e-02 1.632959999999999967e-01 1.667405000000000115e+01 6.651464999999998895e+01 1.837180000000000064e+03
5.200000000000000455e-02 1.633074999999999943e-01 1.643305000000000149e+01 6.637305000000000632e+01 1.837269999999999982e+03
5.300000000000000544e-02 1.633040000000000047e-01 1.604449999999999932e+01 6.581440000000000623e+01 1.837255000000000109e+03
5.399999999999999939e-02 1.632855000000000001e-01 1.551280000000000037e+01 6.486539999999999395e+01 1.837115000000000009e+03
5.500000000000000028e-02 1.632520000000000082e-01 1.484994999999999976e+01 6.357565000000000310e+01 1.836865000000000009e+03
5.600000000000000117e-02 1.632055000000000033e-01 1.407344999999999935e+01 6.200840000000000174e+01 1.836500000000000000e+03
5.700000000000000205e-02 1.631475000000000009e-01 1.320404999999999873e+01 6.023269999999999413e+01 1.836055000000000064e+03
5.800000000000000294e-02 1.630800000000000027e-01 1.226402000000000037e+01 5.831709999999999638e+01 1.835529999999999973e+03
5.900000000000000383e-02 1.630050000000000110e-01 1.127673500000000040e+01 5.632659999999999911e+01 1.834950000000000045e+03
6.000000000000000472e-02 1.629260000000000153e-01 1.026592499999999930e+01 5.432150000000000034e+01 1.834335000000000036e+03
6.099999999999999867e-02 1.628439999999999888e-01 9.256064999999999543e+00 5.235784999999999911e+01 1.833700000000000045e+03
6.199999999999999956e-02 1.627629999999999910e-01 8.272415000000000518e+00 5.048905000000000598e+01 1.833059999999999945e+03
6.300000000000000044e-02 1.626839999999999953e-01 7.340949999999999420e+00 4.876765000000000327e+01 1.832445000000000164e+03
6.400000000000000133e-02 1.626100000000000045e-01 6.488559999999999661e+00 4.724609999999999843e+01 1.831865000000000009e+03
6.500000000000000222e-02 1.625429999999999930e-01 5.742294999999999483e+00 4.597679999999999723e+01 1.831335000000000036e+03
6.600000000000000311e-02 1.624855000000000049e-01 5.128709999999999880e+00 4.501170000000000471e+01 1.830880000000000109e+03
6.700000000000000400e-02 1.624395000000000144e-01 4.672860000000000014e+00 4.439990000000000236e+01 1.830514999999999873e+03
6.800000000000000488e-02 1.624074999999999824e-01 4.397154999999999703e+00 4.418559999999999377e+01 1.830255000000000109e+03
6.900000000000000577e-02 1.623910000000000076e-01 4.320149999999999935e+00 4.440505000000000280e+01 1.830115000000000009e+03
7.000000000000000666e-02 1.623920000000000086e-01 4.455605000000000260e+00 4.508429999999999893e+01 1.830109999999999900e+03
7.100000000000000755e-02 1.624114999999999864e-01 4.811664999999999637e+00 4.623699999999999477e+01 1.830250000000000000e+03
7.200000000000000844e-02 1.624504999999999977e-01 5.390409999999999258e+00 4.786325000000000074e+01 1.830535000000000082e+03
7.300000000000000933e-02 1.625085000000000002e-01 6.187734999999999985e+00 4.994935000000000258e+01 1.830980000000000018e+03
7.399999999999999634e-02 1.625860000000000083e-01 7.193604999999999805e+00 5.246824999999999761e+01 1.831570000000000164e+03
7.499999999999999722e-02 1.626825000000000077e-01 8.392614999999999270e+00 5.538125000000000142e+01 1.832305000000000064e+03
7.599999999999999811e-02 1.627959999999999963e-01 9.764769999999998618e+00 5.864000000000000057e+01 1.833174999999999955e+03
7.699999999999999900e-02 1.629244999999999999e-01 1.128664000000000023e+01 6.218945000000000078e+01 1.834170000000000073e+03
7.799999999999999989e-02 1.630659999999999887e-01 1.293212999999999901e+01 6.597024999999999295e+01 1.835269999999999982e+03
7.900000000000000078e-02 1.632195000000000173e-01 1.467414999999999914e+01 6.992225000000000534e+01 1.836465000000000146e+03
8.000000000000000167e-02 1.633815000000000128e-01 1.648539999999999850e+01 7.398689999999999145e+01 1.837730000000000018e+03
8.100000000000000255e-02 1.635500000000000009e-01 1.833944999999999936e+01 7.811019999999999186e+01 1.839055000000000064e+03
8.200000000000000344e-02 1.637230000000000074e-01 2.021189999999999998e+01 8.224434999999999718e+01 1.840414999999999964e+03
8.300000000000000433e-02 1.638989999999999891e-01 2.208109999999999928e+01 8.634969999999999857e+01 1.841799999999999955e+03
8.400000000000000522e-02 1.640749999999999986e-01 2.392845000000000155e+01 9.039555000000000007e+01 1.843194999999999936e+03
8.500000000000000611e-02 1.642509999999999803e-01 2.573904999999999887e+01 9.436029999999999518e+01 1.844590000000000146e+03
8.600000000000000699e-02 1.644249999999999878e-01 2.750155000000000172e+01 9.823230000000000928e+01 1.845969999999999800e+03
8.700000000000000788e-02 1.645964999999999789e-01 2.920819999999999794e+01 1.020065500000000043e+02 1.847340000000000146e+03
8.800000000000000877e-02 1.647649999999999948e-01 3.085430000000000206e+01 1.056858000000000004e+02 1.848684999999999945e+03
8.899999999999999578e-02 1.649309999999999943e-01 3.243795000000000073e+01 1.092785000000000082e+02 1.850009999999999991e+03
8.999999999999999667e-02 1.650939999999999908e-01 3.395929999999999893e+01 1.127950000000000017e+02 1.851320000000000164e+03
9.099999999999999756e-02 1.652545000000000264e-01 3.541989999999999839e+01 1.162485000000000070e+02 1.852605000000000018e+03
9.199999999999999845e-02 1.654120000000000035e-01 3.682215000000000060e+01 1.196509999999999962e+02 1.853880000000000109e+03
9.299999999999999933e-02 1.655679999999999930e-01 3.816875000000000284e+01 1.230135000000000076e+02 1.855134999999999991e+03
9.400000000000000022e-02 1.657220000000000082e-01 3.946184999999999832e+01 1.263435000000000059e+02 1.856380000000000109e+03
9.500000000000000111e-02 1.658749999999999947e-01 4.070315000000000083e+01 1.296450000000000102e+02 1.857614999999999782e+03
9.600000000000000200e-02 1.660260000000000069e-01 4.189325000000000188e+01 1.329175000000000182e+02 1.858840000000000146e+03
9.700000000000000289e-02 1.661765000000000048e-01 4.303154999999999575e+01 1.361560000000000059e+02 1.860054999999999836e+03
9.800000000000000377e-02 1.663244999999999862e-01 4.411625000000000085e+01 1.393524999999999920e+02 1.861259999999999991e+03
9.900000000000000466e-02 1.664710000000000079e-01 4.514430000000000121e+01 1.424935000000000116e+02 1.862444999999999936e+03
1.000000000000000056e-01 1.666154999999999997e-01 4.611164999999999736e+01 1.455645000000000095e+02 1.863619999999999891e+03
1.010000000000000064e-01 1.667564999999999742e-01 4.701319999999999766e+01 1.485475000000000136e+02 1.864764999999999873e+03
1.020000000000000073e-01 1.668939999999999868e-01 4.784335000000000093e+01 1.514234999999999900e+02 1.865884999999999991e+03
1.030000000000000082e-01 1.670265000000000222e-01 4.859600000000000364e+01 1.541725000000000136e+02 1.866970000000000027e+03
1.040000000000000091e-01 1.671544999999999837e-01 4.926505000000000223e+01 1.567764999999999986e+02 1.868015000000000100e+03
1.050000000000000100e-01 1.672764999999999946e-01 4.984435000000000571e+01 1.592149999999999750e+02 1.869009999999999991e+03
1.059999999999999970e-01 1.673910000000000120e-01 5.032840000000000202e+01 1.614730000000000132e+02 1.869954999999999927e+03
1.069999999999999979e-01 1.674990000000000090e-01 5.071235000000000070e+01 1.635345000000000084e+02 1.870839999999999918e+03
1.079999999999999988e-01 1.675979999999999970e-01 5.099209999999999354e+01 1.653879999999999768e+02 1.871654999999999973e+03
1.089999999999999997e-01 1.676889999999999770e-01 5.116495000000000459e+01 1.670240000000000009e+02 1.872405000000000200e+03
1.100000000000000006e-01 1.677704999999999891e-01 5.122930000000000206e+01 1.684375000000000000e+02 1.873079999999999927e+03
1.110000000000000014e-01 1.678429999999999922e-01 5.118524999999999636e+01 1.696264999999999930e+02 1.873675000000000182e+03
1.120000000000000023e-01 1.679054999999999853e-01 5.103435000000000343e+01 1.705919999999999845e+02 1.874199999999999818e+03
1.130000000000000032e-01 1.679585000000000106e-01 5.077970000000000539e+01 1.713400000000000034e+02 1.874639999999999873e+03
1.140000000000000041e-01 1.680019999999999847e-01 5.042610000000000525e+01 1.718790000000000191e+02 1.875009999999999991e+03
1.150000000000000050e-01 1.680364999999999776e-01 4.997984999999999900e+01 1.722214999999999918e+02 1.875304999999999836e+03
1.160000000000000059e-01 1.680619999999999892e-01 4.944849999999999568e+01 1.723829999999999814e+02 1.875525000000000091e+03
1.170000000000000068e-01 1.680800000000000072e-01 4.884094999999999942e+01 1.723810000000000002e+02 1.875674999999999955e+03
1.180000000000000077e-01 1.680900000000000172e-01 4.816684999999999661e+01 1.722355000000000018e+02 1.875769999999999982e+03
1.190000000000000085e-01 1.680935000000000068e-01 4.743659999999999854e+01 1.719669999999999845e+02 1.875804999999999836e+03
1.200000000000000094e-01 1.680909999999999904e-01 4.666070000000000562e+01 1.715960000000000036e+02 1.875789999999999964e+03
1.209999999999999964e-01 1.680829999999999824e-01 4.584985000000000355e+01 1.711435000000000173e+02 1.875735000000000127e+03
1.219999999999999973e-01 1.680714999999999848e-01 4.501434999999999320e+01 1.706299999999999955e+02 1.875644999999999982e+03
1.229999999999999982e-01 1.680554999999999966e-01 4.416380000000000194e+01 1.700735000000000241e+02 1.875525000000000091e+03
1.239999999999999991e-01 1.680375000000000063e-01 4.330709999999999837e+01 1.694895000000000209e+02 1.875380000000000109e+03
1.250000000000000000e-01 1.680169999999999997e-01 4.245194999999999652e+01 1.688919999999999959e+02 1.875215000000000146e+03
1.260000000000000009e-01 1.679955000000000198e-01 4.160490000000000066e+01 1.682919999999999732e+02 1.875039999999999964e+03
1.270000000000000018e-01 1.679725000000000246e-01 4.077114999999999867e+01 1.676970000000000027e+02 1.874855000000000018e+03
1.280000000000000027e-01 1.679495000000000016e-01 3.995449999999999591e+01 1.671125000000000114e+02 1.874664999999999964e+03
1.290000000000000036e-01 1.679264999999999786e-01 3.915740000000000265e+01 1.665405000000000086e+02 1.874474999999999909e+03
1.300000000000000044e-01 1.679029999999999967e-01 3.838094999999999857e+01 1.659795000000000016e+02 1.874279999999999973e+03
1.310000000000000053e-01 1.678795000000000148e-01 3.762494999999999834e+01 1.654279999999999973e+02 1.874090000000000146e+03
1.320000000000000062e-01 1.678560000000000052e-01 3.688824999999999932e+01 1.648804999999999836e+02 1.873900000000000091e+03
1.330000000000000071e-01 1.678324999999999956e-01 3.616859999999999786e+01 1.643300000000000125e+02 1.873699999999999818e+03
1.340000000000000080e-01 1.678080000000000127e-01 3.546300000000000097e+01 1.637694999999999936e+02 1.873500000000000000e+03
1.350000000000000089e-01 1.677830000000000155e-01 3.476780000000000115e+01 1.631904999999999859e+02 1.873299999999999955e+03
1.360000000000000098e-01 1.677575000000000038e-01 3.407925000000000182e+01 1.625835000000000150e+02 1.873085000000000036e+03
1.370000000000000107e-01 1.677309999999999912e-01 3.339309999999999690e+01 1.619399999999999977e+02 1.872865000000000009e+03
1.380000000000000115e-01 1.677029999999999910e-01 3.270524999999999949e+01 1.612524999999999977e+02 1.872634999999999991e+03
1.390000000000000124e-01 1.676725000000000021e-01 3.201194999999999879e+01 1.605120000000000005e+02 1.872384999999999991e+03
1.400000000000000133e-01 1.676400000000000112e-01 3.130955000000000155e+01 1.597135000000000105e+02 1.872119999999999891e+03
1.410000000000000142e-01 1.676055000000000184e-01 3.059530000000000172e+01 1.588520000000000039e+02 1.871835000000000036e+03
1.420000000000000151e-01 1.675674999999999804e-01 2.986684999999999945e+01 1.579239999999999782e+02 1.871530000000000200e+03
1.430000000000000160e-01 1.675280000000000102e-01 2.912294999999999945e+01 1.569295000000000186e+02 1.871204999999999927e+03
1.440000000000000169e-01 1.674849999999999950e-01 2.836294999999999789e+01 1.558689999999999998e+02 1.870855000000000018e+03
1.450000000000000178e-01 1.674394999999999911e-01 2.758749999999999858e+01 1.547454999999999927e+02 1.870485000000000127e+03
1.459999999999999909e-01 1.673910000000000120e-01 2.679780000000000229e+01 1.535640000000000214e+02 1.870095000000000027e+03
1.469999999999999918e-01 1.673405000000000031e-01 2.599640000000000128e+01 1.523319999999999936e+02 1.869684999999999945e+03
1.479999999999999927e-01 1.672874999999999779e-01 2.518650000000000233e+01 1.510589999999999975e+02 1.869255000000000109e+03
1.489999999999999936e-01 1.672325000000000061e-01 2.437210000000000321e+01 1.497549999999999955e+02 1.868809999999999945e+03
1.499999999999999944e-01 1.671765000000000057e-01 2.355805000000000149e+01 1.484320000000000164e+02 1.868349999999999909e+03
1.509999999999999953e-01 1.671190000000000175e-01 2.274960000000000093e+01 1.471030000000000086e+02 1.867884999999999991e+03
1.519999999999999962e-01 1.670610000000000150e-01 2.195230000000000103e+01 1.457810000000000059e+02 1.867420000000000073e+03
1.529999999999999971e-01 1.670034999999999992e-01 2.117195000000000249e+01 1.444800000000000182e+02 1.866949999999999818e+03
1.539999999999999980e-01 1.669459999999999833e-01 2.041420000000000101e+01 1.432124999999999773e+02 1.866484999999999900e+03
1.549999999999999989e-01 1.668899999999999828e-01 1.968465000000000131e+01 1.419904999999999973e+02 1.866025000000000091e+03
1.559999999999999998e-01 1.668354999999999977e-01 1.898819999999999908e+01 1.408255000000000052e+02 1.865585000000000036e+03
1.570000000000000007e-01 1.667825000000000002e-01 1.832935000000000159e+01 1.397264999999999873e+02 1.865154999999999973e+03
1.580000000000000016e-01 1.667325000000000057e-01 1.771184999999999832e+01 1.387015000000000100e+02 1.864744999999999891e+03
1.590000000000000024e-01 1.666849999999999998e-01 1.713850000000000051e+01 1.377554999999999836e+02 1.864360000000000127e+03
