# t [s], A [cm^2], U [cm/s], P [cPa], c [cm/s]
1.000000000000000021e-03 1.230760000000000048e-01 3.502129999999999965e-01 1.034380000000000024e+02 1.855744999999999891e+03
2.000000000000000042e-03 1.230485000000000051e-01 2.029243999999999826e+00 1.001586499999999944e+02 1.855420000000000073e+03
3.000000000000000062e-03 1.229554999999999954e-01 4.079448000000000185e+00 9.581344999999998890e+01 1.854384999999999991e+03
4.000000000000000083e-03 1.228199999999999986e-01 6.353125000000000355e+00 9.101994999999999436e+01 1.852900000000000091e+03
5.000000000000000104e-03 1.226659999999999973e-01 8.787480000000000402e+00 8.657659999999999911e+01 1.851224999999999909e+03
6.000000000000000125e-03 1.225114999999999954e-01 1.124913000000000096e+01 8.284520000000000550e+01 1.849559999999999945e+03
7.000000000000000146e-03 1.223634999999999862e-01 1.355294000000000132e+01 7.972390000000000043e+01 1.847990000000000009e+03
8.000000000000000167e-03 1.222250000000000003e-01 1.557565999999999917e+01 7.696354999999999791e+01 1.846539999999999964e+03
9.000000000000001055e-03 1.220980000000000121e-01 1.731184999999999974e+01 7.449145000000000039e+01 1.845230000000000018e+03
1.000000000000000194e-02 1.219854999999999967e-01 1.879919999999999902e+01 7.236854999999999905e+01 1.844085000000000036e+03
1.099999999999999936e-02 1.218889999999999973e-01 2.005894999999999939e+01 7.061449999999999250e+01 1.843110000000000127e+03
1.200000000000000025e-02 1.218079999999999996e-01 2.110399999999999920e+01 6.919235000000000468e+01 1.842299999999999955e+03
1.300000000000000114e-02 1.217409999999999881e-01 2.194865000000000066e+01 6.805259999999999820e+01 1.841634999999999991e+03
1.400000000000000203e-02 1.216859999999999886e-01 2.260139999999999816e+01 6.712935000000000230e+01 1.841105000000000018e+03
1.499999999999999944e-02 1.216405000000000125e-01 2.307435000000000258e+01 6.634829999999999472e+01 1.840670000000000073e+03
1.600000000000000033e-02 1.216029999999999889e-01 2.340984999999999872e+01 6.569325000000000614e+01 1.840315000000000055e+03
1.700000000000000122e-02 1.215740000000000015e-01 2.369409999999999883e+01 6.526999999999999602e+01 1.840055000000000064e+03
1.800000000000000211e-02 1.215584999999999860e-01 2.403549999999999898e+01 6.528655000000000541e+01 1.839909999999999854e+03
1.900000000000000300e-02 1.215595000000000009e-01 2.451934999999999931e+01 6.594689999999999941e+01 1.839940000000000055e+03
2.000000000000000042e-02 1.215814999999999951e-01 2.516785000000000139e+01 6.732489999999999952e+01 1.840164999999999964e+03
2.100000000000000130e-02 1.216220000000000079e-01 2.592844999999999800e+01 6.929570000000001073e+01 1.840585000000000036e+03
2.200000000000000219e-02 1.216769999999999935e-01 2.669259999999999877e+01 7.155584999999999241e+01 1.841144999999999982e+03
2.299999999999999961e-02 1.217379999999999990e-01 2.733380000000000010e+01 7.371359999999999957e+01 1.841769999999999982e+03
2.400000000000000050e-02 1.217955000000000010e-01 2.774745000000000061e+01 7.540664999999999907e+01 1.842365000000000009e+03
2.500000000000000139e-02 1.218410000000000049e-01 2.787955000000000183e+01 7.640234999999999843e+01 1.842849999999999909e+03
2.600000000000000228e-02 1.218700000000000061e-01 2.773660000000000281e+01 7.664869999999999095e+01 1.843174999999999955e+03
2.700000000000000316e-02 1.218830000000000052e-01 2.737594999999999956e+01 7.626614999999999611e+01 1.843324999999999818e+03
2.800000000000000058e-02 1.218815000000000037e-01 2.688199999999999790e+01 7.548839999999999861e+01 1.843329999999999927e+03
2.900000000000000147e-02 1.218705000000000066e-01 2.633825000000000216e+01 7.457894999999999186e+01 1.843235000000000127e+03
3.000000000000000236e-02 1.218565000000000065e-01 2.580424999999999969e+01 7.375074999999999648e+01 1.843095000000000027e+03
3.099999999999999978e-02 1.218414999999999915e-01 2.530460000000000065e+01 7.311670000000000869e+01 1.842949999999999818e+03
3.200000000000000067e-02 1.218289999999999929e-01 2.482959999999999923e+01 7.267725000000000080e+01 1.842825000000000045e+03
3.300000000000000155e-02 1.218184999999999962e-01 2.434745000000000203e+01 7.234489999999999554e+01 1.842719999999999800e+03
3.400000000000000244e-02 1.218079999999999996e-01 2.382039999999999935e+01 7.199099999999999966e+01 1.842610000000000127e+03
3.500000000000000333e-02 1.217950000000000144e-01 2.322180000000000177e+01 7.149854999999999450e+01 1.842485000000000127e+03
3.600000000000000422e-02 1.217775000000000107e-01 2.254795000000000016e+01 7.080679999999999552e+01 1.842315000000000055e+03
3.700000000000000511e-02 1.217555000000000026e-01 2.182379999999999853e+01 6.993600000000000705e+01 1.842099999999999909e+03
3.799999999999999906e-02 1.217300000000000049e-01 2.109935000000000116e+01 6.898824999999999363e+01 1.841839999999999918e+03
3.899999999999999994e-02 1.217039999999999927e-01 2.043950000000000244e+01 6.812390000000000612e+01 1.841579999999999927e+03
4.000000000000000083e-02 1.216814999999999980e-01 1.990964999999999918e+01 6.752219999999999800e+01 1.841349999999999909e+03
4.100000000000000172e-02 1.216669999999999974e-01 1.956034999999999968e+01 6.733615000000000350e+01 1.841190000000000055e+03
4.200000000000000261e-02 1.216634999999999939e-01 1.941629999999999967e+01 6.765455000000000041e+01 1.841150000000000091e+03
4.300000000000000350e-02 1.216730000000000034e-01 1.947034999999999982e+01 6.847929999999999495e+01 1.841235000000000127e+03
4.400000000000000439e-02 1.216955000000000120e-01 1.968500000000000227e+01 6.972299999999999898e+01 1.841450000000000045e+03
4.499999999999999833e-02 1.217285000000000034e-01 1.999899999999999878e+01 7.122540000000000759e+01 1.841775000000000091e+03
4.599999999999999922e-02 1.217685000000000017e-01 2.033814999999999884e+01 7.278184999999999150e+01 1.842170000000000073e+03
4.700000000000000011e-02 1.218090000000000006e-01 2.062599999999999767e+01 7.417804999999999893e+01 1.842575000000000045e+03
4.800000000000000100e-02 1.218459999999999960e-01 2.079489999999999839e+01 7.522220000000000084e+01 1.842950000000000045e+03
4.900000000000000189e-02 1.218734999999999957e-01 2.079289999999999949e+01 7.576975000000000193e+01 1.843240000000000009e+03
5.000000000000000278e-02 1.218889999999999973e-01 2.058810000000000073e+01 7.573730000000000473e+01 1.843394999999999982e+03
5.100000000000000366e-02 1.218884999999999968e-01 2.016900000000000048e+01 7.510474999999999568e+01 1.843405000000000200e+03
5.200000000000000455e-02 1.218720000000000081e-01 1.954240000000000066e+01 7.390854999999999109e+01 1.843250000000000000e+03
5.300000000000000544e-02 1.218404999999999905e-01 1.872935000000000016e+01 7.222755000000000791e+01 1.842940000000000055e+03
5.399999999999999939e-02 1.217950000000000144e-01 1.776050000000000040e+01 7.016679999999999495e+01 1.842480000000000018e+03
5.500000000000000028e-02 1.217379999999999851e-01 1.667170000000000130e+01 6.784174999999999045e+01 1.841904999999999973e+03
5.600000000000000117e-02 1.216720000000000024e-01 1.550110000000000099e+01 6.536634999999999707e+01 1.841244999999999891e+03
5.700000000000000205e-02 1.215999999999999998e-01 1.428644999999999854e+01 6.284525000000000716e+01 1.840519999999999982e+03
5.800000000000000294e-02 1.215255000000000085e-01 1.306498000000000026e+01 6.037139999999999418e+01 1.839764999999999873e+03
5.900000000000000383e-02 1.214510000000000034e-01 1.187308000000000163e+01 5.802674999999999983e+01 1.839000000000000000e+03
6.000000000000000472e-02 1.213779999999999998e-01 1.074673999999999907e+01 5.588519999999999754e+01 1.838264999999999873e+03
6.099999999999999867e-02 1.213105000000000017e-01 9.722200000000000841e+00 5.401635000000000275e+01 1.837579999999999927e+03
6.199999999999999956e-02 1.212504999999999972e-01 8.835660000000000736e+00 5.248789999999999623e+01 1.836960000000000036e+03
6.300000000000000044e-02 1.211990000000000012e-01 8.123099999999999099e+00 5.136684999999999945e+01 1.836434999999999945e+03
6.400000000000000133e-02 1.211605000000000043e-01 7.619049999999999656e+00 5.071850000000000591e+01 1.836029999999999973e+03
6.500000000000000222e-02 1.211350000000000066e-01 7.355235000000000412e+00 5.060385000000000133e+01 1.835764999999999873e+03
6.600000000000000311e-02 1.211254999999999971e-01 7.358689999999999287e+00 5.107564999999999600e+01 1.835654999999999973e+03
6.700000000000000400e-02 1.211339999999999917e-01 7.650150000000000006e+00 5.217430000000000234e+01 1.835724999999999909e+03
6.800000000000000488e-02 1.211615000000000053e-01 8.242570000000000618e+00 5.392354999999999876e+01 1.835985000000000127e+03
6.900000000000000577e-02 1.212090000000000112e-01 9.140214999999999534e+00 5.632840000000000202e+01 1.836445000000000164e+03
7.000000000000000666e-02 1.212765000000000093e-01 1.033818499999999929e+01 5.937344999999999828e+01 1.837110000000000127e+03
7.100000000000000755e-02 1.213634999999999853e-01 1.182281500000000030e+01 6.302334999999999354e+01 1.837980000000000018e+03
7.200000000000000844e-02 1.214699999999999946e-01 1.357233000000000089e+01 6.722469999999999857e+01 1.839045000000000073e+03
7.300000000000000933e-02 1.215939999999999938e-01 1.555809999999999960e+01 7.190959999999999752e+01 1.840289999999999964e+03
7.399999999999999634e-02 1.217340000000000089e-01 1.774620000000000175e+01 7.699930000000000518e+01 1.841704999999999927e+03
7.499999999999999722e-02 1.218879999999999963e-01 2.009909999999999997e+01 8.240864999999999441e+01 1.843259999999999991e+03
7.599999999999999811e-02 1.220525000000000082e-01 2.257704999999999984e+01 8.805049999999999955e+01 1.844940000000000055e+03
7.699999999999999900e-02 1.222264999999999879e-01 2.514029999999999987e+01 9.383965000000000600e+01 1.846710000000000036e+03
7.799999999999999989e-02 1.224075000000000024e-01 2.775005000000000166e+01 9.969620000000000459e+01 1.848555000000000064e+03
7.900000000000000078e-02 1.225914999999999921e-01 3.037019999999999698e+01 1.055496499999999997e+02 1.850445000000000164e+03
8.000000000000000167e-02 1.227769999999999972e-01 3.296859999999999502e+01 1.113400000000000034e+02 1.852360000000000127e+03
8.100000000000000255e-02 1.229635000000000034e-01 3.551780000000000115e+01 1.170200000000000102e+02 1.854284999999999854e+03
8.200000000000000344e-02 1.231474999999999931e-01 3.799575000000000102e+01 1.225564999999999998e+02 1.856190000000000055e+03
8.300000000000000433e-02 1.233285000000000076e-01 4.038639999999999475e+01 1.279300000000000068e+02 1.858079999999999927e+03
8.400000000000000522e-02 1.235064999999999913e-01 4.267950000000000443e+01 1.331345000000000027e+02 1.859929999999999836e+03
8.500000000000000611e-02 1.236799999999999983e-01 4.487019999999999698e+01 1.381759999999999877e+02 1.861744999999999891e+03
8.600000000000000699e-02 1.238490000000000008e-01 4.695855000000000246e+01 1.430704999999999814e+02 1.863519999999999982e+03
8.700000000000000788e-02 1.240144999999999997e-01 4.894839999999999947e+01 1.478400000000000034e+02 1.865264999999999873e+03
8.800000000000000877e-02 1.241770000000000096e-01 5.084619999999999607e+01 1.525095000000000027e+02 1.866964999999999918e+03
8.899999999999999578e-02 1.243360000000000021e-01 5.266004999999999825e+01 1.571049999999999898e+02 1.868644999999999982e+03
8.999999999999999667e-02 1.244930000000000064e-01 5.439829999999999899e+01 1.616514999999999986e+02 1.870309999999999945e+03
9.099999999999999756e-02 1.246484999999999954e-01 5.606869999999999976e+01 1.661659999999999968e+02 1.871950000000000045e+03
9.199999999999999845e-02 1.248024999999999968e-01 5.767725000000000080e+01 1.706619999999999777e+02 1.873579999999999927e+03
9.299999999999999933e-02 1.249554999999999971e-01 5.922800000000000153e+01 1.751424999999999841e+02 1.875200000000000045e+03
9.400000000000000022e-02 1.251079999999999970e-01 6.072220000000000084e+01 1.796039999999999850e+02 1.876820000000000164e+03
9.500000000000000111e-02 1.252594999999999958e-01 6.215850000000000364e+01 1.840330000000000155e+02 1.878430000000000064e+03
9.600000000000000200e-02 1.254089999999999927e-01 6.353274999999999295e+01 1.884119999999999777e+02 1.880019999999999982e+03
9.700000000000000289e-02 1.255574999999999886e-01 6.483859999999999957e+01 1.927139999999999986e+02 1.881599999999999909e+03
9.800000000000000377e-02 1.257030000000000092e-01 6.606755000000001132e+01 1.969099999999999966e+02 1.883150000000000091e+03
9.900000000000000466e-02 1.258450000000000124e-01 6.720990000000000464e+01 2.009669999999999845e+02 1.884674999999999955e+03
1.000000000000000056e-01 1.259830000000000116e-01 6.825475000000000136e+01 2.048520000000000039e+02 1.886150000000000091e+03
1.010000000000000064e-01 1.261154999999999915e-01 6.919124999999999659e+01 2.085310000000000059e+02 1.887570000000000164e+03
1.020000000000000073e-01 1.262415000000000065e-01 7.000860000000000127e+01 2.119739999999999895e+02 1.888925000000000182e+03
1.030000000000000082e-01 1.263604999999999867e-01 7.069695000000000107e+01 2.151529999999999916e+02 1.890199999999999818e+03
1.040000000000000091e-01 1.264710000000000001e-01 7.124770000000000891e+01 2.180439999999999827e+02 1.891400000000000091e+03
1.050000000000000100e-01 1.265729999999999911e-01 7.165425000000000466e+01 2.206279999999999859e+02 1.892500000000000000e+03
1.059999999999999970e-01 1.266654999999999864e-01 7.191164999999999452e+01 2.228924999999999841e+02 1.893500000000000000e+03
1.069999999999999979e-01 1.267479999999999996e-01 7.201765000000000327e+01 2.248294999999999959e+02 1.894400000000000091e+03
1.079999999999999988e-01 1.268199999999999883e-01 7.197239999999999327e+01 2.264385000000000048e+02 1.895184999999999945e+03
1.089999999999999997e-01 1.268814999999999804e-01 7.177875000000000227e+01 2.277230000000000132e+02 1.895865000000000009e+03
1.100000000000000006e-01 1.269335000000000047e-01 7.144214999999999804e+01 2.286954999999999814e+02 1.896429999999999836e+03
1.110000000000000014e-01 1.269750000000000045e-01 7.097065000000000623e+01 2.293709999999999809e+02 1.896890000000000100e+03
1.120000000000000023e-01 1.270070000000000088e-01 7.037449999999999761e+01 2.297719999999999914e+02 1.897244999999999891e+03
1.130000000000000032e-01 1.270295000000000174e-01 6.966630000000000678e+01 2.299230000000000018e+02 1.897505000000000109e+03
1.140000000000000041e-01 1.270439999999999903e-01 6.885999999999999943e+01 2.298545000000000016e+02 1.897675000000000182e+03
1.150000000000000050e-01 1.270515000000000116e-01 6.797104999999999109e+01 2.295974999999999966e+02 1.897759999999999991e+03
1.160000000000000059e-01 1.270514999999999839e-01 6.701555000000000462e+01 2.291839999999999975e+02 1.897775000000000091e+03
1.170000000000000068e-01 1.270465000000000066e-01 6.600974999999999682e+01 2.286474999999999795e+02 1.897730000000000018e+03
1.180000000000000077e-01 1.270364999999999966e-01 6.496959999999999980e+01 2.280205000000000268e+02 1.897630000000000109e+03
1.190000000000000085e-01 1.270229999999999970e-01 6.391039999999999566e+01 2.273315000000000055e+02 1.897490000000000009e+03
1.200000000000000094e-01 1.270064999999999944e-01 6.284600000000000364e+01 2.266080000000000041e+02 1.897315000000000055e+03
1.209999999999999964e-01 1.269885000000000042e-01 6.178849999999999909e+01 2.258725000000000023e+02 1.897119999999999891e+03
1.219999999999999973e-01 1.269685000000000119e-01 6.074830000000000041e+01 2.251440000000000055e+02 1.896909999999999854e+03
1.229999999999999982e-01 1.269484999999999919e-01 5.973340000000000316e+01 2.244350000000000023e+02 1.896694999999999936e+03
1.239999999999999991e-01 1.269279999999999853e-01 5.874954999999999927e+01 2.237549999999999955e+02 1.896480000000000018e+03
1.250000000000000000e-01 1.269079999999999930e-01 5.780015000000000214e+01 2.231080000000000041e+02 1.896259999999999991e+03
1.260000000000000009e-01 1.268880000000000008e-01 5.688620000000000232e+01 2.224919999999999902e+02 1.896045000000000073e+03
1.270000000000000018e-01 1.268690000000000095e-01 5.600665000000000049e+01 2.219024999999999750e+02 1.895829999999999927e+03
1.280000000000000027e-01 1.268500000000000183e-01 5.515840000000000032e+01 2.213310000000000173e+02 1.895625000000000000e+03
1.290000000000000036e-01 1.268309999999999993e-01 5.433689999999999998e+01 2.207649999999999864e+02 1.895424999999999955e+03
1.300000000000000044e-01 1.268120000000000080e-01 5.353600000000000136e+01 2.201895000000000095e+02 1.895219999999999800e+03
1.310000000000000053e-01 1.267929999999999890e-01 5.274875000000000114e+01 2.195900000000000034e+02 1.895005000000000109e+03
1.320000000000000062e-01 1.267729999999999968e-01 5.196770000000000067e+01 2.189509999999999934e+02 1.894789999999999964e+03
1.330000000000000071e-01 1.267515000000000169e-01 5.118509999999999849e+01 2.182545000000000073e+02 1.894554999999999836e+03
1.340000000000000080e-01 1.267284999999999939e-01 5.039365000000000094e+01 2.174879999999999995e+02 1.894304999999999836e+03
1.350000000000000089e-01 1.267034999999999967e-01 4.958634999999999593e+01 2.166365000000000123e+02 1.894034999999999854e+03
1.360000000000000098e-01 1.266754999999999964e-01 4.875750000000000028e+01 2.156910000000000025e+02 1.893735000000000127e+03
1.370000000000000107e-01 1.266450000000000076e-01 4.790220000000000056e+01 2.146435000000000173e+02 1.893409999999999854e+03
1.380000000000000115e-01 1.266114999999999879e-01 4.701730000000000587e+01 2.134894999999999925e+02 1.893045000000000073e+03
1.390000000000000124e-01 1.265745000000000064e-01 4.610099999999999909e+01 2.122299999999999898e+02 1.892654999999999973e+03
1.400000000000000133e-01 1.265344999999999942e-01 4.515335000000000321e+01 2.108664999999999736e+02 1.892224999999999909e+03
1.410000000000000142e-01 1.264915000000000067e-01 4.417605000000000359e+01 2.094075000000000273e+02 1.891769999999999982e+03
1.420000000000000151e-01 1.264450000000000018e-01 4.317234999999999445e+01 2.078625000000000114e+02 1.891275000000000091e+03
1.430000000000000160e-01 1.263964999999999950e-01 4.214705000000000013e+01 2.062450000000000045e+02 1.890750000000000000e+03
1.440000000000000169e-01 1.263449999999999851e-01 4.110649999999999693e+01 2.045715000000000146e+02 1.890210000000000036e+03
1.450000000000000178e-01 1.262920000000000154e-01 4.005790000000000362e+01 2.028600000000000136e+02 1.889639999999999873e+03
1.459999999999999909e-01 1.262369999999999881e-01 3.900960000000000605e+01 2.011310000000000002e+02 1.889059999999999945e+03
1.469999999999999918e-01 1.261819999999999886e-01 3.797030000000000172e+01 1.994035000000000082e+02 1.888474999999999909e+03
1.479999999999999927e-01 1.261270000000000169e-01 3.694899999999999807e+01 1.977005000000000052e+02 1.887880000000000109e+03
1.489999999999999936e-01 1.260715000000000030e-01 3.595454999999999757e+01 1.960389999999999873e+02 1.887289999999999964e+03
1.499999999999999944e-01 1.260175000000000045e-01 3.499544999999999817e+01 1.944399999999999977e+02 1.886715000000000146e+03
1.509999999999999953e-01 1.259649999999999936e-01 3.407945000000000135e+01 1.929194999999999993e+02 1.886155000000000200e+03
1.519999999999999962e-01 1.259144999999999848e-01 3.321320000000000050e+01 1.914904999999999973e+02 1.885615000000000009e+03
1.529999999999999971e-01 1.258670000000000067e-01 3.240225000000000222e+01 1.901655000000000086e+02 1.885099999999999909e+03
1.539999999999999980e-01 1.258215000000000028e-01 3.165075000000000216e+01 1.889510000000000218e+02 1.884619999999999891e+03
1.549999999999999989e-01 1.257800000000000029e-01 3.096144999999999925e+01 1.878530000000000086e+02 1.884175000000000182e+03
1.559999999999999998e-01 1.257419999999999927e-01 3.033544999999999803e+01 1.868715000000000259e+02 1.883759999999999991e+03
1.570000000000000007e-01 1.257069999999999854e-01 2.977250000000000085e+01 1.860049999999999955e+02 1.883384999999999991e+03
1.580000000000000016e-01 1.256754999999999955e-01 2.927109999999999701e+01 1.852495000000000118e+02 1.883050000000000182e+03
1.590000000000000024e-01 1.256479999999999819e-01 2.882829999999999870e+01 1.845975000000000250e+02 1.882744999999999891e+03
