# t [s], A [cm^2], U [cm/s], P [cPa], c [cm/s]
1.000000000000000021e-03 6.230599999999999472e-01 8.573999999999998289e-03 1.043735000000000070e+02 1.874255000000000109e+03
2.000000000000000042e-03 6.230504999999999516e-01 1.399100000000000343e-03 1.043329999999999984e+02 1.874244999999999891e+03
3.000000000000000062e-03 6.231154999999999333e-01 1.433620000000000172e-01 1.045134999999999934e+02 1.874279999999999973e+03
4.000000000000000083e-03 6.231419999999999737e-01 2.299749999999999850e-01 1.046175000000000068e+02 1.874300000000000182e+03
5.000000000000000104e-03 6.230724999999999181e-01 1.245194999999999774e-01 1.043704999999999927e+02 1.874255000000000109e+03
6.000000000000000125e-03 6.230044999999999611e-01 9.223499999999995591e-03 1.039939999999999998e+02 1.874175000000000182e+03
7.000000000000000146e-03 6.229244999999999921e-01 -1.446950000000000180e-01 1.035005000000000024e+02 1.874075000000000045e+03
8.000000000000000167e-03 6.227745000000000086e-01 -4.748750000000000471e-01 1.026820000000000022e+02 1.873904999999999973e+03
9.000000000000001055e-03 6.225564999999999571e-01 -9.737999999999999989e-01 1.014877000000000038e+02 1.873670000000000073e+03
1.000000000000000194e-02 6.222469999999999946e-01 -1.678509999999999724e+00 9.980684999999999718e+01 1.873319999999999936e+03
1.099999999999999936e-02 6.218285000000000062e-01 -2.604964999999999975e+00 9.753664999999999452e+01 1.872849999999999909e+03
1.200000000000000025e-02 6.213619999999999699e-01 -3.588375000000000092e+00 9.485020000000000095e+01 1.872284999999999854e+03
1.300000000000000114e-02 6.209554999999999936e-01 -4.349329500000000515e+00 9.216684999999999661e+01 1.871690000000000055e+03
1.400000000000000203e-02 6.206760000000000055e-01 -4.685855499999999729e+00 8.987205000000000155e+01 1.871139999999999873e+03
1.499999999999999944e-02 6.205144999999999689e-01 -4.574690000000000367e+00 8.810685000000000855e+01 1.870684999999999945e+03
1.600000000000000033e-02 6.204039999999999555e-01 -4.142735000000000056e+00 8.674360000000000070e+01 1.870304999999999836e+03
1.700000000000000122e-02 6.202669999999999018e-01 -3.574514999999999887e+00 8.550084999999999980e+01 1.869954999999999927e+03
1.800000000000000211e-02 6.200520000000000476e-01 -3.017820500000000017e+00 8.410089999999999577e+01 1.869570000000000164e+03
1.900000000000000300e-02 6.197509999999999408e-01 -2.525640500000000177e+00 8.239644999999998731e+01 1.869139999999999873e+03
2.000000000000000042e-02 6.193960000000000576e-01 -2.053529999999999855e+00 8.041649999999999920e+01 1.868650000000000091e+03
2.100000000000000130e-02 6.190379999999999772e-01 -1.507440000000000113e+00 7.831855000000000189e+01 1.868130000000000109e+03
2.200000000000000219e-02 6.187145000000000561e-01 -8.109999999999999432e-01 7.628374999999999773e+01 1.867615000000000009e+03
2.299999999999999961e-02 6.184355000000000269e-01 4.385499999999975529e-02 7.441570000000000107e+01 1.867130000000000109e+03
2.400000000000000050e-02 6.181750000000000300e-01 9.812000000000000721e-01 7.268500000000000227e+01 1.866670000000000073e+03
2.500000000000000139e-02 6.178860000000000463e-01 1.859085000000000099e+00 7.093070000000000164e+01 1.866210000000000036e+03
2.600000000000000228e-02 6.175144999999999662e-01 2.510645000000000238e+00 6.891094999999999970e+01 1.865699999999999818e+03
2.700000000000000316e-02 6.170169999999999266e-01 2.795729999999999826e+00 6.638620000000000232e+01 1.865099999999999909e+03
2.800000000000000058e-02 6.163830000000000142e-01 2.647235000000000227e+00 6.320829999999999416e+01 1.864375000000000000e+03
2.900000000000000147e-02 6.156349999999999323e-01 2.094095000000000262e+00 5.938389999999999702e+01 1.863514999999999873e+03
3.000000000000000236e-02 6.148249999999999549e-01 1.249519999999999520e+00 5.508214999999999861e+01 1.862549999999999955e+03
3.099999999999999978e-02 6.140189999999999815e-01 2.728000000000001535e-01 5.058889999999999532e+01 1.861529999999999973e+03
3.200000000000000067e-02 6.132794999999999774e-01 -6.763300000000000978e-01 4.623255000000000337e+01 1.860525000000000091e+03
3.300000000000000155e-02 6.126489999999999991e-01 -1.471415000000000362e+00 4.231315000000000026e+01 1.859594999999999800e+03
3.400000000000000244e-02 6.121544999999999348e-01 -2.035014999999999574e+00 3.905535000000000423e+01 1.858789999999999964e+03
3.500000000000000333e-02 6.118010000000000392e-01 -2.336825000000000152e+00 3.658964999999999890e+01 1.858150000000000091e+03
3.600000000000000422e-02 6.115835000000000576e-01 -2.381616999999999873e+00 3.495735000000000525e+01 1.857684999999999945e+03
3.700000000000000511e-02 6.114884999999999904e-01 -2.191711500000000257e+00 3.413374999999999915e+01 1.857414999999999964e+03
3.799999999999999906e-02 6.115034999999999776e-01 -1.790280000000000094e+00 3.405839999999999890e+01 1.857309999999999945e+03
3.899999999999999994e-02 6.116194999999999826e-01 -1.189797500000000063e+00 3.466420000000000101e+01 1.857375000000000000e+03
4.000000000000000083e-02 6.118320000000000425e-01 -3.887149999999999217e-01 3.589614999999999867e+01 1.857585000000000036e+03
4.100000000000000172e-02 6.121395000000000586e-01 6.238150000000000084e-01 3.771635000000000559e+01 1.857945000000000164e+03
4.200000000000000261e-02 6.125410000000000021e-01 1.858244999999999703e+00 4.009645000000000437e+01 1.858434999999999945e+03
4.300000000000000350e-02 6.130320000000000213e-01 3.314544999999999852e+00 4.300390000000000157e+01 1.859059999999999945e+03
4.400000000000000439e-02 6.136025000000000507e-01 4.975554999999999950e+00 4.638920000000000243e+01 1.859799999999999955e+03
4.499999999999999833e-02 6.142369999999999219e-01 6.805580000000000851e+00 5.017875000000000085e+01 1.860630000000000109e+03
4.599999999999999922e-02 6.149149999999999894e-01 8.753562500000001023e+00 5.427540000000000475e+01 1.861549999999999955e+03
4.700000000000000011e-02 6.156154999999999822e-01 1.076000499999999960e+01 5.856560000000000343e+01 1.862530000000000200e+03
4.800000000000000100e-02 6.163170000000000037e-01 1.276476500000000058e+01 6.293125000000000568e+01 1.863539999999999964e+03
4.900000000000000189e-02 6.170039999999999969e-01 1.471415000000000006e+01 6.726249999999998863e+01 1.864559999999999945e+03
5.000000000000000278e-02 6.176619999999999333e-01 1.656606999999999985e+01 7.146869999999999834e+01 1.865559999999999945e+03
5.100000000000000366e-02 6.182855000000000434e-01 1.829244999999999877e+01 7.548584999999999923e+01 1.866529999999999973e+03
5.200000000000000455e-02 6.188719999999999777e-01 1.987914999999999921e+01 7.927894999999999470e+01 1.867454999999999927e+03
5.300000000000000544e-02 6.194229999999999459e-01 2.132390000000000185e+01 8.284085000000000321e+01 1.868345000000000027e+03
5.399999999999999939e-02 6.199434999999999807e-01 2.263354999999999961e+01 8.618755000000000166e+01 1.869179999999999836e+03
5.500000000000000028e-02 6.204414999999999791e-01 2.382120000000000104e+01 8.935259999999999536e+01 1.869974999999999909e+03
5.600000000000000117e-02 6.209244999999999903e-01 2.490395000000000181e+01 9.238049999999999784e+01 1.870740000000000009e+03
5.700000000000000205e-02 6.213999999999999524e-01 2.590044999999999931e+01 9.532139999999999702e+01 1.871480000000000018e+03
5.800000000000000294e-02 6.218760000000000954e-01 2.682905000000000229e+01 9.822454999999999359e+01 1.872210000000000036e+03
5.900000000000000383e-02 6.223585000000000367e-01 2.770625000000000071e+01 1.011341500000000053e+02 1.872940000000000055e+03
6.000000000000000472e-02 6.228519999999999612e-01 2.854485000000000028e+01 1.040824499999999944e+02 1.873670000000000073e+03
6.099999999999999867e-02 6.233575000000000088e-01 2.935249999999999915e+01 1.070900000000000034e+02 1.874409999999999854e+03
6.199999999999999956e-02 6.238740000000000396e-01 3.013090000000000046e+01 1.101580000000000013e+02 1.875170000000000073e+03
6.300000000000000044e-02 6.243969999999999798e-01 3.087579999999999814e+01 1.132744999999999891e+02 1.875934999999999945e+03
6.400000000000000133e-02 6.249214999999999076e-01 3.157789999999999964e+01 1.164095000000000084e+02 1.876704999999999927e+03
6.500000000000000222e-02 6.254394999999999261e-01 3.222400000000000375e+01 1.195225000000000080e+02 1.877474999999999909e+03
6.600000000000000311e-02 6.259425000000000683e-01 3.279909999999999570e+01 1.225660000000000025e+02 1.878224999999999909e+03
6.700000000000000400e-02 6.264224999999999932e-01 3.328810000000000002e+01 1.254890000000000043e+02 1.878960000000000036e+03
6.800000000000000488e-02 6.268715000000000259e-01 3.367745000000000033e+01 1.282429999999999950e+02 1.879650000000000091e+03
6.900000000000000577e-02 6.272834999999999939e-01 3.395600000000000307e+01 1.307874999999999943e+02 1.880299999999999955e+03
7.000000000000000666e-02 6.276545000000000041e-01 3.411585000000000178e+01 1.330865000000000009e+02 1.880894999999999982e+03
7.100000000000000755e-02 6.279810000000000114e-01 3.415250000000000341e+01 1.351165000000000020e+02 1.881424999999999955e+03
7.200000000000000844e-02 6.282609999999999584e-01 3.406489999999999441e+01 1.368634999999999877e+02 1.881889999999999873e+03
7.300000000000000933e-02 6.284950000000000259e-01 3.385545000000000471e+01 1.383229999999999791e+02 1.882289999999999964e+03
7.399999999999999634e-02 6.286840000000000206e-01 3.352989999999999782e+01 1.395004999999999882e+02 1.882619999999999891e+03
7.499999999999999722e-02 6.288314999999999877e-01 3.309725000000000250e+01 1.404105000000000132e+02 1.882884999999999991e+03
7.599999999999999811e-02 6.289405000000000134e-01 3.256949999999999790e+01 1.410755000000000052e+02 1.883090000000000146e+03
7.699999999999999900e-02 6.290165000000000894e-01 3.196130000000000138e+01 1.415240000000000009e+02 1.883234999999999900e+03
7.799999999999999989e-02 6.290659999999999030e-01 3.128950000000000031e+01 1.417895000000000039e+02 1.883339999999999918e+03
7.900000000000000078e-02 6.290934999999999722e-01 3.057229999999999848e+01 1.419099999999999966e+02 1.883404999999999973e+03
8.000000000000000167e-02 6.291069999999999718e-01 2.982835000000000036e+01 1.419239999999999782e+02 1.883434999999999945e+03
8.100000000000000255e-02 6.291115000000000457e-01 2.907580000000000098e+01 1.418695000000000164e+02 1.883445000000000164e+03
8.200000000000000344e-02 6.291120000000000045e-01 2.833120000000000260e+01 1.417824999999999989e+02 1.883440000000000055e+03
8.300000000000000433e-02 6.291139999999999510e-01 2.760839999999999961e+01 1.416910000000000025e+02 1.883429999999999836e+03
8.400000000000000522e-02 6.291195000000000537e-01 2.691790000000000305e+01 1.416200000000000045e+02 1.883420000000000073e+03
8.500000000000000611e-02 6.291309999999999958e-01 2.626644999999999897e+01 1.415840000000000032e+02 1.883414999999999964e+03
8.600000000000000699e-02 6.291484999999999994e-01 2.565670000000000073e+01 1.415894999999999868e+02 1.883420000000000073e+03
8.700000000000000788e-02 6.291709999999999248e-01 2.508755000000000024e+01 1.416355000000000075e+02 1.883424999999999955e+03
8.800000000000000877e-02 6.291964999999999364e-01 2.455424999999999969e+01 1.417119999999999891e+02 1.883440000000000055e+03
8.899999999999999578e-02 6.292225000000000179e-01 2.404950000000000188e+01 1.418045000000000186e+02 1.883460000000000036e+03
8.999999999999999667e-02 6.292444999999999844e-01 2.356374999999999886e+01 1.418915000000000077e+02 1.883474999999999909e+03
9.099999999999999756e-02 6.292584999999999429e-01 2.308610000000000184e+01 1.419515000000000100e+02 1.883490000000000009e+03
9.199999999999999845e-02 6.292614999999999181e-01 2.260515000000000185e+01 1.419579999999999984e+02 1.883485000000000127e+03
9.299999999999999933e-02 6.292489999999999473e-01 2.210954999999999870e+01 1.418879999999999768e+02 1.883469999999999800e+03
9.400000000000000022e-02 6.292180000000000550e-01 2.158924999999999983e+01 1.417194999999999823e+02 1.883434999999999945e+03
9.500000000000000111e-02 6.291664999999999619e-01 2.103555000000000064e+01 1.414340000000000259e+02 1.883375000000000000e+03
9.600000000000000200e-02 6.290919999999999845e-01 2.044230000000000302e+01 1.410194999999999936e+02 1.883284999999999854e+03
9.700000000000000289e-02 6.289945000000000119e-01 1.980640000000000001e+01 1.404689999999999941e+02 1.883164999999999964e+03
9.800000000000000377e-02 6.288750000000000728e-01 1.912780000000000058e+01 1.397835000000000036e+02 1.883009999999999991e+03
9.900000000000000466e-02 6.287350000000000438e-01 1.841009999999999991e+01 1.389710000000000036e+02 1.882829999999999927e+03
1.000000000000000056e-01 6.285784999999999290e-01 1.766004999999999825e+01 1.380480000000000018e+02 1.882625000000000000e+03
1.010000000000000064e-01 6.284084999999999255e-01 1.688755000000000095e+01 1.370355000000000132e+02 1.882389999999999873e+03
1.020000000000000073e-01 6.282309999999999839e-01 1.610470000000000113e+01 1.359619999999999891e+02 1.882139999999999873e+03
1.030000000000000082e-01 6.280514999999999848e-01 1.532554999999999978e+01 1.348589999999999804e+02 1.881884999999999991e+03
1.040000000000000091e-01 6.278749999999999609e-01 1.456464500000000051e+01 1.337595000000000027e+02 1.881615000000000009e+03
1.050000000000000100e-01 6.277064999999999451e-01 1.383674500000000052e+01 1.326965000000000146e+02 1.881365000000000009e+03
1.059999999999999970e-01 6.275515000000000398e-01 1.315556499999999929e+01 1.317019999999999982e+02 1.881119999999999891e+03
1.069999999999999979e-01 6.274144999999999861e-01 1.253313999999999950e+01 1.308034999999999854e+02 1.880894999999999982e+03
1.079999999999999988e-01 6.272984999999999811e-01 1.197920000000000051e+01 1.300235000000000127e+02 1.880694999999999936e+03
1.089999999999999997e-01 6.272044999999999426e-01 1.150064500000000045e+01 1.293780000000000143e+02 1.880525000000000091e+03
1.100000000000000006e-01 6.271349999999999980e-01 1.110129500000000036e+01 1.288760000000000048e+02 1.880384999999999991e+03
1.110000000000000014e-01 6.270880000000000898e-01 1.078173999999999921e+01 1.285200000000000102e+02 1.880280000000000200e+03
1.120000000000000023e-01 6.270640000000000658e-01 1.053972500000000068e+01 1.283050000000000068e+02 1.880210000000000036e+03
1.130000000000000032e-01 6.270590000000000330e-01 1.037020499999999856e+01 1.282195000000000107e+02 1.880164999999999964e+03
1.140000000000000041e-01 6.270715000000000039e-01 1.026595499999999994e+01 1.282490000000000236e+02 1.880150000000000091e+03
1.150000000000000050e-01 6.270974999999999744e-01 1.021808000000000050e+01 1.283739999999999952e+02 1.880159999999999854e+03
1.160000000000000059e-01 6.271329999999999405e-01 1.021684499999999929e+01 1.285724999999999909e+02 1.880190000000000055e+03
1.170000000000000068e-01 6.271759999999999557e-01 1.025187000000000026e+01 1.288230000000000075e+02 1.880235000000000127e+03
1.180000000000000077e-01 6.272215000000000984e-01 1.031313499999999905e+01 1.291050000000000182e+02 1.880289999999999964e+03
1.190000000000000085e-01 6.272674999999999779e-01 1.039114000000000004e+01 1.293990000000000009e+02 1.880355000000000018e+03
1.200000000000000094e-01 6.273119999999999807e-01 1.047728999999999999e+01 1.296890000000000214e+02 1.880414999999999964e+03
1.209999999999999964e-01 6.273520000000000207e-01 1.056415999999999933e+01 1.299615000000000009e+02 1.880474999999999909e+03
1.219999999999999973e-01 6.273874999999999869e-01 1.064580000000000126e+01 1.302069999999999936e+02 1.880529999999999973e+03
1.229999999999999982e-01 6.274170000000000025e-01 1.071744999999999948e+01 1.304180000000000064e+02 1.880585000000000036e+03
1.239999999999999991e-01 6.274405000000000676e-01 1.077591999999999928e+01 1.305925000000000011e+02 1.880625000000000000e+03
1.250000000000000000e-01 6.274579999999999602e-01 1.081926999999999950e+01 1.307299999999999898e+02 1.880659999999999854e+03
1.260000000000000009e-01 6.274699999999999722e-01 1.084685999999999950e+01 1.308329999999999984e+02 1.880690000000000055e+03
1.270000000000000018e-01 6.274779999999999802e-01 1.085926500000000061e+01 1.309054999999999893e+02 1.880710000000000036e+03
1.280000000000000027e-01 6.274835000000000829e-01 1.085796000000000028e+01 1.309544999999999959e+02 1.880724999999999909e+03
1.290000000000000036e-01 6.274859999999999882e-01 1.084529500000000013e+01 1.309875000000000114e+02 1.880740000000000009e+03
1.300000000000000044e-01 6.274889999999999635e-01 1.082424500000000123e+01 1.310124999999999886e+02 1.880744999999999891e+03
1.310000000000000053e-01 6.274919999999999387e-01 1.079808500000000038e+01 1.310375000000000227e+02 1.880755000000000109e+03
1.320000000000000062e-01 6.274980000000000002e-01 1.077022999999999975e+01 1.310704999999999814e+02 1.880764999999999873e+03
1.330000000000000071e-01 6.275070000000000370e-01 1.074386999999999937e+01 1.311195000000000164e+02 1.880779999999999973e+03
1.340000000000000080e-01 6.275189999999999380e-01 1.072162999999999933e+01 1.311885000000000048e+02 1.880795000000000073e+03
1.350000000000000089e-01 6.275370000000000115e-01 1.070566499999999976e+01 1.312824999999999989e+02 1.880815000000000055e+03
1.360000000000000098e-01 6.275585000000000191e-01 1.069725499999999840e+01 1.314030000000000200e+02 1.880844999999999800e+03
1.370000000000000107e-01 6.275850000000000595e-01 1.069678000000000040e+01 1.315495000000000232e+02 1.880880000000000109e+03
1.380000000000000115e-01 6.276150000000000340e-01 1.070384500000000116e+01 1.317210000000000036e+02 1.880920000000000073e+03
1.390000000000000124e-01 6.276479999999999837e-01 1.071738500000000016e+01 1.319114999999999895e+02 1.880965000000000146e+03
1.400000000000000133e-01 6.276829999999999909e-01 1.073563000000000045e+01 1.321170000000000186e+02 1.881009999999999991e+03
1.410000000000000142e-01 6.277189999999999159e-01 1.075657999999999959e+01 1.323310000000000173e+02 1.881059999999999945e+03
1.420000000000000151e-01 6.277550000000000630e-01 1.077805500000000016e+01 1.325464999999999804e+02 1.881115000000000009e+03
1.430000000000000160e-01 6.277895000000000003e-01 1.079807500000000076e+01 1.327574999999999932e+02 1.881164999999999964e+03
1.440000000000000169e-01 6.278219999999999912e-01 1.081482000000000099e+01 1.329594999999999914e+02 1.881215000000000146e+03
1.450000000000000178e-01 6.278520000000000767e-01 1.082700499999999977e+01 1.331469999999999914e+02 1.881259999999999991e+03
1.459999999999999909e-01 6.278795000000000348e-01 1.083390999999999948e+01 1.333185000000000002e+02 1.881299999999999955e+03
1.469999999999999918e-01 6.279040000000000177e-01 1.083543500000000037e+01 1.334735000000000014e+02 1.881344999999999800e+03
1.479999999999999927e-01 6.279259999999999842e-01 1.083183499999999988e+01 1.336114999999999782e+02 1.881375000000000000e+03
1.489999999999999936e-01 6.279455000000000453e-01 1.082419499999999957e+01 1.337355000000000018e+02 1.881410000000000082e+03
1.499999999999999944e-01 6.279639999999999667e-01 1.081375500000000045e+01 1.338485000000000014e+02 1.881440000000000055e+03
1.509999999999999953e-01 6.279820000000000402e-01 1.080233499999999935e+01 1.339565000000000055e+02 1.881465000000000146e+03
1.519999999999999962e-01 6.280000000000000027e-01 1.079185000000000016e+01 1.340635000000000048e+02 1.881494999999999891e+03
1.529999999999999971e-01 6.280194999999999528e-01 1.078444999999999965e+01 1.341750000000000114e+02 1.881525000000000091e+03
1.539999999999999980e-01 6.280405000000000015e-01 1.078234499999999940e+01 1.342980000000000018e+02 1.881549999999999955e+03
1.549999999999999989e-01 6.280649999999999844e-01 1.078756500000000074e+01 1.344379999999999882e+02 1.881585000000000036e+03
1.559999999999999998e-01 6.280939999999999301e-01 1.080218499999999970e+01 1.346005000000000109e+02 1.881619999999999891e+03
1.570000000000000007e-01 6.281265000000000320e-01 1.082800999999999902e+01 1.347889999999999873e+02 1.881664999999999964e+03
1.580000000000000016e-01 6.281650000000000844e-01 1.086636500000000005e+01 1.350090000000000146e+02 1.881720000000000027e+03
1.590000000000000024e-01 6.282090000000000174e-01 1.091835000000000022e+01 1.352624999999999886e+02 1.881775000000000091e+03
