# t [s], A [cm^2], U [cm/s], P [cPa], c [cm/s]
1.000000000000000021e-03 7.592060000000000475e-01 6.742250000000005183e-03 1.020039999999999907e+02 1.708464999999999918e+03
2.000000000000000042e-03 7.591924999999999368e-01 -3.993525000000000373e-03 1.019694999999999965e+02 1.708460000000000036e+03
3.000000000000000062e-03 7.592570000000000707e-01 9.700144999999998907e-02 1.020854999999999961e+02 1.708490000000000009e+03
4.000000000000000083e-03 7.593119999999999870e-01 1.981436849999999861e-01 1.022139999999999986e+02 1.708514999999999873e+03
5.000000000000000104e-03 7.592704999999999593e-01 1.626462499999999922e-01 1.021280000000000001e+02 1.708494999999999891e+03
6.000000000000000125e-03 7.591864999999999863e-01 5.656050000000001354e-02 1.018679999999999950e+02 1.708444999999999936e+03
7.000000000000000146e-03 7.591185000000000294e-01 -3.437550000000000328e-02 1.015625000000000000e+02 1.708375000000000000e+03
8.000000000000000167e-03 7.590040000000000120e-01 -2.121550000000000935e-01 1.011005000000000109e+02 1.708275000000000091e+03
9.000000000000001055e-03 7.588155000000000872e-01 -5.270349999999999202e-01 1.003887000000000000e+02 1.708125000000000000e+03
1.000000000000000194e-02 7.585505000000000164e-01 -9.795749999999999735e-01 9.938394999999999868e+01 1.707914999999999964e+03
1.099999999999999936e-02 7.581800000000000761e-01 -1.600864999999999760e+00 9.800010000000000332e+01 1.707619999999999891e+03
1.200000000000000025e-02 7.577000000000000401e-01 -2.381194999999999951e+00 9.619380000000001019e+01 1.707224999999999909e+03
1.300000000000000114e-02 7.571689999999999809e-01 -3.199040000000000106e+00 9.408254999999999768e+01 1.706755000000000109e+03
1.400000000000000203e-02 7.566800000000000193e-01 -3.868244999999999933e+00 9.191630000000000678e+01 1.706250000000000000e+03
1.499999999999999944e-02 7.563005000000000422e-01 -4.241906900000000036e+00 8.994134999999999991e+01 1.705769999999999982e+03
1.600000000000000033e-02 7.560369999999999591e-01 -4.274330499999999589e+00 8.828749999999999432e+01 1.705340000000000146e+03
1.700000000000000122e-02 7.558484999999999232e-01 -4.017454999999999998e+00 8.693630000000000280e+01 1.704965000000000146e+03
1.800000000000000211e-02 7.556704999999999117e-01 -3.578330000000000233e+00 8.576079999999998904e+01 1.704619999999999891e+03
1.900000000000000300e-02 7.554460000000000619e-01 -3.067649999999999988e+00 8.459550000000000125e+01 1.704280000000000200e+03
2.000000000000000042e-02 7.551459999999999839e-01 -2.558819000000000177e+00 8.330674999999999386e+01 1.703914999999999964e+03
2.100000000000000130e-02 7.547749999999999737e-01 -2.068985000000000074e+00 8.183959999999999013e+01 1.703514999999999873e+03
2.200000000000000219e-02 7.543629999999998947e-01 -1.566775000000000029e+00 8.022544999999999504e+01 1.703085000000000036e+03
2.299999999999999961e-02 7.539489999999999803e-01 -1.000615000000000032e+00 7.855214999999999748e+01 1.702639999999999873e+03
2.400000000000000050e-02 7.535625000000000240e-01 -3.328999999999999737e-01 7.691399999999998727e+01 1.702194999999999936e+03
2.500000000000000139e-02 7.532090000000000174e-01 4.352599999999999802e-01 7.536539999999999395e+01 1.701769999999999982e+03
2.600000000000000228e-02 7.528715000000000268e-01 1.256045000000000078e+00 7.389449999999999363e+01 1.701355000000000018e+03
2.700000000000000316e-02 7.525135000000000574e-01 2.043289999999999829e+00 7.242164999999999964e+01 1.700945000000000164e+03
2.800000000000000058e-02 7.520904999999999951e-01 2.692574999999999719e+00 7.081985000000000241e+01 1.700515000000000100e+03
2.900000000000000147e-02 7.515654999999999974e-01 3.107145000000000046e+00 6.895105000000000928e+01 1.700029999999999973e+03
3.000000000000000236e-02 7.509170000000000567e-01 3.223230000000000484e+00 6.670810000000000173e+01 1.699465000000000146e+03
3.099999999999999978e-02 7.501500000000000945e-01 3.027024999999999633e+00 6.405010000000000048e+01 1.698825000000000045e+03
3.200000000000000067e-02 7.492950000000000443e-01 2.557929999999999815e+00 6.102029999999999887e+01 1.698095000000000027e+03
3.300000000000000155e-02 7.484005000000000241e-01 1.896760000000000002e+00 5.773995000000000033e+01 1.697304999999999836e+03
3.400000000000000244e-02 7.475205000000000322e-01 1.144635000000000069e+00 5.438235000000000241e+01 1.696500000000000000e+03
3.500000000000000333e-02 7.467064999999999397e-01 4.012499999999992184e-01 5.113895000000000124e+01 1.695700000000000045e+03
3.600000000000000422e-02 7.459975000000000911e-01 -2.517100000000001003e-01 4.818704999999999927e+01 1.694954999999999927e+03
3.700000000000000511e-02 7.454184999999999839e-01 -7.584650000000001668e-01 4.566764999999999475e+01 1.694304999999999836e+03
3.799999999999999906e-02 7.449805000000000454e-01 -1.089550000000000018e+00 4.367445000000000022e+01 1.693764999999999873e+03
3.899999999999999994e-02 7.446835000000000537e-01 -1.236629999999999896e+00 4.225410000000000110e+01 1.693355000000000018e+03
4.000000000000000083e-02 7.445215000000000583e-01 -1.204419499999999976e+00 4.141410000000000480e+01 1.693079999999999927e+03
4.100000000000000172e-02 7.444855000000000222e-01 -1.002199999999999980e+00 4.113569999999999993e+01 1.692940000000000055e+03
4.200000000000000261e-02 7.445675000000000487e-01 -6.370894999999999753e-01 4.138765000000000072e+01 1.692930000000000064e+03
4.300000000000000350e-02 7.447615000000000762e-01 -1.105749999999998678e-01 4.213680000000000092e+01 1.693050000000000182e+03
4.400000000000000439e-02 7.450645000000000184e-01 5.812349999999999461e-01 4.335419999999999874e+01 1.693289999999999964e+03
4.499999999999999833e-02 7.454735000000000111e-01 1.444334999999999702e+00 4.501545000000000130e+01 1.693644999999999982e+03
4.599999999999999922e-02 7.459854999999999681e-01 2.481994999999999951e+00 4.709700000000000131e+01 1.694105000000000018e+03
4.700000000000000011e-02 7.465930000000000621e-01 3.690345000000000653e+00 4.957045000000000101e+01 1.694664999999999964e+03
4.800000000000000100e-02 7.472849999999999770e-01 5.055460000000000065e+00 5.239754999999999541e+01 1.695315000000000055e+03
4.900000000000000189e-02 7.480485000000000051e-01 6.553004999999999747e+00 5.552750000000000341e+01 1.696050000000000182e+03
5.000000000000000278e-02 7.488635000000000153e-01 8.149741249999999937e+00 5.889755000000000251e+01 1.696855000000000018e+03
5.100000000000000366e-02 7.497110000000000163e-01 9.806715000000000515e+00 6.243580000000000041e+01 1.697700000000000045e+03
5.200000000000000455e-02 7.505714999999999471e-01 1.148324000000000034e+01 6.606655000000000655e+01 1.698590000000000146e+03
5.300000000000000544e-02 7.514264999999999972e-01 1.314081499999999991e+01 6.971614999999999895e+01 1.699489999999999782e+03
5.399999999999999939e-02 7.522634999999999739e-01 1.474616499999999952e+01 7.331900000000000261e+01 1.700384999999999991e+03
5.500000000000000028e-02 7.530704999999999760e-01 1.627346000000000004e+01 7.682175000000000864e+01 1.701275000000000091e+03
5.600000000000000117e-02 7.538415000000000532e-01 1.770490000000000208e+01 8.018635000000000446e+01 1.702139999999999873e+03
5.700000000000000205e-02 7.545740000000000780e-01 1.903065000000000140e+01 8.339064999999999372e+01 1.702969999999999800e+03
5.800000000000000294e-02 7.552695000000000380e-01 2.024779999999999802e+01 8.642754999999999654e+01 1.703769999999999982e+03
5.900000000000000383e-02 7.559309999999999086e-01 2.135895000000000010e+01 8.930294999999999561e+01 1.704529999999999973e+03
6.000000000000000472e-02 7.565640000000000143e-01 2.237075000000000102e+01 9.203300000000000125e+01 1.705255000000000109e+03
6.099999999999999867e-02 7.571749999999999314e-01 2.329240000000000066e+01 9.464010000000000389e+01 1.705954999999999927e+03
6.199999999999999956e-02 7.577694999999999848e-01 2.413445000000000107e+01 9.715180000000000859e+01 1.706630000000000109e+03
6.300000000000000044e-02 7.583539999999999726e-01 2.490789999999999793e+01 9.959565000000000623e+01 1.707280000000000200e+03
6.400000000000000133e-02 7.589344999999999564e-01 2.562265000000000015e+01 1.019963000000000051e+02 1.707920000000000073e+03
6.500000000000000222e-02 7.595140000000000224e-01 2.628719999999999857e+01 1.043753000000000100e+02 1.708559999999999945e+03
6.600000000000000311e-02 7.600955000000000350e-01 2.690749999999999886e+01 1.067475000000000023e+02 1.709184999999999945e+03
6.700000000000000400e-02 7.606779999999999653e-01 2.748639999999999972e+01 1.091184999999999974e+02 1.709815000000000055e+03
6.800000000000000488e-02 7.612609999999999655e-01 2.802385000000000304e+01 1.114869999999999948e+02 1.710440000000000055e+03
6.900000000000000577e-02 7.618400000000000727e-01 2.851660000000000039e+01 1.138419999999999987e+02 1.711065000000000055e+03
7.000000000000000666e-02 7.624100000000000321e-01 2.895899999999999963e+01 1.161664999999999992e+02 1.711684999999999945e+03
7.100000000000000755e-02 7.629650000000000043e-01 2.934364999999999668e+01 1.184364999999999952e+02 1.712284999999999854e+03
7.200000000000000844e-02 7.634969999999999812e-01 2.966215000000000046e+01 1.206255000000000024e+02 1.712869999999999891e+03
7.300000000000000933e-02 7.640000000000000124e-01 2.990630000000000166e+01 1.227044999999999959e+02 1.713430000000000064e+03
7.399999999999999634e-02 7.644684999999999953e-01 3.006859999999999999e+01 1.246469999999999914e+02 1.713954999999999927e+03
7.499999999999999722e-02 7.648954999999999504e-01 3.014289999999999736e+01 1.264275000000000091e+02 1.714444999999999936e+03
7.599999999999999811e-02 7.652775000000000549e-01 3.012485000000000213e+01 1.280250000000000057e+02 1.714889999999999873e+03
7.699999999999999900e-02 7.656115000000000004e-01 3.001210000000000022e+01 1.294244999999999948e+02 1.715279999999999973e+03
7.799999999999999989e-02 7.658955000000000624e-01 2.980425000000000324e+01 1.306150000000000091e+02 1.715630000000000109e+03
7.900000000000000078e-02 7.661284999999999901e-01 2.950309999999999988e+01 1.315925000000000011e+02 1.715920000000000073e+03
8.000000000000000167e-02 7.663119999999999932e-01 2.911250000000000071e+01 1.323575000000000159e+02 1.716155000000000200e+03
8.100000000000000255e-02 7.664474999999999483e-01 2.863830000000000098e+01 1.329155000000000086e+02 1.716340000000000146e+03
8.200000000000000344e-02 7.665379999999999416e-01 2.808800000000000097e+01 1.332785000000000082e+02 1.716474999999999909e+03
8.300000000000000433e-02 7.665870000000000184e-01 2.747115000000000151e+01 1.334615000000000009e+02 1.716559999999999945e+03
8.400000000000000522e-02 7.665999999999999481e-01 2.679844999999999899e+01 1.334834999999999923e+02 1.716599999999999909e+03
8.500000000000000611e-02 7.665819999999999856e-01 2.608194999999999908e+01 1.333679999999999950e+02 1.716605000000000018e+03
8.600000000000000699e-02 7.665385000000000115e-01 2.533445000000000036e+01 1.331374999999999886e+02 1.716575000000000045e+03
8.700000000000000788e-02 7.664760000000000462e-01 2.456905000000000072e+01 1.328185000000000002e+02 1.716514999999999873e+03
8.800000000000000877e-02 7.664005000000000400e-01 2.379850000000000065e+01 1.324364999999999952e+02 1.716440000000000055e+03
8.899999999999999578e-02 7.663174999999999848e-01 2.303500000000000014e+01 1.320169999999999959e+02 1.716349999999999909e+03
8.999999999999999667e-02 7.662324999999999831e-01 2.228904999999999959e+01 1.315815000000000055e+02 1.716250000000000000e+03
9.099999999999999756e-02 7.661485000000000101e-01 2.156949999999999790e+01 1.311494999999999891e+02 1.716144999999999982e+03
9.199999999999999845e-02 7.660690000000000000e-01 2.088289999999999935e+01 1.307369999999999948e+02 1.716045000000000073e+03
9.299999999999999933e-02 7.659960000000000102e-01 2.023335000000000150e+01 1.303545000000000016e+02 1.715949999999999818e+03
9.400000000000000022e-02 7.659314999999999873e-01 1.962225000000000108e+01 1.300080000000000098e+02 1.715855000000000018e+03
9.500000000000000111e-02 7.658734999999999848e-01 1.904874999999999829e+01 1.297005000000000052e+02 1.715769999999999982e+03
9.600000000000000200e-02 7.658215000000000439e-01 1.850979999999999848e+01 1.294265000000000043e+02 1.715690000000000055e+03
9.700000000000000289e-02 7.657734999999999959e-01 1.800025000000000119e+01 1.291819999999999879e+02 1.715625000000000000e+03
9.800000000000000377e-02 7.657264999999999766e-01 1.751375000000000171e+01 1.289549999999999841e+02 1.715555000000000064e+03
9.900000000000000466e-02 7.656779999999999697e-01 1.704285000000000139e+01 1.287339999999999804e+02 1.715494999999999891e+03
1.000000000000000056e-01 7.656245000000000411e-01 1.657959999999999923e+01 1.285054999999999836e+02 1.715425000000000182e+03
1.010000000000000064e-01 7.655635000000000634e-01 1.611605000000000132e+01 1.282570000000000050e+02 1.715360000000000127e+03
1.020000000000000073e-01 7.654914999999999914e-01 1.564454999999999885e+01 1.279739999999999895e+02 1.715284999999999854e+03
1.030000000000000082e-01 7.654060000000000308e-01 1.515840000000000032e+01 1.276460000000000150e+02 1.715200000000000045e+03
1.040000000000000091e-01 7.653054999999999719e-01 1.465190000000000126e+01 1.272634999999999934e+02 1.715105000000000018e+03
1.050000000000000100e-01 7.651894999999999669e-01 1.412105000000000032e+01 1.268200000000000074e+02 1.714994999999999891e+03
1.059999999999999970e-01 7.650574999999999459e-01 1.356355999999999895e+01 1.263125000000000000e+02 1.714865000000000009e+03
1.069999999999999979e-01 7.649099999999999788e-01 1.297898999999999958e+01 1.257419999999999902e+02 1.714724999999999909e+03
1.079999999999999988e-01 7.647485000000000532e-01 1.236898499999999856e+01 1.251115000000000066e+02 1.714570000000000164e+03
1.089999999999999997e-01 7.645759999999999224e-01 1.173710499999999968e+01 1.244310000000000116e+02 1.714404999999999973e+03
1.100000000000000006e-01 7.643955000000000055e-01 1.108873499999999979e+01 1.237110000000000127e+02 1.714224999999999909e+03
1.110000000000000014e-01 7.642109999999999737e-01 1.043088000000000015e+01 1.229659999999999940e+02 1.714045000000000073e+03
1.120000000000000023e-01 7.640264999999999418e-01 9.771689999999999543e+00 1.222134999999999962e+02 1.713855000000000018e+03
1.130000000000000032e-01 7.638475000000000126e-01 9.120070000000000121e+00 1.214714999999999918e+02 1.713664999999999964e+03
1.140000000000000041e-01 7.636780000000000790e-01 8.485514999999999475e+00 1.207595000000000027e+02 1.713485000000000127e+03
1.150000000000000050e-01 7.635224999999999929e-01 7.877134999999999998e+00 1.200949999999999989e+02 1.713309999999999945e+03
1.160000000000000059e-01 7.633849999999999802e-01 7.303829999999999600e+00 1.194964999999999975e+02 1.713154999999999973e+03
1.170000000000000068e-01 7.632689999999999753e-01 6.773229999999999862e+00 1.189789999999999992e+02 1.713014999999999873e+03
1.180000000000000077e-01 7.631764999999999244e-01 6.291894999999999349e+00 1.185544999999999902e+02 1.712894999999999982e+03
1.190000000000000085e-01 7.631099999999999550e-01 5.864670000000000272e+00 1.182334999999999923e+02 1.712799999999999955e+03
1.200000000000000094e-01 7.630695000000000672e-01 5.494620000000000282e+00 1.180204999999999984e+02 1.712730000000000018e+03
1.209999999999999964e-01 7.630559999999999565e-01 5.182969999999999189e+00 1.179170000000000016e+02 1.712690000000000055e+03
1.219999999999999973e-01 7.630680000000000796e-01 4.929054999999999964e+00 1.179205000000000041e+02 1.712674999999999955e+03
1.229999999999999982e-01 7.631029999999999758e-01 4.730480000000000018e+00 1.180250000000000057e+02 1.712684999999999945e+03
1.239999999999999991e-01 7.631589999999999208e-01 4.583299999999999486e+00 1.182214999999999918e+02 1.712714999999999918e+03
1.250000000000000000e-01 7.632324999999999804e-01 4.482310000000000016e+00 1.184979999999999905e+02 1.712764999999999873e+03
1.260000000000000009e-01 7.633199999999999985e-01 4.421339999999999826e+00 1.188410000000000082e+02 1.712840000000000146e+03
1.270000000000000018e-01 7.634184999999999999e-01 4.393604999999999983e+00 1.192350000000000136e+02 1.712929999999999836e+03
1.280000000000000027e-01 7.635235000000000216e-01 4.392005000000000159e+00 1.196649999999999920e+02 1.713025000000000091e+03
1.290000000000000036e-01 7.636319999999999775e-01 4.409474999999999589e+00 1.201159999999999997e+02 1.713130000000000109e+03
1.300000000000000044e-01 7.637404999999999333e-01 4.439205000000000290e+00 1.205734999999999957e+02 1.713240000000000009e+03
1.310000000000000053e-01 7.638469999999999427e-01 4.474895000000000067e+00 1.210250000000000057e+02 1.713349999999999909e+03
1.320000000000000062e-01 7.639480000000000715e-01 4.510875000000000412e+00 1.214595000000000056e+02 1.713460000000000036e+03
1.330000000000000071e-01 7.640419999999999989e-01 4.542265000000000441e+00 1.218675000000000068e+02 1.713559999999999945e+03
1.340000000000000080e-01 7.641280000000000294e-01 4.565025000000000333e+00 1.222420000000000044e+02 1.713660000000000082e+03
1.350000000000000089e-01 7.642044999999999533e-01 4.575990000000000002e+00 1.225775000000000006e+02 1.713750000000000000e+03
1.360000000000000098e-01 7.642704999999999638e-01 4.572855000000000558e+00 1.228714999999999975e+02 1.713825000000000045e+03
1.370000000000000107e-01 7.643269999999999786e-01 4.554174999999999862e+00 1.231225000000000023e+02 1.713894999999999982e+03
1.380000000000000115e-01 7.643735000000000390e-01 4.519305000000000128e+00 1.233300000000000125e+02 1.713954999999999927e+03
1.390000000000000124e-01 7.644109999999999516e-01 4.468339999999999534e+00 1.234964999999999975e+02 1.714005000000000109e+03
1.400000000000000133e-01 7.644400000000000084e-01 4.402004999999999946e+00 1.236244999999999976e+02 1.714045000000000073e+03
1.410000000000000142e-01 7.644610000000000571e-01 4.321609999999999729e+00 1.237169999999999987e+02 1.714074999999999818e+03
1.420000000000000151e-01 7.644755000000000855e-01 4.228889999999999816e+00 1.237789999999999964e+02 1.714095000000000027e+03
1.430000000000000160e-01 7.644839999999999414e-01 4.125904999999999490e+00 1.238139999999999930e+02 1.714115000000000009e+03
1.440000000000000169e-01 7.644884999999999042e-01 4.014910000000000423e+00 1.238280000000000030e+02 1.714119999999999891e+03
1.450000000000000178e-01 7.644900000000000029e-01 3.898234999999999673e+00 1.238250000000000028e+02 1.714125000000000000e+03
1.459999999999999909e-01 7.644885000000000153e-01 3.778144999999999865e+00 1.238089999999999975e+02 1.714125000000000000e+03
1.469999999999999918e-01 7.644859999999999989e-01 3.656735000000000291e+00 1.237839999999999918e+02 1.714119999999999891e+03
1.479999999999999927e-01 7.644820000000001059e-01 3.535849999999999937e+00 1.237524999999999977e+02 1.714119999999999891e+03
1.489999999999999936e-01 7.644770000000000731e-01 3.416984999999999939e+00 1.237164999999999964e+02 1.714115000000000009e+03
1.499999999999999944e-01 7.644720000000000404e-01 3.301274999999999959e+00 1.236779999999999973e+02 1.714105000000000018e+03
1.509999999999999953e-01 7.644660000000000899e-01 3.189454999999999707e+00 1.236364999999999981e+02 1.714099999999999909e+03
1.519999999999999962e-01 7.644595000000000695e-01 3.081890000000000018e+00 1.235919999999999987e+02 1.714085000000000036e+03
1.529999999999999971e-01 7.644515000000000615e-01 2.978615000000000013e+00 1.235434999999999945e+02 1.714075000000000045e+03
1.539999999999999980e-01 7.644414999999999960e-01 2.879405000000000214e+00 1.234890000000000043e+02 1.714065000000000055e+03
1.549999999999999989e-01 7.644300000000000539e-01 2.783844999999999903e+00 1.234269999999999925e+02 1.714045000000000073e+03
1.559999999999999998e-01 7.644150000000000666e-01 2.691440000000000055e+00 1.233545000000000016e+02 1.714029999999999973e+03
1.570000000000000007e-01 7.643975000000000630e-01 2.601690000000000058e+00 1.232704999999999984e+02 1.714009999999999991e+03
1.580000000000000016e-01 7.643759999999999444e-01 2.514159999999999950e+00 1.231730000000000018e+02 1.713985000000000127e+03
1.590000000000000024e-01 7.643505000000000438e-01 2.428564999999999863e+00 1.230610000000000070e+02 1.713960000000000036e+03
