# t [s], A [cm^2], U [cm/s], P [cPa], c [cm/s]
1.000000000000000021e-03 2.016589999999999772e-01 2.324554999999999816e-01 9.796800000000000352e+01 2.150829999999999927e+03
2.000000000000000042e-03 2.016080000000000094e-01 1.666478499999999752e+00 9.481690000000000396e+01 2.150429999999999836e+03
3.000000000000000062e-03 2.014674999999999938e-01 3.485465000000000035e+00 9.030294999999999561e+01 2.149380000000000109e+03
4.000000000000000083e-03 2.012734999999999941e-01 5.553546499999999497e+00 8.525524999999998954e+01 2.147954999999999927e+03
5.000000000000000104e-03 2.010655000000000081e-01 7.796355000000000146e+00 8.063595000000000823e+01 2.146440000000000055e+03
6.000000000000000125e-03 2.008665000000000034e-01 1.003355999999999959e+01 7.682314999999999827e+01 2.145005000000000109e+03
7.000000000000000146e-03 2.006809999999999983e-01 1.202676500000000104e+01 7.358650000000000091e+01 2.143694999999999709e+03
8.000000000000000167e-03 2.005115000000000092e-01 1.367690999999999946e+01 7.067955000000000609e+01 2.142529999999999745e+03
9.000000000000001055e-03 2.003645000000000009e-01 1.502355000000000018e+01 6.816899999999999693e+01 2.141519999999999982e+03
1.000000000000000194e-02 2.002420000000000033e-01 1.610730000000000217e+01 6.614894999999999925e+01 2.140699999999999818e+03
1.099999999999999936e-02 2.001445000000000030e-01 1.695035000000000025e+01 6.460634999999999195e+01 2.140050000000000182e+03
1.200000000000000025e-02 2.000699999999999978e-01 1.757229999999999848e+01 6.348045000000000471e+01 2.139564999999999600e+03
1.300000000000000114e-02 2.000129999999999963e-01 1.797609999999999886e+01 6.265044999999999931e+01 2.139199999999999818e+03
1.400000000000000203e-02 1.999684999999999935e-01 1.817000000000000171e+01 6.196654999999999802e+01 2.138925000000000182e+03
1.499999999999999944e-02 1.999340000000000006e-01 1.822660000000000124e+01 6.142045000000000243e+01 2.138715000000000146e+03
1.600000000000000033e-02 1.999155000000000237e-01 1.829820000000000135e+01 6.126609999999999445e+01 2.138610000000000127e+03
1.700000000000000122e-02 1.999235000000000040e-01 1.855160000000000053e+01 6.190890000000000271e+01 2.138680000000000291e+03
1.800000000000000211e-02 1.999684999999999935e-01 1.907399999999999807e+01 6.362924999999999898e+01 2.138980000000000018e+03
1.900000000000000300e-02 2.000500000000000056e-01 1.981964999999999932e+01 6.635464999999999236e+01 2.139534999999999854e+03
2.000000000000000042e-02 2.001574999999999882e-01 2.062849999999999895e+01 6.962874999999999659e+01 2.140264999999999873e+03
2.100000000000000130e-02 2.002714999999999912e-01 2.129680000000000106e+01 7.277705000000000268e+01 2.141055000000000291e+03
2.200000000000000219e-02 2.003719999999999946e-01 2.165814999999999912e+01 7.516384999999999650e+01 2.141760000000000218e+03
2.299999999999999961e-02 2.004429999999999823e-01 2.164039999999999964e+01 7.641290000000000759e+01 2.142279999999999745e+03
2.400000000000000050e-02 2.004785000000000039e-01 2.127844999999999942e+01 7.650735000000000241e+01 2.142550000000000182e+03
2.500000000000000139e-02 2.004819999999999935e-01 2.068524999999999991e+01 7.574379999999999313e+01 2.142599999999999909e+03
2.600000000000000228e-02 2.004644999999999899e-01 1.999824999999999875e+01 7.457779999999999632e+01 2.142494999999999891e+03
2.700000000000000316e-02 2.004374999999999907e-01 1.932560000000000144e+01 7.343619999999999948e+01 2.142315000000000055e+03
2.800000000000000058e-02 2.004119999999999790e-01 1.871359999999999957e+01 7.257169999999999277e+01 2.142144999999999982e+03
2.900000000000000147e-02 2.003909999999999858e-01 1.814209999999999923e+01 7.200710000000000832e+01 2.141994999999999891e+03
3.000000000000000236e-02 2.003725000000000089e-01 1.754639999999999844e+01 7.157290000000000418e+01 2.141864999999999782e+03
3.099999999999999978e-02 2.003520000000000023e-01 1.685200000000000031e+01 7.101005000000000678e+01 2.141724999999999909e+03
3.200000000000000067e-02 2.003215000000000134e-01 1.601194999999999879e+01 7.009574999999999534e+01 2.141525000000000091e+03
3.300000000000000155e-02 2.002780000000000116e-01 1.503245000000000076e+01 6.874840000000000373e+01 2.141234999999999673e+03
3.400000000000000244e-02 2.002220000000000111e-01 1.397950000000000159e+01 6.707849999999999113e+01 2.140864999999999782e+03
3.500000000000000333e-02 2.001610000000000056e-01 1.296504999999999974e+01 6.536969999999999459e+01 2.140449999999999818e+03
3.600000000000000422e-02 2.001060000000000061e-01 1.211640000000000050e+01 6.399729999999999563e+01 2.140065000000000055e+03
3.700000000000000511e-02 2.000679999999999958e-01 1.154020000000000046e+01 6.331485000000000696e+01 2.139795000000000073e+03
3.799999999999999906e-02 2.000574999999999992e-01 1.129354999999999976e+01 6.354789999999999850e+01 2.139704999999999927e+03
3.899999999999999994e-02 2.000780000000000058e-01 1.136969999999999992e+01 6.472835000000000605e+01 2.139819999999999709e+03
4.000000000000000083e-02 2.001275000000000137e-01 1.170110000000000028e+01 6.668565000000000964e+01 2.140139999999999873e+03
4.100000000000000172e-02 2.001995000000000025e-01 1.217665000000000042e+01 6.909014999999999418e+01 2.140619999999999891e+03
4.200000000000000261e-02 2.002815000000000012e-01 1.266600000000000037e+01 7.152955000000000041e+01 2.141170000000000073e+03
4.300000000000000350e-02 2.003604999999999969e-01 1.304449999999999932e+01 7.359499999999999886e+01 2.141710000000000036e+03
4.400000000000000439e-02 2.004235000000000044e-01 1.321304999999999907e+01 7.495475000000000421e+01 2.142149999999999636e+03
4.499999999999999833e-02 2.004610000000000003e-01 1.310924999999999940e+01 7.540109999999999957e+01 2.142420000000000073e+03
4.599999999999999922e-02 2.004670000000000063e-01 1.270970000000000155e+01 7.486560000000000059e+01 2.142470000000000255e+03
4.700000000000000011e-02 2.004394999999999927e-01 1.202515000000000001e+01 7.340469999999999118e+01 2.142305000000000291e+03
4.800000000000000100e-02 2.003810000000000036e-01 1.109025499999999909e+01 7.116450000000000387e+01 2.141920000000000073e+03
4.900000000000000189e-02 2.002964999999999884e-01 9.952714999999999534e+00 6.833774999999999977e+01 2.141349999999999909e+03
5.000000000000000278e-02 2.001920000000000088e-01 8.663650000000000517e+00 6.512444999999999595e+01 2.140640000000000327e+03
5.100000000000000366e-02 2.000724999999999865e-01 7.271530000000000271e+00 6.170364999999999611e+01 2.139824999999999818e+03
5.200000000000000455e-02 1.999449999999999839e-01 5.819984999999999964e+00 5.822035000000000338e+01 2.138954999999999927e+03
5.300000000000000544e-02 1.998134999999999772e-01 4.348418500000000186e+00 5.478625000000000256e+01 2.138055000000000291e+03
5.399999999999999939e-02 1.996824999999999850e-01 2.894547000000000203e+00 5.148910000000000053e+01 2.137154999999999745e+03
5.500000000000000028e-02 1.995560000000000112e-01 1.497170000000000112e+00 4.840619999999999834e+01 2.136284999999999854e+03
5.600000000000000117e-02 1.994374999999999898e-01 1.979899999999998883e-01 4.561594999999999800e+01 2.135465000000000146e+03
5.700000000000000205e-02 1.993300000000000072e-01 -9.581450000000000244e-01 4.320475000000000421e+01 2.134719999999999800e+03
5.800000000000000294e-02 1.992375000000000118e-01 -1.924741200000000152e+00 4.126735000000000042e+01 2.134079999999999927e+03
5.900000000000000383e-02 1.991640000000000077e-01 -2.656570000000000320e+00 3.990139999999999532e+01 2.133559999999999945e+03
6.000000000000000472e-02 1.991130000000000122e-01 -3.113389999999999880e+00 3.919790000000000418e+01 2.133190000000000055e+03
6.099999999999999867e-02 1.990875000000000006e-01 -3.263654999999999973e+00 3.923019999999999641e+01 2.132994999999999891e+03
6.199999999999999956e-02 1.990910000000000180e-01 -3.087575000000000180e+00 4.004429999999999978e+01 2.132994999999999891e+03
6.300000000000000044e-02 1.991240000000000232e-01 -2.578990000000000116e+00 4.165174999999999983e+01 2.133194999999999709e+03
6.400000000000000133e-02 1.991864999999999886e-01 -1.745929000000000064e+00 4.402729999999999677e+01 2.133604999999999563e+03
6.500000000000000222e-02 1.992784999999999973e-01 -6.099099999999999522e-01 4.711029999999999518e+01 2.134210000000000036e+03
6.600000000000000311e-02 1.993965000000000043e-01 7.958499999999999464e-01 5.080965000000000487e+01 2.135000000000000000e+03
6.700000000000000400e-02 1.995375000000000065e-01 2.428874999999999673e+00 5.501154999999999973e+01 2.135949999999999818e+03
6.800000000000000488e-02 1.996979999999999866e-01 4.240287999999999613e+00 5.958790000000000475e+01 2.137034999999999854e+03
6.900000000000000577e-02 1.998725000000000085e-01 6.177849999999999397e+00 6.440534999999999854e+01 2.138224999999999909e+03
7.000000000000000666e-02 2.000564999999999982e-01 8.188984999999998848e+00 6.933454999999999302e+01 2.139480000000000018e+03
7.100000000000000755e-02 2.002455000000000207e-01 1.022377000000000002e+01 7.425724999999999909e+01 2.140779999999999745e+03
7.200000000000000844e-02 2.004354999999999887e-01 1.223723000000000027e+01 7.907345000000000823e+01 2.142090000000000146e+03
7.300000000000000933e-02 2.006215000000000082e-01 1.419194999999999851e+01 8.370659999999999457e+01 2.143385000000000218e+03
7.399999999999999634e-02 2.008024999999999949e-01 1.605894999999999939e+01 8.810634999999999195e+01 2.144640000000000327e+03
7.499999999999999722e-02 2.009765000000000024e-01 1.781905000000000072e+01 9.224969999999999004e+01 2.145850000000000364e+03
7.599999999999999811e-02 2.011415000000000008e-01 1.946219999999999928e+01 9.613805000000000689e+01 2.147010000000000218e+03
7.699999999999999900e-02 2.012980000000000047e-01 2.098689999999999856e+01 9.979675000000000296e+01 2.148105000000000018e+03
7.799999999999999989e-02 2.014475000000000016e-01 2.239855000000000018e+01 1.032642000000000024e+02 2.149159999999999854e+03
7.900000000000000078e-02 2.015910000000000202e-01 2.370734999999999815e+01 1.065904999999999916e+02 2.150170000000000073e+03
8.000000000000000167e-02 2.017289999999999917e-01 2.492640000000000100e+01 1.098264999999999958e+02 2.151139999999999873e+03
8.100000000000000255e-02 2.018650000000000166e-01 2.606954999999999956e+01 1.130194999999999936e+02 2.152095000000000255e+03
8.200000000000000344e-02 2.019989999999999841e-01 2.714954999999999785e+01 1.162085000000000008e+02 2.153039999999999964e+03
8.300000000000000433e-02 2.021324999999999927e-01 2.817685000000000173e+01 1.194190000000000111e+02 2.153984999999999673e+03
8.400000000000000522e-02 2.022670000000000023e-01 2.915865000000000151e+01 1.226640000000000015e+02 2.154934999999999945e+03
8.500000000000000611e-02 2.024019999999999986e-01 3.009854999999999947e+01 1.259419999999999931e+02 2.155890000000000327e+03
8.600000000000000699e-02 2.025374999999999814e-01 3.099640000000000128e+01 1.292384999999999877e+02 2.156845000000000255e+03
8.700000000000000788e-02 2.026735000000000064e-01 3.184870000000000090e+01 1.325289999999999964e+02 2.157800000000000182e+03
8.800000000000000877e-02 2.028085000000000027e-01 3.264869999999999806e+01 1.357799999999999727e+02 2.158755000000000109e+03
8.899999999999999578e-02 2.029414999999999969e-01 3.338750000000000284e+01 1.389534999999999911e+02 2.159694999999999709e+03
8.999999999999999667e-02 2.030715000000000159e-01 3.405445000000000277e+01 1.420080000000000098e+02 2.160609999999999673e+03
9.099999999999999756e-02 2.031954999999999734e-01 3.463779999999999859e+01 1.449010000000000105e+02 2.161489999999999782e+03
9.199999999999999845e-02 2.033134999999999803e-01 3.512560000000000571e+01 1.475930000000000177e+02 2.162329999999999927e+03
9.299999999999999933e-02 2.034230000000000205e-01 3.550610000000000355e+01 1.500444999999999993e+02 2.163110000000000127e+03
9.400000000000000022e-02 2.035230000000000095e-01 3.576885000000000048e+01 1.522244999999999777e+02 2.163824999999999818e+03
9.500000000000000111e-02 2.036125000000000018e-01 3.590505000000000280e+01 1.541055000000000064e+02 2.164465000000000146e+03
9.600000000000000200e-02 2.036904999999999966e-01 3.590840000000000032e+01 1.556694999999999993e+02 2.165019999999999982e+03
9.700000000000000289e-02 2.037559999999999927e-01 3.577535000000000309e+01 1.569044999999999845e+02 2.165494999999999891e+03
9.800000000000000377e-02 2.038079999999999892e-01 3.550580000000000069e+01 1.578090000000000259e+02 2.165875000000000000e+03
9.900000000000000466e-02 2.038479999999999737e-01 3.510330000000000439e+01 1.583915000000000077e+02 2.166164999999999964e+03
1.000000000000000056e-01 2.038750000000000007e-01 3.457489999999999952e+01 1.586680000000000064e+02 2.166369999999999891e+03
1.010000000000000064e-01 2.038905000000000023e-01 3.393110000000000070e+01 1.586655000000000086e+02 2.166489999999999782e+03
1.020000000000000073e-01 2.038955000000000073e-01 3.318529999999999802e+01 1.584155000000000086e+02 2.166534999999999854e+03
1.030000000000000082e-01 2.038905000000000023e-01 3.235349999999999682e+01 1.579560000000000173e+02 2.166505000000000109e+03
1.040000000000000091e-01 2.038770000000000027e-01 3.145315000000000083e+01 1.573299999999999841e+02 2.166425000000000182e+03
1.050000000000000100e-01 2.038574999999999970e-01 3.050285000000000224e+01 1.565794999999999959e+02 2.166289999999999964e+03
1.059999999999999970e-01 2.038320000000000132e-01 2.952100000000000080e+01 1.557470000000000141e+02 2.166119999999999891e+03
1.069999999999999979e-01 2.038034999999999985e-01 2.852554999999999907e+01 1.548725000000000023e+02 2.165925000000000182e+03
1.079999999999999988e-01 2.037729999999999819e-01 2.753300000000000125e+01 1.539915000000000020e+02 2.165710000000000036e+03
1.089999999999999997e-01 2.037414999999999921e-01 2.655805000000000149e+01 1.531334999999999980e+02 2.165494999999999891e+03
1.100000000000000006e-01 2.037110000000000032e-01 2.561280000000000001e+01 1.523224999999999909e+02 2.165274999999999636e+03
1.110000000000000014e-01 2.036815000000000153e-01 2.470660000000000167e+01 1.515740000000000123e+02 2.165064999999999600e+03
1.120000000000000023e-01 2.036540000000000017e-01 2.384584999999999866e+01 1.508969999999999914e+02 2.164864999999999782e+03
1.130000000000000032e-01 2.036280000000000034e-01 2.303385000000000105e+01 1.502944999999999993e+02 2.164684999999999945e+03
1.140000000000000041e-01 2.036045000000000216e-01 2.227074999999999960e+01 1.497590000000000146e+02 2.164514999999999873e+03
1.150000000000000050e-01 2.035835000000000006e-01 2.155385000000000062e+01 1.492795000000000130e+02 2.164360000000000127e+03
1.160000000000000059e-01 2.035635000000000083e-01 2.087774999999999892e+01 1.488379999999999939e+02 2.164220000000000255e+03
1.170000000000000068e-01 2.035454999999999903e-01 2.023515000000000086e+01 1.484139999999999873e+02 2.164085000000000036e+03
1.180000000000000077e-01 2.035270000000000135e-01 1.961684999999999945e+01 1.479809999999999945e+02 2.163949999999999818e+03
1.190000000000000085e-01 2.035084999999999811e-01 1.901285000000000025e+01 1.475140000000000100e+02 2.163815000000000055e+03
1.200000000000000094e-01 2.034874999999999878e-01 1.841270000000000095e+01 1.469870000000000232e+02 2.163670000000000073e+03
1.209999999999999964e-01 2.034644999999999926e-01 1.780630000000000024e+01 1.463759999999999764e+02 2.163505000000000109e+03
1.219999999999999973e-01 2.034380000000000077e-01 1.718454999999999799e+01 1.456599999999999966e+02 2.163315000000000055e+03
1.229999999999999982e-01 2.034080000000000055e-01 1.653994999999999749e+01 1.448240000000000123e+02 2.163099999999999909e+03
1.239999999999999991e-01 2.033729999999999982e-01 1.586690000000000111e+01 1.438580000000000041e+02 2.162855000000000018e+03
1.250000000000000000e-01 2.033335000000000004e-01 1.516230000000000011e+01 1.427584999999999980e+02 2.162579999999999927e+03
1.260000000000000009e-01 2.032885000000000109e-01 1.442579999999999885e+01 1.415300000000000011e+02 2.162265000000000327e+03
1.270000000000000018e-01 2.032384999999999886e-01 1.365974999999999895e+01 1.401825000000000045e+02 2.161920000000000073e+03
1.280000000000000027e-01 2.031844999999999901e-01 1.286899999999999977e+01 1.387344999999999970e+02 2.161539999999999964e+03
1.290000000000000036e-01 2.031270000000000020e-01 1.206111999999999895e+01 1.372085000000000150e+02 2.161135000000000218e+03
1.300000000000000044e-01 2.030664999999999831e-01 1.124554000000000009e+01 1.356329999999999814e+02 2.160715000000000146e+03
1.310000000000000053e-01 2.030044999999999766e-01 1.043346999999999980e+01 1.340395000000000039e+02 2.160275000000000091e+03
1.320000000000000062e-01 2.029414999999999969e-01 9.636874999999999858e+00 1.324610000000000127e+02 2.159835000000000036e+03
1.330000000000000071e-01 2.028794999999999904e-01 8.868244999999999933e+00 1.309300000000000068e+02 2.159400000000000091e+03
1.340000000000000080e-01 2.028194999999999859e-01 8.139704999999999302e+00 1.294784999999999968e+02 2.158974999999999909e+03
1.350000000000000089e-01 2.027619999999999978e-01 7.462374999999999758e+00 1.281329999999999814e+02 2.158569999999999709e+03
1.360000000000000098e-01 2.027090000000000003e-01 6.846059999999999590e+00 1.269184999999999945e+02 2.158190000000000055e+03
1.370000000000000107e-01 2.026605000000000212e-01 6.298624999999999474e+00 1.258525000000000063e+02 2.157849999999999909e+03
1.380000000000000115e-01 2.026175000000000059e-01 5.825739999999999696e+00 1.249465000000000003e+02 2.157545000000000073e+03
1.390000000000000124e-01 2.025814999999999977e-01 5.430740000000000123e+00 1.242069999999999936e+02 2.157279999999999745e+03
1.400000000000000133e-01 2.025510000000000088e-01 5.114580000000000126e+00 1.236330000000000098e+02 2.157059999999999945e+03
1.410000000000000142e-01 2.025264999999999982e-01 4.875914999999999999e+00 1.232189999999999941e+02 2.156890000000000327e+03
1.420000000000000151e-01 2.025084999999999802e-01 4.711304999999999410e+00 1.229540000000000077e+02 2.156750000000000000e+03
1.430000000000000160e-01 2.024960000000000093e-01 4.615495000000000125e+00 1.228245000000000005e+02 2.156654999999999745e+03
1.440000000000000169e-01 2.024885000000000157e-01 4.581725000000000492e+00 1.228114999999999952e+02 2.156599999999999909e+03
1.450000000000000178e-01 2.024854999999999849e-01 4.602100000000000080e+00 1.228965000000000032e+02 2.156574999999999818e+03
1.459999999999999909e-01 2.024865000000000137e-01 4.667950000000000266e+00 1.230589999999999975e+02 2.156574999999999818e+03
1.469999999999999918e-01 2.024905000000000177e-01 4.770179999999999865e+00 1.232779999999999916e+02 2.156599999999999909e+03
1.479999999999999927e-01 2.024970000000000103e-01 4.899630000000000152e+00 1.235335000000000036e+02 2.156635000000000218e+03
1.489999999999999936e-01 2.025049999999999906e-01 5.047340000000000160e+00 1.238079999999999927e+02 2.156690000000000055e+03
1.499999999999999944e-01 2.025139999999999996e-01 5.204850000000000421e+00 1.240834999999999866e+02 2.156744999999999891e+03
1.509999999999999953e-01 2.025224999999999942e-01 5.364399999999999835e+00 1.243460000000000036e+02 2.156809999999999945e+03
1.519999999999999962e-01 2.025315000000000032e-01 5.519149999999999778e+00 1.245825000000000102e+02 2.156864999999999782e+03
1.529999999999999971e-01 2.025394999999999834e-01 5.663285000000000124e+00 1.247824999999999989e+02 2.156920000000000073e+03
1.539999999999999980e-01 2.025460000000000038e-01 5.792149999999999466e+00 1.249410000000000025e+02 2.156970000000000255e+03
1.549999999999999989e-01 2.025514999999999954e-01 5.902274999999999494e+00 1.250515000000000043e+02 2.157010000000000218e+03
1.559999999999999998e-01 2.025554999999999994e-01 5.991405000000000314e+00 1.251134999999999877e+02 2.157034999999999854e+03
1.570000000000000007e-01 2.025569999999999871e-01 6.058440000000000047e+00 1.251270000000000095e+02 2.157050000000000182e+03
1.580000000000000016e-01 2.025580000000000158e-01 6.103385000000000282e+00 1.250949999999999989e+02 2.157055000000000291e+03
1.590000000000000024e-01 2.025565000000000004e-01 6.127190000000000580e+00 1.250219999999999914e+02 2.157045000000000073e+03
