# t [s], A [cm^2], U [cm/s], P [cPa], c [cm/s]
1.000000000000000021e-03 4.553310000000000413e-01 2.574250000000000149e-03 9.402299999999999613e+01 1.474325000000000045e+03
2.000000000000000042e-03 4.553254999999999941e-01 3.570500000000002491e-05 9.400739999999998986e+01 1.474320000000000164e+03
3.000000000000000062e-03 4.553530000000000078e-01 5.970844999999999625e-02 9.406190000000000850e+01 1.474335000000000036e+03
4.000000000000000083e-03 4.553914999999999491e-01 1.436833999999999889e-01 9.416219999999999857e+01 1.474365000000000009e+03
5.000000000000000104e-03 4.553949999999999942e-01 1.567540000000000044e-01 9.418084999999999241e+01 1.474375000000000000e+03
6.000000000000000125e-03 4.553675000000000361e-01 1.003175000000000039e-01 9.408469999999999800e+01 1.474355000000000018e+03
7.000000000000000146e-03 4.553364999999999774e-01 3.113949999999998663e-02 9.392304999999998927e+01 1.474319999999999936e+03
8.000000000000000167e-03 4.553015000000000256e-01 -5.057899999999998508e-02 9.370484999999999332e+01 1.474275000000000091e+03
9.000000000000001055e-03 4.552420000000000355e-01 -1.942875000000000019e-01 9.337444999999999595e+01 1.474194999999999936e+03
1.000000000000000194e-02 4.551475000000000382e-01 -4.244549999999999157e-01 9.288445000000000107e+01 1.474079999999999927e+03
1.099999999999999936e-02 4.550119999999999720e-01 -7.479599999999999582e-01 9.220134999999999081e+01 1.473914999999999964e+03
1.200000000000000025e-02 4.548280000000000101e-01 -1.175345000000000084e+00 9.128700000000000614e+01 1.473694999999999936e+03
1.300000000000000114e-02 4.545919999999999961e-01 -1.701920000000000099e+00 9.011849999999999739e+01 1.473400000000000091e+03
1.400000000000000203e-02 4.543165000000000120e-01 -2.283335000000000115e+00 8.872235000000000582e+01 1.473039999999999964e+03
1.499999999999999944e-02 4.540285000000000570e-01 -2.840084999999999749e+00 8.718110000000000070e+01 1.472634999999999991e+03
1.600000000000000033e-02 4.537550000000000194e-01 -3.286389999999999922e+00 8.560654999999999859e+01 1.472210000000000036e+03
1.700000000000000122e-02 4.535150000000000015e-01 -3.559931999999999874e+00 8.410099999999999909e+01 1.471779999999999973e+03
1.800000000000000211e-02 4.533139999999999947e-01 -3.636658500000000238e+00 8.272929999999999495e+01 1.471369999999999891e+03
1.900000000000000300e-02 4.531444999999999501e-01 -3.529301349999999893e+00 8.150884999999999536e+01 1.470980000000000018e+03
2.000000000000000042e-02 4.529904999999999626e-01 -3.275583600000000040e+00 8.041624999999999091e+01 1.470619999999999891e+03
2.100000000000000130e-02 4.528375000000000039e-01 -2.922817499999999846e+00 7.940254999999999086e+01 1.470269999999999982e+03
2.200000000000000219e-02 4.526715000000000044e-01 -2.513716000000000061e+00 7.841235000000000355e+01 1.469925000000000182e+03
2.299999999999999961e-02 4.524859999999999993e-01 -2.076554999999999929e+00 7.740059999999999718e+01 1.469579999999999927e+03
2.400000000000000050e-02 4.522820000000000173e-01 -1.621755000000000280e+00 7.634319999999999595e+01 1.469220000000000027e+03
2.500000000000000139e-02 4.520640000000000214e-01 -1.145110000000000072e+00 7.523850000000000193e+01 1.468855000000000018e+03
2.600000000000000228e-02 4.518395000000000050e-01 -6.357749999999997570e-01 7.410139999999999816e+01 1.468474999999999909e+03
2.700000000000000316e-02 4.516144999999999743e-01 -8.567999999999997840e-02 7.295184999999999320e+01 1.468090000000000146e+03
2.800000000000000058e-02 4.513915000000000011e-01 5.029200000000000337e-01 7.180414999999999281e+01 1.467710000000000036e+03
2.900000000000000147e-02 4.511680000000000135e-01 1.113910000000000178e+00 7.065800000000000125e+01 1.467325000000000045e+03
3.000000000000000236e-02 4.509364999999999624e-01 1.718155000000000099e+00 6.949599999999999511e+01 1.466940000000000055e+03
3.099999999999999978e-02 4.506875000000000187e-01 2.277929999999999566e+00 6.828594999999999970e+01 1.466534999999999854e+03
3.200000000000000067e-02 4.504115000000000202e-01 2.753614999999999480e+00 6.698714999999999975e+01 1.466114999999999782e+03
3.300000000000000155e-02 4.500999999999999446e-01 3.111015000000000086e+00 6.555995000000000061e+01 1.465664999999999964e+03
3.400000000000000244e-02 4.497490000000000099e-01 3.327739999999999920e+00 6.397514999999999930e+01 1.465175000000000182e+03
3.500000000000000333e-02 4.493605000000000516e-01 3.397330000000000183e+00 6.222234999999999872e+01 1.464650000000000091e+03
3.600000000000000422e-02 4.489409999999999790e-01 3.330555000000000376e+00 6.031459999999999866e+01 1.464079999999999927e+03
3.700000000000000511e-02 4.485019999999999563e-01 3.153340000000000476e+00 5.828860000000000241e+01 1.463485000000000127e+03
3.799999999999999906e-02 4.480585000000000262e-01 2.902160000000000295e+00 5.620139999999999958e+01 1.462865000000000009e+03
3.899999999999999994e-02 4.476259999999999684e-01 2.618834999999999802e+00 5.412335000000000207e+01 1.462250000000000000e+03
4.000000000000000083e-02 4.472194999999999920e-01 2.344820000000000348e+00 5.213030000000000541e+01 1.461650000000000091e+03
4.100000000000000172e-02 4.468539999999999734e-01 2.116995000000000182e+00 5.029610000000000269e+01 1.461085000000000036e+03
4.200000000000000261e-02 4.465379999999999905e-01 1.965214999999999712e+00 4.868594999999999828e+01 1.460570000000000164e+03
4.300000000000000350e-02 4.462809999999999833e-01 1.911360000000000170e+00 4.735314999999999941e+01 1.460130000000000109e+03
4.400000000000000439e-02 4.460874999999999702e-01 1.970025000000000137e+00 4.633700000000000330e+01 1.459775000000000091e+03
4.499999999999999833e-02 4.459600000000000231e-01 2.149994999999999656e+00 4.566329999999999956e+01 1.459515000000000100e+03
4.599999999999999922e-02 4.459009999999999918e-01 2.456158999999999981e+00 4.534619999999999607e+01 1.459349999999999909e+03
4.700000000000000011e-02 4.459084999999999854e-01 2.891249999999999876e+00 4.539034999999999798e+01 1.459285000000000082e+03
4.800000000000000100e-02 4.459840000000000471e-01 3.457060000000000244e+00 4.579385000000000616e+01 1.459324999999999818e+03
4.900000000000000189e-02 4.461255000000000082e-01 4.155015000000000569e+00 4.655015000000000214e+01 1.459474999999999909e+03
5.000000000000000278e-02 4.463310000000000333e-01 4.986004999999999576e+00 4.764914999999999878e+01 1.459724999999999909e+03
5.100000000000000366e-02 4.465999999999999970e-01 5.949720000000000120e+00 4.907819999999999538e+01 1.460065000000000055e+03
5.200000000000000455e-02 4.469289999999999652e-01 7.043619999999999770e+00 5.082134999999999536e+01 1.460514999999999873e+03
5.300000000000000544e-02 4.473150000000000182e-01 8.262325000000000585e+00 5.285920000000000130e+01 1.461050000000000182e+03
5.399999999999999939e-02 4.477524999999999977e-01 9.596579999999999444e+00 5.516804999999999382e+01 1.461670000000000073e+03
5.500000000000000028e-02 4.482359999999999678e-01 1.103347000000000122e+01 5.771974999999999767e+01 1.462369999999999891e+03
5.600000000000000117e-02 4.487585000000000046e-01 1.255656000000000105e+01 6.048199999999999932e+01 1.463135000000000218e+03
5.700000000000000205e-02 4.493135000000000323e-01 1.414656000000000091e+01 6.341880000000000450e+01 1.463965000000000146e+03
5.800000000000000294e-02 4.498920000000000141e-01 1.578244499999999917e+01 6.649164999999999281e+01 1.464840000000000146e+03
5.900000000000000383e-02 4.504879999999999995e-01 1.744246499999999855e+01 6.966129999999999711e+01 1.465759999999999991e+03
6.000000000000000472e-02 4.510925000000000074e-01 1.910539999999999949e+01 7.288920000000000243e+01 1.466700000000000045e+03
6.099999999999999867e-02 4.517005000000000048e-01 2.075159999999999982e+01 7.613929999999999154e+01 1.467664999999999964e+03
6.199999999999999956e-02 4.523044999999999982e-01 2.236364999999999981e+01 7.937935000000000230e+01 1.468634999999999991e+03
6.300000000000000044e-02 4.529020000000000268e-01 2.392705000000000126e+01 8.258209999999999695e+01 1.469605000000000018e+03
6.400000000000000133e-02 4.534880000000000022e-01 2.543039999999999878e+01 8.572594999999999743e+01 1.470565000000000055e+03
6.500000000000000222e-02 4.540615000000000068e-01 2.686534999999999940e+01 8.879545000000000243e+01 1.471519999999999982e+03
6.600000000000000311e-02 4.546199999999999686e-01 2.822650000000000148e+01 9.178095000000000425e+01 1.472450000000000045e+03
6.700000000000000400e-02 4.551650000000000418e-01 2.951109999999999900e+01 9.467759999999999820e+01 1.473360000000000127e+03
6.800000000000000488e-02 4.556950000000000167e-01 3.071840000000000259e+01 9.748659999999999570e+01 1.474250000000000000e+03
6.900000000000000577e-02 4.562120000000000619e-01 3.184949999999999903e+01 1.002107499999999902e+02 1.475125000000000000e+03
7.000000000000000666e-02 4.567164999999999697e-01 3.290654999999999575e+01 1.028573000000000093e+02 1.475974999999999909e+03
7.100000000000000755e-02 4.572114999999999929e-01 3.389244999999999663e+01 1.054341499999999883e+02 1.476805000000000064e+03
7.200000000000000844e-02 4.576970000000000205e-01 3.481040000000000134e+01 1.079495000000000005e+02 1.477619999999999891e+03
7.300000000000000933e-02 4.581755000000000133e-01 3.566349999999999909e+01 1.104115000000000038e+02 1.478420000000000073e+03
7.399999999999999634e-02 4.586465000000000125e-01 3.645444999999999425e+01 1.128269999999999982e+02 1.479210000000000036e+03
7.499999999999999722e-02 4.591115000000000057e-01 3.718510000000000559e+01 1.152014999999999958e+02 1.479974999999999909e+03
7.599999999999999811e-02 4.595694999999999641e-01 3.785670000000000357e+01 1.175360000000000014e+02 1.480740000000000009e+03
7.699999999999999900e-02 4.600215000000000276e-01 3.846949999999999648e+01 1.198294999999999959e+02 1.481485000000000127e+03
7.799999999999999989e-02 4.604654999999999720e-01 3.902275000000000205e+01 1.220805000000000007e+02 1.482224999999999909e+03
7.900000000000000078e-02 4.608999999999999764e-01 3.951494999999999891e+01 1.242814999999999941e+02 1.482949999999999818e+03
8.000000000000000167e-02 4.613234999999999975e-01 3.994395000000000095e+01 1.264249999999999972e+02 1.483655000000000200e+03
8.100000000000000255e-02 4.617339999999999778e-01 4.030719999999999459e+01 1.285004999999999882e+02 1.484335000000000036e+03
8.200000000000000344e-02 4.621290000000000120e-01 4.060195000000000221e+01 1.304969999999999857e+02 1.484994999999999891e+03
8.300000000000000433e-02 4.625059999999999727e-01 4.082540000000000191e+01 1.324029999999999916e+02 1.485634999999999991e+03
8.400000000000000522e-02 4.628635000000000388e-01 4.097509999999999764e+01 1.342065000000000055e+02 1.486240000000000009e+03
8.500000000000000611e-02 4.631984999999999575e-01 4.104894999999999783e+01 1.358965000000000032e+02 1.486819999999999936e+03
8.600000000000000699e-02 4.635099999999999776e-01 4.104569999999999652e+01 1.374629999999999939e+02 1.487360000000000127e+03
8.700000000000000788e-02 4.637965000000000004e-01 4.096464999999999890e+01 1.388979999999999961e+02 1.487860000000000127e+03
8.800000000000000877e-02 4.640564999999999829e-01 4.080595000000000283e+01 1.401940000000000168e+02 1.488309999999999945e+03
8.899999999999999578e-02 4.642890000000000628e-01 4.057070000000000221e+01 1.413480000000000132e+02 1.488730000000000018e+03
8.999999999999999667e-02 4.644944999999999768e-01 4.026094999999999402e+01 1.423575000000000159e+02 1.489099999999999909e+03
9.099999999999999756e-02 4.646730000000000027e-01 3.987959999999999638e+01 1.432225000000000250e+02 1.489425000000000182e+03
9.199999999999999845e-02 4.648244999999999738e-01 3.943049999999999500e+01 1.439445000000000050e+02 1.489704999999999927e+03
9.299999999999999933e-02 4.649500000000000299e-01 3.891819999999999879e+01 1.445294999999999845e+02 1.489944999999999936e+03
9.400000000000000022e-02 4.650504999999999778e-01 3.834825000000000017e+01 1.449830000000000041e+02 1.490139999999999873e+03
9.500000000000000111e-02 4.651285000000000558e-01 3.772664999999999935e+01 1.453140000000000214e+02 1.490299999999999955e+03
9.600000000000000200e-02 4.651850000000000152e-01 3.706024999999999636e+01 1.455310000000000059e+02 1.490414999999999964e+03
9.700000000000000289e-02 4.652220000000000244e-01 3.635614999999999952e+01 1.456455000000000268e+02 1.490500000000000000e+03
9.800000000000000377e-02 4.652420000000000444e-01 3.562189999999999657e+01 1.456694999999999993e+02 1.490550000000000182e+03
9.900000000000000466e-02 4.652475000000000360e-01 3.486504999999999654e+01 1.456154999999999973e+02 1.490575000000000045e+03
1.000000000000000056e-01 4.652399999999999869e-01 3.409324999999999761e+01 1.454960000000000093e+02 1.490574999999999818e+03
1.010000000000000064e-01 4.652229999999999976e-01 3.331374999999999886e+01 1.453240000000000123e+02 1.490554999999999836e+03
1.020000000000000073e-01 4.651980000000000004e-01 3.253345000000000198e+01 1.451119999999999948e+02 1.490514999999999873e+03
1.030000000000000082e-01 4.651669999999999972e-01 3.175845000000000340e+01 1.448704999999999927e+02 1.490460000000000036e+03
1.040000000000000091e-01 4.651325000000000043e-01 3.099414999999999765e+01 1.446100000000000136e+02 1.490400000000000091e+03
1.050000000000000100e-01 4.650950000000000362e-01 3.024495000000000289e+01 1.443389999999999986e+02 1.490335000000000036e+03
1.059999999999999970e-01 4.650560000000000249e-01 2.951409999999999911e+01 1.440649999999999977e+02 1.490260000000000218e+03
1.069999999999999979e-01 4.650164999999999993e-01 2.880369999999999919e+01 1.437925000000000182e+02 1.490180000000000064e+03
1.079999999999999988e-01 4.649769999999999737e-01 2.811475000000000080e+01 1.435244999999999891e+02 1.490099999999999909e+03
1.089999999999999997e-01 4.649375000000000036e-01 2.744704999999999728e+01 1.432624999999999886e+02 1.490019999999999982e+03
1.100000000000000006e-01 4.648970000000000047e-01 2.679945000000000022e+01 1.430054999999999836e+02 1.489940000000000055e+03
1.110000000000000014e-01 4.648560000000000469e-01 2.616980000000000217e+01 1.427515000000000214e+02 1.489859999999999900e+03
1.120000000000000023e-01 4.648140000000000049e-01 2.555529999999999902e+01 1.424975000000000023e+02 1.489779999999999973e+03
1.130000000000000032e-01 4.647685000000000288e-01 2.495250000000000057e+01 1.422379999999999995e+02 1.489699999999999818e+03
1.140000000000000041e-01 4.647204999999999808e-01 2.435764999999999958e+01 1.419685000000000059e+02 1.489610000000000127e+03
1.150000000000000050e-01 4.646675000000000111e-01 2.376684999999999803e+01 1.416814999999999998e+02 1.489514999999999873e+03
1.160000000000000059e-01 4.646095000000000086e-01 2.317620000000000147e+01 1.413734999999999786e+02 1.489425000000000182e+03
1.170000000000000068e-01 4.645449999999999857e-01 2.258190000000000097e+01 1.410370000000000061e+02 1.489315000000000055e+03
1.180000000000000077e-01 4.644729999999999692e-01 2.198075000000000045e+01 1.406689999999999827e+02 1.489200000000000045e+03
1.190000000000000085e-01 4.643935000000000146e-01 2.136984999999999957e+01 1.402649999999999864e+02 1.489079999999999927e+03
1.200000000000000094e-01 4.643059999999999965e-01 2.074690000000000012e+01 1.398209999999999980e+02 1.488945000000000164e+03
1.209999999999999964e-01 4.642100000000000115e-01 2.011045000000000016e+01 1.393365000000000009e+02 1.488800000000000182e+03
1.219999999999999973e-01 4.641055000000000041e-01 1.945974999999999966e+01 1.388110000000000070e+02 1.488639999999999873e+03
1.229999999999999982e-01 4.639935000000000032e-01 1.879465000000000074e+01 1.382454999999999927e+02 1.488470000000000027e+03
1.239999999999999991e-01 4.638744999999999674e-01 1.811605000000000132e+01 1.376424999999999841e+02 1.488289999999999964e+03
1.250000000000000000e-01 4.637489999999999668e-01 1.742544999999999789e+01 1.370049999999999955e+02 1.488099999999999909e+03
1.260000000000000009e-01 4.636184999999999889e-01 1.672520000000000095e+01 1.363385000000000105e+02 1.487900000000000091e+03
1.270000000000000018e-01 4.634834999999999927e-01 1.601810000000000045e+01 1.356485000000000127e+02 1.487694999999999936e+03
1.280000000000000027e-01 4.633454999999999657e-01 1.530765000000000065e+01 1.349424999999999955e+02 1.487480000000000018e+03
1.290000000000000036e-01 4.632069999999999799e-01 1.459776500000000077e+01 1.342270000000000039e+02 1.487260000000000218e+03
1.300000000000000044e-01 4.630684999999999940e-01 1.389268000000000036e+01 1.335104999999999791e+02 1.487039999999999964e+03
1.310000000000000053e-01 4.629320000000000102e-01 1.319687000000000054e+01 1.328009999999999877e+02 1.486825000000000045e+03
1.320000000000000062e-01 4.627989999999999604e-01 1.251480000000000103e+01 1.321055000000000064e+02 1.486610000000000127e+03
1.330000000000000071e-01 4.626704999999999846e-01 1.185090999999999894e+01 1.314329999999999927e+02 1.486394999999999982e+03
1.340000000000000080e-01 4.625485000000000291e-01 1.120941499999999991e+01 1.307899999999999920e+02 1.486190000000000055e+03
1.350000000000000089e-01 4.624340000000000117e-01 1.059422499999999978e+01 1.301835000000000093e+02 1.485994999999999891e+03
1.360000000000000098e-01 4.623279999999999612e-01 1.000882000000000005e+01 1.296184999999999832e+02 1.485815000000000055e+03
1.370000000000000107e-01 4.622304999999999886e-01 9.455989999999999895e+00 1.291005000000000109e+02 1.485639999999999873e+03
1.380000000000000115e-01 4.621429999999999705e-01 8.938114999999999810e+00 1.286324999999999932e+02 1.485485000000000127e+03
1.390000000000000124e-01 4.620659999999999767e-01 8.456739999999999924e+00 1.282160000000000082e+02 1.485345000000000027e+03
1.400000000000000133e-01 4.619984999999999786e-01 8.012824999999999420e+00 1.278524999999999920e+02 1.485215000000000146e+03
1.410000000000000142e-01 4.619415000000000049e-01 7.606510000000000105e+00 1.275414999999999992e+02 1.485099999999999909e+03
1.420000000000000151e-01 4.618935000000000124e-01 7.237370000000000303e+00 1.272810000000000059e+02 1.485005000000000109e+03
1.430000000000000160e-01 4.618544999999999456e-01 6.904294999999999405e+00 1.270690000000000026e+02 1.484920000000000073e+03
1.440000000000000169e-01 4.618244999999999711e-01 6.605610000000000426e+00 1.269014999999999986e+02 1.484855000000000018e+03
1.450000000000000178e-01 4.618004999999999471e-01 6.339175000000000004e+00 1.267740000000000009e+02 1.484795000000000073e+03
1.459999999999999909e-01 4.617840000000000278e-01 6.102460000000000662e+00 1.266814999999999998e+02 1.484750000000000000e+03
1.469999999999999918e-01 4.617720000000000158e-01 5.892654999999999532e+00 1.266179999999999950e+02 1.484715000000000146e+03
1.479999999999999927e-01 4.617645000000000222e-01 5.706744999999999735e+00 1.265784999999999911e+02 1.484684999999999945e+03
1.489999999999999936e-01 4.617594999999999894e-01 5.541650000000000631e+00 1.265579999999999927e+02 1.484670000000000073e+03
1.499999999999999944e-01 4.617575000000000429e-01 5.394260000000000055e+00 1.265494999999999948e+02 1.484654999999999973e+03
1.509999999999999953e-01 4.617559999999999998e-01 5.261559999999999349e+00 1.265484999999999900e+02 1.484639999999999873e+03
1.519999999999999962e-01 4.617545000000000677e-01 5.140684999999999505e+00 1.265500000000000114e+02 1.484630000000000109e+03
1.529999999999999971e-01 4.617534999999999834e-01 5.028940000000000410e+00 1.265494999999999948e+02 1.484625000000000000e+03
1.539999999999999980e-01 4.617510000000000225e-01 4.923904999999999532e+00 1.265440000000000111e+02 1.484615000000000009e+03
1.549999999999999989e-01 4.617459999999999898e-01 4.823400000000000354e+00 1.265305000000000035e+02 1.484605000000000018e+03
1.559999999999999998e-01 4.617400000000000393e-01 4.725564999999999571e+00 1.265060000000000002e+02 1.484595000000000027e+03
1.570000000000000007e-01 4.617310000000000025e-01 4.628835000000000477e+00 1.264685000000000059e+02 1.484585000000000036e+03
1.580000000000000016e-01 4.617194999999999494e-01 4.531934999999999825e+00 1.264174999999999898e+02 1.484559999999999945e+03
1.590000000000000024e-01 4.617054999999999909e-01 4.433919999999999639e+00 1.263524999999999920e+02 1.484545000000000073e+03
