# t [s], A [cm^2], U [cm/s], P [cPa], c [cm/s]
1.000000000000000021e-03 1.209510000000000030e-01 2.857239999999999780e-01 8.934069999999999823e+01 1.856179999999999836e+03
2.000000000000000042e-03 1.209334999999999993e-01 1.636542500000000011e+00 8.661265000000000214e+01 1.855960000000000036e+03
3.000000000000000062e-03 1.208665000000000017e-01 3.279488500000000251e+00 8.310060000000000002e+01 1.855174999999999955e+03
4.000000000000000083e-03 1.207649999999999973e-01 5.095316500000000026e+00 7.922735000000000127e+01 1.853994999999999891e+03
5.000000000000000104e-03 1.206474999999999909e-01 7.039919999999999511e+00 7.560679999999999268e+01 1.852644999999999982e+03
6.000000000000000125e-03 1.205264999999999947e-01 9.022619999999999862e+00 7.254909999999999570e+01 1.851259999999999991e+03
7.000000000000000146e-03 1.204095000000000026e-01 1.090774000000000044e+01 7.000700000000000500e+01 1.849940000000000055e+03
8.000000000000000167e-03 1.202980000000000022e-01 1.259175499999999914e+01 6.778390000000000271e+01 1.848700000000000045e+03
9.000000000000001055e-03 1.201945000000000097e-01 1.405546000000000006e+01 6.578834999999999411e+01 1.847565000000000055e+03
1.000000000000000194e-02 1.201009999999999855e-01 1.532349999999999923e+01 6.405195000000000505e+01 1.846545000000000073e+03
1.099999999999999936e-02 1.200190000000000007e-01 1.641300000000000026e+01 6.259935000000000116e+01 1.845670000000000073e+03
1.200000000000000025e-02 1.199484999999999857e-01 1.732939999999999969e+01 6.140420000000000300e+01 1.844924999999999955e+03
1.300000000000000114e-02 1.198889999999999956e-01 1.807645000000000124e+01 6.041720000000000113e+01 1.844289999999999964e+03
1.400000000000000203e-02 1.198380000000000001e-01 1.865684999999999860e+01 5.957965000000000089e+01 1.843764999999999873e+03
1.499999999999999944e-02 1.197949999999999987e-01 1.907779999999999987e+01 5.883355000000000246e+01 1.843324999999999818e+03
1.600000000000000033e-02 1.197580000000000033e-01 1.936739999999999995e+01 5.816075000000000017e+01 1.842949999999999818e+03
1.700000000000000122e-02 1.197270000000000001e-01 1.958504999999999896e+01 5.762780000000000058e+01 1.842644999999999982e+03
1.800000000000000211e-02 1.197044999999999915e-01 1.981159999999999854e+01 5.738445000000000107e+01 1.842420000000000073e+03
1.900000000000000300e-02 1.196939999999999948e-01 2.012150000000000105e+01 5.760210000000000008e+01 1.842329999999999927e+03
2.000000000000000042e-02 1.196979999999999988e-01 2.055375000000000085e+01 5.838759999999999906e+01 1.842384999999999991e+03
2.100000000000000130e-02 1.197185000000000055e-01 2.109725000000000250e+01 5.972079999999999700e+01 1.842605000000000018e+03
2.200000000000000219e-02 1.197529999999999983e-01 2.169545000000000101e+01 6.144514999999999816e+01 1.842980000000000018e+03
2.299999999999999961e-02 1.197970000000000146e-01 2.226630000000000109e+01 6.330910000000000082e+01 1.843454999999999927e+03
2.400000000000000050e-02 1.198450000000000071e-01 2.272760000000000247e+01 6.503730000000000189e+01 1.843980000000000018e+03
2.500000000000000139e-02 1.198899999999999966e-01 2.301854999999999762e+01 6.640144999999999698e+01 1.844474999999999909e+03
2.600000000000000228e-02 1.199280000000000068e-01 2.311260000000000048e+01 6.727080000000000837e+01 1.844904999999999973e+03
2.700000000000000316e-02 1.199559999999999932e-01 2.301839999999999975e+01 6.762870000000000914e+01 1.845220000000000027e+03
2.800000000000000058e-02 1.199724999999999958e-01 2.277134999999999820e+01 6.755655000000000143e+01 1.845420000000000073e+03
2.900000000000000147e-02 1.199795000000000028e-01 2.241870000000000118e+01 6.719384999999999764e+01 1.845514999999999873e+03
3.000000000000000236e-02 1.199800000000000033e-01 2.200529999999999831e+01 6.668980000000000530e+01 1.845525000000000091e+03
3.099999999999999978e-02 1.199755000000000127e-01 2.156219999999999715e+01 6.616245000000000687e+01 1.845490000000000009e+03
3.200000000000000067e-02 1.199684999999999918e-01 2.110224999999999795e+01 6.567419999999999902e+01 1.845425000000000182e+03
3.300000000000000155e-02 1.199604999999999977e-01 2.062205000000000155e+01 6.522939999999999827e+01 1.845345000000000027e+03
3.400000000000000244e-02 1.199514999999999887e-01 2.010859999999999914e+01 6.478929999999999723e+01 1.845244999999999891e+03
3.500000000000000333e-02 1.199399999999999911e-01 1.954804999999999993e+01 6.429805000000000348e+01 1.845134999999999991e+03
3.600000000000000422e-02 1.199270000000000058e-01 1.893444999999999823e+01 6.371014999999999873e+01 1.844990000000000009e+03
3.700000000000000511e-02 1.199095000000000022e-01 1.827499999999999858e+01 6.301295000000000357e+01 1.844815000000000055e+03
3.799999999999999906e-02 1.198899999999999966e-01 1.759215000000000018e+01 6.223730000000000473e+01 1.844610000000000127e+03
3.899999999999999994e-02 1.198690000000000033e-01 1.692085000000000150e+01 6.145610000000000639e+01 1.844389999999999873e+03
4.000000000000000083e-02 1.198480000000000101e-01 1.630280000000000129e+01 6.077020000000000266e+01 1.844164999999999964e+03
4.100000000000000172e-02 1.198295000000000055e-01 1.577815000000000012e+01 6.028674999999999784e+01 1.843969999999999800e+03
4.200000000000000261e-02 1.198170000000000068e-01 1.537819999999999965e+01 6.009534999999999627e+01 1.843825000000000045e+03
4.300000000000000350e-02 1.198115000000000013e-01 1.511890000000000001e+01 6.024770000000000181e+01 1.843764999999999873e+03
4.400000000000000439e-02 1.198145000000000043e-01 1.499789999999999957e+01 6.074575000000000102e+01 1.843789999999999964e+03
4.499999999999999833e-02 1.198270000000000030e-01 1.499524999999999864e+01 6.153969999999999629e+01 1.843909999999999854e+03
4.599999999999999922e-02 1.198460000000000081e-01 1.507624999999999993e+01 6.253605000000000302e+01 1.844105000000000018e+03
4.700000000000000011e-02 1.198704999999999909e-01 1.519740000000000002e+01 6.361260000000000048e+01 1.844365000000000009e+03
4.800000000000000100e-02 1.198975000000000041e-01 1.531214999999999904e+01 6.463704999999998790e+01 1.844650000000000091e+03
4.900000000000000189e-02 1.199240000000000028e-01 1.537679999999999936e+01 6.548499999999999943e+01 1.844924999999999955e+03
5.000000000000000278e-02 1.199465000000000114e-01 1.535485000000000078e+01 6.605455000000000609e+01 1.845170000000000073e+03
5.100000000000000366e-02 1.199624999999999997e-01 1.521989999999999910e+01 6.627570000000000050e+01 1.845340000000000146e+03
5.200000000000000455e-02 1.199699999999999933e-01 1.495630000000000059e+01 6.611374999999999602e+01 1.845429999999999836e+03
5.300000000000000544e-02 1.199679999999999913e-01 1.455910000000000082e+01 6.556709999999999638e+01 1.845404999999999973e+03
5.399999999999999939e-02 1.199560000000000071e-01 1.403200000000000003e+01 6.466160000000000707e+01 1.845279999999999973e+03
5.500000000000000028e-02 1.199334999999999984e-01 1.338560000000000016e+01 6.344294999999999618e+01 1.845050000000000182e+03
5.600000000000000117e-02 1.199030000000000096e-01 1.263514999999999944e+01 6.196814999999999429e+01 1.844720000000000027e+03
5.700000000000000205e-02 1.198634999999999839e-01 1.179880999999999958e+01 6.029905000000000115e+01 1.844309999999999945e+03
5.800000000000000294e-02 1.198185000000000083e-01 1.089665499999999909e+01 5.849755000000000393e+01 1.843825000000000045e+03
5.900000000000000383e-02 1.197674999999999990e-01 9.949875000000000469e+00 5.662290000000000134e+01 1.843284999999999854e+03
6.000000000000000472e-02 1.197139999999999871e-01 8.980684999999999363e+00 5.473109999999999786e+01 1.842710000000000036e+03
6.099999999999999867e-02 1.196585000000000010e-01 8.012404999999999333e+00 5.287574999999999648e+01 1.842119999999999891e+03
6.199999999999999956e-02 1.196030000000000010e-01 7.069480000000000430e+00 5.110949999999999704e+01 1.841525000000000091e+03
6.300000000000000044e-02 1.195489999999999886e-01 6.177620000000000111e+00 4.948489999999999611e+01 1.840940000000000055e+03
6.400000000000000133e-02 1.194979999999999931e-01 5.363374999999999559e+00 4.805525000000000091e+01 1.840394999999999982e+03
6.500000000000000222e-02 1.194520000000000026e-01 4.653694999999999915e+00 4.687435000000000684e+01 1.839894999999999982e+03
6.600000000000000311e-02 1.194125000000000048e-01 4.075010000000000687e+00 4.599495000000000289e+01 1.839465000000000146e+03
6.700000000000000400e-02 1.193815000000000015e-01 3.652245000000000186e+00 4.546699999999999875e+01 1.839125000000000000e+03
6.800000000000000488e-02 1.193599999999999939e-01 3.407615000000000283e+00 4.533500000000000085e+01 1.838884999999999991e+03
6.900000000000000577e-02 1.193490000000000106e-01 3.359554999999999847e+00 4.563519999999999754e+01 1.838764999999999873e+03
7.000000000000000666e-02 1.193514999999999993e-01 3.521720000000000184e+00 4.639334999999999809e+01 1.838775000000000091e+03
7.100000000000000755e-02 1.193665000000000004e-01 3.902230000000000310e+00 4.762279999999999802e+01 1.838924999999999955e+03
7.200000000000000844e-02 1.193960000000000021e-01 4.503235000000000099e+00 4.932314999999999827e+01 1.839220000000000027e+03
7.300000000000000933e-02 1.194395000000000040e-01 5.320845000000000269e+00 5.148044999999999760e+01 1.839674999999999955e+03
7.399999999999999634e-02 1.194965000000000055e-01 6.345334999999999503e+00 5.406780000000000541e+01 1.840275000000000091e+03
7.499999999999999722e-02 1.195664999999999922e-01 7.561714999999999520e+00 5.704654999999999632e+01 1.841014999999999873e+03
7.599999999999999811e-02 1.196494999999999920e-01 8.950385000000000701e+00 6.036889999999999645e+01 1.841894999999999982e+03
7.699999999999999900e-02 1.197435000000000027e-01 1.048844500000000046e+01 6.398019999999999641e+01 1.842889999999999873e+03
7.799999999999999989e-02 1.198474999999999957e-01 1.215033000000000030e+01 6.782200000000000273e+01 1.843994999999999891e+03
7.900000000000000078e-02 1.199599999999999972e-01 1.390924500000000030e+01 7.183469999999999800e+01 1.845199999999999818e+03
8.000000000000000167e-02 1.200785000000000047e-01 1.573820000000000086e+01 7.596054999999999779e+01 1.846474999999999909e+03
8.100000000000000255e-02 1.202020000000000033e-01 1.761120000000000019e+01 8.014605000000000246e+01 1.847804999999999836e+03
8.200000000000000344e-02 1.203289999999999915e-01 1.950375000000000014e+01 8.434379999999998745e+01 1.849174999999999955e+03
8.300000000000000433e-02 1.204584999999999961e-01 2.139399999999999835e+01 8.851425000000000409e+01 1.850575000000000045e+03
8.400000000000000522e-02 1.205885000000000012e-01 2.326320000000000121e+01 9.262645000000000550e+01 1.851985000000000127e+03
8.500000000000000611e-02 1.207175000000000054e-01 2.509570000000000078e+01 9.665815000000000623e+01 1.853394999999999982e+03
8.600000000000000699e-02 1.208464999999999956e-01 2.687950000000000017e+01 1.005960499999999911e+02 1.854795000000000073e+03
8.700000000000000788e-02 1.209729999999999972e-01 2.860569999999999879e+01 1.044339999999999975e+02 1.856184999999999945e+03
8.800000000000000877e-02 1.210974999999999968e-01 3.026839999999999975e+01 1.081724999999999994e+02 1.857549999999999955e+03
8.899999999999999578e-02 1.212204999999999949e-01 3.186424999999999841e+01 1.118169999999999931e+02 1.858900000000000091e+03
8.999999999999999667e-02 1.213405000000000039e-01 3.339195000000000135e+01 1.153754999999999882e+02 1.860219999999999800e+03
9.099999999999999756e-02 1.214580000000000104e-01 3.485150000000000148e+01 1.188584999999999923e+02 1.861525000000000091e+03
9.199999999999999845e-02 1.215745000000000020e-01 3.624399999999999977e+01 1.222745000000000033e+02 1.862804999999999836e+03
9.299999999999999933e-02 1.216885000000000050e-01 3.757059999999999889e+01 1.256324999999999932e+02 1.864070000000000164e+03
9.400000000000000022e-02 1.218009999999999926e-01 3.883259999999999934e+01 1.289375000000000000e+02 1.865319999999999936e+03
9.500000000000000111e-02 1.219119999999999926e-01 4.003095000000000425e+01 1.321924999999999955e+02 1.866550000000000182e+03
9.600000000000000200e-02 1.220209999999999906e-01 4.116570000000000107e+01 1.353965000000000032e+02 1.867764999999999873e+03
9.700000000000000289e-02 1.221285000000000009e-01 4.223640000000000327e+01 1.385439999999999827e+02 1.868965000000000146e+03
9.800000000000000377e-02 1.222340000000000093e-01 4.324150000000000205e+01 1.416289999999999907e+02 1.870139999999999873e+03
9.900000000000000466e-02 1.223380000000000023e-01 4.417875000000000085e+01 1.446399999999999864e+02 1.871299999999999955e+03
1.000000000000000056e-01 1.224394999999999928e-01 4.504514999999999958e+01 1.475645000000000095e+02 1.872434999999999945e+03
1.010000000000000064e-01 1.225384999999999946e-01 4.583709999999999951e+01 1.503874999999999886e+02 1.873545000000000073e+03
1.020000000000000073e-01 1.226340000000000069e-01 4.655049999999999955e+01 1.530945000000000107e+02 1.874615000000000009e+03
1.030000000000000082e-01 1.227260000000000018e-01 4.718115000000000236e+01 1.556689999999999827e+02 1.875650000000000091e+03
1.040000000000000091e-01 1.228144999999999931e-01 4.772459999999999525e+01 1.580960000000000036e+02 1.876644999999999982e+03
1.050000000000000100e-01 1.228984999999999939e-01 4.817674999999999841e+01 1.603605000000000018e+02 1.877590000000000146e+03
1.059999999999999970e-01 1.229775000000000035e-01 4.853374999999999773e+01 1.624490000000000123e+02 1.878480000000000018e+03
1.069999999999999979e-01 1.230514999999999942e-01 4.879234999999999900e+01 1.643505000000000109e+02 1.879309999999999945e+03
1.079999999999999988e-01 1.231194999999999928e-01 4.895000000000000284e+01 1.660544999999999902e+02 1.880079999999999927e+03
1.089999999999999997e-01 1.231814999999999993e-01 4.900509999999999877e+01 1.675545000000000186e+02 1.880789999999999964e+03
1.100000000000000006e-01 1.232374999999999998e-01 4.895709999999999695e+01 1.688460000000000036e+02 1.881424999999999955e+03
1.110000000000000014e-01 1.232870000000000077e-01 4.880669999999999931e+01 1.699270000000000209e+02 1.881985000000000127e+03
1.120000000000000023e-01 1.233299999999999952e-01 4.855584999999999951e+01 1.708000000000000114e+02 1.882480000000000018e+03
1.130000000000000032e-01 1.233660000000000034e-01 4.820785000000000053e+01 1.714694999999999823e+02 1.882894999999999982e+03
1.140000000000000041e-01 1.233960000000000057e-01 4.776729999999999876e+01 1.719434999999999718e+02 1.883239999999999782e+03
1.150000000000000050e-01 1.234194999999999875e-01 4.724025000000000318e+01 1.722334999999999923e+02 1.883519999999999982e+03
1.160000000000000059e-01 1.234375000000000056e-01 4.663384999999999536e+01 1.723524999999999920e+02 1.883724999999999909e+03
1.170000000000000068e-01 1.234500000000000042e-01 4.595619999999999550e+01 1.723170000000000073e+02 1.883869999999999891e+03
1.180000000000000077e-01 1.234564999999999968e-01 4.521640000000000015e+01 1.721440000000000055e+02 1.883954999999999927e+03
1.190000000000000085e-01 1.234584999999999988e-01 4.442390000000000327e+01 1.718525000000000205e+02 1.883985000000000127e+03
1.200000000000000094e-01 1.234564999999999968e-01 4.358865000000000123e+01 1.714624999999999773e+02 1.883970000000000027e+03
1.209999999999999964e-01 1.234504999999999908e-01 4.272060000000000457e+01 1.709925000000000068e+02 1.883909999999999854e+03
1.219999999999999973e-01 1.234419999999999962e-01 4.182930000000000348e+01 1.704610000000000127e+02 1.883820000000000164e+03
1.229999999999999982e-01 1.234299999999999981e-01 4.092390000000000327e+01 1.698849999999999909e+02 1.883695000000000164e+03
1.239999999999999991e-01 1.234169999999999989e-01 4.001285000000000025e+01 1.692800000000000011e+02 1.883549999999999955e+03
1.250000000000000000e-01 1.234020000000000117e-01 3.910340000000000060e+01 1.686589999999999918e+02 1.883380000000000109e+03
1.260000000000000009e-01 1.233859999999999957e-01 3.820194999999999652e+01 1.680319999999999823e+02 1.883199999999999818e+03
1.270000000000000018e-01 1.233684999999999921e-01 3.731345000000000312e+01 1.674060000000000059e+02 1.883009999999999991e+03
1.280000000000000027e-01 1.233510000000000023e-01 3.644185000000000230e+01 1.667880000000000109e+02 1.882815000000000055e+03
1.290000000000000036e-01 1.233329999999999982e-01 3.558944999999999936e+01 1.661775000000000091e+02 1.882615000000000009e+03
1.300000000000000044e-01 1.233154999999999946e-01 3.475755000000000194e+01 1.655765000000000100e+02 1.882409999999999854e+03
1.310000000000000053e-01 1.232970000000000038e-01 3.394630000000000081e+01 1.649809999999999945e+02 1.882204999999999927e+03
1.320000000000000062e-01 1.232784999999999853e-01 3.315455000000000041e+01 1.643870000000000005e+02 1.882000000000000000e+03
1.330000000000000071e-01 1.232600000000000084e-01 3.238044999999999618e+01 1.637889999999999873e+02 1.881789999999999964e+03
1.340000000000000080e-01 1.232410000000000033e-01 3.162129999999999797e+01 1.631784999999999854e+02 1.881574999999999818e+03
1.350000000000000089e-01 1.232214999999999977e-01 3.087389999999999901e+01 1.625475000000000136e+02 1.881355000000000018e+03
1.360000000000000098e-01 1.232014999999999916e-01 3.013459999999999894e+01 1.618894999999999982e+02 1.881130000000000109e+03
1.370000000000000107e-01 1.231804999999999983e-01 2.939965000000000117e+01 1.611940000000000168e+02 1.880889999999999873e+03
1.380000000000000115e-01 1.231589999999999907e-01 2.866525000000000034e+01 1.604544999999999959e+02 1.880639999999999873e+03
1.390000000000000124e-01 1.231349999999999945e-01 2.792790000000000106e+01 1.596639999999999873e+02 1.880380000000000109e+03
1.400000000000000133e-01 1.231099999999999972e-01 2.718430000000000035e+01 1.588160000000000025e+02 1.880095000000000027e+03
1.410000000000000142e-01 1.230834999999999985e-01 2.643179999999999907e+01 1.579080000000000155e+02 1.879799999999999955e+03
1.420000000000000151e-01 1.230549999999999977e-01 2.566839999999999833e+01 1.569350000000000023e+02 1.879480000000000018e+03
1.430000000000000160e-01 1.230244999999999950e-01 2.489269999999999783e+01 1.558979999999999961e+02 1.879139999999999873e+03
1.440000000000000169e-01 1.229925000000000046e-01 2.410419999999999874e+01 1.547969999999999970e+02 1.878779999999999973e+03
1.450000000000000178e-01 1.229579999999999979e-01 2.330324999999999847e+01 1.536354999999999791e+02 1.878394999999999982e+03
1.459999999999999909e-01 1.229220000000000035e-01 2.249109999999999943e+01 1.524180000000000064e+02 1.877994999999999891e+03
1.469999999999999918e-01 1.228839999999999932e-01 2.166975000000000051e+01 1.511510000000000105e+02 1.877569999999999936e+03
1.479999999999999927e-01 1.228444999999999954e-01 2.084210000000000207e+01 1.498430000000000177e+02 1.877130000000000109e+03
1.489999999999999936e-01 1.228039999999999965e-01 2.001174999999999926e+01 1.485040000000000191e+02 1.876675000000000182e+03
1.499999999999999944e-01 1.227620000000000100e-01 1.918274999999999864e+01 1.471435000000000173e+02 1.876204999999999927e+03
1.509999999999999953e-01 1.227189999999999948e-01 1.835989999999999966e+01 1.457744999999999891e+02 1.875730000000000018e+03
1.519999999999999962e-01 1.226754999999999929e-01 1.754804999999999993e+01 1.444085000000000036e+02 1.875250000000000000e+03
1.529999999999999971e-01 1.226320000000000049e-01 1.675234999999999985e+01 1.430569999999999879e+02 1.874764999999999873e+03
1.539999999999999980e-01 1.225890000000000035e-01 1.597789999999999999e+01 1.417325000000000159e+02 1.874279999999999973e+03
1.549999999999999989e-01 1.225465000000000027e-01 1.522959999999999958e+01 1.404454999999999814e+02 1.873805000000000064e+03
1.559999999999999998e-01 1.225044999999999884e-01 1.451200000000000045e+01 1.392060000000000173e+02 1.873340000000000146e+03
1.570000000000000007e-01 1.224635000000000029e-01 1.382929999999999993e+01 1.380240000000000009e+02 1.872884999999999991e+03
1.580000000000000016e-01 1.224244999999999917e-01 1.318489999999999895e+01 1.369050000000000011e+02 1.872444999999999936e+03
1.590000000000000024e-01 1.223870000000000097e-01 1.258179999999999943e+01 1.358555000000000064e+02 1.872025000000000091e+03
