# t [s], A [cm^2], U [cm/s], P [cPa], c [cm/s]
1.000000000000000021e-03 6.318420000000000147e-01 6.146499999999999186e-03 1.073954999999999984e+02 1.692809999999999945e+03
2.000000000000000042e-03 6.318360000000000642e-01 9.041299999999998643e-03 1.073654999999999973e+02 1.692804999999999836e+03
3.000000000000000062e-03 6.319155000000000744e-01 1.670481000000000049e-01 1.075434999999999945e+02 1.692845000000000027e+03
4.000000000000000083e-03 6.319379999999999997e-01 2.399350000000000094e-01 1.076154999999999973e+02 1.692865000000000009e+03
5.000000000000000104e-03 6.318540000000000267e-01 1.178669999999999995e-01 1.073534999999999968e+02 1.692805000000000064e+03
6.000000000000000125e-03 6.317625000000000046e-01 -3.154499999999993420e-02 1.069320000000000022e+02 1.692710000000000036e+03
7.000000000000000146e-03 6.316455000000000819e-01 -2.471900000000000208e-01 1.063444999999999965e+02 1.692575000000000045e+03
8.000000000000000167e-03 6.314355000000000384e-01 -6.629699999999999482e-01 1.053940000000000055e+02 1.692360000000000127e+03
9.000000000000001055e-03 6.311435000000000795e-01 -1.251840000000000064e+00 1.040444999999999993e+02 1.692050000000000182e+03
1.000000000000000194e-02 6.307525000000000492e-01 -2.022560000000000358e+00 1.022297000000000082e+02 1.691630000000000109e+03
1.099999999999999936e-02 6.302289999999999281e-01 -3.008484999999999854e+00 9.983719999999999573e+01 1.691054999999999836e+03
1.200000000000000025e-02 6.296150000000000357e-01 -4.092575000000000074e+00 9.695074999999999932e+01 1.690360000000000127e+03
1.300000000000000114e-02 6.290314999999999657e-01 -4.993036000000000030e+00 9.393949999999999534e+01 1.689599999999999909e+03
1.400000000000000203e-02 6.285924999999999985e-01 -5.435600499999999613e+00 9.125990000000000180e+01 1.688884999999999991e+03
1.499999999999999944e-02 6.283330000000000304e-01 -5.307780000000000165e+00 8.920349999999999113e+01 1.688285000000000082e+03
1.600000000000000033e-02 6.282030000000000669e-01 -4.688485000000000014e+00 8.777940000000000964e+01 1.687820000000000164e+03
1.700000000000000122e-02 6.281065000000000120e-01 -3.784859999999999669e+00 8.674965000000000259e+01 1.687440000000000055e+03
1.800000000000000211e-02 6.279445000000000165e-01 -2.832629500000000355e+00 8.575685000000000002e+01 1.687085000000000036e+03
1.900000000000000300e-02 6.276580000000000492e-01 -1.999107000000000189e+00 8.448445000000000960e+01 1.686675000000000182e+03
2.000000000000000042e-02 6.272465000000000401e-01 -1.326454999999999940e+00 8.278409999999999513e+01 1.686184999999999945e+03
2.100000000000000130e-02 6.267599999999999838e-01 -7.429649999999998755e-01 8.070935000000000059e+01 1.685605000000000018e+03
2.200000000000000219e-02 6.262635000000000840e-01 -1.312999999999999723e-01 7.844559999999999889e+01 1.684974999999999909e+03
2.299999999999999961e-02 6.258030000000001092e-01 5.922049999999998704e-01 7.619084999999999752e+01 1.684335000000000036e+03
2.400000000000000050e-02 6.253865000000000673e-01 1.427669999999999995e+00 7.405324999999999136e+01 1.683714999999999918e+03
2.500000000000000139e-02 6.249820000000000375e-01 2.283414999999999750e+00 7.200235000000000696e+01 1.683110000000000127e+03
2.600000000000000228e-02 6.245324999999999349e-01 3.001625000000000654e+00 6.987614999999999554e+01 1.682485000000000127e+03
2.700000000000000316e-02 6.239740000000000286e-01 3.404440000000000133e+00 6.743434999999999491e+01 1.681799999999999955e+03
2.800000000000000058e-02 6.232565000000001021e-01 3.347280000000000033e+00 6.443815000000000737e+01 1.680994999999999891e+03
2.900000000000000147e-02 6.223644999999999872e-01 2.764829999999999899e+00 6.073629999999999995e+01 1.680034999999999854e+03
3.000000000000000236e-02 6.213210000000000122e-01 1.693945000000000256e+00 5.632679999999999865e+01 1.678909999999999854e+03
3.099999999999999978e-02 6.201879999999999615e-01 2.648500000000000298e-01 5.137245000000000061e+01 1.677650000000000091e+03
3.200000000000000067e-02 6.190459999999999852e-01 -1.334200000000000053e+00 4.616760000000000019e+01 1.676315000000000055e+03
3.300000000000000155e-02 6.179779999999999163e-01 -2.901225000000000165e+00 4.107415000000000305e+01 1.674974999999999909e+03
3.400000000000000244e-02 6.170549999999999091e-01 -4.258774999999999977e+00 3.645284999999999798e+01 1.673730000000000018e+03
3.500000000000000333e-02 6.163259999999999295e-01 -5.276575000000000237e+00 3.260719999999999885e+01 1.672650000000000091e+03
3.600000000000000422e-02 6.158185000000000464e-01 -5.878591600000000028e+00 2.974994999999999834e+01 1.671795000000000073e+03
3.700000000000000511e-02 6.155389999999999473e-01 -6.037880000000000358e+00 2.799174999999999969e+01 1.671199999999999818e+03
3.799999999999999906e-02 6.154785000000000394e-01 -5.763740000000000308e+00 2.735000000000000142e+01 1.670884999999999991e+03
3.899999999999999994e-02 6.156185000000000684e-01 -5.085799999999999876e+00 2.777114999999999867e+01 1.670849999999999909e+03
4.000000000000000083e-02 6.159375000000000266e-01 -4.040042999999999829e+00 2.915850000000000364e+01 1.671079999999999927e+03
4.100000000000000172e-02 6.164155000000000051e-01 -2.659955000000000069e+00 3.139835000000000065e+01 1.671545000000000073e+03
4.200000000000000261e-02 6.170320000000000249e-01 -9.746350000000001401e-01 3.437630000000000052e+01 1.672215000000000146e+03
4.300000000000000350e-02 6.177694999999999714e-01 9.872950000000004778e-01 3.798319999999999652e+01 1.673069999999999936e+03
4.400000000000000439e-02 6.186089999999999645e-01 3.190950000000000397e+00 4.211175000000000068e+01 1.674085000000000036e+03
4.499999999999999833e-02 6.195275000000000087e-01 5.589669999999999916e+00 4.665000000000000568e+01 1.675220000000000027e+03
4.599999999999999922e-02 6.204979999999999940e-01 8.122710000000001429e+00 5.147594999999999743e+01 1.676445000000000164e+03
4.700000000000000011e-02 6.214920000000000444e-01 1.071752850000000024e+01 5.645704999999999529e+01 1.677740000000000009e+03
4.800000000000000100e-02 6.224795000000000744e-01 1.329563000000000095e+01 6.145520000000000493e+01 1.679055000000000064e+03
4.900000000000000189e-02 6.234330000000000149e-01 1.578032500000000127e+01 6.633599999999999852e+01 1.680365000000000009e+03
5.000000000000000278e-02 6.243294999999999817e-01 1.810423000000000116e+01 7.098019999999999641e+01 1.681630000000000109e+03
5.100000000000000366e-02 6.251519999999999300e-01 2.021545000000000059e+01 7.529415000000000191e+01 1.682829999999999927e+03
5.200000000000000455e-02 6.258939999999999504e-01 2.208115000000000094e+01 7.921729999999999450e+01 1.683950000000000045e+03
5.300000000000000544e-02 6.265540000000000553e-01 2.368779999999999930e+01 8.272514999999999930e+01 1.684965000000000146e+03
5.399999999999999939e-02 6.271390000000000020e-01 2.503930000000000078e+01 8.582765000000000555e+01 1.685890000000000100e+03
5.500000000000000028e-02 6.276580000000000492e-01 2.615350000000000108e+01 8.856390000000000384e+01 1.686715000000000146e+03
5.600000000000000117e-02 6.281265000000000320e-01 2.705815000000000126e+01 9.099495000000000289e+01 1.687454999999999927e+03
5.700000000000000205e-02 6.285594999999999377e-01 2.778754999999999953e+01 9.319570000000000221e+01 1.688139999999999873e+03
5.800000000000000294e-02 6.289730000000000043e-01 2.837955000000000183e+01 9.524844999999999118e+01 1.688769999999999982e+03
5.900000000000000383e-02 6.293839999999999435e-01 2.887389999999999901e+01 9.723675000000000068e+01 1.689375000000000000e+03
6.000000000000000472e-02 6.298059999999999770e-01 2.931070000000000064e+01 9.924145000000000039e+01 1.689980000000000018e+03
6.099999999999999867e-02 6.302535000000000220e-01 2.972865000000000180e+01 1.013375000000000057e+02 1.690594999999999800e+03
6.199999999999999956e-02 6.307389999999999386e-01 3.016355000000000075e+01 1.035875000000000057e+02 1.691244999999999891e+03
6.300000000000000044e-02 6.312704999999999567e-01 3.064539999999999864e+01 1.060430000000000064e+02 1.691934999999999945e+03
6.400000000000000133e-02 6.318535000000000679e-01 3.119614999999999938e+01 1.087355000000000018e+02 1.692690000000000055e+03
6.500000000000000222e-02 6.324879999999999391e-01 3.182690000000000197e+01 1.116750000000000114e+02 1.693494999999999891e+03
6.600000000000000311e-02 6.331685000000000230e-01 3.253719999999999857e+01 1.148485000000000014e+02 1.694365000000000009e+03
6.700000000000000400e-02 6.338859999999999495e-01 3.331404999999999461e+01 1.182169999999999987e+02 1.695289999999999964e+03
6.800000000000000488e-02 6.346255000000000646e-01 3.413369999999999749e+01 1.217215000000000060e+02 1.696244999999999891e+03
6.900000000000000577e-02 6.353694999999999204e-01 3.496345000000000169e+01 1.252845000000000084e+02 1.697224999999999909e+03
7.000000000000000666e-02 6.360999999999999988e-01 3.576529999999999632e+01 1.288160000000000025e+02 1.698210000000000036e+03
7.100000000000000755e-02 6.367975000000000163e-01 3.649895000000000067e+01 1.322214999999999918e+02 1.699164999999999964e+03
7.200000000000000844e-02 6.374425000000000230e-01 3.712529999999999575e+01 1.354095000000000084e+02 1.700075000000000045e+03
7.300000000000000933e-02 6.380215000000000192e-01 3.760954999999999870e+01 1.382969999999999970e+02 1.700909999999999854e+03
7.399999999999999634e-02 6.385210000000000052e-01 3.792340000000000089e+01 1.408160000000000025e+02 1.701660000000000082e+03
7.499999999999999722e-02 6.389329999999999732e-01 3.804659999999999798e+01 1.429170000000000016e+02 1.702299999999999955e+03
7.599999999999999811e-02 6.392544999999999478e-01 3.796795000000000186e+01 1.445715000000000146e+02 1.702829999999999927e+03
7.699999999999999900e-02 6.394845000000000113e-01 3.768559999999999377e+01 1.457710000000000150e+02 1.703235000000000127e+03
7.799999999999999989e-02 6.396275000000000155e-01 3.720664999999999623e+01 1.465300000000000011e+02 1.703525000000000091e+03
7.900000000000000078e-02 6.396915000000000795e-01 3.654609999999999559e+01 1.468790000000000191e+02 1.703699999999999818e+03
8.000000000000000167e-02 6.396870000000000056e-01 3.572635000000000360e+01 1.468659999999999854e+02 1.703775000000000091e+03
8.100000000000000255e-02 6.396254999999999580e-01 3.477505000000000024e+01 1.465490000000000066e+02 1.703755000000000109e+03
8.200000000000000344e-02 6.395215000000000760e-01 3.372404999999999831e+01 1.459964999999999975e+02 1.703670000000000073e+03
8.300000000000000433e-02 6.393889999999999851e-01 3.260750000000000171e+01 1.452794999999999845e+02 1.703525000000000091e+03
8.400000000000000522e-02 6.392419999999999769e-01 3.145989999999999753e+01 1.444699999999999989e+02 1.703345000000000027e+03
8.500000000000000611e-02 6.390945000000000098e-01 3.031470000000000198e+01 1.436354999999999791e+02 1.703150000000000091e+03
8.600000000000000699e-02 6.389574999999999561e-01 2.920230000000000103e+01 1.428375000000000057e+02 1.702950000000000045e+03
8.700000000000000788e-02 6.388395000000000046e-01 2.814880000000000138e+01 1.421279999999999859e+02 1.702759999999999991e+03
8.800000000000000877e-02 6.387490000000000112e-01 2.717475000000000307e+01 1.415459999999999923e+02 1.702605000000000018e+03
8.899999999999999578e-02 6.386894999999999101e-01 2.629444999999999766e+01 1.411179999999999950e+02 1.702474999999999909e+03
8.999999999999999667e-02 6.386629999999999807e-01 2.551554999999999751e+01 1.408555000000000064e+02 1.702389999999999873e+03
9.099999999999999756e-02 6.386674999999999436e-01 2.483930000000000149e+01 1.407595000000000027e+02 1.702340000000000146e+03
9.199999999999999845e-02 6.386994999999999756e-01 2.426060000000000016e+01 1.408160000000000025e+02 1.702329999999999927e+03
9.299999999999999933e-02 6.387545000000000028e-01 2.376890000000000214e+01 1.410004999999999882e+02 1.702360000000000127e+03
9.400000000000000022e-02 6.388245000000000173e-01 2.334904999999999831e+01 1.412805000000000177e+02 1.702414999999999964e+03
9.500000000000000111e-02 6.389019999999999699e-01 2.298245000000000005e+01 1.416175000000000068e+02 1.702480000000000018e+03
9.600000000000000200e-02 6.389770000000000172e-01 2.264799999999999969e+01 1.419669999999999845e+02 1.702565000000000055e+03
9.700000000000000289e-02 6.390419999999999989e-01 2.232359999999999900e+01 1.422849999999999966e+02 1.702639999999999873e+03
9.800000000000000377e-02 6.390875000000000306e-01 2.198720000000000141e+01 1.425279999999999916e+02 1.702699999999999818e+03
9.900000000000000466e-02 6.391059999999999519e-01 2.161824999999999974e+01 1.426555000000000177e+02 1.702735000000000127e+03
1.000000000000000056e-01 6.390915000000000346e-01 2.119865000000000066e+01 1.426334999999999980e+02 1.702740000000000009e+03
1.010000000000000064e-01 6.390394999999999825e-01 2.071419999999999817e+01 1.424354999999999905e+02 1.702695000000000164e+03
1.020000000000000073e-01 6.389464999999999728e-01 2.015484999999999971e+01 1.420444999999999993e+02 1.702605000000000018e+03
1.030000000000000082e-01 6.388129999999999642e-01 1.951585000000000036e+01 1.414530000000000030e+02 1.702464999999999918e+03
1.040000000000000091e-01 6.386395000000000266e-01 1.879780000000000229e+01 1.406649999999999920e+02 1.702275000000000091e+03
1.050000000000000100e-01 6.384315000000000406e-01 1.800629999999999953e+01 1.396945000000000050e+02 1.702029999999999973e+03
1.059999999999999970e-01 6.381930000000000103e-01 1.715230000000000032e+01 1.385660000000000025e+02 1.701744999999999891e+03
1.069999999999999979e-01 6.379319999999999435e-01 1.625110000000000099e+01 1.373115000000000236e+02 1.701420000000000073e+03
1.079999999999999988e-01 6.376574999999999882e-01 1.532142999999999944e+01 1.359710000000000036e+02 1.701070000000000164e+03
1.089999999999999997e-01 6.373774999999999302e-01 1.438479500000000044e+01 1.345894999999999868e+02 1.700704999999999927e+03
1.100000000000000006e-01 6.371020000000000572e-01 1.346399999999999864e+01 1.332125000000000057e+02 1.700335000000000036e+03
1.110000000000000014e-01 6.368409999999999904e-01 1.258197499999999991e+01 1.318865000000000123e+02 1.699970000000000027e+03
1.120000000000000023e-01 6.366020000000000012e-01 1.176053500000000085e+01 1.306570000000000107e+02 1.699625000000000000e+03
1.130000000000000032e-01 6.363929999999999865e-01 1.101927500000000038e+01 1.295614999999999952e+02 1.699309999999999945e+03
1.140000000000000041e-01 6.362204999999999666e-01 1.037433500000000031e+01 1.286330000000000098e+02 1.699034999999999854e+03
1.150000000000000050e-01 6.360870000000000690e-01 9.837854999999999350e+00 1.278945000000000078e+02 1.698809999999999945e+03
1.160000000000000059e-01 6.359949999999999770e-01 9.417265000000000441e+00 1.273605000000000018e+02 1.698630000000000109e+03
1.170000000000000068e-01 6.359449999999999825e-01 9.115145000000000053e+00 1.270349999999999966e+02 1.698505000000000109e+03
1.180000000000000077e-01 6.359349999999999170e-01 8.929304999999999382e+00 1.269130000000000109e+02 1.698434999999999945e+03
1.190000000000000085e-01 6.359609999999999985e-01 8.853025000000000588e+00 1.269805000000000064e+02 1.698420000000000073e+03
1.200000000000000094e-01 6.360190000000000010e-01 8.875704999999999956e+00 1.272150000000000034e+02 1.698444999999999936e+03
1.209999999999999964e-01 6.361019999999999452e-01 8.983539999999999637e+00 1.275894999999999868e+02 1.698519999999999982e+03
1.219999999999999973e-01 6.362035000000000329e-01 9.160415000000000418e+00 1.280724999999999909e+02 1.698619999999999891e+03
1.229999999999999982e-01 6.363175000000000914e-01 9.388714999999999478e+00 1.286289999999999907e+02 1.698744999999999891e+03
1.239999999999999991e-01 6.364360000000000017e-01 9.650254999999999583e+00 1.292249999999999943e+02 1.698889999999999873e+03
1.250000000000000000e-01 6.365534999999999943e-01 9.927105000000000956e+00 1.298275000000000148e+02 1.699034999999999854e+03
1.260000000000000009e-01 6.366635000000000488e-01 1.020228499999999983e+01 1.304064999999999941e+02 1.699184999999999945e+03
1.270000000000000018e-01 6.367614999999999803e-01 1.046054999999999957e+01 1.309345000000000141e+02 1.699324999999999818e+03
1.280000000000000027e-01 6.368430000000000479e-01 1.068880000000000052e+01 1.313910000000000196e+02 1.699450000000000045e+03
1.290000000000000036e-01 6.369070000000000009e-01 1.087660499999999963e+01 1.317595000000000027e+02 1.699559999999999945e+03
1.300000000000000044e-01 6.369500000000000162e-01 1.101622499999999860e+01 1.320300000000000011e+02 1.699640000000000100e+03
1.310000000000000053e-01 6.369724999999999415e-01 1.110305999999999926e+01 1.321974999999999909e+02 1.699699999999999818e+03
1.320000000000000062e-01 6.369754999999999168e-01 1.113525500000000079e+01 1.322635000000000218e+02 1.699730000000000018e+03
1.330000000000000071e-01 6.369599999999999707e-01 1.111391500000000043e+01 1.322345000000000255e+02 1.699735000000000127e+03
1.340000000000000080e-01 6.369285000000000085e-01 1.104265000000000008e+01 1.321200000000000045e+02 1.699720000000000027e+03
1.350000000000000089e-01 6.368849999999999234e-01 1.092732499999999973e+01 1.319345000000000141e+02 1.699684999999999945e+03
1.360000000000000098e-01 6.368320000000000647e-01 1.077559000000000111e+01 1.316945000000000050e+02 1.699634999999999991e+03
1.370000000000000107e-01 6.367739999999999512e-01 1.059642499999999998e+01 1.314189999999999827e+02 1.699570000000000164e+03
1.380000000000000115e-01 6.367140000000000022e-01 1.039966000000000079e+01 1.311259999999999764e+02 1.699500000000000000e+03
1.390000000000000124e-01 6.366564999999999586e-01 1.019533999999999985e+01 1.308360000000000127e+02 1.699424999999999955e+03
1.400000000000000133e-01 6.366045000000000176e-01 9.993210000000001259e+00 1.305654999999999859e+02 1.699360000000000127e+03
1.410000000000000142e-01 6.365610000000000435e-01 9.802265000000000228e+00 1.303294999999999959e+02 1.699300000000000182e+03
1.420000000000000151e-01 6.365285000000000526e-01 9.630304999999999893e+00 1.301419999999999959e+02 1.699244999999999891e+03
1.430000000000000160e-01 6.365080000000000737e-01 9.483439999999999870e+00 1.300115000000000123e+02 1.699210000000000036e+03
1.440000000000000169e-01 6.365015000000000533e-01 9.366105000000001013e+00 1.299429999999999836e+02 1.699180000000000064e+03
1.450000000000000178e-01 6.365075000000000038e-01 9.280594999999999928e+00 1.299389999999999930e+02 1.699174999999999955e+03
1.459999999999999909e-01 6.365250000000000075e-01 9.227395000000001346e+00 1.299970000000000141e+02 1.699184999999999945e+03
1.469999999999999918e-01 6.365540000000000642e-01 9.205064999999999387e+00 1.301115000000000066e+02 1.699204999999999927e+03
1.479999999999999927e-01 6.365914999999999768e-01 9.210544999999999760e+00 1.302729999999999961e+02 1.699240000000000009e+03
1.489999999999999936e-01 6.366355000000000208e-01 9.239454999999999529e+00 1.304719999999999800e+02 1.699285000000000082e+03
1.499999999999999944e-01 6.366840000000000277e-01 9.286355000000000359e+00 1.306949999999999932e+02 1.699345000000000027e+03
1.509999999999999953e-01 6.367325000000000346e-01 9.345204999999999984e+00 1.309304999999999950e+02 1.699400000000000091e+03
1.519999999999999962e-01 6.367795000000000538e-01 9.409704999999998876e+00 1.311634999999999991e+02 1.699460000000000036e+03
1.529999999999999971e-01 6.368229999999999169e-01 9.473739999999999384e+00 1.313829999999999814e+02 1.699519999999999982e+03
1.539999999999999980e-01 6.368610000000000104e-01 9.531510000000000815e+00 1.315774999999999864e+02 1.699574999999999818e+03
1.549999999999999989e-01 6.368905000000000260e-01 9.578115000000000379e+00 1.317390000000000043e+02 1.699619999999999891e+03
1.559999999999999998e-01 6.369119999999999227e-01 9.609569999999999723e+00 1.318600000000000136e+02 1.699654999999999973e+03
1.570000000000000007e-01 6.369240000000000457e-01 9.622994999999999521e+00 1.319375000000000000e+02 1.699679999999999836e+03
1.580000000000000016e-01 6.369270000000000209e-01 9.616934999999999789e+00 1.319699999999999989e+02 1.699690000000000055e+03
1.590000000000000024e-01 6.369215000000000293e-01 9.591110000000000468e+00 1.319599999999999795e+02 1.699695000000000164e+03
