# t [s], A [cm^2], U [cm/s], P [cPa], c [cm/s]
1.000000000000000021e-03 2.157290000000000041e-01 2.307714999999999905e-01 9.316964999999999009e+01 2.045575000000000045e+03
2.000000000000000042e-03 2.156874999999999765e-01 1.564102000000000103e+00 9.035424999999999329e+01 2.045325000000000045e+03
3.000000000000000062e-03 2.155575000000000130e-01 3.227511999999999937e+00 8.647405000000000541e+01 2.044565000000000055e+03
4.000000000000000083e-03 2.153704999999999925e-01 5.094469750000000019e+00 8.211879999999999313e+01 2.043505000000000109e+03
5.000000000000000104e-03 2.151620000000000199e-01 7.110490000000000421e+00 7.806780000000000541e+01 2.042325000000000045e+03
6.000000000000000125e-03 2.149570000000000092e-01 9.148500000000000298e+00 7.468795000000000073e+01 2.041170000000000073e+03
7.000000000000000146e-03 2.147624999999999951e-01 1.102487999999999957e+01 7.186860000000000070e+01 2.040105000000000018e+03
8.000000000000000167e-03 2.145835000000000103e-01 1.262838499999999975e+01 6.937619999999999720e+01 2.039130000000000109e+03
9.000000000000001055e-03 2.144220000000000015e-01 1.396498000000000062e+01 6.718399999999999750e+01 2.038269999999999982e+03
1.000000000000000194e-02 2.142840000000000023e-01 1.507010000000000005e+01 6.536950000000000216e+01 2.037539999999999964e+03
1.099999999999999936e-02 2.141699999999999993e-01 1.596109999999999829e+01 6.394579999999999842e+01 2.036944999999999936e+03
1.200000000000000025e-02 2.140785000000000049e-01 1.664744999999999919e+01 6.286475000000000080e+01 2.036480000000000018e+03
1.300000000000000114e-02 2.140070000000000028e-01 1.713309999999999889e+01 6.204439999999999600e+01 2.036119999999999891e+03
1.400000000000000203e-02 2.139490000000000003e-01 1.742164999999999964e+01 6.137969999999999970e+01 2.035835000000000036e+03
1.499999999999999944e-02 2.139030000000000098e-01 1.754359999999999786e+01 6.081004999999999683e+01 2.035610000000000127e+03
1.600000000000000033e-02 2.138680000000000025e-01 1.758059999999999690e+01 6.041360000000000241e+01 2.035449999999999818e+03
1.700000000000000122e-02 2.138504999999999989e-01 1.765149999999999864e+01 6.041675000000000040e+01 2.035375000000000000e+03
1.800000000000000211e-02 2.138595000000000079e-01 1.786299999999999955e+01 6.108350000000000080e+01 2.035430000000000064e+03
1.900000000000000300e-02 2.139004999999999934e-01 1.826004999999999967e+01 6.255599999999999739e+01 2.035654999999999973e+03
2.000000000000000042e-02 2.139734999999999832e-01 1.880559999999999832e+01 6.475110000000000809e+01 2.036039999999999964e+03
2.100000000000000130e-02 2.140704999999999969e-01 1.939710000000000178e+01 6.736554999999999893e+01 2.036550000000000182e+03
2.200000000000000219e-02 2.141779999999999795e-01 1.990709999999999980e+01 6.997475000000000023e+01 2.037130000000000109e+03
2.299999999999999961e-02 2.142809999999999993e-01 2.022674999999999912e+01 7.216974999999999341e+01 2.037690000000000055e+03
2.400000000000000050e-02 2.143670000000000020e-01 2.029684999999999917e+01 7.367560000000000286e+01 2.038159999999999854e+03
2.500000000000000139e-02 2.144289999999999807e-01 2.011759999999999948e+01 7.441089999999999804e+01 2.038509999999999991e+03
2.600000000000000228e-02 2.144645000000000024e-01 1.973749999999999716e+01 7.447820000000000107e+01 2.038715000000000146e+03
2.700000000000000316e-02 2.144780000000000020e-01 1.922804999999999964e+01 7.409655000000000769e+01 2.038804999999999836e+03
2.800000000000000058e-02 2.144770000000000010e-01 1.865599999999999881e+01 7.350939999999999941e+01 2.038809999999999945e+03
2.900000000000000147e-02 2.144675000000000054e-01 1.806295000000000073e+01 7.290229999999999677e+01 2.038764999999999873e+03
3.000000000000000236e-02 2.144540000000000057e-01 1.745745000000000147e+01 7.235694999999999766e+01 2.038700000000000045e+03
3.099999999999999978e-02 2.144385000000000041e-01 1.682110000000000127e+01 7.184999999999999432e+01 2.038615000000000009e+03
3.200000000000000067e-02 2.144189999999999985e-01 1.612359999999999971e+01 7.128964999999999463e+01 2.038514999999999873e+03
3.300000000000000155e-02 2.143935000000000146e-01 1.534065000000000012e+01 7.057195000000000107e+01 2.038380000000000109e+03
3.400000000000000244e-02 2.143589999999999940e-01 1.446945000000000014e+01 6.963644999999999641e+01 2.038210000000000036e+03
3.500000000000000333e-02 2.143165000000000209e-01 1.353630000000000067e+01 6.850415000000000987e+01 2.037985000000000127e+03
3.600000000000000422e-02 2.142674999999999996e-01 1.259519999999999840e+01 6.728634999999999877e+01 2.037730000000000018e+03
3.700000000000000511e-02 2.142179999999999918e-01 1.171698999999999913e+01 6.616310000000000002e+01 2.037470000000000027e+03
3.799999999999999906e-02 2.141760000000000053e-01 1.097383999999999915e+01 6.533925000000000693e+01 2.037244999999999891e+03
3.899999999999999994e-02 2.141474999999999906e-01 1.042201000000000022e+01 6.499139999999999873e+01 2.037090000000000146e+03
4.000000000000000083e-02 2.141399999999999970e-01 1.008928500000000028e+01 6.522140000000000271e+01 2.037034999999999854e+03
4.100000000000000172e-02 2.141540000000000110e-01 9.969110000000000582e+00 6.603005000000000280e+01 2.037099999999999909e+03
4.200000000000000261e-02 2.141895000000000049e-01 1.002268499999999918e+01 6.731520000000000437e+01 2.037269999999999982e+03
4.300000000000000350e-02 2.142419999999999880e-01 1.018724500000000077e+01 6.889265000000000327e+01 2.037539999999999964e+03
4.400000000000000439e-02 2.143039999999999945e-01 1.038783499999999904e+01 7.053219999999998890e+01 2.037865000000000009e+03
4.499999999999999833e-02 2.143674999999999886e-01 1.054968500000000020e+01 7.199895000000000778e+01 2.038195000000000164e+03
4.599999999999999922e-02 2.144230000000000025e-01 1.060865000000000080e+01 7.308969999999999345e+01 2.038490000000000009e+03
4.700000000000000011e-02 2.144634999999999736e-01 1.051784999999999926e+01 7.365919999999999845e+01 2.038710000000000036e+03
4.800000000000000100e-02 2.144834999999999936e-01 1.025013500000000022e+01 7.363075000000000614e+01 2.038820000000000164e+03
4.900000000000000189e-02 2.144800000000000040e-01 9.797139999999998849e+00 7.299500000000000455e+01 2.038809999999999945e+03
5.000000000000000278e-02 2.144520000000000037e-01 9.165620000000000545e+00 7.179664999999999964e+01 2.038675000000000182e+03
5.100000000000000366e-02 2.144015000000000226e-01 8.372835000000000250e+00 7.011715000000000941e+01 2.038409999999999854e+03
5.200000000000000455e-02 2.143309999999999937e-01 7.442140000000000200e+00 6.805554999999999666e+01 2.038039999999999964e+03
5.300000000000000544e-02 2.142434999999999756e-01 6.399364999999999526e+00 6.571354999999999791e+01 2.037579999999999927e+03
5.399999999999999939e-02 2.141430000000000000e-01 5.271024999999999849e+00 6.318569999999999709e+01 2.037049999999999955e+03
5.500000000000000028e-02 2.140330000000000010e-01 4.083755000000000024e+00 6.055570000000000164e+01 2.036464999999999918e+03
5.600000000000000117e-02 2.139169999999999960e-01 2.864736999999999867e+00 5.789719999999999800e+01 2.035849999999999909e+03
5.700000000000000205e-02 2.137985000000000024e-01 1.642665000000000042e+00 5.527795000000000414e+01 2.035224999999999909e+03
5.800000000000000294e-02 2.136804999999999954e-01 4.484899999999998332e-01 5.276449999999999818e+01 2.034590000000000146e+03
5.900000000000000383e-02 2.135664999999999925e-01 -6.842650000000000121e-01 5.042575000000000074e+01 2.033985000000000127e+03
6.000000000000000472e-02 2.134599999999999831e-01 -1.719922500000000021e+00 4.833494999999999919e+01 2.033414999999999964e+03
6.099999999999999867e-02 2.133639999999999981e-01 -2.621882500000000338e+00 4.656824999999999903e+01 2.032894999999999982e+03
6.199999999999999956e-02 2.132819999999999994e-01 -3.354374999999999662e+00 4.520165000000000077e+01 2.032454999999999927e+03
6.300000000000000044e-02 2.132184999999999775e-01 -3.884609999999999896e+00 4.430584999999999951e+01 2.032105000000000018e+03
6.400000000000000133e-02 2.131750000000000034e-01 -4.184929999999999595e+00 4.394044999999999845e+01 2.031865000000000009e+03
6.500000000000000222e-02 2.131554999999999978e-01 -4.234704999999999941e+00 4.414894999999999925e+01 2.031740000000000009e+03
6.600000000000000311e-02 2.131605000000000028e-01 -4.021760000000000446e+00 4.495445000000000135e+01 2.031759999999999991e+03
6.700000000000000400e-02 2.131919999999999926e-01 -3.543134999999999479e+00 4.635739999999999839e+01 2.031909999999999854e+03
6.800000000000000488e-02 2.132505000000000095e-01 -2.805190499999999698e+00 4.833534999999999826e+01 2.032199999999999818e+03
6.900000000000000577e-02 2.133335000000000092e-01 -1.823109499999999938e+00 5.084425000000000239e+01 2.032625000000000000e+03
7.000000000000000666e-02 2.134409999999999918e-01 -6.197949999999998738e-01 5.382205000000000439e+01 2.033184999999999945e+03
7.100000000000000755e-02 2.135699999999999821e-01 7.755600000000000271e-01 5.719270000000000209e+01 2.033849999999999909e+03
7.200000000000000844e-02 2.137165000000000037e-01 2.329234999999999722e+00 6.087154999999999916e+01 2.034625000000000000e+03
7.300000000000000933e-02 2.138774999999999982e-01 4.004865999999999815e+00 6.477034999999999343e+01 2.035470000000000027e+03
7.399999999999999634e-02 2.140500000000000180e-01 5.765359999999999374e+00 6.880285000000000650e+01 2.036384999999999991e+03
7.499999999999999722e-02 2.142295000000000171e-01 7.574690000000000367e+00 7.288925000000000409e+01 2.037335000000000036e+03
7.599999999999999811e-02 2.144134999999999791e-01 9.399604999999999322e+00 7.696049999999999613e+01 2.038315000000000055e+03
7.699999999999999900e-02 2.145980000000000110e-01 1.121067999999999998e+01 8.096090000000000941e+01 2.039299999999999955e+03
7.799999999999999989e-02 2.147815000000000141e-01 1.298338500000000018e+01 8.484989999999999100e+01 2.040284999999999854e+03
7.900000000000000078e-02 2.149610000000000132e-01 1.469865000000000066e+01 8.860245000000000459e+01 2.041250000000000000e+03
8.000000000000000167e-02 2.151370000000000227e-01 1.634264999999999901e+01 9.220805000000000007e+01 2.042195000000000164e+03
8.100000000000000255e-02 2.153069999999999984e-01 1.790644999999999953e+01 9.566880000000000450e+01 2.043115000000000009e+03
8.200000000000000344e-02 2.154719999999999969e-01 1.938559999999999661e+01 9.899635000000000673e+01 2.044010000000000218e+03
8.300000000000000433e-02 2.156319999999999903e-01 2.077884999999999849e+01 1.022085999999999899e+02 2.044880000000000109e+03
8.400000000000000522e-02 2.157879999999999798e-01 2.208760000000000190e+01 1.053262000000000000e+02 2.045724999999999909e+03
8.500000000000000611e-02 2.159400000000000208e-01 2.331454999999999700e+01 1.083704999999999927e+02 2.046549999999999955e+03
8.600000000000000699e-02 2.160885000000000167e-01 2.446309999999999718e+01 1.113594999999999970e+02 2.047365000000000236e+03
8.700000000000000788e-02 2.162350000000000105e-01 2.553650000000000020e+01 1.143054999999999950e+02 2.048159999999999854e+03
8.800000000000000877e-02 2.163795000000000024e-01 2.653755000000000308e+01 1.172179999999999893e+02 2.048949999999999818e+03
8.899999999999999578e-02 2.165225000000000066e-01 2.746790000000000020e+01 1.200979999999999990e+02 2.049724999999999909e+03
8.999999999999999667e-02 2.166635000000000089e-01 2.832840000000000202e+01 1.229414999999999907e+02 2.050500000000000000e+03
9.099999999999999756e-02 2.168029999999999957e-01 2.911845000000000283e+01 1.257400000000000091e+02 2.051259999999999764e+03
9.199999999999999845e-02 2.169399999999999940e-01 2.983664999999999878e+01 1.284799999999999898e+02 2.052010000000000218e+03
9.299999999999999933e-02 2.170745000000000036e-01 3.048045000000000115e+01 1.311465000000000032e+02 2.052744999999999891e+03
9.400000000000000022e-02 2.172054999999999958e-01 3.104654999999999632e+01 1.337199999999999989e+02 2.053460000000000036e+03
9.500000000000000111e-02 2.173319999999999974e-01 3.153105000000000047e+01 1.361809999999999832e+02 2.054154999999999745e+03
9.600000000000000200e-02 2.174530000000000074e-01 3.192944999999999922e+01 1.385085000000000264e+02 2.054815000000000055e+03
9.700000000000000289e-02 2.175679999999999836e-01 3.223714999999999975e+01 1.406829999999999927e+02 2.055449999999999818e+03
9.800000000000000377e-02 2.176760000000000084e-01 3.244960000000000377e+01 1.426850000000000023e+02 2.056045000000000073e+03
9.900000000000000466e-02 2.177759999999999974e-01 3.256255000000000166e+01 1.444964999999999975e+02 2.056600000000000364e+03
1.000000000000000056e-01 2.178674999999999917e-01 3.257219999999999516e+01 1.461024999999999920e+02 2.057105000000000018e+03
1.010000000000000064e-01 2.179500000000000048e-01 3.247594999999999743e+01 1.474889999999999759e+02 2.057554999999999836e+03
1.020000000000000073e-01 2.180215000000000070e-01 3.227235000000000298e+01 1.486474999999999795e+02 2.057954999999999927e+03
1.030000000000000082e-01 2.180829999999999991e-01 3.196154999999999902e+01 1.495735000000000241e+02 2.058295000000000073e+03
1.040000000000000091e-01 2.181334999999999802e-01 3.154540000000000077e+01 1.502665000000000077e+02 2.058579999999999927e+03
1.050000000000000100e-01 2.181734999999999924e-01 3.102779999999999916e+01 1.507319999999999993e+02 2.058804999999999836e+03
1.059999999999999970e-01 2.182025000000000214e-01 3.041454999999999842e+01 1.509799999999999898e+02 2.058974999999999909e+03
1.069999999999999979e-01 2.182219999999999993e-01 2.971349999999999980e+01 1.510255000000000223e+02 2.059090000000000146e+03
1.079999999999999988e-01 2.182319999999999816e-01 2.893415000000000248e+01 1.508874999999999886e+02 2.059150000000000091e+03
1.089999999999999997e-01 2.182330000000000103e-01 2.808755000000000024e+01 1.505889999999999986e+02 2.059159999999999854e+03
1.100000000000000006e-01 2.182259999999999756e-01 2.718570000000000064e+01 1.501550000000000011e+02 2.059130000000000109e+03
1.110000000000000014e-01 2.182124999999999759e-01 2.624150000000000205e+01 1.496125000000000114e+02 2.059065000000000055e+03
1.120000000000000023e-01 2.181939999999999991e-01 2.526789999999999736e+01 1.489879999999999995e+02 2.058965000000000146e+03
1.130000000000000032e-01 2.181710000000000038e-01 2.427770000000000294e+01 1.483079999999999927e+02 2.058845000000000255e+03
1.140000000000000041e-01 2.181445000000000189e-01 2.328310000000000102e+01 1.475960000000000036e+02 2.058704999999999927e+03
1.150000000000000050e-01 2.181159999999999766e-01 2.229525000000000290e+01 1.468729999999999905e+02 2.058550000000000182e+03
1.160000000000000059e-01 2.180864999999999887e-01 2.132390000000000185e+01 1.461569999999999823e+02 2.058390000000000327e+03
1.170000000000000068e-01 2.180564999999999864e-01 2.037729999999999819e+01 1.454615000000000009e+02 2.058230000000000018e+03
1.180000000000000077e-01 2.180265000000000120e-01 1.946175000000000210e+01 1.447965000000000089e+02 2.058064999999999600e+03
1.190000000000000085e-01 2.179969999999999963e-01 1.858180000000000121e+01 1.441659999999999968e+02 2.057904999999999745e+03
1.200000000000000094e-01 2.179690000000000238e-01 1.774009999999999820e+01 1.435715000000000146e+02 2.057750000000000000e+03
1.209999999999999964e-01 2.179424999999999835e-01 1.693724999999999881e+01 1.430099999999999909e+02 2.057600000000000364e+03
1.219999999999999973e-01 2.179159999999999986e-01 1.617224999999999824e+01 1.424735000000000014e+02 2.057454999999999927e+03
1.229999999999999982e-01 2.178910000000000013e-01 1.544249999999999901e+01 1.419544999999999959e+02 2.057315000000000055e+03
1.239999999999999991e-01 2.178660000000000041e-01 1.474399999999999977e+01 1.414389999999999930e+02 2.057175000000000182e+03
1.250000000000000000e-01 2.178404999999999925e-01 1.407189999999999941e+01 1.409150000000000205e+02 2.057034999999999854e+03
1.260000000000000009e-01 2.178149999999999809e-01 1.342040000000000077e+01 1.403669999999999902e+02 2.056894999999999982e+03
1.270000000000000018e-01 2.177884999999999960e-01 1.278354999999999997e+01 1.397814999999999941e+02 2.056744999999999891e+03
1.280000000000000027e-01 2.177594999999999947e-01 1.215530000000000044e+01 1.391440000000000055e+02 2.056585000000000036e+03
1.290000000000000036e-01 2.177284999999999915e-01 1.152989999999999959e+01 1.384435000000000002e+02 2.056420000000000073e+03
1.300000000000000044e-01 2.176949999999999996e-01 1.090235500000000002e+01 1.376700000000000159e+02 2.056230000000000018e+03
1.310000000000000053e-01 2.176575000000000037e-01 1.026840500000000134e+01 1.368164999999999907e+02 2.056029999999999745e+03
1.320000000000000062e-01 2.176164999999999905e-01 9.625230000000000175e+00 1.358795000000000073e+02 2.055805000000000291e+03
1.330000000000000071e-01 2.175719999999999876e-01 8.971185000000000187e+00 1.348594999999999970e+02 2.055559999999999945e+03
1.340000000000000080e-01 2.175239999999999951e-01 8.306259999999999977e+00 1.337590000000000146e+02 2.055300000000000182e+03
1.350000000000000089e-01 2.174719999999999986e-01 7.631850000000000023e+00 1.325874999999999773e+02 2.055019999999999982e+03
1.360000000000000098e-01 2.174174999999999858e-01 6.950939999999999230e+00 1.313550000000000182e+02 2.054720000000000255e+03
1.370000000000000107e-01 2.173595000000000110e-01 6.267845000000000333e+00 1.300755000000000052e+02 2.054409999999999854e+03
1.380000000000000115e-01 2.172995000000000065e-01 5.588099999999999845e+00 1.287659999999999911e+02 2.054085000000000036e+03
1.390000000000000124e-01 2.172390000000000154e-01 4.918150000000000688e+00 1.274449999999999932e+02 2.053750000000000000e+03
1.400000000000000133e-01 2.171770000000000089e-01 4.265080000000000204e+00 1.261320000000000050e+02 2.053414999999999964e+03
1.410000000000000142e-01 2.171150000000000024e-01 3.636255000000000237e+00 1.248470000000000084e+02 2.053079999999999927e+03
1.420000000000000151e-01 2.170544999999999836e-01 3.038999999999999702e+00 1.236080000000000041e+02 2.052750000000000000e+03
1.430000000000000160e-01 2.169959999999999944e-01 2.480236000000000107e+00 1.224335000000000093e+02 2.052430000000000291e+03
1.440000000000000169e-01 2.169399999999999940e-01 1.966195499999999985e+00 1.213375000000000057e+02 2.052125000000000000e+03
1.450000000000000178e-01 2.168879999999999975e-01 1.502154999999999907e+00 1.203324999999999960e+02 2.051840000000000146e+03
1.459999999999999909e-01 2.168390000000000040e-01 1.092227499999999907e+00 1.194284999999999997e+02 2.051570000000000164e+03
1.469999999999999918e-01 2.167950000000000155e-01 7.392294999999999838e-01 1.186299999999999955e+02 2.051329999999999927e+03
1.479999999999999927e-01 2.167550000000000032e-01 4.446150000000000380e-01 1.179389999999999930e+02 2.051114999999999782e+03
1.489999999999999936e-01 2.167204999999999826e-01 2.084624999999999395e-01 1.173559999999999945e+02 2.050914999999999964e+03
1.499999999999999944e-01 2.166905000000000081e-01 2.955300000000005145e-02 1.168750000000000000e+02 2.050750000000000000e+03
1.509999999999999953e-01 2.166644999999999821e-01 -9.455750000000001654e-02 1.164909999999999997e+02 2.050605000000000018e+03
1.519999999999999962e-01 2.166430000000000022e-01 -1.673659999999999870e-01 1.161945000000000050e+02 2.050485000000000127e+03
1.529999999999999971e-01 2.166259999999999852e-01 -1.932604999999999740e-01 1.159749999999999943e+02 2.050384999999999764e+03
1.539999999999999980e-01 2.166119999999999990e-01 -1.773299999999999876e-01 1.158209999999999980e+02 2.050309999999999945e+03
1.549999999999999989e-01 2.166020000000000167e-01 -1.251674999999999871e-01 1.157210000000000036e+02 2.050250000000000000e+03
1.559999999999999998e-01 2.165940000000000087e-01 -4.267849999999999422e-02 1.156629999999999967e+02 2.050199999999999818e+03
1.570000000000000007e-01 2.165880000000000027e-01 6.410319999999999907e-02 1.156340000000000003e+02 2.050164999999999964e+03
1.580000000000000016e-01 2.165839999999999987e-01 1.891836000000000073e-01 1.156239999999999952e+02 2.050139999999999873e+03
1.590000000000000024e-01 2.165805000000000091e-01 3.267605000000000093e-01 1.156209999999999951e+02 2.050125000000000000e+03
