# t [s], A [cm^2], U [cm/s], P [cPa], c [cm/s]
1.000000000000000021e-03 8.121694999999999887e-01 4.638549999999998230e-03 9.733205000000000950e+01 1.624880000000000109e+03
2.000000000000000042e-03 8.121575000000000877e-01 -2.217044000000000046e-03 9.730740000000000123e+01 1.624875000000000000e+03
3.000000000000000062e-03 8.122154999999999792e-01 7.723354999999999804e-02 9.739285000000000991e+01 1.624894999999999982e+03
4.000000000000000083e-03 8.122789999999999733e-01 1.705454500000000151e-01 9.751259999999999195e+01 1.624925000000000182e+03
5.000000000000000104e-03 8.122624999999999984e-01 1.646739999999999871e-01 9.749160000000000537e+01 1.624920000000000073e+03
6.000000000000000125e-03 8.121920000000000250e-01 8.417549999999998644e-02 9.731964999999999577e+01 1.624889999999999873e+03
7.000000000000000146e-03 8.121304999999999774e-01 8.653499999999980652e-03 9.709299999999998931e+01 1.624845000000000027e+03
8.000000000000000167e-03 8.120469999999999633e-01 -1.055524999999999936e-01 9.677740000000000009e+01 1.624789999999999964e+03
9.000000000000001055e-03 8.119000000000000661e-01 -3.217149999999999732e-01 9.628430000000000177e+01 1.624694999999999936e+03
1.000000000000000194e-02 8.116794999999999982e-01 -6.545449999999999324e-01 9.556364999999999554e+01 1.624555000000000064e+03
1.099999999999999936e-02 8.113680000000000891e-01 -1.120375000000000121e+00 9.456024999999999636e+01 1.624360000000000127e+03
1.200000000000000025e-02 8.109515000000000473e-01 -1.727295000000000247e+00 9.322390000000000043e+01 1.624105000000000018e+03
1.300000000000000114e-02 8.104529999999999790e-01 -2.425019999999999953e+00 9.157935000000000514e+01 1.623775000000000091e+03
1.400000000000000203e-02 8.099334999999999729e-01 -3.101679999999999993e+00 8.975014999999999077e+01 1.623405000000000200e+03
1.499999999999999944e-02 8.094605000000000272e-01 -3.633765500000000426e+00 8.790874999999999773e+01 1.623009999999999991e+03
1.600000000000000033e-02 8.090720000000000134e-01 -3.938979000000000230e+00 8.620140000000000668e+01 1.622630000000000109e+03
1.700000000000000122e-02 8.087674999999999725e-01 -3.997906500000000030e+00 8.470069999999999766e+01 1.622280000000000200e+03
1.800000000000000211e-02 8.085180000000000700e-01 -3.844859000000000027e+00 8.339879999999999427e+01 1.621954999999999927e+03
1.900000000000000300e-02 8.082819999999999450e-01 -3.543182499999999902e+00 8.223024999999999807e+01 1.621650000000000091e+03
2.000000000000000042e-02 8.080240000000000755e-01 -3.158409500000000314e+00 8.110699999999999932e+01 1.621355000000000018e+03
2.100000000000000130e-02 8.077225000000000099e-01 -2.737433499999999853e+00 7.995295000000000130e+01 1.621054999999999836e+03
2.200000000000000219e-02 8.073764999999999414e-01 -2.298487000000000169e+00 7.872759999999999536e+01 1.620744999999999891e+03
2.299999999999999961e-02 8.069999999999999396e-01 -1.833829999999999849e+00 7.743250000000000455e+01 1.620420000000000073e+03
2.400000000000000050e-02 8.066154999999999298e-01 -1.322984999999999856e+00 7.609989999999999100e+01 1.620085000000000036e+03
2.500000000000000139e-02 8.062380000000000102e-01 -7.500149999999998762e-01 7.477034999999999343e+01 1.619744999999999891e+03
2.600000000000000228e-02 8.058750000000000080e-01 -1.175950000000001161e-01 7.346954999999999814e+01 1.619414999999999964e+03
2.700000000000000316e-02 8.055155000000000509e-01 5.468200000000000838e-01 7.219270000000000209e+01 1.619090000000000146e+03
2.800000000000000058e-02 8.051390000000000491e-01 1.193574999999999831e+00 7.090070000000000050e+01 1.618759999999999991e+03
2.900000000000000147e-02 8.047174999999999745e-01 1.760270000000000001e+00 6.952760000000000673e+01 1.618414999999999964e+03
3.000000000000000236e-02 8.042244999999998978e-01 2.185014999999999930e+00 6.799684999999999491e+01 1.618045000000000073e+03
3.099999999999999978e-02 8.036429999999999962e-01 2.420070000000000388e+00 6.624150000000000205e+01 1.617630000000000109e+03
3.200000000000000067e-02 8.029679999999999040e-01 2.442355000000000054e+00 6.422290000000000987e+01 1.617164999999999964e+03
3.300000000000000155e-02 8.022130000000000649e-01 2.258340000000000014e+00 6.194424999999999670e+01 1.616654999999999973e+03
3.400000000000000244e-02 8.014045000000000751e-01 1.901879999999999793e+00 5.945300000000000296e+01 1.616099999999999909e+03
3.500000000000000333e-02 8.005765000000000242e-01 1.426324999999999843e+00 5.683495000000000630e+01 1.615514999999999873e+03
3.600000000000000422e-02 7.997685000000001043e-01 8.935800000000004850e-01 5.419969999999999999e+01 1.614930000000000064e+03
3.700000000000000511e-02 7.990144999999999609e-01 3.636399999999997412e-01 5.166429999999999723e+01 1.614349999999999909e+03
3.799999999999999906e-02 7.983450000000000824e-01 -1.131649999999999601e-01 4.933774999999999977e+01 1.613809999999999945e+03
3.899999999999999994e-02 7.977769999999999584e-01 -4.999350000000002403e-01 4.731024999999999636e+01 1.613325000000000045e+03
4.000000000000000083e-02 7.973234999999999628e-01 -7.733699999999998909e-01 4.564770000000000039e+01 1.612909999999999854e+03
4.100000000000000172e-02 7.969899999999999762e-01 -9.212900000000001643e-01 4.439119999999999777e+01 1.612579999999999927e+03
4.200000000000000261e-02 7.967750000000000110e-01 -9.387050000000000116e-01 4.356045000000000300e+01 1.612344999999999800e+03
4.300000000000000350e-02 7.966785000000000672e-01 -8.238499999999999712e-01 4.315959999999999752e+01 1.612204999999999927e+03
4.400000000000000439e-02 7.966975000000000584e-01 -5.750245000000000495e-01 4.318285000000000196e+01 1.612150000000000091e+03
4.499999999999999833e-02 7.968294999999999684e-01 -1.890350000000000641e-01 4.361959999999999837e+01 1.612195000000000164e+03
4.599999999999999922e-02 7.970725000000000726e-01 3.387250000000001648e-01 4.445745000000000147e+01 1.612329999999999927e+03
4.700000000000000011e-02 7.974254999999998983e-01 1.012790000000000079e+00 4.568274999999999864e+01 1.612555000000000064e+03
4.800000000000000100e-02 7.978840000000000376e-01 1.835444999999999993e+00 4.727944999999999709e+01 1.612869999999999891e+03
4.900000000000000189e-02 7.984424999999999439e-01 2.804525000000000379e+00 4.922705000000000553e+01 1.613264999999999873e+03
5.000000000000000278e-02 7.990930000000000533e-01 3.911850000000000271e+00 5.149840000000000373e+01 1.613730000000000018e+03
5.100000000000000366e-02 7.998239999999999794e-01 5.142754999999999299e+00 5.405859999999999843e+01 1.614275000000000091e+03
5.200000000000000455e-02 8.006214999999999860e-01 6.476395000000000124e+00 5.686460000000000292e+01 1.614875000000000000e+03
5.300000000000000544e-02 8.014695000000000569e-01 7.887268999999999863e+00 5.986674999999999613e+01 1.615525000000000091e+03
5.399999999999999939e-02 8.023504999999999665e-01 9.347175000000000011e+00 6.301089999999999947e+01 1.616215000000000146e+03
5.500000000000000028e-02 8.032504999999999784e-01 1.082728499999999983e+01 6.624164999999999281e+01 1.616934999999999945e+03
5.600000000000000117e-02 8.041529999999998957e-01 1.230020000000000024e+01 6.950540000000000873e+01 1.617664999999999964e+03
5.700000000000000205e-02 8.050459999999999283e-01 1.374164500000000011e+01 7.275374999999999659e+01 1.618409999999999854e+03
5.800000000000000294e-02 8.059184999999999821e-01 1.513164000000000087e+01 7.594565000000000055e+01 1.619144999999999982e+03
5.900000000000000383e-02 8.067649999999999544e-01 1.645487999999999928e+01 7.904920000000001323e+01 1.619875000000000000e+03
6.000000000000000472e-02 8.075805000000000344e-01 1.770104999999999862e+01 8.204205000000000325e+01 1.620575000000000045e+03
6.099999999999999867e-02 8.083635000000000126e-01 1.886415000000000219e+01 8.491155000000000541e+01 1.621264999999999873e+03
6.199999999999999956e-02 8.091139999999999999e-01 1.994204999999999828e+01 8.765375000000000227e+01 1.621924999999999955e+03
6.300000000000000044e-02 8.098339999999999428e-01 2.093565000000000254e+01 9.027174999999999727e+01 1.622565000000000055e+03
6.400000000000000133e-02 8.105269999999999975e-01 2.184809999999999874e+01 9.277429999999999666e+01 1.623174999999999955e+03
6.500000000000000222e-02 8.111969999999999459e-01 2.268390000000000128e+01 9.517390000000000327e+01 1.623764999999999873e+03
6.600000000000000311e-02 8.118469999999999853e-01 2.344819999999999993e+01 9.748494999999999777e+01 1.624329999999999927e+03
6.700000000000000400e-02 8.124815000000000786e-01 2.414634999999999820e+01 9.972104999999999109e+01 1.624880000000000109e+03
6.800000000000000488e-02 8.131025000000000613e-01 2.478289999999999793e+01 1.018955500000000001e+02 1.625424999999999955e+03
6.900000000000000577e-02 8.137129999999999086e-01 2.536165000000000092e+01 1.040181499999999915e+02 1.625945000000000164e+03
7.000000000000000666e-02 8.143124999999999947e-01 2.588479999999999848e+01 1.060949999999999989e+02 1.626460000000000036e+03
7.100000000000000755e-02 8.149009999999999865e-01 2.635345000000000226e+01 1.081280000000000001e+02 1.626965000000000146e+03
7.200000000000000844e-02 8.154770000000000074e-01 2.676709999999999923e+01 1.101135000000000019e+02 1.627454999999999927e+03
7.300000000000000933e-02 8.160385000000000000e-01 2.712415000000000020e+01 1.120459999999999923e+02 1.627934999999999945e+03
7.399999999999999634e-02 8.165800000000000836e-01 2.742194999999999894e+01 1.139149999999999920e+02 1.628394999999999982e+03
7.499999999999999722e-02 8.171000000000000485e-01 2.765755000000000052e+01 1.157075000000000102e+02 1.628845000000000027e+03
7.599999999999999811e-02 8.175930000000000142e-01 2.782764999999999844e+01 1.174104999999999990e+02 1.629269999999999982e+03
7.699999999999999900e-02 8.180549999999999766e-01 2.792940000000000111e+01 1.190084999999999980e+02 1.629674999999999955e+03
7.799999999999999989e-02 8.184830000000000716e-01 2.796030000000000015e+01 1.204885000000000019e+02 1.630059999999999945e+03
7.900000000000000078e-02 8.188729999999999620e-01 2.791875000000000284e+01 1.218365000000000009e+02 1.630404999999999973e+03
8.000000000000000167e-02 8.192224999999999646e-01 2.780385000000000062e+01 1.230434999999999945e+02 1.630719999999999800e+03
8.100000000000000255e-02 8.195295000000000218e-01 2.761594999999999800e+01 1.241004999999999967e+02 1.631005000000000109e+03
8.200000000000000344e-02 8.197935000000000638e-01 2.735594999999999999e+01 1.250024999999999977e+02 1.631250000000000000e+03
8.300000000000000433e-02 8.200119999999999632e-01 2.702609999999999957e+01 1.257454999999999927e+02 1.631460000000000036e+03
8.400000000000000522e-02 8.201875000000000693e-01 2.662955000000000183e+01 1.263305000000000007e+02 1.631635000000000218e+03
8.500000000000000611e-02 8.203190000000000204e-01 2.617040000000000077e+01 1.267605000000000075e+02 1.631769999999999982e+03
8.600000000000000699e-02 8.204095000000000137e-01 2.565364999999999895e+01 1.270399999999999920e+02 1.631869999999999891e+03
8.700000000000000788e-02 8.204605000000000370e-01 2.508549999999999969e+01 1.271779999999999973e+02 1.631934999999999945e+03
8.800000000000000877e-02 8.204755000000000242e-01 2.447279999999999944e+01 1.271839999999999975e+02 1.631970000000000027e+03
8.899999999999999578e-02 8.204579999999999096e-01 2.382334999999999781e+01 1.270720000000000027e+02 1.631970000000000027e+03
8.999999999999999667e-02 8.204119999999999191e-01 2.314555000000000007e+01 1.268555000000000064e+02 1.631944999999999936e+03
9.099999999999999756e-02 8.203420000000000156e-01 2.244834999999999781e+01 1.265504999999999995e+02 1.631900000000000091e+03
9.199999999999999845e-02 8.202530000000000099e-01 2.174049999999999727e+01 1.261740000000000066e+02 1.631835000000000036e+03
9.299999999999999933e-02 8.201490000000000169e-01 2.103105000000000047e+01 1.257429999999999950e+02 1.631750000000000000e+03
9.400000000000000022e-02 8.200354999999999173e-01 2.032825000000000060e+01 1.252749999999999915e+02 1.631650000000000091e+03
9.500000000000000111e-02 8.199164999999999370e-01 1.963960000000000150e+01 1.247845000000000084e+02 1.631545000000000073e+03
9.600000000000000200e-02 8.197950000000000514e-01 1.897149999999999892e+01 1.242874999999999943e+02 1.631434999999999945e+03
9.700000000000000289e-02 8.196749999999999314e-01 1.832890000000000086e+01 1.237959999999999923e+02 1.631325000000000045e+03
9.800000000000000377e-02 8.195584999999999676e-01 1.771519999999999939e+01 1.233195000000000050e+02 1.631220000000000027e+03
9.900000000000000466e-02 8.194464999999999666e-01 1.713224999999999909e+01 1.228650000000000091e+02 1.631105000000000018e+03
1.000000000000000056e-01 8.193405000000000271e-01 1.658019999999999783e+01 1.224375000000000000e+02 1.631005000000000109e+03
1.010000000000000064e-01 8.192399999999999682e-01 1.605774999999999864e+01 1.220365000000000038e+02 1.630905000000000200e+03
1.020000000000000073e-01 8.191444999999999421e-01 1.556200000000000117e+01 1.216629999999999967e+02 1.630809999999999945e+03
1.030000000000000082e-01 8.190524999999999611e-01 1.508924999999999983e+01 1.213110000000000070e+02 1.630720000000000027e+03
1.040000000000000091e-01 8.189625000000000377e-01 1.463465000000000060e+01 1.209770000000000039e+02 1.630634999999999991e+03
1.050000000000000100e-01 8.188725000000000032e-01 1.419300000000000139e+01 1.206525000000000034e+02 1.630549999999999955e+03
1.059999999999999970e-01 8.187805000000000222e-01 1.375869999999999926e+01 1.203310000000000031e+02 1.630465000000000146e+03
1.069999999999999979e-01 8.186839999999999673e-01 1.332604999999999862e+01 1.200039999999999907e+02 1.630384999999999991e+03
1.079999999999999988e-01 8.185824999999999907e-01 1.288998000000000133e+01 1.196649999999999920e+02 1.630300000000000182e+03
1.089999999999999997e-01 8.184730000000000061e-01 1.244555500000000059e+01 1.193054999999999950e+02 1.630210000000000036e+03
1.100000000000000006e-01 8.183545000000000957e-01 1.198881499999999889e+01 1.189219999999999970e+02 1.630119999999999891e+03
1.110000000000000014e-01 8.182270000000000376e-01 1.151665500000000009e+01 1.185090000000000003e+02 1.630025000000000091e+03
1.120000000000000023e-01 8.180899999999999839e-01 1.102702000000000027e+01 1.180660000000000025e+02 1.629914999999999964e+03
1.130000000000000032e-01 8.179440000000000044e-01 1.051907999999999888e+01 1.175914999999999964e+02 1.629809999999999945e+03
1.140000000000000041e-01 8.177894999999999470e-01 9.993085000000000662e+00 1.170879999999999939e+02 1.629690000000000055e+03
1.150000000000000050e-01 8.176289999999999392e-01 9.450624999999998721e+00 1.165594999999999999e+02 1.629570000000000164e+03
1.160000000000000059e-01 8.174639999999999684e-01 8.894334999999999880e+00 1.160125000000000028e+02 1.629445000000000164e+03
1.170000000000000068e-01 8.172969999999999402e-01 8.327890000000000015e+00 1.154540000000000077e+02 1.629315000000000055e+03
1.180000000000000077e-01 8.171310000000000517e-01 7.755835000000000257e+00 1.148940000000000055e+02 1.629184999999999945e+03
1.190000000000000085e-01 8.169684999999999864e-01 7.183494999999999742e+00 1.143420000000000130e+02 1.629059999999999945e+03
1.200000000000000094e-01 8.168139999999999290e-01 6.616600000000000037e+00 1.138089999999999975e+02 1.628934999999999945e+03
1.209999999999999964e-01 8.166700000000000070e-01 6.061090000000000089e+00 1.133064999999999998e+02 1.628815000000000055e+03
1.219999999999999973e-01 8.165394999999999737e-01 5.522915000000000241e+00 1.128449999999999989e+02 1.628704999999999927e+03
1.229999999999999982e-01 8.164255000000000262e-01 5.007754999999999512e+00 1.124344999999999999e+02 1.628599999999999909e+03
1.239999999999999991e-01 8.163294999999999302e-01 4.520754999999999413e+00 1.120844999999999914e+02 1.628514999999999873e+03
1.250000000000000000e-01 8.162545000000001050e-01 4.066370000000000040e+00 1.118019999999999925e+02 1.628434999999999945e+03
1.260000000000000009e-01 8.162009999999999543e-01 3.648134999999999906e+00 1.115914999999999964e+02 1.628380000000000109e+03
1.270000000000000018e-01 8.161700000000000621e-01 3.268569999999999531e+00 1.114575000000000102e+02 1.628340000000000146e+03
1.280000000000000027e-01 8.161610000000000253e-01 2.929114999999999913e+00 1.114004999999999939e+02 1.628315000000000055e+03
1.290000000000000036e-01 8.161734999999999962e-01 2.630055000000000032e+00 1.114199999999999875e+02 1.628309999999999945e+03
1.300000000000000044e-01 8.162064999999999459e-01 2.370624999999999982e+00 1.115105000000000075e+02 1.628320000000000164e+03
1.310000000000000053e-01 8.162580000000000391e-01 2.149045000000000094e+00 1.116680000000000064e+02 1.628340000000000146e+03
1.320000000000000062e-01 8.163259999999999961e-01 1.962659999999999849e+00 1.118855000000000075e+02 1.628380000000000109e+03
1.330000000000000071e-01 8.164069999999999938e-01 1.808114999999999917e+00 1.121535000000000082e+02 1.628434999999999945e+03
1.340000000000000080e-01 8.164989999999999748e-01 1.681501499999999982e+00 1.124629999999999939e+02 1.628494999999999891e+03
1.350000000000000089e-01 8.165985000000000049e-01 1.578574499999999992e+00 1.128029999999999973e+02 1.628570000000000164e+03
1.360000000000000098e-01 8.167035000000000267e-01 1.494906499999999916e+00 1.131645000000000039e+02 1.628644999999999982e+03
1.370000000000000107e-01 8.168100000000000360e-01 1.426065499999999986e+00 1.135354999999999990e+02 1.628724999999999909e+03
1.380000000000000115e-01 8.169159999999999755e-01 1.367752999999999997e+00 1.139074999999999989e+02 1.628804999999999836e+03
1.390000000000000124e-01 8.170189999999999397e-01 1.315929500000000196e+00 1.142715000000000032e+02 1.628884999999999991e+03
1.400000000000000133e-01 8.171174999999999411e-01 1.266894500000000034e+00 1.146200000000000045e+02 1.628965000000000146e+03
1.410000000000000142e-01 8.172090000000000742e-01 1.217379500000000059e+00 1.149454999999999956e+02 1.629039999999999964e+03
1.420000000000000151e-01 8.172919999999999074e-01 1.164566500000000060e+00 1.152429999999999950e+02 1.629115000000000009e+03
1.430000000000000160e-01 8.173664999999999958e-01 1.106114999999999959e+00 1.155074999999999932e+02 1.629180000000000064e+03
1.440000000000000169e-01 8.174304999999999488e-01 1.040184500000000067e+00 1.157369999999999948e+02 1.629235000000000127e+03
1.450000000000000178e-01 8.174844999999999473e-01 9.654080000000000439e-01 1.159279999999999973e+02 1.629284999999999854e+03
1.459999999999999909e-01 8.175274999999999626e-01 8.808834999999999305e-01 1.160799999999999983e+02 1.629325000000000045e+03
1.469999999999999918e-01 8.175594999999999946e-01 7.861365000000000158e-01 1.161929999999999978e+02 1.629360000000000127e+03
1.479999999999999927e-01 8.175814999999999610e-01 6.811089999999999645e-01 1.162674999999999983e+02 1.629384999999999991e+03
1.489999999999999936e-01 8.175930000000000142e-01 5.660819999999999741e-01 1.163045000000000044e+02 1.629394999999999982e+03
1.499999999999999944e-01 8.175954999999999195e-01 4.416579999999999950e-01 1.163060000000000116e+02 1.629400000000000091e+03
1.509999999999999953e-01 8.175885000000000513e-01 3.086969999999999992e-01 1.162740000000000009e+02 1.629400000000000091e+03
1.519999999999999962e-01 8.175734999999999530e-01 1.682651500000000022e-01 1.162109999999999985e+02 1.629394999999999982e+03
1.529999999999999971e-01 8.175505000000000688e-01 2.157999999999998808e-02 1.161195000000000022e+02 1.629380000000000109e+03
1.539999999999999980e-01 8.175209999999999422e-01 -1.300474999999999826e-01 1.160020000000000095e+02 1.629355000000000018e+03
1.549999999999999989e-01 8.174844999999999473e-01 -2.852643999999999735e-01 1.158605000000000018e+02 1.629329999999999927e+03
1.559999999999999998e-01 8.174429999999999197e-01 -4.427292999999999923e-01 1.156984999999999957e+02 1.629295000000000073e+03
1.570000000000000007e-01 8.173960000000000115e-01 -6.011540000000000772e-01 1.155174999999999983e+02 1.629259999999999991e+03
1.580000000000000016e-01 8.173445000000000293e-01 -7.593434999999999491e-01 1.153195000000000050e+02 1.629215000000000146e+03
1.590000000000000024e-01 8.172885000000000844e-01 -9.162179999999999769e-01 1.151055000000000064e+02 1.629170000000000073e+03
