# t [s], A [cm^2], U [cm/s], P [cPa], c [cm/s]
1.000000000000000021e-03 7.900234999999999896e-01 7.365000000000003488e-03 9.902330000000000609e+01 1.778414999999999964e+03
2.000000000000000042e-03 7.900089999999999613e-01 -2.857770500000000099e-03 9.898455000000001291e+01 1.778409999999999854e+03
3.000000000000000062e-03 7.900840000000000085e-01 1.179840999999999945e-01 9.912805000000000177e+01 1.778440000000000055e+03
4.000000000000000083e-03 7.901325000000000154e-01 2.168515500000000040e-01 9.925114999999999554e+01 1.778465000000000146e+03
5.000000000000000104e-03 7.900665000000000049e-01 1.500039999999999984e-01 9.909685000000000343e+01 1.778434999999999945e+03
6.000000000000000125e-03 7.899760000000000115e-01 3.600649999999999684e-02 9.878114999999999668e+01 1.778365000000000009e+03
7.000000000000000146e-03 7.898950000000000138e-01 -7.551950000000007268e-02 9.840494999999999948e+01 1.778289999999999964e+03
8.000000000000000167e-03 7.897425000000000139e-01 -3.190849999999999520e-01 9.779920000000001323e+01 1.778159999999999854e+03
9.000000000000001055e-03 7.895084999999999464e-01 -7.169649999999998524e-01 9.688875000000000171e+01 1.777969999999999800e+03
1.000000000000000194e-02 7.891810000000000214e-01 -1.277980000000000338e+00 9.561410000000000764e+01 1.777704999999999927e+03
1.099999999999999936e-02 7.887264999999999970e-01 -2.040890000000000093e+00 9.386549999999999727e+01 1.777335000000000036e+03
1.200000000000000025e-02 7.881679999999999797e-01 -2.944984999999999964e+00 9.166110000000000468e+01 1.776860000000000127e+03
1.300000000000000114e-02 7.876075000000000159e-01 -3.792288500000000617e+00 8.924580000000000268e+01 1.776324999999999818e+03
1.400000000000000203e-02 7.871519999999999628e-01 -4.364190500000000306e+00 8.696179999999999666e+01 1.775789999999999964e+03
1.499999999999999944e-02 7.868459999999999344e-01 -4.545961500000000655e+00 8.505105000000000359e+01 1.775319999999999936e+03
1.600000000000000033e-02 7.866554999999999520e-01 -4.361044999999999838e+00 8.355729999999999791e+01 1.774920000000000073e+03
1.700000000000000122e-02 7.865039999999999809e-01 -3.929464999999999986e+00 8.234719999999998663e+01 1.774569999999999936e+03
1.800000000000000211e-02 7.863120000000000109e-01 -3.397559999999999913e+00 8.120130000000000337e+01 1.774239999999999782e+03
1.900000000000000300e-02 7.860314999999999941e-01 -2.874254499999999712e+00 7.992050000000000409e+01 1.773884999999999991e+03
2.000000000000000042e-02 7.856570000000000498e-01 -2.395043499999999881e+00 7.840579999999999927e+01 1.773485000000000127e+03
2.100000000000000130e-02 7.852265000000000494e-01 -1.924374999999999947e+00 7.668299999999999272e+01 1.773045000000000073e+03
2.200000000000000219e-02 7.847889999999999588e-01 -1.391515000000000057e+00 7.486679999999999779e+01 1.772579999999999927e+03
2.299999999999999961e-02 7.843869999999999454e-01 -7.387850000000002471e-01 7.308990000000000009e+01 1.772115000000000009e+03
2.400000000000000050e-02 7.840310000000000334e-01 4.160499999999967002e-02 7.143309999999999604e+01 1.771674999999999955e+03
2.500000000000000139e-02 7.836980000000000057e-01 8.946000000000000618e-01 6.988479999999999848e+01 1.771250000000000000e+03
2.600000000000000228e-02 7.833419999999999828e-01 1.712975000000000136e+00 6.833789999999999054e+01 1.770835000000000036e+03
2.700000000000000316e-02 7.829055000000000319e-01 2.364920000000000133e+00 6.661969999999999459e+01 1.770384999999999991e+03
2.800000000000000058e-02 7.823390000000000066e-01 2.730220000000000091e+00 6.454484999999999673e+01 1.769864999999999782e+03
2.900000000000000147e-02 7.816199999999999815e-01 2.735230000000000494e+00 6.197620000000000573e+01 1.769255000000000109e+03
3.000000000000000236e-02 7.807595000000000507e-01 2.375034999999999563e+00 5.887539999999999907e+01 1.768529999999999973e+03
3.099999999999999978e-02 7.798019999999999952e-01 1.714284999999999837e+00 5.532235000000000014e+01 1.767710000000000036e+03
3.200000000000000067e-02 7.788125000000000187e-01 8.664849999999999497e-01 5.149824999999999875e+01 1.766819999999999936e+03
3.300000000000000155e-02 7.778605000000000658e-01 -3.746500000000008157e-02 4.764260000000000161e+01 1.765909999999999854e+03
3.400000000000000244e-02 7.770044999999999868e-01 -8.782849999999999824e-01 4.400215000000000032e+01 1.765039999999999964e+03
3.500000000000000333e-02 7.762864999999999904e-01 -1.567064999999999930e+00 4.078924999999999557e+01 1.764250000000000000e+03
3.600000000000000422e-02 7.757275000000000142e-01 -2.051805000000000323e+00 3.815610000000000213e+01 1.763569999999999936e+03
3.700000000000000511e-02 7.753315000000000623e-01 -2.313540000000000152e+00 3.618760000000000332e+01 1.763039999999999964e+03
3.799999999999999906e-02 7.750920000000000032e-01 -2.356606000000000201e+00 3.490789999999999793e+01 1.762655000000000200e+03
3.899999999999999994e-02 7.749960000000000182e-01 -2.196329999999999671e+00 3.429699999999999704e+01 1.762440000000000055e+03
4.000000000000000083e-02 7.750310000000000255e-01 -1.847929999999999851e+00 3.431119999999999948e+01 1.762360000000000127e+03
4.100000000000000172e-02 7.751879999999999882e-01 -1.319226500000000080e+00 3.490180000000000149e+01 1.762430000000000064e+03
4.200000000000000261e-02 7.754615000000000258e-01 -6.089750000000000441e-01 3.602665000000000362e+01 1.762634999999999991e+03
4.300000000000000350e-02 7.758484999999999410e-01 2.897750000000001158e-01 3.765324999999999989e+01 1.762965000000000146e+03
4.400000000000000439e-02 7.763474999999999682e-01 1.383080000000000087e+00 3.975439999999999685e+01 1.763409999999999854e+03
4.499999999999999833e-02 7.769509999999999472e-01 2.669294999999999973e+00 4.229954999999999643e+01 1.763974999999999909e+03
4.599999999999999922e-02 7.776480000000000059e-01 4.134374999999999467e+00 4.524699999999999989e+01 1.764630000000000109e+03
4.700000000000000011e-02 7.784225000000000172e-01 5.750429999999999708e+00 4.853844999999999743e+01 1.765380000000000109e+03
4.800000000000000100e-02 7.792520000000000557e-01 7.477790500000000229e+00 5.209905000000000541e+01 1.766199999999999818e+03
4.900000000000000189e-02 7.801145000000000440e-01 9.269090000000000273e+00 5.584149999999999636e+01 1.767070000000000164e+03
5.000000000000000278e-02 7.809854999999999992e-01 1.107492999999999839e+01 5.967324999999999591e+01 1.767980000000000018e+03
5.100000000000000366e-02 7.818449999999999012e-01 1.284914000000000023e+01 6.350485000000000468e+01 1.768900000000000091e+03
5.200000000000000455e-02 7.826774999999999149e-01 1.455304499999999912e+01 6.725844999999999629e+01 1.769815000000000055e+03
5.300000000000000544e-02 7.834714999999999874e-01 1.615794999999999959e+01 7.087375000000000114e+01 1.770710000000000036e+03
5.399999999999999939e-02 7.842214999999999048e-01 1.764614999999999867e+01 7.431104999999999450e+01 1.771565000000000055e+03
5.500000000000000028e-02 7.849280000000000701e-01 1.900990000000000180e+01 7.755209999999999582e+01 1.772384999999999991e+03
5.600000000000000117e-02 7.855935000000000556e-01 2.025005000000000166e+01 8.059784999999999400e+01 1.773164999999999964e+03
5.700000000000000205e-02 7.862244999999999928e-01 2.137379999999999924e+01 8.346535000000000082e+01 1.773909999999999854e+03
5.800000000000000294e-02 7.868290000000000006e-01 2.239294999999999902e+01 8.618330000000000268e+01 1.774615000000000009e+03
5.900000000000000383e-02 7.874160000000000048e-01 2.332189999999999941e+01 8.878774999999998840e+01 1.775295000000000073e+03
6.000000000000000472e-02 7.879940000000000833e-01 2.417620000000000147e+01 9.131819999999999027e+01 1.775950000000000045e+03
6.099999999999999867e-02 7.885705000000000631e-01 2.497119999999999962e+01 9.381305000000000405e+01 1.776595000000000027e+03
6.199999999999999956e-02 7.891540000000000221e-01 2.572044999999999959e+01 9.630655000000000143e+01 1.777235000000000127e+03
6.300000000000000044e-02 7.897475000000000467e-01 2.643480000000000274e+01 9.882484999999999786e+01 1.777880000000000109e+03
6.400000000000000133e-02 7.903540000000000010e-01 2.712115000000000009e+01 1.013841500000000053e+02 1.778539999999999964e+03
6.500000000000000222e-02 7.909725000000000783e-01 2.778175000000000239e+01 1.039887500000000102e+02 1.779200000000000045e+03
6.600000000000000311e-02 7.915985000000000937e-01 2.841450000000000031e+01 1.066304999999999978e+02 1.779869999999999891e+03
6.700000000000000400e-02 7.922270000000000145e-01 2.901315000000000310e+01 1.092895000000000039e+02 1.780545000000000073e+03
6.800000000000000488e-02 7.928500000000000547e-01 2.956804999999999950e+01 1.119380000000000024e+02 1.781215000000000146e+03
6.900000000000000577e-02 7.934585000000000665e-01 3.006794999999999973e+01 1.145409999999999968e+02 1.781875000000000000e+03
7.000000000000000666e-02 7.940439999999999721e-01 3.050084999999999980e+01 1.170600000000000023e+02 1.782525000000000091e+03
7.100000000000000755e-02 7.945975000000000676e-01 3.085529999999999973e+01 1.194560000000000031e+02 1.783144999999999982e+03
7.200000000000000844e-02 7.951114999999999711e-01 3.112140000000000128e+01 1.216955000000000098e+02 1.783724999999999909e+03
7.300000000000000933e-02 7.955809999999999826e-01 3.129119999999999990e+01 1.237469999999999999e+02 1.784264999999999873e+03
7.399999999999999634e-02 7.960000000000000409e-01 3.135960000000000036e+01 1.255889999999999986e+02 1.784759999999999991e+03
7.499999999999999722e-02 7.963670000000000471e-01 3.132395000000000351e+01 1.272030000000000030e+02 1.785199999999999818e+03
7.599999999999999811e-02 7.966794999999999849e-01 3.118439999999999657e+01 1.285825000000000102e+02 1.785585000000000036e+03
7.699999999999999900e-02 7.969390000000000640e-01 3.094374999999999787e+01 1.297249999999999943e+02 1.785904999999999973e+03
7.799999999999999989e-02 7.971470000000000500e-01 3.060764999999999958e+01 1.306374999999999886e+02 1.786170000000000073e+03
7.900000000000000078e-02 7.973069999999999879e-01 3.018399999999999750e+01 1.313324999999999818e+02 1.786389999999999873e+03
8.000000000000000167e-02 7.974235000000000628e-01 2.968335000000000079e+01 1.318285000000000196e+02 1.786549999999999955e+03
8.100000000000000255e-02 7.975030000000000729e-01 2.911780000000000257e+01 1.321490000000000009e+02 1.786664999999999964e+03
8.200000000000000344e-02 7.975505000000000511e-01 2.850144999999999840e+01 1.323215000000000146e+02 1.786744999999999891e+03
8.300000000000000433e-02 7.975740000000000052e-01 2.784905000000000186e+01 1.323750000000000000e+02 1.786785000000000082e+03
8.400000000000000522e-02 7.975799999999999557e-01 2.717589999999999861e+01 1.323414999999999964e+02 1.786799999999999955e+03
8.500000000000000611e-02 7.975754999999999928e-01 2.649664999999999893e+01 1.322500000000000000e+02 1.786799999999999955e+03
8.600000000000000699e-02 7.975659999999999972e-01 2.582484999999999786e+01 1.321295000000000073e+02 1.786784999999999854e+03
8.700000000000000788e-02 7.975574999999999193e-01 2.517200000000000060e+01 1.320049999999999955e+02 1.786765000000000100e+03
8.800000000000000877e-02 7.975529999999999564e-01 2.454715000000000202e+01 1.318959999999999866e+02 1.786744999999999891e+03
8.899999999999999578e-02 7.975554999999999728e-01 2.395649999999999835e+01 1.318164999999999907e+02 1.786724999999999909e+03
8.999999999999999667e-02 7.975665000000000671e-01 2.340289999999999893e+01 1.317760000000000105e+02 1.786720000000000027e+03
9.099999999999999756e-02 7.975845000000000296e-01 2.288644999999999996e+01 1.317744999999999891e+02 1.786715000000000146e+03
9.199999999999999845e-02 7.976090000000000124e-01 2.240415000000000134e+01 1.318089999999999975e+02 1.786719999999999800e+03
9.299999999999999933e-02 7.976360000000000117e-01 2.195074999999999932e+01 1.318704999999999927e+02 1.786730000000000018e+03
9.400000000000000022e-02 7.976634999999999698e-01 2.151890000000000214e+01 1.319454999999999814e+02 1.786740000000000009e+03
9.500000000000000111e-02 7.976864999999999650e-01 2.110010000000000119e+01 1.320165000000000077e+02 1.786755000000000109e+03
9.600000000000000200e-02 7.977015000000000633e-01 2.068489999999999895e+01 1.320665000000000191e+02 1.786764999999999873e+03
9.700000000000000289e-02 7.977039999999999687e-01 2.026379999999999981e+01 1.320759999999999934e+02 1.786764999999999873e+03
9.800000000000000377e-02 7.976900000000000102e-01 1.982759999999999678e+01 1.320264999999999986e+02 1.786755000000000109e+03
9.900000000000000466e-02 7.976559999999999206e-01 1.936809999999999832e+01 1.319035000000000082e+02 1.786730000000000018e+03
1.000000000000000056e-01 7.975995000000000168e-01 1.887865000000000038e+01 1.316924999999999955e+02 1.786680000000000064e+03
1.010000000000000064e-01 7.975200000000000067e-01 1.835454999999999970e+01 1.313855000000000075e+02 1.786615000000000009e+03
1.020000000000000073e-01 7.974160000000000137e-01 1.779335000000000022e+01 1.309784999999999968e+02 1.786519999999999982e+03
1.030000000000000082e-01 7.972894999999999843e-01 1.719535000000000124e+01 1.304714999999999918e+02 1.786410000000000082e+03
1.040000000000000091e-01 7.971420000000000172e-01 1.656329999999999814e+01 1.298709999999999809e+02 1.786269999999999982e+03
1.050000000000000100e-01 7.969770000000000465e-01 1.590264999999999951e+01 1.291895000000000095e+02 1.786110000000000127e+03
1.059999999999999970e-01 7.967994999999999939e-01 1.522109999999999985e+01 1.284435000000000002e+02 1.785934999999999945e+03
1.069999999999999979e-01 7.966139999999999333e-01 1.452820000000000178e+01 1.276525000000000034e+02 1.785750000000000000e+03
1.079999999999999988e-01 7.964260000000000783e-01 1.383494500000000116e+01 1.268410000000000082e+02 1.785555000000000064e+03
1.089999999999999997e-01 7.962424999999999642e-01 1.315321000000000140e+01 1.260335000000000036e+02 1.785355000000000018e+03
1.100000000000000006e-01 7.960685000000000677e-01 1.249487999999999843e+01 1.252554999999999978e+02 1.785170000000000073e+03
1.110000000000000014e-01 7.959095000000000475e-01 1.187134999999999962e+01 1.245320000000000107e+02 1.784985000000000127e+03
1.120000000000000023e-01 7.957710000000000061e-01 1.129304499999999933e+01 1.238845000000000027e+02 1.784820000000000164e+03
1.130000000000000032e-01 7.956554999999999600e-01 1.076868499999999962e+01 1.233310000000000031e+02 1.784670000000000073e+03
1.140000000000000041e-01 7.955664999999999543e-01 1.030509999999999948e+01 1.228874999999999886e+02 1.784550000000000182e+03
1.150000000000000050e-01 7.955060000000000464e-01 9.906670000000000087e+00 1.225625000000000000e+02 1.784454999999999927e+03
1.160000000000000059e-01 7.954734999999999445e-01 9.575504999999999711e+00 1.223594999999999970e+02 1.784389999999999873e+03
1.170000000000000068e-01 7.954685000000000228e-01 9.311120000000000729e+00 1.222785000000000082e+02 1.784349999999999909e+03
1.180000000000000077e-01 7.954885000000000428e-01 9.110974999999999824e+00 1.223130000000000024e+02 1.784339999999999918e+03
1.190000000000000085e-01 7.955320000000000169e-01 8.970330000000000581e+00 1.224534999999999911e+02 1.784360000000000127e+03
1.200000000000000094e-01 7.955940000000000234e-01 8.882975000000000065e+00 1.226854999999999905e+02 1.784394999999999982e+03
1.209999999999999964e-01 7.956714999999999760e-01 8.841435000000000599e+00 1.229929999999999950e+02 1.784460000000000036e+03
1.219999999999999973e-01 7.957600000000000229e-01 8.837495000000000545e+00 1.233590000000000089e+02 1.784534999999999854e+03
1.229999999999999982e-01 7.958555000000000490e-01 8.862639999999998963e+00 1.237655000000000030e+02 1.784625000000000000e+03
1.239999999999999991e-01 7.959545000000000092e-01 8.908435000000000770e+00 1.241945000000000050e+02 1.784719999999999800e+03
1.250000000000000000e-01 7.960530000000000106e-01 8.966889999999999361e+00 1.246310000000000002e+02 1.784815000000000055e+03
1.260000000000000009e-01 7.961484999999999257e-01 9.030699999999999505e+00 1.250600000000000023e+02 1.784920000000000073e+03
1.270000000000000018e-01 7.962389999999999191e-01 9.093460000000000321e+00 1.254699999999999989e+02 1.785019999999999982e+03
1.280000000000000027e-01 7.963219999999999743e-01 9.149800000000000821e+00 1.258515000000000015e+02 1.785110000000000127e+03
1.290000000000000036e-01 7.963964999999999517e-01 9.195444999999999425e+00 1.261984999999999957e+02 1.785194999999999936e+03
1.300000000000000044e-01 7.964620000000000033e-01 9.227260000000001128e+00 1.265060000000000002e+02 1.785279999999999973e+03
1.310000000000000053e-01 7.965180000000000593e-01 9.243204999999999671e+00 1.267729999999999961e+02 1.785349999999999909e+03
1.320000000000000062e-01 7.965655000000000374e-01 9.242304999999999993e+00 1.269995000000000118e+02 1.785404999999999973e+03
1.330000000000000071e-01 7.966050000000000075e-01 9.224544999999999106e+00 1.271879999999999882e+02 1.785460000000000036e+03
1.340000000000000080e-01 7.966370000000000395e-01 9.190820000000000434e+00 1.273425000000000011e+02 1.785505000000000109e+03
1.350000000000000089e-01 7.966634999999999689e-01 9.142815000000000580e+00 1.274685000000000059e+02 1.785539999999999964e+03
1.360000000000000098e-01 7.966854999999999354e-01 9.082750000000000767e+00 1.275705000000000098e+02 1.785569999999999936e+03
1.370000000000000107e-01 7.967045000000000377e-01 9.013230000000000075e+00 1.276564999999999941e+02 1.785599999999999909e+03
1.380000000000000115e-01 7.967225000000000001e-01 8.937224999999999753e+00 1.277319999999999993e+02 1.785619999999999891e+03
1.390000000000000124e-01 7.967400000000000038e-01 8.857660000000000977e+00 1.278035000000000139e+02 1.785644999999999982e+03
1.400000000000000133e-01 7.967595000000000649e-01 8.777295000000000513e+00 1.278759999999999906e+02 1.785659999999999854e+03
1.410000000000000142e-01 7.967805000000000026e-01 8.698724999999999596e+00 1.279549999999999983e+02 1.785684999999999945e+03
1.420000000000000151e-01 7.968045000000000266e-01 8.623934999999999462e+00 1.280439999999999827e+02 1.785710000000000036e+03
1.430000000000000160e-01 7.968310000000000670e-01 8.554450000000000998e+00 1.281440000000000055e+02 1.785735000000000127e+03
1.440000000000000169e-01 7.968610000000000415e-01 8.491175000000000139e+00 1.282570000000000050e+02 1.785764999999999873e+03
1.450000000000000178e-01 7.968929999999999625e-01 8.434409999999999741e+00 1.283815000000000168e+02 1.785795000000000073e+03
1.459999999999999909e-01 7.969275000000000109e-01 8.383924999999999628e+00 1.285160000000000196e+02 1.785829999999999927e+03
1.469999999999999918e-01 7.969634999999999359e-01 8.338990000000000791e+00 1.286569999999999823e+02 1.785865000000000009e+03
1.479999999999999927e-01 7.969994999999999719e-01 8.298560000000000159e+00 1.288004999999999995e+02 1.785900000000000091e+03
1.489999999999999936e-01 7.970349999999999380e-01 8.261390000000000455e+00 1.289440000000000168e+02 1.785934999999999945e+03
1.499999999999999944e-01 7.970684999999999576e-01 8.226184999999999192e+00 1.290819999999999936e+02 1.785965000000000146e+03
1.509999999999999953e-01 7.970994999999999608e-01 8.191739999999999355e+00 1.292115000000000009e+02 1.786000000000000000e+03
1.519999999999999962e-01 7.971274999999999888e-01 8.157064999999999344e+00 1.293290000000000077e+02 1.786034999999999854e+03
1.529999999999999971e-01 7.971519999999999717e-01 8.121484999999999843e+00 1.294329999999999927e+02 1.786059999999999945e+03
1.539999999999999980e-01 7.971730000000000205e-01 8.084669999999999135e+00 1.295224999999999795e+02 1.786085000000000036e+03
1.549999999999999989e-01 7.971905000000000241e-01 8.046644999999999825e+00 1.295964999999999918e+02 1.786099999999999909e+03
1.559999999999999998e-01 7.972045000000000936e-01 8.007809999999999206e+00 1.296564999999999941e+02 1.786119999999999891e+03
1.570000000000000007e-01 7.972164999999999946e-01 7.968880000000000408e+00 1.297044999999999959e+02 1.786134999999999991e+03
1.580000000000000016e-01 7.972259999999999902e-01 7.930825000000000458e+00 1.297429999999999950e+02 1.786144999999999982e+03
1.590000000000000024e-01 7.972349999999999159e-01 7.894804999999999851e+00 1.297760000000000105e+02 1.786155000000000200e+03
