# t [s], A [cm^2], U [cm/s], P [cPa], c [cm/s]
1.000000000000000021e-03 2.098389999999999977e-01 2.391433000000000031e-01 9.516360000000000241e+01 2.238840000000000146e+03
2.000000000000000042e-03 2.097809999999999953e-01 1.653373999999999899e+00 9.188470000000000937e+01 2.238389999999999873e+03
3.000000000000000062e-03 2.096330000000000138e-01 3.455513499999999905e+00 8.713564999999999827e+01 2.237279999999999745e+03
4.000000000000000083e-03 2.094354999999999967e-01 5.520673000000000386e+00 8.190954999999999586e+01 2.235819999999999709e+03
5.000000000000000104e-03 2.092289999999999983e-01 7.764084999999999681e+00 7.723980000000000246e+01 2.234309999999999945e+03
6.000000000000000125e-03 2.090349999999999986e-01 9.966104999999998881e+00 7.342770000000000152e+01 2.232904999999999745e+03
7.000000000000000146e-03 2.088550000000000129e-01 1.187085500000000060e+01 7.012475000000000591e+01 2.231635000000000218e+03
8.000000000000000167e-03 2.086919999999999886e-01 1.341965499999999878e+01 6.713909999999999911e+01 2.230514999999999873e+03
9.000000000000001055e-03 2.085535000000000028e-01 1.467220000000000013e+01 6.461175000000000068e+01 2.229569999999999709e+03
1.000000000000000194e-02 2.084405000000000008e-01 1.566324999999999967e+01 6.261305000000000121e+01 2.228809999999999945e+03
1.099999999999999936e-02 2.083524999999999960e-01 1.641785000000000139e+01 6.110705000000000098e+01 2.228220000000000255e+03
1.200000000000000025e-02 2.082855000000000123e-01 1.695244999999999891e+01 6.000839999999999463e+01 2.227779999999999745e+03
1.300000000000000114e-02 2.082339999999999747e-01 1.726169999999999760e+01 5.914260000000000161e+01 2.227449999999999818e+03
1.400000000000000203e-02 2.081915000000000016e-01 1.737785000000000224e+01 5.837565000000000026e+01 2.227189999999999600e+03
1.499999999999999944e-02 2.081609999999999849e-01 1.743845000000000312e+01 5.786525000000000318e+01 2.227010000000000218e+03
1.600000000000000033e-02 2.081554999999999933e-01 1.765034999999999954e+01 5.807935000000000514e+01 2.226980000000000018e+03
1.700000000000000122e-02 2.081879999999999842e-01 1.816890000000000072e+01 5.948629999999999995e+01 2.227199999999999818e+03
1.800000000000000211e-02 2.082629999999999759e-01 1.899334999999999951e+01 6.217489999999999384e+01 2.227704999999999927e+03
1.900000000000000300e-02 2.083725000000000160e-01 1.995745000000000147e+01 6.570015000000000782e+01 2.228454999999999927e+03
2.000000000000000042e-02 2.084934999999999983e-01 2.080744999999999933e+01 6.923920000000001096e+01 2.229284999999999854e+03
2.100000000000000130e-02 2.086000000000000076e-01 2.131584999999999752e+01 7.193670000000000186e+01 2.230039999999999964e+03
2.200000000000000219e-02 2.086709999999999954e-01 2.137035000000000196e+01 7.324334999999999241e+01 2.230565000000000055e+03
2.299999999999999961e-02 2.086994999999999822e-01 2.100339999999999918e+01 7.309424999999998818e+01 2.230795000000000073e+03
2.400000000000000050e-02 2.086890000000000134e-01 2.035839999999999961e+01 7.186959999999999127e+01 2.230750000000000000e+03
2.500000000000000139e-02 2.086540000000000061e-01 1.961589999999999989e+01 7.018199999999998795e+01 2.230525000000000091e+03
2.600000000000000228e-02 2.086115000000000053e-01 1.891785000000000139e+01 6.860469999999999402e+01 2.230234999999999673e+03
2.700000000000000316e-02 2.085739999999999816e-01 1.832014999999999816e+01 6.746094999999999686e+01 2.229974999999999909e+03
2.800000000000000058e-02 2.085450000000000081e-01 1.778800000000000026e+01 6.674779999999999802e+01 2.229769999999999982e+03
2.900000000000000147e-02 2.085210000000000119e-01 1.722820000000000107e+01 6.620015000000000782e+01 2.229599999999999909e+03
3.000000000000000236e-02 2.084929999999999839e-01 1.654035000000000011e+01 6.544825000000000159e+01 2.229404999999999745e+03
3.099999999999999978e-02 2.084515000000000118e-01 1.566815000000000069e+01 6.420184999999999320e+01 2.229130000000000109e+03
3.200000000000000067e-02 2.083935000000000093e-01 1.463250000000000028e+01 6.239424999999999955e+01 2.228739999999999782e+03
3.300000000000000155e-02 2.083214999999999928e-01 1.353505000000000003e+01 6.023579999999999757e+01 2.228250000000000000e+03
3.400000000000000244e-02 2.082474999999999743e-01 1.253059999999999974e+01 5.815970000000000084e+01 2.227744999999999891e+03
3.500000000000000333e-02 2.081860000000000099e-01 1.177982499999999888e+01 5.668070000000000164e+01 2.227310000000000400e+03
3.600000000000000422e-02 2.081514999999999893e-01 1.139860000000000007e+01 5.622379999999999711e+01 2.227054999999999836e+03
3.700000000000000511e-02 2.081540000000000057e-01 1.142450000000000010e+01 5.698669999999999902e+01 2.227045000000000073e+03
3.799999999999999906e-02 2.081949999999999912e-01 1.180740000000000123e+01 5.887865000000000038e+01 2.227300000000000182e+03
3.899999999999999994e-02 2.082680000000000087e-01 1.242510000000000048e+01 6.154800000000000182e+01 2.227775000000000091e+03
4.000000000000000083e-02 2.083579999999999877e-01 1.311469999999999914e+01 6.447605000000000075e+01 2.228389999999999873e+03
4.100000000000000172e-02 2.084504999999999830e-01 1.370889999999999986e+01 6.710210000000000719e+01 2.229019999999999982e+03
4.200000000000000261e-02 2.085265000000000035e-01 1.406755000000000067e+01 6.894155000000000655e+01 2.229555000000000291e+03
4.300000000000000350e-02 2.085734999999999950e-01 1.409799999999999898e+01 6.966974999999999341e+01 2.229894999999999982e+03
4.400000000000000439e-02 2.085825000000000040e-01 1.376200000000000045e+01 6.915770000000000550e+01 2.229980000000000018e+03
4.499999999999999833e-02 2.085509999999999864e-01 1.307034999999999947e+01 6.746025000000000205e+01 2.229779999999999745e+03
4.599999999999999922e-02 2.084820000000000007e-01 1.206913000000000125e+01 6.476834999999999809e+01 2.229324999999999818e+03
4.700000000000000011e-02 2.083814999999999973e-01 1.082321500000000114e+01 6.134525000000000716e+01 2.228644999999999982e+03
4.800000000000000100e-02 2.082574999999999843e-01 9.401869999999998839e+00 5.746495000000000175e+01 2.227800000000000182e+03
4.900000000000000189e-02 2.081175000000000108e-01 7.869030000000000413e+00 5.336860000000000070e+01 2.226840000000000146e+03
5.000000000000000278e-02 2.079699999999999882e-01 6.279650000000000176e+00 4.924455000000000382e+01 2.225824999999999818e+03
5.100000000000000366e-02 2.078205000000000191e-01 4.681416999999999717e+00 4.522959999999999781e+01 2.224789999999999964e+03
5.200000000000000455e-02 2.076735000000000109e-01 3.118180500000000244e+00 4.142494999999999550e+01 2.223769999999999982e+03
5.300000000000000544e-02 2.075325000000000086e-01 1.634669999999999845e+00 3.791725000000000279e+01 2.222795000000000073e+03
5.399999999999999939e-02 2.074030000000000040e-01 2.791400000000001658e-01 3.479630000000000223e+01 2.221894999999999982e+03
5.500000000000000028e-02 2.072884999999999867e-01 -8.962550000000000239e-01 3.216469999999999629e+01 2.221090000000000146e+03
5.600000000000000117e-02 2.071925000000000017e-01 -1.837758000000000003e+00 3.013739999999999952e+01 2.220420000000000073e+03
5.700000000000000205e-02 2.071204999999999852e-01 -2.494264999999999954e+00 2.883180000000000121e+01 2.219899999999999636e+03
5.800000000000000294e-02 2.070764999999999967e-01 -2.822510000000000296e+00 2.835329999999999728e+01 2.219574999999999818e+03
5.900000000000000383e-02 2.070635000000000114e-01 -2.791844999999999910e+00 2.877929999999999922e+01 2.219460000000000036e+03
6.000000000000000472e-02 2.070835000000000037e-01 -2.387809999999999988e+00 3.014654999999999774e+01 2.219574999999999818e+03
6.099999999999999867e-02 2.071389999999999898e-01 -1.613742999999999927e+00 3.244389999999999930e+01 2.219925000000000182e+03
6.199999999999999956e-02 2.072275000000000089e-01 -4.904749999999999943e-01 3.561189999999999856e+01 2.220510000000000218e+03
6.300000000000000044e-02 2.073464999999999892e-01 9.455649999999999888e-01 3.954755000000000109e+01 2.221315000000000055e+03
6.400000000000000133e-02 2.074940000000000118e-01 2.645437499999999886e+00 4.411415000000000219e+01 2.222305000000000291e+03
6.500000000000000222e-02 2.076635000000000009e-01 4.551362499999999756e+00 4.915285000000000082e+01 2.223460000000000036e+03
6.600000000000000311e-02 2.078494999999999926e-01 6.600649999999999906e+00 5.449474999999999625e+01 2.224734999999999673e+03
6.700000000000000400e-02 2.080465000000000231e-01 8.729670000000000485e+00 5.997310000000000230e+01 2.226095000000000255e+03
6.800000000000000488e-02 2.082490000000000174e-01 1.087765999999999877e+01 6.543420000000000414e+01 2.227489999999999782e+03
6.900000000000000577e-02 2.084509999999999974e-01 1.299020999999999937e+01 7.074694999999999823e+01 2.228894999999999982e+03
7.000000000000000666e-02 2.086490000000000011e-01 1.502229999999999954e+01 7.581029999999999802e+01 2.230274999999999636e+03
7.100000000000000755e-02 2.088379999999999959e-01 1.694055000000000177e+01 8.055870000000000175e+01 2.231605000000000018e+03
7.200000000000000844e-02 2.090175000000000227e-01 1.872400000000000020e+01 8.496379999999999200e+01 2.232864999999999782e+03
7.300000000000000933e-02 2.091859999999999831e-01 2.036465000000000103e+01 8.903289999999999793e+01 2.234054999999999836e+03
7.399999999999999634e-02 2.093439999999999745e-01 2.186574999999999847e+01 9.280389999999999873e+01 2.235170000000000073e+03
7.499999999999999722e-02 2.094920000000000115e-01 2.323969999999999914e+01 9.633745000000000402e+01 2.236219999999999800e+03
7.599999999999999811e-02 2.096330000000000138e-01 2.450524999999999665e+01 9.970650000000000546e+01 2.237220000000000255e+03
7.699999999999999900e-02 2.097689999999999833e-01 2.568435000000000201e+01 1.029871499999999997e+02 2.238184999999999945e+03
7.799999999999999989e-02 2.099020000000000052e-01 2.679915000000000092e+01 1.062500000000000000e+02 2.239130000000000109e+03
7.900000000000000078e-02 2.100349999999999995e-01 2.786955000000000027e+01 1.095504999999999995e+02 2.240074999999999818e+03
8.000000000000000167e-02 2.101695000000000091e-01 2.891125000000000256e+01 1.129269999999999925e+02 2.241025000000000091e+03
8.100000000000000255e-02 2.103059999999999929e-01 2.993484999999999729e+01 1.163965000000000032e+02 2.241989999999999782e+03
8.200000000000000344e-02 2.104455000000000076e-01 3.094509999999999650e+01 1.199575000000000102e+02 2.242975000000000364e+03
8.300000000000000433e-02 2.105874999999999830e-01 3.194120000000000203e+01 1.235889999999999986e+02 2.243984999999999673e+03
8.400000000000000522e-02 2.107315000000000160e-01 3.291704999999999615e+01 1.272554999999999978e+02 2.245000000000000000e+03
8.500000000000000611e-02 2.108749999999999791e-01 3.386249999999999716e+01 1.309099999999999966e+02 2.246014999999999873e+03
8.600000000000000699e-02 2.110179999999999834e-01 3.476380000000000337e+01 1.345000000000000000e+02 2.247034999999999854e+03
8.700000000000000788e-02 2.111580000000000124e-01 3.560500000000000398e+01 1.379685000000000059e+02 2.248024999999999636e+03
8.800000000000000877e-02 2.112920000000000076e-01 3.636889999999999645e+01 1.412580000000000098e+02 2.248975000000000364e+03
8.899999999999999578e-02 2.114194999999999824e-01 3.703815000000000168e+01 1.443140000000000214e+02 2.249885000000000218e+03
8.999999999999999667e-02 2.115374999999999894e-01 3.759645000000000437e+01 1.470885000000000105e+02 2.250730000000000018e+03
9.099999999999999756e-02 2.116445000000000132e-01 3.802929999999999922e+01 1.495395000000000039e+02 2.251494999999999891e+03
9.199999999999999845e-02 2.117394999999999972e-01 3.832540000000000191e+01 1.516365000000000123e+02 2.252179999999999836e+03
9.299999999999999933e-02 2.118214999999999959e-01 3.847695000000000221e+01 1.533584999999999923e+02 2.252764999999999873e+03
9.400000000000000022e-02 2.118884999999999796e-01 3.848069999999999879e+01 1.546995000000000005e+02 2.253255000000000109e+03
9.500000000000000111e-02 2.119424999999999781e-01 3.833814999999999884e+01 1.556639999999999873e+02 2.253649999999999636e+03
9.600000000000000200e-02 2.119820000000000038e-01 3.805570000000000164e+01 1.562704999999999984e+02 2.253940000000000055e+03
9.700000000000000289e-02 2.120080000000000020e-01 3.764405000000000001e+01 1.565504999999999995e+02 2.254140000000000327e+03
9.800000000000000377e-02 2.120225000000000026e-01 3.711820000000000164e+01 1.565424999999999898e+02 2.254255000000000109e+03
9.900000000000000466e-02 2.120259999999999923e-01 3.649609999999999843e+01 1.562959999999999923e+02 2.254289999999999964e+03
1.000000000000000056e-01 2.120210000000000150e-01 3.579784999999999684e+01 1.558615000000000066e+02 2.254265000000000327e+03
1.010000000000000064e-01 2.120090000000000030e-01 3.504474999999999341e+01 1.552934999999999945e+02 2.254184999999999945e+03
1.020000000000000073e-01 2.119920000000000138e-01 3.425800000000000267e+01 1.546440000000000055e+02 2.254070000000000164e+03
1.030000000000000082e-01 2.119715000000000071e-01 3.345799999999999841e+01 1.539610000000000127e+02 2.253930000000000291e+03
1.040000000000000091e-01 2.119495000000000129e-01 3.266329999999999956e+01 1.532870000000000061e+02 2.253775000000000091e+03
1.050000000000000100e-01 2.119280000000000053e-01 3.188974999999999937e+01 1.526575000000000273e+02 2.253625000000000000e+03
1.059999999999999970e-01 2.119070000000000120e-01 3.115024999999999977e+01 1.520989999999999895e+02 2.253475000000000364e+03
1.069999999999999979e-01 2.118885000000000074e-01 3.045390000000000086e+01 1.516270000000000095e+02 2.253340000000000146e+03
1.079999999999999988e-01 2.118720000000000048e-01 2.980604999999999905e+01 1.512495000000000118e+02 2.253225000000000364e+03
1.089999999999999997e-01 2.118595000000000061e-01 2.920799999999999841e+01 1.509624999999999773e+02 2.253130000000000109e+03
1.100000000000000006e-01 2.118490000000000095e-01 2.865709999999999980e+01 1.507540000000000191e+02 2.253055000000000291e+03
1.110000000000000014e-01 2.118410000000000015e-01 2.814724999999999966e+01 1.506025000000000205e+02 2.252989999999999782e+03
1.120000000000000023e-01 2.118344999999999811e-01 2.766910000000000025e+01 1.504814999999999827e+02 2.252945000000000164e+03
1.130000000000000032e-01 2.118285000000000029e-01 2.721114999999999995e+01 1.503559999999999945e+02 2.252900000000000091e+03
1.140000000000000041e-01 2.118224999999999969e-01 2.676014999999999944e+01 1.501915000000000191e+02 2.252845000000000255e+03
1.150000000000000050e-01 2.118140000000000023e-01 2.630245000000000033e+01 1.499504999999999768e+02 2.252784999999999854e+03
1.160000000000000059e-01 2.118019999999999903e-01 2.582469999999999999e+01 1.496000000000000227e+02 2.252704999999999927e+03
1.170000000000000068e-01 2.117864999999999887e-01 2.531469999999999843e+01 1.491100000000000136e+02 2.252590000000000146e+03
1.180000000000000077e-01 2.117654999999999954e-01 2.476259999999999906e+01 1.484574999999999818e+02 2.252444999999999709e+03
1.190000000000000085e-01 2.117379999999999818e-01 2.416134999999999877e+01 1.476279999999999859e+02 2.252255000000000109e+03
1.200000000000000094e-01 2.117045000000000177e-01 2.350710000000000122e+01 1.466170000000000186e+02 2.252019999999999982e+03
1.209999999999999964e-01 2.116645000000000054e-01 2.279995000000000260e+01 1.454284999999999854e+02 2.251735000000000127e+03
1.219999999999999973e-01 2.116180000000000005e-01 2.204344999999999999e+01 1.440780000000000030e+02 2.251409999999999854e+03
1.229999999999999982e-01 2.115655000000000174e-01 2.124499999999999744e+01 1.425900000000000034e+02 2.251045000000000073e+03
1.239999999999999991e-01 2.115084999999999882e-01 2.041515000000000057e+01 1.409964999999999975e+02 2.250644999999999982e+03
1.250000000000000000e-01 2.114484999999999837e-01 1.956694999999999851e+01 1.393365000000000009e+02 2.250220000000000255e+03
1.260000000000000009e-01 2.113859999999999906e-01 1.871535000000000082e+01 1.376519999999999868e+02 2.249779999999999745e+03
1.270000000000000018e-01 2.113224999999999965e-01 1.787634999999999863e+01 1.359865000000000066e+02 2.249335000000000036e+03
1.280000000000000027e-01 2.112600000000000033e-01 1.706585000000000107e+01 1.343840000000000146e+02 2.248889999999999873e+03
1.290000000000000036e-01 2.111999999999999988e-01 1.629910000000000281e+01 1.328830000000000098e+02 2.248465000000000146e+03
1.300000000000000044e-01 2.111439999999999984e-01 1.558970000000000056e+01 1.315184999999999889e+02 2.248070000000000164e+03
1.310000000000000053e-01 2.110930000000000029e-01 1.494890000000000008e+01 1.303174999999999955e+02 2.247699999999999818e+03
1.320000000000000062e-01 2.110480000000000134e-01 1.438540000000000063e+01 1.292990000000000066e+02 2.247380000000000109e+03
1.330000000000000071e-01 2.110090000000000021e-01 1.390465000000000018e+01 1.284749999999999943e+02 2.247095000000000255e+03
1.340000000000000080e-01 2.109779999999999989e-01 1.350914999999999999e+01 1.278485000000000014e+02 2.246869999999999891e+03
1.350000000000000089e-01 2.109530000000000016e-01 1.319835000000000136e+01 1.274124999999999943e+02 2.246690000000000055e+03
1.360000000000000098e-01 2.109354999999999980e-01 1.296900000000000119e+01 1.271580000000000013e+02 2.246559999999999945e+03
1.370000000000000107e-01 2.109245000000000148e-01 1.281530000000000058e+01 1.270660000000000025e+02 2.246475000000000364e+03
1.380000000000000115e-01 2.109199999999999964e-01 1.272974999999999923e+01 1.271159999999999997e+02 2.246430000000000291e+03
1.390000000000000124e-01 2.109195000000000098e-01 1.270319999999999894e+01 1.272840000000000060e+02 2.246430000000000291e+03
1.400000000000000133e-01 2.109240000000000004e-01 1.272560000000000002e+01 1.275455000000000041e+02 2.246449999999999818e+03
1.410000000000000142e-01 2.109320000000000084e-01 1.278644999999999854e+01 1.278739999999999952e+02 2.246505000000000109e+03
1.420000000000000151e-01 2.109425000000000050e-01 1.287515000000000143e+01 1.282460000000000093e+02 2.246569999999999709e+03
1.430000000000000160e-01 2.109544999999999892e-01 1.298145000000000060e+01 1.286374999999999886e+02 2.246654999999999745e+03
1.440000000000000169e-01 2.109674999999999745e-01 1.309574999999999889e+01 1.290280000000000200e+02 2.246744999999999891e+03
1.450000000000000178e-01 2.109805000000000152e-01 1.320945000000000036e+01 1.294000000000000057e+02 2.246835000000000036e+03
1.459999999999999909e-01 2.109935000000000005e-01 1.331524999999999892e+01 1.297395000000000209e+02 2.246920000000000073e+03
1.469999999999999918e-01 2.110049999999999981e-01 1.340709999999999980e+01 1.300345000000000084e+02 2.247005000000000109e+03
1.479999999999999927e-01 2.110154999999999947e-01 1.348065000000000069e+01 1.302794999999999845e+02 2.247074999999999818e+03
1.489999999999999936e-01 2.110239999999999894e-01 1.353299999999999947e+01 1.304694999999999823e+02 2.247140000000000327e+03
1.499999999999999944e-01 2.110305000000000097e-01 1.356289999999999907e+01 1.306055000000000064e+02 2.247189999999999600e+03
1.509999999999999953e-01 2.110354999999999870e-01 1.357049999999999912e+01 1.306904999999999859e+02 2.247224999999999909e+03
1.519999999999999962e-01 2.110385000000000177e-01 1.355730000000000146e+01 1.307309999999999945e+02 2.247250000000000000e+03
1.529999999999999971e-01 2.110405000000000197e-01 1.352595000000000169e+01 1.307344999999999970e+02 2.247265000000000327e+03
1.539999999999999980e-01 2.110410000000000064e-01 1.347995000000000054e+01 1.307130000000000223e+02 2.247269999999999982e+03
1.549999999999999989e-01 2.110409999999999786e-01 1.342314999999999969e+01 1.306750000000000114e+02 2.247269999999999982e+03
1.559999999999999998e-01 2.110400000000000054e-01 1.335984999999999978e+01 1.306335000000000264e+02 2.247269999999999982e+03
1.570000000000000007e-01 2.110394999999999910e-01 1.329415000000000013e+01 1.305970000000000084e+02 2.247260000000000218e+03
1.580000000000000016e-01 2.110389999999999766e-01 1.322959999999999958e+01 1.305740000000000123e+02 2.247260000000000218e+03
1.590000000000000024e-01 2.110384999999999900e-01 1.316924999999999990e+01 1.305709999999999980e+02 2.247255000000000109e+03
