# t [s], A [cm^2], U [cm/s], P [cPa], c [cm/s]
1.000000000000000021e-03 6.860619999999999497e-01 1.770000000000000739e-03 9.019944999999999879e+01 1.708825000000000045e+03
2.000000000000000042e-03 6.860664999999999125e-01 2.701215000000000213e-02 9.018940000000000623e+01 1.708820000000000164e+03
3.000000000000000062e-03 6.861574999999999758e-01 2.007921500000000026e-01 9.038615000000000066e+01 1.708865000000000009e+03
4.000000000000000083e-03 6.861604999999999510e-01 2.358210000000000028e-01 9.040959999999999752e+01 1.708875000000000000e+03
5.000000000000000104e-03 6.860675000000000523e-01 9.643849999999998257e-02 9.010570000000001301e+01 1.708809999999999945e+03
6.000000000000000125e-03 6.859690000000000509e-01 -6.965499999999991143e-02 8.963884999999999081e+01 1.708704999999999927e+03
7.000000000000000146e-03 6.858109999999999484e-01 -3.595800000000001218e-01 8.891235000000000355e+01 1.708545000000000073e+03
8.000000000000000167e-03 6.855439999999999312e-01 -8.655050000000000798e-01 8.775610000000000355e+01 1.708289999999999964e+03
9.000000000000001055e-03 6.851705000000000156e-01 -1.571569999999999911e+00 8.611910000000000309e+01 1.707914999999999964e+03
1.000000000000000194e-02 6.846624999999999517e-01 -2.504789999999999850e+00 8.390885000000000105e+01 1.707404999999999973e+03
1.099999999999999936e-02 6.840135000000000520e-01 -3.645260000000000389e+00 8.108574999999999022e+01 1.706735000000000127e+03
1.200000000000000025e-02 6.833100000000000840e-01 -4.797464999999999868e+00 7.787350000000000705e+01 1.705954999999999927e+03
1.300000000000000114e-02 6.826919999999999655e-01 -5.660775700000000299e+00 7.473224999999999341e+01 1.705164999999999964e+03
1.400000000000000203e-02 6.822574999999999612e-01 -6.011534999999999407e+00 7.211124999999999829e+01 1.704454999999999927e+03
1.499999999999999944e-02 6.820139999999998981e-01 -5.811020000000000074e+00 7.022845000000000937e+01 1.703880000000000109e+03
1.600000000000000033e-02 6.818910000000000249e-01 -5.193649999999999878e+00 6.900769999999999982e+01 1.703454999999999927e+03
1.700000000000000122e-02 6.817849999999999744e-01 -4.383594999999999686e+00 6.815409999999999968e+01 1.703115000000000009e+03
1.800000000000000211e-02 6.816065000000000040e-01 -3.591719999999999580e+00 6.730395000000000039e+01 1.702795000000000073e+03
1.900000000000000300e-02 6.813145000000000451e-01 -2.934992499999999893e+00 6.618070000000000164e+01 1.702434999999999945e+03
2.000000000000000042e-02 6.809235000000000149e-01 -2.412308499999999967e+00 6.468665000000000020e+01 1.702000000000000000e+03
2.100000000000000130e-02 6.804805000000000437e-01 -1.944080000000000030e+00 6.289225000000000421e+01 1.701500000000000000e+03
2.200000000000000219e-02 6.800344999999999862e-01 -1.444694999999999840e+00 6.094525000000000148e+01 1.700954999999999927e+03
2.299999999999999961e-02 6.796054999999999735e-01 -8.840600000000002900e-01 5.896325000000000216e+01 1.700400000000000091e+03
2.400000000000000050e-02 6.791770000000000307e-01 -3.130100000000002325e-01 5.696115000000000350e+01 1.699829999999999927e+03
2.500000000000000139e-02 6.787039999999999740e-01 1.483750000000001457e-01 5.483355000000000246e+01 1.699220000000000027e+03
2.600000000000000228e-02 6.781269999999999243e-01 3.478550000000000253e-01 5.238715000000000543e+01 1.698545000000000073e+03
2.700000000000000316e-02 6.773955000000000393e-01 1.489199999999999413e-01 4.940739999999999554e+01 1.697755000000000109e+03
2.800000000000000058e-02 6.764844999999999331e-01 -5.250900000000005008e-01 4.573675000000000068e+01 1.696805000000000064e+03
2.900000000000000147e-02 6.754059999999999508e-01 -1.664074999999999527e+00 4.133960000000000434e+01 1.695695000000000164e+03
3.000000000000000236e-02 6.742075000000000706e-01 -3.170294999999999419e+00 3.633135000000000048e+01 1.694434999999999945e+03
3.099999999999999978e-02 6.729650000000000354e-01 -4.881640000000000867e+00 3.096434999999999960e+01 1.693070000000000164e+03
3.200000000000000067e-02 6.717625000000000401e-01 -6.608425000000000438e+00 2.557945000000000135e+01 1.691679999999999836e+03
3.300000000000000155e-02 6.706790000000000251e-01 -8.169725000000001458e+00 2.054309500000000099e+01 1.690340000000000146e+03
3.400000000000000244e-02 6.697774999999999146e-01 -9.419615999999999545e+00 1.618881999999999977e+01 1.689144999999999982e+03
3.500000000000000333e-02 6.691009999999999458e-01 -1.025988000000000078e+01 1.277493500000000104e+01 1.688150000000000091e+03
3.600000000000000422e-02 6.686695000000000277e-01 -1.064046000000000092e+01 1.046328000000000102e+01 1.687409999999999854e+03
3.700000000000000511e-02 6.684849999999999959e-01 -1.055100000000000016e+01 9.318545000000000300e+00 1.686954999999999927e+03
3.799999999999999906e-02 6.685349999999999904e-01 -1.000831499999999963e+01 9.323119999999999408e+00 1.686789999999999964e+03
3.899999999999999994e-02 6.688004999999999090e-01 -9.043939999999999202e+00 1.040024999999999977e+01 1.686900000000000091e+03
4.000000000000000083e-02 6.692584999999999784e-01 -7.695394999999999541e+00 1.243825500000000162e+01 1.687279999999999973e+03
4.100000000000000172e-02 6.698830000000000062e-01 -6.002589999999999648e+00 1.530878000000000050e+01 1.687880000000000109e+03
4.200000000000000261e-02 6.706484999999999808e-01 -4.008924999999999628e+00 1.887716999999999956e+01 1.688690000000000055e+03
4.300000000000000350e-02 6.715269999999999850e-01 -1.764440000000000452e+00 2.300533500000000231e+01 1.689664999999999964e+03
4.400000000000000439e-02 6.724894999999999623e-01 6.710499999999992582e-01 2.755072499999999991e+01 1.690769999999999982e+03
4.499999999999999833e-02 6.735035000000000327e-01 3.227484999999999715e+00 3.236544999999999561e+01 1.691965000000000146e+03
4.599999999999999922e-02 6.745345000000000368e-01 5.827070000000000860e+00 3.729775000000000063e+01 1.693224999999999909e+03
4.700000000000000011e-02 6.755510000000000126e-01 8.389355000000000118e+00 4.219774999999999920e+01 1.694494999999999891e+03
4.800000000000000100e-02 6.765229999999999855e-01 1.083810000000000073e+01 4.692575000000000074e+01 1.695750000000000000e+03
4.900000000000000189e-02 6.774265000000000425e-01 1.310743499999999884e+01 5.136214999999999975e+01 1.696950000000000045e+03
5.000000000000000278e-02 6.782445000000000279e-01 1.514728999999999992e+01 5.541610000000000014e+01 1.698075000000000045e+03
5.100000000000000366e-02 6.789689999999999337e-01 1.692629999999999768e+01 5.903190000000000026e+01 1.699105000000000018e+03
5.200000000000000455e-02 6.795999999999999819e-01 1.843245000000000289e+01 6.219145000000000323e+01 1.700025000000000091e+03
5.300000000000000544e-02 6.801455000000000695e-01 1.967164999999999964e+01 6.491264999999999930e+01 1.700845000000000027e+03
5.399999999999999939e-02 6.806164999999999576e-01 2.066489999999999938e+01 6.724469999999999459e+01 1.701565000000000055e+03
5.500000000000000028e-02 6.810325000000000406e-01 2.144460000000000122e+01 6.926080000000000325e+01 1.702199999999999818e+03
5.600000000000000117e-02 6.814104999999999190e-01 2.205089999999999861e+01 7.105025000000000546e+01 1.702769999999999982e+03
5.700000000000000205e-02 6.817725000000000035e-01 2.252870000000000061e+01 7.271084999999999354e+01 1.703299999999999955e+03
5.800000000000000294e-02 6.821380000000000221e-01 2.292470000000000141e+01 7.434135000000000559e+01 1.703809999999999945e+03
5.900000000000000383e-02 6.825259999999999661e-01 2.328494999999999848e+01 7.603585000000001060e+01 1.704324999999999818e+03
6.000000000000000472e-02 6.829534999999999911e-01 2.365279999999999916e+01 7.787855000000000416e+01 1.704865000000000009e+03
6.099999999999999867e-02 6.834324999999999983e-01 2.406625000000000014e+01 7.993895000000000550e+01 1.705454999999999927e+03
6.199999999999999956e-02 6.839735000000000120e-01 2.455555000000000021e+01 8.226794999999999902e+01 1.706099999999999909e+03
6.300000000000000044e-02 6.845805000000000362e-01 2.514119999999999777e+01 8.489410000000000878e+01 1.706815000000000055e+03
6.400000000000000133e-02 6.852525000000000421e-01 2.583174999999999955e+01 8.782104999999999961e+01 1.707610000000000127e+03
6.500000000000000222e-02 6.859819999999999807e-01 2.662330000000000041e+01 9.102635000000000787e+01 1.708470000000000027e+03
6.600000000000000311e-02 6.867569999999999508e-01 2.749954999999999927e+01 9.446254999999999313e+01 1.709389999999999873e+03
6.700000000000000400e-02 6.875610000000000888e-01 2.843315000000000126e+01 9.805915000000000248e+01 1.710360000000000127e+03
6.800000000000000488e-02 6.883740000000000414e-01 2.938804999999999978e+01 1.017284500000000094e+02 1.711355000000000018e+03
6.900000000000000577e-02 6.891745000000000232e-01 3.032265000000000299e+01 1.053714500000000100e+02 1.712349999999999909e+03
7.000000000000000666e-02 6.899395000000000389e-01 3.119324999999999903e+01 1.088855000000000075e+02 1.713324999999999818e+03
7.100000000000000755e-02 6.906490000000000684e-01 3.195729999999999649e+01 1.121705000000000041e+02 1.714255000000000109e+03
7.200000000000000844e-02 6.912850000000000383e-01 3.257675000000000409e+01 1.151384999999999934e+02 1.715110000000000127e+03
7.300000000000000933e-02 6.918324999999999614e-01 3.302020000000000266e+01 1.177144999999999868e+02 1.715865000000000009e+03
7.399999999999999634e-02 6.922829999999999817e-01 3.326510000000000389e+01 1.198460000000000036e+02 1.716519999999999982e+03
7.499999999999999722e-02 6.926315000000000666e-01 3.329854999999999876e+01 1.215030000000000001e+02 1.717049999999999955e+03
7.599999999999999811e-02 6.928775000000000350e-01 3.311760000000000304e+01 1.226784999999999997e+02 1.717454999999999927e+03
7.699999999999999900e-02 6.930264999999999898e-01 3.272944999999999993e+01 1.233880000000000052e+02 1.717740000000000009e+03
7.799999999999999989e-02 6.930860000000000909e-01 3.214979999999999905e+01 1.236670000000000016e+02 1.717909999999999854e+03
7.900000000000000078e-02 6.930695000000000050e-01 3.140254999999999797e+01 1.235685000000000002e+02 1.717969999999999800e+03
8.000000000000000167e-02 6.929905000000000648e-01 3.051729999999999876e+01 1.231589999999999918e+02 1.717940000000000055e+03
8.100000000000000255e-02 6.928655000000000230e-01 2.952840000000000131e+01 1.225130000000000052e+02 1.717835000000000036e+03
8.200000000000000344e-02 6.927109999999999657e-01 2.847225000000000250e+01 1.217085000000000150e+02 1.717680000000000064e+03
8.300000000000000433e-02 6.925430000000000197e-01 2.738615000000000066e+01 1.208245000000000005e+02 1.717490000000000009e+03
8.400000000000000522e-02 6.923770000000000202e-01 2.630550000000000210e+01 1.199354999999999905e+02 1.717284999999999854e+03
8.500000000000000611e-02 6.922260000000000080e-01 2.526304999999999978e+01 1.191069999999999993e+02 1.717079999999999927e+03
8.600000000000000699e-02 6.921015000000000361e-01 2.428654999999999831e+01 1.183949999999999960e+02 1.716894999999999982e+03
8.700000000000000788e-02 6.920109999999999317e-01 2.339780000000000015e+01 1.178410000000000082e+02 1.716744999999999891e+03
8.800000000000000877e-02 6.919600000000000195e-01 2.261195000000000022e+01 1.174724999999999966e+02 1.716630000000000109e+03
8.899999999999999578e-02 6.919494999999999951e-01 2.193684999999999974e+01 1.173010000000000019e+02 1.716565000000000055e+03
8.999999999999999667e-02 6.919779999999999820e-01 2.137310000000000088e+01 1.173245000000000005e+02 1.716545000000000073e+03
9.099999999999999756e-02 6.920414999999999761e-01 2.091450000000000031e+01 1.175254999999999939e+02 1.716570000000000164e+03
9.199999999999999845e-02 6.921329999999999982e-01 2.054860000000000042e+01 1.178750000000000000e+02 1.716639999999999873e+03
9.299999999999999933e-02 6.922435000000000116e-01 2.025779999999999959e+01 1.183344999999999914e+02 1.716735000000000127e+03
9.400000000000000022e-02 6.923634999999999096e-01 2.002090000000000103e+01 1.188580000000000041e+02 1.716849999999999909e+03
9.500000000000000111e-02 6.924820000000000420e-01 1.981409999999999982e+01 1.193960000000000008e+02 1.716980000000000018e+03
9.600000000000000200e-02 6.925879999999999814e-01 1.961269999999999669e+01 1.198965000000000032e+02 1.717105000000000018e+03
9.700000000000000289e-02 6.926719999999999544e-01 1.939274999999999949e+01 1.203125000000000000e+02 1.717210000000000036e+03
9.800000000000000377e-02 6.927250000000000352e-01 1.913230000000000075e+01 1.205995000000000061e+02 1.717289999999999964e+03
9.900000000000000466e-02 6.927404999999999813e-01 1.881264999999999787e+01 1.207214999999999918e+02 1.717335000000000036e+03
1.000000000000000056e-01 6.927134999999999820e-01 1.841949999999999932e+01 1.206525000000000034e+02 1.717329999999999927e+03
1.010000000000000064e-01 6.926409999999999512e-01 1.794364999999999810e+01 1.203769999999999953e+02 1.717280000000000200e+03
1.020000000000000073e-01 6.925235000000000696e-01 1.738150000000000261e+01 1.198909999999999911e+02 1.717164999999999964e+03
1.030000000000000082e-01 6.923639999999999795e-01 1.673519999999999897e+01 1.192019999999999982e+02 1.717005000000000109e+03
1.040000000000000091e-01 6.921664999999999068e-01 1.601229999999999976e+01 1.183310000000000031e+02 1.716799999999999955e+03
1.050000000000000100e-01 6.919390000000000818e-01 1.522569999999999979e+01 1.173054999999999950e+02 1.716545000000000073e+03
1.059999999999999970e-01 6.916884999999999284e-01 1.439230500000000035e+01 1.161634999999999991e+02 1.716259999999999991e+03
1.069999999999999979e-01 6.914270000000000138e-01 1.353262000000000143e+01 1.149500000000000028e+02 1.715949999999999818e+03
1.079999999999999988e-01 6.911629999999999718e-01 1.266924500000000009e+01 1.137125000000000057e+02 1.715630000000000109e+03
1.089999999999999997e-01 6.909069999999999379e-01 1.182556499999999922e+01 1.124989999999999952e+02 1.715304999999999836e+03
1.100000000000000006e-01 6.906700000000000061e-01 1.102472000000000030e+01 1.113575000000000017e+02 1.714994999999999891e+03
1.110000000000000014e-01 6.904600000000000737e-01 1.028796999999999962e+01 1.103309999999999889e+02 1.714710000000000036e+03
1.120000000000000023e-01 6.902844999999999676e-01 9.633749999999999147e+00 1.094559999999999889e+02 1.714460000000000036e+03
1.130000000000000032e-01 6.901490000000000125e-01 9.076755000000000351e+00 1.087614999999999981e+02 1.714244999999999891e+03
1.140000000000000041e-01 6.900570000000000315e-01 8.627040000000000930e+00 1.082659999999999911e+02 1.714090000000000146e+03
1.150000000000000050e-01 6.900090000000000945e-01 8.289870000000000516e+00 1.079774999999999920e+02 1.713974999999999909e+03
1.160000000000000059e-01 6.900040000000000617e-01 8.065450000000000230e+00 1.078965000000000032e+02 1.713914999999999964e+03
1.170000000000000068e-01 6.900394999999999168e-01 7.949279999999999902e+00 1.080090000000000003e+02 1.713909999999999854e+03
1.180000000000000077e-01 6.901094999999999313e-01 7.932459999999999845e+00 1.082974999999999994e+02 1.713954999999999927e+03
1.190000000000000085e-01 6.902094999999999203e-01 8.002435000000000187e+00 1.087334999999999923e+02 1.714039999999999964e+03
1.200000000000000094e-01 6.903314999999999868e-01 8.143754999999998745e+00 1.092854999999999990e+02 1.714155000000000200e+03
1.209999999999999964e-01 6.904684999999999295e-01 8.339005000000000223e+00 1.099180000000000064e+02 1.714300000000000182e+03
1.219999999999999973e-01 6.906114999999999338e-01 8.569694999999999396e+00 1.105944999999999965e+02 1.714460000000000036e+03
1.229999999999999982e-01 6.907540000000000902e-01 8.817209999999999326e+00 1.112779999999999916e+02 1.714630000000000109e+03
1.239999999999999991e-01 6.908885000000000165e-01 9.063670000000000115e+00 1.119350000000000023e+02 1.714795000000000073e+03
1.250000000000000000e-01 6.910089999999999844e-01 9.292699999999999960e+00 1.125355000000000132e+02 1.714950000000000045e+03
1.260000000000000009e-01 6.911114999999999897e-01 9.490065000000001305e+00 1.130550000000000068e+02 1.715095000000000027e+03
1.270000000000000018e-01 6.911909999999999998e-01 9.644220000000000681e+00 1.134739999999999895e+02 1.715210000000000036e+03
1.280000000000000027e-01 6.912460000000000271e-01 9.746549999999999159e+00 1.137800000000000011e+02 1.715304999999999836e+03
1.290000000000000036e-01 6.912765000000000715e-01 9.791799999999998505e+00 1.139670000000000130e+02 1.715369999999999891e+03
1.300000000000000044e-01 6.912819999999999521e-01 9.777734999999999843e+00 1.140349999999999966e+02 1.715404999999999973e+03
1.310000000000000053e-01 6.912639999999999896e-01 9.705465000000000231e+00 1.139894999999999925e+02 1.715409999999999854e+03
1.320000000000000062e-01 6.912260000000000071e-01 9.578789999999999694e+00 1.138425000000000011e+02 1.715389999999999873e+03
1.330000000000000071e-01 6.911715000000000497e-01 9.404149999999999565e+00 1.136090000000000089e+02 1.715345000000000027e+03
1.340000000000000080e-01 6.911035000000000927e-01 9.189845000000000041e+00 1.133079999999999927e+02 1.715279999999999973e+03
1.350000000000000089e-01 6.910279999999999756e-01 8.945874999999999133e+00 1.129604999999999961e+02 1.715204999999999927e+03
1.360000000000000098e-01 6.909490000000000354e-01 8.682964999999999378e+00 1.125869999999999891e+02 1.715115000000000009e+03
1.370000000000000107e-01 6.908704999999999430e-01 8.412189999999998946e+00 1.122104999999999961e+02 1.715025000000000091e+03
1.380000000000000115e-01 6.907969999999999944e-01 8.144289999999999807e+00 1.118499999999999943e+02 1.714934999999999945e+03
1.390000000000000124e-01 6.907320000000000126e-01 7.889085000000000569e+00 1.115234999999999985e+02 1.714849999999999909e+03
1.400000000000000133e-01 6.906790000000000429e-01 7.655089999999999506e+00 1.112450000000000045e+02 1.714769999999999982e+03
1.410000000000000142e-01 6.906384999999999330e-01 7.449044999999999916e+00 1.110254999999999939e+02 1.714710000000000036e+03
1.420000000000000151e-01 6.906125000000000735e-01 7.275685000000000180e+00 1.108704999999999927e+02 1.714664999999999964e+03
1.430000000000000160e-01 6.906004999999999505e-01 7.137615000000000265e+00 1.107824999999999989e+02 1.714630000000000109e+03
1.440000000000000169e-01 6.906019999999999381e-01 7.035274999999999501e+00 1.107595000000000027e+02 1.714615000000000009e+03
1.450000000000000178e-01 6.906155000000000488e-01 6.967109999999999914e+00 1.107944999999999993e+02 1.714615000000000009e+03
1.459999999999999909e-01 6.906379999999999741e-01 6.929745000000000488e+00 1.108785000000000025e+02 1.714625000000000000e+03
1.469999999999999918e-01 6.906680000000000597e-01 6.918345000000000411e+00 1.110004999999999882e+02 1.714654999999999973e+03
1.479999999999999927e-01 6.907010000000000094e-01 6.926975000000000549e+00 1.111449999999999960e+02 1.714679999999999836e+03
1.489999999999999936e-01 6.907354999999999468e-01 6.948999999999999844e+00 1.112990000000000066e+02 1.714715000000000146e+03
1.499999999999999944e-01 6.907670000000000199e-01 6.977529999999999788e+00 1.114480000000000075e+02 1.714750000000000000e+03
1.509999999999999953e-01 6.907940000000000191e-01 7.005810000000000315e+00 1.115785000000000053e+02 1.714784999999999854e+03
1.519999999999999962e-01 6.908134999999999692e-01 7.027614999999999945e+00 1.116790000000000020e+02 1.714809999999999945e+03
1.529999999999999971e-01 6.908235000000000348e-01 7.037575000000000358e+00 1.117395000000000067e+02 1.714824999999999818e+03
1.539999999999999980e-01 6.908229999999999649e-01 7.031435000000000102e+00 1.117535000000000025e+02 1.714829999999999927e+03
1.549999999999999989e-01 6.908110000000000639e-01 7.006269999999999776e+00 1.117175000000000011e+02 1.714829999999999927e+03
1.559999999999999998e-01 6.907885000000000275e-01 6.960585000000000022e+00 1.116304999999999978e+02 1.714809999999999945e+03
1.570000000000000007e-01 6.907559999999999256e-01 6.894355000000000899e+00 1.114950000000000045e+02 1.714775000000000091e+03
1.580000000000000016e-01 6.907140000000000502e-01 6.808984999999999843e+00 1.113164999999999907e+02 1.714735000000000127e+03
1.590000000000000024e-01 6.906654999999999323e-01 6.707209999999999894e+00 1.111029999999999944e+02 1.714680000000000064e+03
