# t [s], A [cm^2], U [cm/s], P [cPa], c [cm/s]
1.000000000000000021e-03 1.822229999999999961e-01 5.200714499999999907e-01 8.515909999999999513e+01 2.151250000000000000e+03
2.000000000000000042e-03 1.821554999999999980e-01 2.156467000000000134e+00 8.112665000000001214e+01 2.150635000000000218e+03
3.000000000000000062e-03 1.820070000000000021e-01 4.093008000000000202e+00 7.594785000000000252e+01 2.149319999999999709e+03
4.000000000000000083e-03 1.818250000000000144e-01 6.266495000000000815e+00 7.110275000000000034e+01 2.147715000000000146e+03
5.000000000000000104e-03 1.816470000000000029e-01 8.516054999999999708e+00 6.739449999999999363e+01 2.146164999999999964e+03
6.000000000000000125e-03 1.814830000000000054e-01 1.052566000000000024e+01 6.445919999999999561e+01 2.144755000000000109e+03
7.000000000000000146e-03 1.813325000000000076e-01 1.215140500000000046e+01 6.178650000000000375e+01 2.143489999999999782e+03
8.000000000000000167e-03 1.812015000000000153e-01 1.347029000000000210e+01 5.947169999999999845e+01 2.142404999999999745e+03
9.000000000000001055e-03 1.810920000000000030e-01 1.453079999999999927e+01 5.763554999999999495e+01 2.141515000000000327e+03
1.000000000000000194e-02 1.810045000000000126e-01 1.534510000000000041e+01 5.619849999999999568e+01 2.140805000000000291e+03
1.099999999999999936e-02 1.809350000000000125e-01 1.593815000000000026e+01 5.508419999999999561e+01 2.140260000000000218e+03
1.200000000000000025e-02 1.808799999999999852e-01 1.631615000000000038e+01 5.417010000000000502e+01 2.139829999999999927e+03
1.300000000000000114e-02 1.808339999999999947e-01 1.651120000000000232e+01 5.334040000000000248e+01 2.139480000000000018e+03
1.400000000000000203e-02 1.807989999999999875e-01 1.667470000000000141e+01 5.279939999999999856e+01 2.139215000000000146e+03
1.499999999999999944e-02 1.807874999999999899e-01 1.705020000000000024e+01 5.314459999999999695e+01 2.139140000000000327e+03
1.600000000000000033e-02 1.808160000000000045e-01 1.781139999999999901e+01 5.494790000000000418e+01 2.139375000000000000e+03
1.700000000000000122e-02 1.808909999999999962e-01 1.891850000000000165e+01 5.821859999999999502e+01 2.139984999999999673e+03
1.800000000000000211e-02 1.809999999999999942e-01 2.011144999999999783e+01 6.222149999999999892e+01 2.140880000000000109e+03
1.900000000000000300e-02 1.811174999999999868e-01 2.103229999999999933e+01 6.576675000000000182e+01 2.141850000000000364e+03
2.000000000000000042e-02 1.812094999999999956e-01 2.138965000000000316e+01 6.774854999999999450e+01 2.142630000000000109e+03
2.100000000000000130e-02 1.812539999999999984e-01 2.107805000000000106e+01 6.761979999999999791e+01 2.143030000000000200e+03
2.200000000000000219e-02 1.812420000000000142e-01 2.020250000000000057e+01 6.557649999999999579e+01 2.142970000000000255e+03
2.299999999999999961e-02 1.811840000000000117e-01 1.900925000000000153e+01 6.239849999999999852e+01 2.142519999999999982e+03
2.400000000000000050e-02 1.811020000000000130e-01 1.776845000000000141e+01 5.906020000000000181e+01 2.141864999999999782e+03
2.500000000000000139e-02 1.810169999999999835e-01 1.666920000000000002e+01 5.632429999999999382e+01 2.141164999999999964e+03
2.600000000000000228e-02 1.809459999999999957e-01 1.577064999999999984e+01 5.450140000000000384e+01 2.140574999999999818e+03
2.700000000000000316e-02 1.808934999999999849e-01 1.501684999999999981e+01 5.344265000000000043e+01 2.140125000000000000e+03
2.800000000000000058e-02 1.808535000000000004e-01 1.429420000000000002e+01 5.271630000000000393e+01 2.139789999999999964e+03
2.900000000000000147e-02 1.808164999999999911e-01 1.350094999999999956e+01 5.186084999999999923e+01 2.139485000000000127e+03
3.000000000000000236e-02 1.807739999999999903e-01 1.260135000000000005e+01 5.060585000000000377e+01 2.139140000000000327e+03
3.099999999999999978e-02 1.807225000000000081e-01 1.164753499999999953e+01 4.898814999999999742e+01 2.138719999999999800e+03
3.200000000000000067e-02 1.806670000000000220e-01 1.076396000000000086e+01 4.733449999999999847e+01 2.138265000000000327e+03
3.300000000000000155e-02 1.806169999999999998e-01 1.010349000000000075e+01 4.612805000000000177e+01 2.137845000000000255e+03
3.400000000000000244e-02 1.805859999999999965e-01 9.791460000000000719e+00 4.581779999999999831e+01 2.137579999999999927e+03
3.500000000000000333e-02 1.805849999999999955e-01 9.879260000000000375e+00 4.664329999999999643e+01 2.137555000000000291e+03
3.600000000000000422e-02 1.806165000000000131e-01 1.032334499999999977e+01 4.853669999999999618e+01 2.137789999999999964e+03
3.700000000000000511e-02 1.806765000000000176e-01 1.099225000000000030e+01 5.112720000000000198e+01 2.138264999999999873e+03
3.799999999999999906e-02 1.807524999999999826e-01 1.169719999999999871e+01 5.383360000000000412e+01 2.138875000000000000e+03
3.899999999999999994e-02 1.808275000000000021e-01 1.223365000000000080e+01 5.600534999999999997e+01 2.139484999999999673e+03
4.000000000000000083e-02 1.808825000000000016e-01 1.242089999999999961e+01 5.706619999999999493e+01 2.139949999999999818e+03
4.100000000000000172e-02 1.809029999999999805e-01 1.213135000000000119e+01 5.662160000000000082e+01 2.140125000000000000e+03
4.200000000000000261e-02 1.808774999999999966e-01 1.130488000000000071e+01 5.451215000000000543e+01 2.139929999999999836e+03
4.300000000000000350e-02 1.808009999999999895e-01 9.948119999999999408e+00 5.080920000000000414e+01 2.139319999999999709e+03
4.400000000000000439e-02 1.806765000000000176e-01 8.122714999999999463e+00 4.576735000000000042e+01 2.138315000000000055e+03
4.499999999999999833e-02 1.805105000000000182e-01 5.928424999999999834e+00 3.975430000000000064e+01 2.136965000000000146e+03
4.599999999999999922e-02 1.803135000000000154e-01 3.485175000000000356e+00 3.318004999999999427e+01 2.135355000000000018e+03
4.700000000000000011e-02 1.800970000000000071e-01 9.190499999999999226e-01 2.644169999999999732e+01 2.133585000000000036e+03
4.800000000000000100e-02 1.798724999999999907e-01 -1.646799999999999820e+00 1.989140000000000086e+01 2.131744999999999891e+03
4.900000000000000189e-02 1.796515000000000195e-01 -4.096670999999999729e+00 1.382586000000000048e+01 2.129929999999999836e+03
5.000000000000000278e-02 1.794439999999999924e-01 -6.323830000000000062e+00 8.490653550000001104e+00 2.128215000000000146e+03
5.100000000000000366e-02 1.792584999999999873e-01 -8.230869999999999465e+00 4.090650000000000119e+00 2.126680000000000291e+03
5.200000000000000455e-02 1.791024999999999978e-01 -9.730909999999999727e+00 7.983699999999998020e-01 2.125385000000000218e+03
5.300000000000000544e-02 1.789830000000000032e-01 -1.074973500000000115e+01 -1.243879999999999875e+00 2.124385000000000218e+03
5.399999999999999939e-02 1.789049999999999807e-01 -1.123029999999999973e+01 -1.929644999999999833e+00 2.123715000000000146e+03
5.500000000000000028e-02 1.788724999999999898e-01 -1.113694999999999879e+01 -1.199327000000000032e+00 2.123420000000000073e+03
5.600000000000000117e-02 1.788879999999999915e-01 -1.046019000000000077e+01 9.474120000000000319e-01 2.123515000000000327e+03
5.700000000000000205e-02 1.789509999999999990e-01 -9.218890000000000029e+00 4.442560000000000286e+00 2.123994999999999891e+03
5.800000000000000294e-02 1.790605000000000113e-01 -7.460324999999999207e+00 9.147845000000000226e+00 2.124850000000000364e+03
5.900000000000000383e-02 1.792104999999999948e-01 -5.257090000000000707e+00 1.486198500000000067e+01 2.126055000000000291e+03
6.000000000000000472e-02 1.793959999999999999e-01 -2.701315000000000133e+00 2.133620000000000161e+01 2.127550000000000182e+03
6.099999999999999867e-02 1.796085000000000043e-01 1.026850000000001373e-01 2.829554999999999865e+01 2.129274999999999636e+03
6.199999999999999956e-02 1.798399999999999999e-01 3.046210000000000306e+00 3.546189999999999998e+01 2.131154999999999745e+03
6.300000000000000044e-02 1.800800000000000178e-01 6.023394499999999319e+00 4.257505000000000450e+01 2.133125000000000000e+03
6.400000000000000133e-02 1.803215000000000234e-01 8.937124999999999986e+00 4.940845000000000198e+01 2.135114999999999782e+03
6.500000000000000222e-02 1.805574999999999819e-01 1.170334500000000055e+01 5.578014999999999901e+01 2.137064999999999600e+03
6.600000000000000311e-02 1.807795000000000096e-01 1.425421499999999853e+01 6.155764999999999532e+01 2.138920000000000073e+03
6.700000000000000400e-02 1.809854999999999936e-01 1.654009999999999891e+01 6.665919999999999845e+01 2.140635000000000218e+03
6.800000000000000488e-02 1.811705000000000121e-01 1.853045000000000186e+01 7.105324999999999136e+01 2.142190000000000055e+03
6.900000000000000577e-02 1.813334999999999808e-01 2.021459999999999724e+01 7.475585000000000946e+01 2.143569999999999709e+03
7.000000000000000666e-02 1.814745000000000108e-01 2.160115000000000052e+01 7.782704999999999984e+01 2.144769999999999982e+03
7.100000000000000755e-02 1.815964999999999940e-01 2.271674999999999756e+01 8.036600000000001387e+01 2.145805000000000291e+03
7.200000000000000844e-02 1.817004999999999870e-01 2.360354999999999848e+01 8.250354999999998995e+01 2.146695000000000164e+03
7.300000000000000933e-02 1.817914999999999948e-01 2.431604999999999706e+01 8.439320000000000732e+01 2.147480000000000018e+03
7.399999999999999634e-02 1.818744999999999945e-01 2.491615000000000180e+01 8.619944999999999879e+01 2.148195000000000164e+03
7.499999999999999722e-02 1.819534999999999902e-01 2.546849999999999881e+01 8.808529999999998950e+01 2.148869999999999891e+03
7.599999999999999811e-02 1.820355000000000167e-01 2.603515000000000157e+01 9.019925000000000637e+01 2.149569999999999709e+03
7.699999999999999900e-02 1.821234999999999937e-01 2.667054999999999865e+01 9.266304999999999836e+01 2.150315000000000055e+03
7.799999999999999989e-02 1.822219999999999951e-01 2.741714999999999947e+01 9.556225000000000591e+01 2.151150000000000091e+03
7.900000000000000078e-02 1.823339999999999961e-01 2.830250000000000199e+01 9.893919999999999959e+01 2.152090000000000146e+03
8.000000000000000167e-02 1.824604999999999977e-01 2.933725000000000094e+01 1.027898500000000013e+02 2.153150000000000091e+03
8.100000000000000255e-02 1.826019999999999865e-01 3.051474999999999937e+01 1.070655000000000001e+02 2.154329999999999927e+03
8.200000000000000344e-02 1.827560000000000018e-01 3.181245000000000189e+01 1.116779999999999973e+02 2.155625000000000000e+03
8.300000000000000433e-02 1.829210000000000003e-01 3.319425000000000381e+01 1.165064999999999884e+02 2.157005000000000109e+03
8.400000000000000522e-02 1.830924999999999914e-01 3.461334999999999695e+01 1.214089999999999918e+02 2.158449999999999818e+03
8.500000000000000611e-02 1.832659999999999845e-01 3.601689999999999969e+01 1.262319999999999993e+02 2.159909999999999854e+03
8.600000000000000699e-02 1.834365000000000023e-01 3.734935000000000116e+01 1.308249999999999886e+02 2.161349999999999909e+03
8.700000000000000788e-02 1.835994999999999988e-01 3.855684999999999718e+01 1.350465000000000089e+02 2.162734999999999673e+03
8.800000000000000877e-02 1.837509999999999977e-01 3.959060000000000201e+01 1.387775000000000034e+02 2.164019999999999982e+03
8.899999999999999578e-02 1.838859999999999939e-01 4.040964999999999918e+01 1.419230000000000018e+02 2.165175000000000182e+03
8.999999999999999667e-02 1.840019999999999989e-01 4.098345000000000482e+01 1.444189999999999827e+02 2.166170000000000073e+03
9.099999999999999756e-02 1.840970000000000106e-01 4.129269999999999641e+01 1.462330000000000041e+02 2.166984999999999673e+03
9.199999999999999845e-02 1.841685000000000128e-01 4.133050000000000068e+01 1.473650000000000091e+02 2.167609999999999673e+03
9.299999999999999933e-02 1.842175000000000062e-01 4.110184999999999889e+01 1.478439999999999941e+02 2.168045000000000073e+03
9.400000000000000022e-02 1.842449999999999921e-01 4.062304999999999922e+01 1.477244999999999777e+02 2.168300000000000182e+03
9.500000000000000111e-02 1.842515000000000125e-01 3.992024999999999579e+01 1.470844999999999914e+02 2.168375000000000000e+03
9.600000000000000200e-02 1.842400000000000149e-01 3.902765000000000128e+01 1.460160000000000196e+02 2.168289999999999964e+03
9.700000000000000289e-02 1.842130000000000156e-01 3.798545000000000016e+01 1.446229999999999905e+02 2.168085000000000036e+03
9.800000000000000377e-02 1.841750000000000054e-01 3.683750000000000568e+01 1.430134999999999934e+02 2.167765000000000327e+03
9.900000000000000466e-02 1.841280000000000139e-01 3.562890000000000157e+01 1.412955000000000041e+02 2.167380000000000109e+03
1.000000000000000056e-01 1.840760000000000174e-01 3.440404999999999802e+01 1.395715000000000146e+02 2.166949999999999818e+03
1.010000000000000064e-01 1.840224999999999778e-01 3.320400000000000063e+01 1.379329999999999927e+02 2.166505000000000109e+03
1.020000000000000073e-01 1.839700000000000224e-01 3.206510000000000105e+01 1.364569999999999936e+02 2.166064999999999600e+03
1.030000000000000082e-01 1.839230000000000032e-01 3.101709999999999923e+01 1.352049999999999841e+02 2.165654999999999745e+03
1.040000000000000091e-01 1.838810000000000167e-01 3.008209999999999695e+01 1.342175000000000011e+02 2.165305000000000291e+03
1.050000000000000100e-01 1.838474999999999970e-01 2.927380000000000138e+01 1.335149999999999864e+02 2.165015000000000327e+03
1.059999999999999970e-01 1.838224999999999998e-01 2.859725000000000250e+01 1.330974999999999966e+02 2.164795000000000073e+03
1.069999999999999979e-01 1.838065000000000115e-01 2.804899999999999949e+01 1.329445000000000050e+02 2.164650000000000091e+03
1.079999999999999988e-01 1.837979999999999892e-01 2.761775000000000091e+01 1.330180000000000007e+02 2.164565000000000055e+03
1.089999999999999997e-01 1.837969999999999882e-01 2.728540000000000276e+01 1.332665000000000077e+02 2.164550000000000182e+03
1.100000000000000006e-01 1.838019999999999932e-01 2.702834999999999965e+01 1.336245000000000118e+02 2.164579999999999927e+03
1.110000000000000014e-01 1.838100000000000012e-01 2.681935000000000002e+01 1.340224999999999795e+02 2.164640000000000327e+03
1.120000000000000023e-01 1.838194999999999968e-01 2.662904999999999944e+01 1.343865000000000123e+02 2.164720000000000255e+03
1.130000000000000032e-01 1.838279999999999914e-01 2.642770000000000152e+01 1.346450000000000102e+02 2.164784999999999854e+03
1.140000000000000041e-01 1.838334999999999830e-01 2.618735000000000213e+01 1.347334999999999923e+02 2.164824999999999818e+03
1.150000000000000050e-01 1.838334999999999830e-01 2.588320000000000221e+01 1.345960000000000036e+02 2.164824999999999818e+03
1.160000000000000059e-01 1.838259999999999894e-01 2.549504999999999910e+01 1.341910000000000025e+02 2.164765000000000327e+03
1.170000000000000068e-01 1.838104999999999878e-01 2.500860000000000127e+01 1.334929999999999950e+02 2.164635000000000218e+03
1.180000000000000077e-01 1.837849999999999762e-01 2.441619999999999990e+01 1.324925000000000068e+02 2.164425000000000182e+03
1.190000000000000085e-01 1.837499999999999967e-01 2.371710000000000207e+01 1.311985000000000241e+02 2.164130000000000109e+03
1.200000000000000094e-01 1.837050000000000072e-01 2.291764999999999830e+01 1.296365000000000123e+02 2.163760000000000218e+03
1.209999999999999964e-01 1.836514999999999953e-01 2.203059999999999974e+01 1.278485000000000014e+02 2.163309999999999945e+03
1.219999999999999973e-01 1.835904999999999898e-01 2.107424999999999926e+01 1.258880000000000052e+02 2.162800000000000182e+03
1.229999999999999982e-01 1.835235000000000061e-01 2.007169999999999987e+01 1.238174999999999955e+02 2.162235000000000127e+03
1.239999999999999991e-01 1.834525000000000183e-01 1.904870000000000019e+01 1.217075000000000102e+02 2.161640000000000327e+03
1.250000000000000000e-01 1.833799999999999875e-01 1.803305000000000291e+01 1.196269999999999953e+02 2.161029999999999745e+03
1.260000000000000009e-01 1.833084999999999853e-01 1.705235000000000056e+01 1.176454999999999984e+02 2.160430000000000291e+03
1.270000000000000018e-01 1.832394999999999996e-01 1.613275000000000148e+01 1.158264999999999958e+02 2.159845000000000255e+03
1.280000000000000027e-01 1.831750000000000045e-01 1.529759999999999920e+01 1.142224999999999966e+02 2.159300000000000182e+03
1.290000000000000036e-01 1.831180000000000030e-01 1.456644999999999968e+01 1.128780000000000001e+02 2.158810000000000400e+03
1.300000000000000044e-01 1.830690000000000095e-01 1.395394999999999897e+01 1.118220000000000027e+02 2.158394999999999982e+03
1.310000000000000053e-01 1.830295000000000116e-01 1.346920000000000073e+01 1.110704999999999956e+02 2.158055000000000291e+03
1.320000000000000062e-01 1.829999999999999960e-01 1.311589999999999989e+01 1.106264999999999930e+02 2.157800000000000182e+03
1.330000000000000071e-01 1.829804999999999904e-01 1.289189999999999969e+01 1.104765000000000015e+02 2.157625000000000000e+03
1.340000000000000080e-01 1.829709999999999948e-01 1.278989999999999938e+01 1.105985000000000014e+02 2.157534999999999854e+03
1.350000000000000089e-01 1.829709999999999948e-01 1.279795000000000016e+01 1.109565000000000055e+02 2.157524999999999636e+03
1.360000000000000098e-01 1.829784999999999884e-01 1.290010000000000012e+01 1.115090000000000003e+02 2.157585000000000036e+03
1.370000000000000107e-01 1.829939999999999900e-01 1.307755000000000045e+01 1.122069999999999936e+02 2.157699999999999818e+03
1.380000000000000115e-01 1.830134999999999956e-01 1.330949999999999989e+01 1.130005000000000024e+02 2.157859999999999673e+03
1.390000000000000124e-01 1.830375000000000196e-01 1.357444999999999879e+01 1.138354999999999961e+02 2.158055000000000291e+03
1.400000000000000133e-01 1.830630000000000035e-01 1.385099999999999909e+01 1.146645000000000039e+02 2.158264999999999873e+03
1.410000000000000142e-01 1.830890000000000017e-01 1.411894999999999989e+01 1.154405000000000001e+02 2.158480000000000018e+03
1.420000000000000151e-01 1.831134999999999846e-01 1.436025000000000063e+01 1.161250000000000000e+02 2.158690000000000055e+03
1.430000000000000160e-01 1.831359999999999932e-01 1.455940000000000012e+01 1.166869999999999976e+02 2.158875000000000000e+03
1.440000000000000169e-01 1.831544999999999979e-01 1.470429999999999993e+01 1.171024999999999920e+02 2.159034999999999854e+03
1.450000000000000178e-01 1.831689999999999985e-01 1.478650000000000020e+01 1.173569999999999993e+02 2.159154999999999745e+03
1.459999999999999909e-01 1.831780000000000075e-01 1.480144999999999911e+01 1.174465000000000003e+02 2.159239999999999782e+03
1.469999999999999918e-01 1.831820000000000115e-01 1.474840000000000018e+01 1.173750000000000000e+02 2.159275000000000091e+03
1.479999999999999927e-01 1.831810000000000105e-01 1.463005000000000067e+01 1.171550000000000011e+02 2.159270000000000437e+03
1.489999999999999936e-01 1.831745000000000179e-01 1.445260000000000034e+01 1.168054999999999950e+02 2.159220000000000255e+03
1.499999999999999944e-01 1.831639999999999935e-01 1.422480000000000011e+01 1.163509999999999991e+02 2.159140000000000327e+03
1.509999999999999953e-01 1.831504999999999939e-01 1.395749999999999957e+01 1.158205000000000098e+02 2.159025000000000091e+03
1.519999999999999962e-01 1.831335000000000046e-01 1.366284999999999883e+01 1.152439999999999998e+02 2.158889999999999873e+03
1.529999999999999971e-01 1.831154999999999866e-01 1.335365000000000002e+01 1.146539999999999964e+02 2.158739999999999782e+03
1.539999999999999980e-01 1.830959999999999810e-01 1.304260000000000019e+01 1.140780000000000030e+02 2.158579999999999927e+03
1.549999999999999989e-01 1.830775000000000041e-01 1.274160000000000004e+01 1.135440000000000111e+02 2.158420000000000073e+03
1.559999999999999998e-01 1.830600000000000005e-01 1.246105000000000018e+01 1.130734999999999957e+02 2.158274999999999636e+03
1.570000000000000007e-01 1.830439999999999845e-01 1.220960000000000001e+01 1.126835000000000093e+02 2.158140000000000327e+03
1.580000000000000016e-01 1.830304999999999849e-01 1.199360000000000070e+01 1.123855000000000075e+02 2.158019999999999982e+03
1.590000000000000024e-01 1.830200000000000160e-01 1.181700000000000017e+01 1.121835000000000093e+02 2.157929999999999836e+03
