# t [s], A [cm^2], U [cm/s], P [cPa], c [cm/s]
1.000000000000000021e-03 5.718904999999999683e-01 5.572899999999998688e-03 1.074489999999999981e+02 1.568994999999999891e+03
2.000000000000000042e-03 5.718805000000000138e-01 -2.809488000000000176e-03 1.074230000000000018e+02 1.568990000000000009e+03
3.000000000000000062e-03 5.719229999999999592e-01 7.447165000000000035e-02 1.075035000000000025e+02 1.569009999999999991e+03
4.000000000000000083e-03 5.719720000000000359e-01 1.719286499999999884e-01 1.076250000000000000e+02 1.569039999999999964e+03
5.000000000000000104e-03 5.719615000000000116e-01 1.690544999999999964e-01 1.076065000000000111e+02 1.569045000000000073e+03
6.000000000000000125e-03 5.719039999999999679e-01 7.940399999999997460e-02 1.074235000000000042e+02 1.569000000000000000e+03
7.000000000000000146e-03 5.718529999999999447e-01 -5.727499999999996483e-03 1.071810000000000116e+02 1.568945000000000164e+03
8.000000000000000167e-03 5.717875000000000041e-01 -1.275249999999999440e-01 1.068504999999999967e+02 1.568859999999999900e+03
9.000000000000001055e-03 5.716735000000000566e-01 -3.546799999999999953e-01 1.063404999999999916e+02 1.568740000000000009e+03
1.000000000000000194e-02 5.715080000000000160e-01 -6.927699999999998859e-01 1.056109999999999900e+02 1.568559999999999945e+03
1.099999999999999936e-02 5.712814999999999976e-01 -1.150795000000000012e+00 1.046165000000000020e+02 1.568309999999999945e+03
1.200000000000000025e-02 5.709754999999999692e-01 -1.747555000000000192e+00 1.032927999999999997e+02 1.567974999999999909e+03
1.300000000000000114e-02 5.705979999999999386e-01 -2.449905000000000221e+00 1.016371000000000038e+02 1.567550000000000182e+03
1.400000000000000203e-02 5.701914999999999623e-01 -3.147095000000000198e+00 9.975645000000000095e+01 1.567054999999999836e+03
1.499999999999999944e-02 5.698145000000000016e-01 -3.695500000000000007e+00 9.783289999999999509e+01 1.566525000000000091e+03
1.600000000000000033e-02 5.695059999999999567e-01 -3.985325500000000076e+00 9.604070000000000107e+01 1.566005000000000109e+03
1.700000000000000122e-02 5.692730000000000290e-01 -3.978510500000000061e+00 9.447969999999999402e+01 1.565529999999999973e+03
1.800000000000000211e-02 5.690929999999999600e-01 -3.707707999999999782e+00 9.315270000000001005e+01 1.565099999999999909e+03
1.900000000000000300e-02 5.689285000000000592e-01 -3.250646999999999842e+00 9.198435000000000628e+01 1.564700000000000045e+03
2.000000000000000042e-02 5.687424999999999287e-01 -2.696525999999999978e+00 9.086039999999999850e+01 1.564309999999999945e+03
2.100000000000000130e-02 5.685090000000000421e-01 -2.116034999999999666e+00 8.967215000000000202e+01 1.563904999999999973e+03
2.200000000000000219e-02 5.682214999999999350e-01 -1.542865000000000153e+00 8.835239999999998872e+01 1.563465000000000146e+03
2.299999999999999961e-02 5.678920000000000634e-01 -9.714450000000001140e-01 8.689170000000000016e+01 1.562994999999999891e+03
2.400000000000000050e-02 5.675419999999999909e-01 -3.702399999999999025e-01 8.533119999999999550e+01 1.562500000000000000e+03
2.500000000000000139e-02 5.671939999999999760e-01 2.962650000000000006e-01 8.373730000000000473e+01 1.561990000000000009e+03
2.600000000000000228e-02 5.668624999999999359e-01 1.046650000000000080e+00 8.217074999999999818e+01 1.561480000000000018e+03
2.700000000000000316e-02 5.665480000000000516e-01 1.869775000000000187e+00 8.066150000000000375e+01 1.560985000000000127e+03
2.800000000000000058e-02 5.662389999999999368e-01 2.722805000000000142e+00 7.919634999999999536e+01 1.560500000000000000e+03
2.900000000000000147e-02 5.659125000000000405e-01 3.538534999999999542e+00 7.772015000000000384e+01 1.560010000000000218e+03
3.000000000000000236e-02 5.655445000000000055e-01 4.239205000000000112e+00 7.614945000000000164e+01 1.559505000000000109e+03
3.099999999999999978e-02 5.651120000000000587e-01 4.753165000000000084e+00 7.439374999999999716e+01 1.558954999999999927e+03
3.200000000000000067e-02 5.646035000000000359e-01 5.030965000000000131e+00 7.238025000000000375e+01 1.558349999999999909e+03
3.300000000000000155e-02 5.640190000000000481e-01 5.056595000000000617e+00 7.007540000000000191e+01 1.557670000000000073e+03
3.400000000000000244e-02 5.633730000000000127e-01 4.850799999999999557e+00 6.749769999999999470e+01 1.556924999999999955e+03
3.500000000000000333e-02 5.626934999999999576e-01 4.466174999999999784e+00 6.471765000000000612e+01 1.556119999999999891e+03
3.600000000000000422e-02 5.620125000000000259e-01 3.975190000000000001e+00 6.184684999999999633e+01 1.555289999999999964e+03
3.700000000000000511e-02 5.613635000000000153e-01 3.456544999999999757e+00 5.901935000000000286e+01 1.554470000000000027e+03
3.799999999999999906e-02 5.607769999999999699e-01 2.982455000000000300e+00 5.637189999999999657e+01 1.553679999999999836e+03
3.899999999999999994e-02 5.602755000000000374e-01 2.610844999999999860e+00 5.402669999999999817e+01 1.552965000000000146e+03
4.000000000000000083e-02 5.598744999999999417e-01 2.381345000000000045e+00 5.208034999999999570e+01 1.552345000000000027e+03
4.100000000000000172e-02 5.595799999999999663e-01 2.316259999999999764e+00 5.059829999999999472e+01 1.551855000000000018e+03
4.200000000000000261e-02 5.593945000000000167e-01 2.423779999999999824e+00 4.961560000000000059e+01 1.551494999999999891e+03
4.300000000000000350e-02 5.593150000000000066e-01 2.703022999999999954e+00 4.914114999999999611e+01 1.551269999999999982e+03
4.400000000000000439e-02 5.593375000000000430e-01 3.149109999999999854e+00 4.916535000000000366e+01 1.551194999999999936e+03
4.499999999999999833e-02 5.594565000000000232e-01 3.757204999999999906e+00 4.966764999999999475e+01 1.551259999999999991e+03
4.599999999999999922e-02 5.596674999999999844e-01 4.524779999999999802e+00 5.062290000000000134e+01 1.551460000000000036e+03
4.700000000000000011e-02 5.599674999999999514e-01 5.451740000000000030e+00 5.200584999999999525e+01 1.551789999999999964e+03
4.800000000000000100e-02 5.603529999999999900e-01 6.538814999999999600e+00 5.379205000000000325e+01 1.552240000000000009e+03
4.900000000000000189e-02 5.608184999999999976e-01 7.785009999999999764e+00 5.595690000000000452e+01 1.552809999999999945e+03
5.000000000000000278e-02 5.613609999999999989e-01 9.184895000000000920e+00 5.847310000000000230e+01 1.553490000000000009e+03
5.100000000000000366e-02 5.619709999999999983e-01 1.072675999999999874e+01 6.130805000000000149e+01 1.554264999999999873e+03
5.200000000000000455e-02 5.626404999999999879e-01 1.239189999999999969e+01 6.442225000000000534e+01 1.555130000000000109e+03
5.300000000000000544e-02 5.633559999999999679e-01 1.415532500000000127e+01 6.776879999999999882e+01 1.556070000000000164e+03
5.399999999999999939e-02 5.641064999999999552e-01 1.598720499999999944e+01 7.129484999999999673e+01 1.557074999999999818e+03
5.500000000000000028e-02 5.648785000000000611e-01 1.785545499999999919e+01 7.494409999999999172e+01 1.558130000000000109e+03
5.600000000000000117e-02 5.656594999999999818e-01 1.972794999999999987e+01 7.866009999999999991e+01 1.559215000000000146e+03
5.700000000000000205e-02 5.664385000000000669e-01 2.157509999999999906e+01 8.238974999999999227e+01 1.560315000000000055e+03
5.800000000000000294e-02 5.672059999999999880e-01 2.337180000000000035e+01 8.608655000000000257e+01 1.561420000000000073e+03
5.900000000000000383e-02 5.679564999999999753e-01 2.509810000000000230e+01 8.971295000000000641e+01 1.562514999999999873e+03
6.000000000000000472e-02 5.686854999999999549e-01 2.673989999999999867e+01 9.324205000000000609e+01 1.563595000000000027e+03
6.099999999999999867e-02 5.693905000000000216e-01 2.828885000000000005e+01 9.665760000000000218e+01 1.564650000000000091e+03
6.199999999999999956e-02 5.700735000000000108e-01 2.974150000000000205e+01 9.995255000000000223e+01 1.565675000000000182e+03
6.300000000000000044e-02 5.707340000000000746e-01 3.109840000000000160e+01 1.031304499999999962e+02 1.566670000000000073e+03
6.400000000000000133e-02 5.713764999999999539e-01 3.236339999999999861e+01 1.062004000000000019e+02 1.567634999999999991e+03
6.500000000000000222e-02 5.720030000000000392e-01 3.354220000000000113e+01 1.091766499999999951e+02 1.568585000000000036e+03
6.600000000000000311e-02 5.726179999999999604e-01 3.464195000000000135e+01 1.120764999999999958e+02 1.569505000000000109e+03
6.700000000000000400e-02 5.732255000000000544e-01 3.567020000000000124e+01 1.149194999999999993e+02 1.570409999999999854e+03
6.800000000000000488e-02 5.738290000000000335e-01 3.663439999999999941e+01 1.177214999999999918e+02 1.571299999999999955e+03
6.900000000000000577e-02 5.744299999999999962e-01 3.754099999999999682e+01 1.204994999999999976e+02 1.572184999999999945e+03
7.000000000000000666e-02 5.750310000000000699e-01 3.839499999999999602e+01 1.232650000000000006e+02 1.573059999999999945e+03
7.100000000000000755e-02 5.756324999999999914e-01 3.919969999999999999e+01 1.260225000000000080e+02 1.573934999999999945e+03
7.200000000000000844e-02 5.762340000000000240e-01 3.995584999999999809e+01 1.287745000000000175e+02 1.574805000000000064e+03
7.300000000000000933e-02 5.768330000000000402e-01 4.066219999999999857e+01 1.315149999999999864e+02 1.575675000000000182e+03
7.399999999999999634e-02 5.774269999999999126e-01 4.131504999999999939e+01 1.342330000000000041e+02 1.576535000000000082e+03
7.499999999999999722e-02 5.780115000000000114e-01 4.190874999999999773e+01 1.369130000000000109e+02 1.577385000000000218e+03
7.599999999999999811e-02 5.785819999999999297e-01 4.243635000000000446e+01 1.395339999999999918e+02 1.578224999999999909e+03
7.699999999999999900e-02 5.791330000000000089e-01 4.289000000000000057e+01 1.420729999999999791e+02 1.579034999999999854e+03
7.799999999999999989e-02 5.796600000000000641e-01 4.326169999999999760e+01 1.445049999999999955e+02 1.579824999999999818e+03
7.900000000000000078e-02 5.801570000000000338e-01 4.354394999999999527e+01 1.468075000000000045e+02 1.580569999999999936e+03
8.000000000000000167e-02 5.806200000000000250e-01 4.373010000000000019e+01 1.489569999999999936e+02 1.581275000000000091e+03
8.100000000000000255e-02 5.810454999999999925e-01 4.381515000000000271e+01 1.509345000000000141e+02 1.581930000000000064e+03
8.200000000000000344e-02 5.814304999999999612e-01 4.379574999999999818e+01 1.527235000000000014e+02 1.582534999999999854e+03
8.300000000000000433e-02 5.817719999999999558e-01 4.367050000000000409e+01 1.543134999999999764e+02 1.583075000000000045e+03
8.400000000000000522e-02 5.820705000000000462e-01 4.344010000000000105e+01 1.556970000000000027e+02 1.583559999999999945e+03
8.500000000000000611e-02 5.823255000000000514e-01 4.310719999999999885e+01 1.568734999999999786e+02 1.583980000000000018e+03
8.600000000000000699e-02 5.825375000000000414e-01 4.267654999999999887e+01 1.578444999999999823e+02 1.584335000000000036e+03
8.700000000000000788e-02 5.827090000000000325e-01 4.215460000000000207e+01 1.586179999999999950e+02 1.584630000000000109e+03
8.800000000000000877e-02 5.828419999999999712e-01 4.154950000000000188e+01 1.592060000000000173e+02 1.584869999999999891e+03
8.899999999999999578e-02 5.829400000000000137e-01 4.087089999999999890e+01 1.596220000000000141e+02 1.585054999999999836e+03
8.999999999999999667e-02 5.830064999999999831e-01 4.012955000000000183e+01 1.598840000000000146e+02 1.585184999999999945e+03
9.099999999999999756e-02 5.830465000000000231e-01 3.933709999999999951e+01 1.600115000000000123e+02 1.585275000000000091e+03
9.199999999999999845e-02 5.830634999999999568e-01 3.850570000000000448e+01 1.600254999999999939e+02 1.585325000000000045e+03
9.299999999999999933e-02 5.830629999999999979e-01 3.764754999999999541e+01 1.599479999999999791e+02 1.585339999999999918e+03
9.400000000000000022e-02 5.830475000000000518e-01 3.677479999999999905e+01 1.597990000000000066e+02 1.585325000000000045e+03
9.500000000000000111e-02 5.830224999999999991e-01 3.589874999999999972e+01 1.596005000000000109e+02 1.585289999999999964e+03
9.600000000000000200e-02 5.829919999999999547e-01 3.502965000000000373e+01 1.593695000000000164e+02 1.585244999999999891e+03
9.700000000000000289e-02 5.829580000000000872e-01 3.417645000000000266e+01 1.591235000000000070e+02 1.585190000000000055e+03
9.800000000000000377e-02 5.829239999999999977e-01 3.334624999999999773e+01 1.588760000000000048e+02 1.585125000000000000e+03
9.900000000000000466e-02 5.828915000000000068e-01 3.254415000000000191e+01 1.586359999999999957e+02 1.585059999999999945e+03
1.000000000000000056e-01 5.828609999999999625e-01 3.177335000000000065e+01 1.584110000000000014e+02 1.584994999999999891e+03
1.010000000000000064e-01 5.828330000000000455e-01 3.103494999999999848e+01 1.582040000000000077e+02 1.584929999999999836e+03
1.020000000000000073e-01 5.828065000000000051e-01 3.032800000000000296e+01 1.580135000000000218e+02 1.584869999999999891e+03
1.030000000000000082e-01 5.827815000000000634e-01 2.964985000000000070e+01 1.578360000000000127e+02 1.584809999999999945e+03
1.040000000000000091e-01 5.827560000000000517e-01 2.899634999999999962e+01 1.576639999999999873e+02 1.584755000000000109e+03
1.050000000000000100e-01 5.827269999999999950e-01 2.836224999999999596e+01 1.574904999999999973e+02 1.584695000000000164e+03
1.059999999999999970e-01 5.826934999999999754e-01 2.774145000000000039e+01 1.573029999999999973e+02 1.584639999999999873e+03
1.069999999999999979e-01 5.826525000000000176e-01 2.712754999999999939e+01 1.570914999999999964e+02 1.584570000000000164e+03
1.079999999999999988e-01 5.826014999999999944e-01 2.651395000000000124e+01 1.568449999999999989e+02 1.584490000000000009e+03
1.089999999999999997e-01 5.825390000000000290e-01 2.589435000000000286e+01 1.565520000000000209e+02 1.584404999999999973e+03
1.100000000000000006e-01 5.824629999999999530e-01 2.526330000000000098e+01 1.562040000000000077e+02 1.584295000000000073e+03
1.110000000000000014e-01 5.823720000000000008e-01 2.461585000000000178e+01 1.557924999999999898e+02 1.584179999999999836e+03
1.120000000000000023e-01 5.822654999999999914e-01 2.394849999999999923e+01 1.553120000000000118e+02 1.584034999999999854e+03
1.130000000000000032e-01 5.821429999999999660e-01 2.325890000000000057e+01 1.547595000000000027e+02 1.583875000000000000e+03
1.140000000000000041e-01 5.820039999999999658e-01 2.254614999999999725e+01 1.541340000000000146e+02 1.583695000000000164e+03
1.150000000000000050e-01 5.818499999999999783e-01 2.181074999999999875e+01 1.534385000000000048e+02 1.583489999999999782e+03
1.160000000000000059e-01 5.816829999999999501e-01 2.105485000000000184e+01 1.526775000000000091e+02 1.583264999999999873e+03
1.170000000000000068e-01 5.815040000000000209e-01 2.028194999999999837e+01 1.518584999999999923e+02 1.583025000000000091e+03
1.180000000000000077e-01 5.813160000000000549e-01 1.949695000000000178e+01 1.509915000000000020e+02 1.582769999999999982e+03
1.190000000000000085e-01 5.811209999999999987e-01 1.870585000000000164e+01 1.500889999999999986e+02 1.582500000000000000e+03
1.200000000000000094e-01 5.809225000000000083e-01 1.791549999999999798e+01 1.491639999999999873e+02 1.582219999999999800e+03
1.209999999999999964e-01 5.807240000000000180e-01 1.713354999999999961e+01 1.482315000000000111e+02 1.581940000000000055e+03
1.219999999999999973e-01 5.805285000000000029e-01 1.636789999999999878e+01 1.473075000000000045e+02 1.581659999999999854e+03
1.229999999999999982e-01 5.803395000000000081e-01 1.562645000000000017e+01 1.464060000000000059e+02 1.581380000000000109e+03
1.239999999999999991e-01 5.801594999999999391e-01 1.491703499999999849e+01 1.455430000000000064e+02 1.581115000000000009e+03
1.250000000000000000e-01 5.799920000000000631e-01 1.424673499999999926e+01 1.447305000000000064e+02 1.580855000000000018e+03
1.260000000000000009e-01 5.798389999999999933e-01 1.362179500000000054e+01 1.439814999999999827e+02 1.580619999999999891e+03
1.270000000000000018e-01 5.797020000000000506e-01 1.304757500000000192e+01 1.433054999999999950e+02 1.580394999999999982e+03
1.280000000000000027e-01 5.795825000000000005e-01 1.252795000000000059e+01 1.427090000000000032e+02 1.580200000000000045e+03
1.290000000000000036e-01 5.794814999999999827e-01 1.206557499999999905e+01 1.421984999999999957e+02 1.580025000000000091e+03
1.300000000000000044e-01 5.793989999999999974e-01 1.166170499999999954e+01 1.417740000000000009e+02 1.579869999999999891e+03
1.310000000000000053e-01 5.793344999999999745e-01 1.131599500000000091e+01 1.414364999999999952e+02 1.579750000000000000e+03
1.320000000000000062e-01 5.792869999999999964e-01 1.102699499999999944e+01 1.411825000000000045e+02 1.579650000000000091e+03
1.330000000000000071e-01 5.792550000000000754e-01 1.079187499999999922e+01 1.410060000000000002e+02 1.579575000000000045e+03
1.340000000000000080e-01 5.792375000000000718e-01 1.060673500000000047e+01 1.409004999999999939e+02 1.579514999999999873e+03
1.350000000000000089e-01 5.792315000000000103e-01 1.046692999999999962e+01 1.408564999999999827e+02 1.579480000000000018e+03
1.360000000000000098e-01 5.792359999999999731e-01 1.036719000000000079e+01 1.408645000000000209e+02 1.579465000000000146e+03
1.370000000000000107e-01 5.792479999999999851e-01 1.030180499999999988e+01 1.409150000000000205e+02 1.579465000000000146e+03
1.380000000000000115e-01 5.792654999999999887e-01 1.026499499999999898e+01 1.409959999999999809e+02 1.579470000000000027e+03
1.390000000000000124e-01 5.792865000000000375e-01 1.025104500000000129e+01 1.410989999999999895e+02 1.579485000000000127e+03
1.400000000000000133e-01 5.793089999999999629e-01 1.025447499999999934e+01 1.412139999999999986e+02 1.579505000000000109e+03
1.410000000000000142e-01 5.793319999999999581e-01 1.027022499999999994e+01 1.413324999999999818e+02 1.579534999999999854e+03
1.420000000000000151e-01 5.793534999999999657e-01 1.029372000000000043e+01 1.414484999999999957e+02 1.579565000000000055e+03
1.430000000000000160e-01 5.793730000000000269e-01 1.032111499999999893e+01 1.415559999999999832e+02 1.579590000000000146e+03
1.440000000000000169e-01 5.793884999999999730e-01 1.034904500000000027e+01 1.416504999999999939e+02 1.579615000000000009e+03
1.450000000000000178e-01 5.794015000000000137e-01 1.037489000000000061e+01 1.417289999999999850e+02 1.579630000000000109e+03
1.459999999999999909e-01 5.794110000000000094e-01 1.039669500000000113e+01 1.417905000000000086e+02 1.579650000000000091e+03
1.469999999999999918e-01 5.794165000000000010e-01 1.041301499999999969e+01 1.418344999999999914e+02 1.579664999999999964e+03
1.479999999999999927e-01 5.794190000000000174e-01 1.042315999999999931e+01 1.418614999999999782e+02 1.579675000000000182e+03
1.489999999999999936e-01 5.794179999999999886e-01 1.042670000000000030e+01 1.418735000000000070e+02 1.579675000000000182e+03
1.499999999999999944e-01 5.794150000000000134e-01 1.042392500000000055e+01 1.418714999999999975e+02 1.579679999999999836e+03
1.509999999999999953e-01 5.794105000000000505e-01 1.041526499999999977e+01 1.418600000000000136e+02 1.579674999999999955e+03
1.519999999999999962e-01 5.794044999999999890e-01 1.040157499999999935e+01 1.418405000000000200e+02 1.579674999999999955e+03
1.529999999999999971e-01 5.793985000000000385e-01 1.038391000000000020e+01 1.418165000000000191e+02 1.579664999999999964e+03
1.539999999999999980e-01 5.793920000000000181e-01 1.036343499999999906e+01 1.417909999999999968e+02 1.579659999999999854e+03
1.549999999999999989e-01 5.793865000000000265e-01 1.034144500000000022e+01 1.417665000000000077e+02 1.579659999999999854e+03
1.559999999999999998e-01 5.793820000000000636e-01 1.031913000000000125e+01 1.417460000000000093e+02 1.579654999999999973e+03
1.570000000000000007e-01 5.793795000000000472e-01 1.029762000000000022e+01 1.417319999999999993e+02 1.579644999999999982e+03
1.580000000000000016e-01 5.793789999999999774e-01 1.027789999999999893e+01 1.417264999999999873e+02 1.579644999999999982e+03
1.590000000000000024e-01 5.793805000000000760e-01 1.026071499999999936e+01 1.417289999999999850e+02 1.579644999999999982e+03
