# t [s], A [cm^2], U [cm/s], P [cPa], c [cm/s]
1.000000000000000021e-03 6.160660000000000025e-01 4.564600000000001989e-03 1.014159999999999968e+02 1.530740000000000009e+03
2.000000000000000042e-03 6.160559999999999370e-01 -4.119449999999999328e-04 1.013900000000000006e+02 1.530734999999999900e+03
3.000000000000000062e-03 6.161170000000000258e-01 1.054172500000000179e-01 1.014950000000000045e+02 1.530759999999999991e+03
4.000000000000000083e-03 6.161659999999999915e-01 2.013291500000000123e-01 1.016059999999999945e+02 1.530784999999999854e+03
5.000000000000000104e-03 6.161330000000000418e-01 1.655357500000000093e-01 1.015319999999999965e+02 1.530775000000000091e+03
6.000000000000000125e-03 6.160570000000000768e-01 5.137500000000000400e-02 1.012890000000000015e+02 1.530724999999999909e+03
7.000000000000000146e-03 6.159864999999999924e-01 -6.357450000000003376e-02 1.009724999999999966e+02 1.530654999999999973e+03
8.000000000000000167e-03 6.158744999999999914e-01 -2.619049999999999434e-01 1.005024499999999961e+02 1.530549999999999955e+03
9.000000000000001055e-03 6.156919999999999060e-01 -5.987599999999999589e-01 9.978600000000000136e+01 1.530389999999999873e+03
1.000000000000000194e-02 6.154409999999999048e-01 -1.062230000000000008e+00 9.879419999999998936e+01 1.530164999999999964e+03
1.099999999999999936e-02 6.151065000000000005e-01 -1.662620000000000209e+00 9.747595000000001164e+01 1.529865000000000009e+03
1.200000000000000025e-02 6.146709999999999674e-01 -2.410709999999999908e+00 9.577594999999999459e+01 1.529464999999999918e+03
1.300000000000000114e-02 6.141570000000000640e-01 -3.241510000000000336e+00 9.372819999999998686e+01 1.528980000000000018e+03
1.400000000000000203e-02 6.136310000000000375e-01 -4.002979999999999983e+00 9.150000000000000000e+01 1.528434999999999945e+03
1.499999999999999944e-02 6.131694999999999229e-01 -4.524563499999999294e+00 8.932980000000000587e+01 1.527875000000000000e+03
1.600000000000000033e-02 6.128175000000000150e-01 -4.695549999999999891e+00 8.741984999999999673e+01 1.527360000000000127e+03
1.700000000000000122e-02 6.125724999999999643e-01 -4.500294000000000239e+00 8.586400000000000432e+01 1.526900000000000091e+03
1.800000000000000211e-02 6.123959999999999404e-01 -4.007740000000000080e+00 8.463165000000000759e+01 1.526509999999999991e+03
1.900000000000000300e-02 6.122319999999999984e-01 -3.335137499999999644e+00 8.359765000000000157e+01 1.526159999999999854e+03
2.000000000000000042e-02 6.120284999999999753e-01 -2.603737699999999933e+00 8.259659999999999513e+01 1.525824999999999818e+03
2.100000000000000130e-02 6.117539999999999090e-01 -1.900039999999999951e+00 8.148410000000001219e+01 1.525470000000000027e+03
2.200000000000000219e-02 6.114055000000000462e-01 -1.254580000000000028e+00 8.018234999999999957e+01 1.525074999999999818e+03
2.299999999999999961e-02 6.110039999999999916e-01 -6.458150000000002500e-01 7.869425000000001091e+01 1.524639999999999873e+03
2.400000000000000050e-02 6.105834999999999457e-01 -2.551000000000014367e-02 7.708405000000000484e+01 1.524179999999999836e+03
2.500000000000000139e-02 6.101704999999999490e-01 6.484749999999999126e-01 7.543564999999999543e+01 1.523710000000000036e+03
2.600000000000000228e-02 6.097770000000000135e-01 1.386530000000000040e+00 7.381125000000000114e+01 1.523230000000000018e+03
2.700000000000000316e-02 6.093950000000000200e-01 2.156534999999999869e+00 7.222289999999999566e+01 1.522764999999999873e+03
2.800000000000000058e-02 6.089994999999999159e-01 2.888059999999999405e+00 7.062494999999999834e+01 1.522285000000000082e+03
2.900000000000000147e-02 6.085564999999999447e-01 3.487645000000000550e+00 6.892359999999999332e+01 1.521789999999999964e+03
3.000000000000000236e-02 6.080304999999999183e-01 3.860219999999999985e+00 6.700180000000000291e+01 1.521255000000000109e+03
3.099999999999999978e-02 6.073954999999999771e-01 3.931614999999999860e+00 6.475100000000000477e+01 1.520644999999999982e+03
3.200000000000000067e-02 6.066454999999999487e-01 3.666939999999999866e+00 6.210299999999999443e+01 1.519940000000000055e+03
3.300000000000000155e-02 6.057919999999999972e-01 3.079994999999999816e+00 5.905320000000000391e+01 1.519154999999999973e+03
3.400000000000000244e-02 6.048664999999999736e-01 2.230865000000000542e+00 5.566915000000000191e+01 1.518280000000000200e+03
3.500000000000000333e-02 6.039145000000000207e-01 1.213400000000000034e+00 5.208135000000000048e+01 1.517355000000000018e+03
3.600000000000000422e-02 6.029854999999999521e-01 1.371499999999992170e-01 4.846260000000000190e+01 1.516409999999999854e+03
3.700000000000000511e-02 6.021275000000000377e-01 -8.908799999999992281e-01 4.500059999999999860e+01 1.515490000000000009e+03
3.799999999999999906e-02 6.013794999999999558e-01 -1.779714999999999936e+00 4.187274999999999636e+01 1.514630000000000109e+03
3.899999999999999994e-02 6.007689999999999975e-01 -2.462269999999999737e+00 3.922655000000000314e+01 1.513884999999999991e+03
4.000000000000000083e-02 6.003134999999999444e-01 -2.896854999999999514e+00 3.716809999999999548e+01 1.513269999999999982e+03
4.100000000000000172e-02 6.000179999999999403e-01 -3.064725999999999839e+00 3.575860000000000127e+01 1.512805000000000064e+03
4.200000000000000261e-02 5.998795000000000099e-01 -2.964199999999999946e+00 3.501785000000000281e+01 1.512514999999999873e+03
4.300000000000000350e-02 5.998924999999999397e-01 -2.604199999999999626e+00 3.493274999999999864e+01 1.512390000000000100e+03
4.400000000000000439e-02 6.000449999999999395e-01 -1.998261300000000018e+00 3.546770000000000067e+01 1.512429999999999836e+03
4.499999999999999833e-02 6.003260000000000263e-01 -1.160524999999999807e+00 3.657430000000000092e+01 1.512619999999999891e+03
4.599999999999999922e-02 6.007255000000000233e-01 -1.041799999999999393e-01 3.819934999999999548e+01 1.512960000000000036e+03
4.700000000000000011e-02 6.012319999999999887e-01 1.157725000000000115e+00 4.028849999999999909e+01 1.513429999999999836e+03
4.800000000000000100e-02 6.018339999999999801e-01 2.609985000000000444e+00 4.278705000000000069e+01 1.514019999999999982e+03
4.900000000000000189e-02 6.025190000000000268e-01 4.232594999999999885e+00 4.563859999999999673e+01 1.514710000000000036e+03
5.000000000000000278e-02 6.032720000000000304e-01 5.998845000000000205e+00 4.878284999999999627e+01 1.515485000000000127e+03
5.100000000000000366e-02 6.040769999999999751e-01 7.874834999999999141e+00 5.215404999999999802e+01 1.516335000000000036e+03
5.200000000000000455e-02 6.049149999999999805e-01 9.820579000000000391e+00 5.568149999999999977e+01 1.517235000000000127e+03
5.300000000000000544e-02 6.057675000000000143e-01 1.179222000000000037e+01 5.929120000000000346e+01 1.518174999999999955e+03
5.399999999999999939e-02 6.066154999999999742e-01 1.374523999999999901e+01 6.290905000000000769e+01 1.519134999999999991e+03
5.500000000000000028e-02 6.074435000000000251e-01 1.563789500000000032e+01 6.646549999999999159e+01 1.520090000000000146e+03
5.600000000000000117e-02 6.082365000000000688e-01 1.743381499999999917e+01 6.989934999999999832e+01 1.521025000000000091e+03
5.700000000000000205e-02 6.089854999999999574e-01 1.910429999999999851e+01 7.316165000000000873e+01 1.521924999999999955e+03
5.800000000000000294e-02 6.096844999999999626e-01 2.062950000000000017e+01 7.621809999999999263e+01 1.522789999999999964e+03
5.900000000000000383e-02 6.103304999999999980e-01 2.199834999999999852e+01 7.904994999999999550e+01 1.523595000000000027e+03
6.000000000000000472e-02 6.109255000000000102e-01 2.320830000000000126e+01 8.165385000000000559e+01 1.524355000000000018e+03
6.099999999999999867e-02 6.114740000000000730e-01 2.426384999999999792e+01 8.403985000000000127e+01 1.525059999999999945e+03
6.199999999999999956e-02 6.119814999999999561e-01 2.517515000000000214e+01 8.622964999999999236e+01 1.525715000000000146e+03
6.300000000000000044e-02 6.124560000000000004e-01 2.595689999999999742e+01 8.825345000000000084e+01 1.526325000000000045e+03
6.400000000000000133e-02 6.129065000000000207e-01 2.662664999999999793e+01 9.014715000000001055e+01 1.526900000000000091e+03
6.500000000000000222e-02 6.133424999999999017e-01 2.720414999999999850e+01 9.195009999999999195e+01 1.527445000000000164e+03
6.600000000000000311e-02 6.137725000000000541e-01 2.770989999999999753e+01 9.370214999999998895e+01 1.527974999999999909e+03
6.700000000000000400e-02 6.142054999999999598e-01 2.816465000000000174e+01 9.544200000000000728e+01 1.528494999999999891e+03
6.800000000000000488e-02 6.146484999999999310e-01 2.858800000000000097e+01 9.720510000000000161e+01 1.529014999999999873e+03
6.900000000000000577e-02 6.151094999999999757e-01 2.899759999999999849e+01 9.902109999999998990e+01 1.529545000000000073e+03
7.000000000000000666e-02 6.155909999999999993e-01 2.940814999999999912e+01 1.009137499999999932e+02 1.530089999999999918e+03
7.100000000000000755e-02 6.160970000000000057e-01 2.983014999999999972e+01 1.028960000000000008e+02 1.530655000000000200e+03
7.200000000000000844e-02 6.166264999999999663e-01 3.026950000000000074e+01 1.049740000000000038e+02 1.531244999999999891e+03
7.300000000000000933e-02 6.171780000000000044e-01 3.072684999999999889e+01 1.071410000000000053e+02 1.531849999999999909e+03
7.399999999999999634e-02 6.177449999999999886e-01 3.119760000000000133e+01 1.093810000000000002e+02 1.532480000000000018e+03
7.499999999999999722e-02 6.183210000000000095e-01 3.167259999999999920e+01 1.116694999999999993e+02 1.533119999999999891e+03
7.599999999999999811e-02 6.188985000000000181e-01 3.213875000000000171e+01 1.139740000000000038e+02 1.533769999999999982e+03
7.699999999999999900e-02 6.194655000000000022e-01 3.258030000000000115e+01 1.162554999999999978e+02 1.534410000000000082e+03
7.799999999999999989e-02 6.200140000000000651e-01 3.297975000000000279e+01 1.184724999999999966e+02 1.535039999999999964e+03
7.900000000000000078e-02 6.205325000000000424e-01 3.331945000000000334e+01 1.205835000000000008e+02 1.535644999999999982e+03
8.000000000000000167e-02 6.210119999999998974e-01 3.358265000000000100e+01 1.225484999999999900e+02 1.536220000000000027e+03
8.100000000000000255e-02 6.214454999999999840e-01 3.375459999999999638e+01 1.243319999999999936e+02 1.536750000000000000e+03
8.200000000000000344e-02 6.218255000000000310e-01 3.382325000000000159e+01 1.259044999999999987e+02 1.537220000000000027e+03
8.300000000000000433e-02 6.221474999999999644e-01 3.377980000000000160e+01 1.272425000000000068e+02 1.537634999999999991e+03
8.400000000000000522e-02 6.224095000000000599e-01 3.361930000000000263e+01 1.283334999999999866e+02 1.537990000000000009e+03
8.500000000000000611e-02 6.226104999999999556e-01 3.334055000000000035e+01 1.291714999999999804e+02 1.538275000000000091e+03
8.600000000000000699e-02 6.227519999999999722e-01 3.294619999999999749e+01 1.297580000000000098e+02 1.538490000000000009e+03
8.700000000000000788e-02 6.228380000000000027e-01 3.244250000000000256e+01 1.301049999999999898e+02 1.538639999999999873e+03
8.800000000000000877e-02 6.228719999999999812e-01 3.183895000000000053e+01 1.302299999999999898e+02 1.538724999999999909e+03
8.899999999999999578e-02 6.228599999999999692e-01 3.114780000000000015e+01 1.301560000000000059e+02 1.538759999999999991e+03
8.999999999999999667e-02 6.228095000000000159e-01 3.038364999999999938e+01 1.299114999999999895e+02 1.538740000000000009e+03
9.099999999999999756e-02 6.227279999999999482e-01 2.956275000000000119e+01 1.295275000000000034e+02 1.538679999999999836e+03
9.199999999999999845e-02 6.226229999999999265e-01 2.870224999999999937e+01 1.290380000000000109e+02 1.538585000000000036e+03
9.299999999999999933e-02 6.225024999999999586e-01 2.781950000000000145e+01 1.284770000000000039e+02 1.538460000000000036e+03
9.400000000000000022e-02 6.223750000000000115e-01 2.693155000000000143e+01 1.278769999999999953e+02 1.538320000000000164e+03
9.500000000000000111e-02 6.222469999999999946e-01 2.605429999999999779e+01 1.272685000000000031e+02 1.538170000000000073e+03
9.600000000000000200e-02 6.221235000000000515e-01 2.520195000000000007e+01 1.266784999999999997e+02 1.538019999999999982e+03
9.700000000000000289e-02 6.220109999999999806e-01 2.438644999999999996e+01 1.261299999999999955e+02 1.537875000000000000e+03
9.800000000000000377e-02 6.219129999999999381e-01 2.361715000000000231e+01 1.256405000000000030e+02 1.537740000000000009e+03
9.900000000000000466e-02 6.218310000000000226e-01 2.290054999999999907e+01 1.252229999999999848e+02 1.537619999999999891e+03
1.000000000000000056e-01 6.217669999999999586e-01 2.224000000000000199e+01 1.248834999999999980e+02 1.537519999999999982e+03
1.010000000000000064e-01 6.217204999999998982e-01 2.163609999999999900e+01 1.246235000000000070e+02 1.537440000000000055e+03
1.020000000000000073e-01 6.216895000000000060e-01 2.108639999999999759e+01 1.244380000000000024e+02 1.537369999999999891e+03
1.030000000000000082e-01 6.216720000000000024e-01 2.058595000000000041e+01 1.243174999999999955e+02 1.537325000000000045e+03
1.040000000000000091e-01 6.216649999999999121e-01 2.012769999999999726e+01 1.242500000000000000e+02 1.537289999999999964e+03
1.050000000000000100e-01 6.216634999999999245e-01 1.970279999999999987e+01 1.242180000000000035e+02 1.537264999999999873e+03
1.059999999999999970e-01 6.216634999999999245e-01 1.930100000000000193e+01 1.242034999999999911e+02 1.537250000000000000e+03
1.069999999999999979e-01 6.216599999999999904e-01 1.891159999999999997e+01 1.241864999999999952e+02 1.537235000000000127e+03
1.079999999999999988e-01 6.216490000000000071e-01 1.852355000000000018e+01 1.241469999999999914e+02 1.537215000000000146e+03
1.089999999999999997e-01 6.216249999999999831e-01 1.812624999999999886e+01 1.240665000000000049e+02 1.537190000000000055e+03
1.100000000000000006e-01 6.215850000000000541e-01 1.770984999999999943e+01 1.239265000000000043e+02 1.537150000000000091e+03
1.110000000000000014e-01 6.215254999999999530e-01 1.726604999999999990e+01 1.237129999999999939e+02 1.537094999999999800e+03
1.120000000000000023e-01 6.214444999999999553e-01 1.678810000000000002e+01 1.234149999999999920e+02 1.537014999999999873e+03
1.130000000000000032e-01 6.213400000000000034e-01 1.627134999999999820e+01 1.230234999999999985e+02 1.536920000000000073e+03
1.140000000000000041e-01 6.212130000000000152e-01 1.571359999999999957e+01 1.225364999999999895e+02 1.536795000000000073e+03
1.150000000000000050e-01 6.210625000000000728e-01 1.511489999999999867e+01 1.219540000000000077e+02 1.536639999999999873e+03
1.160000000000000059e-01 6.208914999999999296e-01 1.447780000000000022e+01 1.212824999999999989e+02 1.536470000000000027e+03
1.170000000000000068e-01 6.207030000000000047e-01 1.380729000000000006e+01 1.205314999999999941e+02 1.536280000000000200e+03
1.180000000000000077e-01 6.204994999999999816e-01 1.311024500000000081e+01 1.197150000000000034e+02 1.536065000000000055e+03
1.190000000000000085e-01 6.202870000000000328e-01 1.239572000000000074e+01 1.188489999999999895e+02 1.535835000000000036e+03
1.200000000000000094e-01 6.200689999999999813e-01 1.167393999999999998e+01 1.179544999999999959e+02 1.535599999999999909e+03
1.209999999999999964e-01 6.198510000000000408e-01 1.095629499999999901e+01 1.170510000000000019e+02 1.535355000000000018e+03
1.219999999999999973e-01 6.196384999999999810e-01 1.025469499999999989e+01 1.161624999999999943e+02 1.535115000000000009e+03
1.229999999999999982e-01 6.194370000000000154e-01 9.581099999999999284e+00 1.153094999999999999e+02 1.534880000000000109e+03
1.239999999999999991e-01 6.192514999999999548e-01 8.946819999999998885e+00 1.145139999999999958e+02 1.534654999999999973e+03
1.250000000000000000e-01 6.190860000000000252e-01 8.362300000000001177e+00 1.137939999999999969e+02 1.534449999999999818e+03
1.260000000000000009e-01 6.189434999999999798e-01 7.836629999999999541e+00 1.131664999999999992e+02 1.534259999999999991e+03
1.270000000000000018e-01 6.188270000000000159e-01 7.376904999999999824e+00 1.126440000000000055e+02 1.534099999999999909e+03
1.280000000000000027e-01 6.187389999999999279e-01 6.988374999999999559e+00 1.122359999999999900e+02 1.533970000000000027e+03
1.290000000000000036e-01 6.186800000000000077e-01 6.673970000000000624e+00 1.119470000000000027e+02 1.533869999999999891e+03
1.300000000000000044e-01 6.186490000000000045e-01 6.434369999999999479e+00 1.117779999999999916e+02 1.533799999999999955e+03
1.310000000000000053e-01 6.186460000000000292e-01 6.268024999999999736e+00 1.117254999999999967e+02 1.533759999999999991e+03
1.320000000000000062e-01 6.186675000000000368e-01 6.171319999999999695e+00 1.117824999999999989e+02 1.533755000000000109e+03
1.330000000000000071e-01 6.187120000000000397e-01 6.138790000000000191e+00 1.119385000000000048e+02 1.533769999999999982e+03
1.340000000000000080e-01 6.187749999999999639e-01 6.163425000000000153e+00 1.121804999999999950e+02 1.533815000000000055e+03
1.350000000000000089e-01 6.188540000000000152e-01 6.237019999999999342e+00 1.124934999999999974e+02 1.533875000000000000e+03
1.360000000000000098e-01 6.189439999999999387e-01 6.350514999999999688e+00 1.128609999999999900e+02 1.533954999999999927e+03
1.370000000000000107e-01 6.190404999999999935e-01 6.494410000000000238e+00 1.132659999999999911e+02 1.534050000000000182e+03
1.380000000000000115e-01 6.191415000000000113e-01 6.659094999999999764e+00 1.136920000000000073e+02 1.534154999999999973e+03
1.390000000000000124e-01 6.192420000000000702e-01 6.835210000000000008e+00 1.141229999999999905e+02 1.534259999999999991e+03
1.400000000000000133e-01 6.193385000000000140e-01 7.013915000000000788e+00 1.145434999999999945e+02 1.534369999999999891e+03
1.410000000000000142e-01 6.194290000000000074e-01 7.187195000000000000e+00 1.149420000000000073e+02 1.534470000000000027e+03
1.420000000000000151e-01 6.195100000000000051e-01 7.348034999999999428e+00 1.153059999999999974e+02 1.534569999999999936e+03
1.430000000000000160e-01 6.195809999999999373e-01 7.490590000000000082e+00 1.156290000000000049e+02 1.534659999999999854e+03
1.440000000000000169e-01 6.196399999999999686e-01 7.610269999999999868e+00 1.159039999999999964e+02 1.534740000000000009e+03
1.450000000000000178e-01 6.196869999999999878e-01 7.703844999999999388e+00 1.161264999999999930e+02 1.534809999999999945e+03
1.459999999999999909e-01 6.197219999999999951e-01 7.769370000000000331e+00 1.162974999999999994e+02 1.534855000000000018e+03
1.469999999999999918e-01 6.197444999999999204e-01 7.806214999999999904e+00 1.164159999999999968e+02 1.534900000000000091e+03
1.479999999999999927e-01 6.197565000000000435e-01 7.814944999999999808e+00 1.164865000000000066e+02 1.534929999999999836e+03
1.489999999999999936e-01 6.197580000000000311e-01 7.797200000000000131e+00 1.165125000000000028e+02 1.534945000000000164e+03
1.499999999999999944e-01 6.197520000000000806e-01 7.755584999999999951e+00 1.165005000000000024e+02 1.534954999999999927e+03
1.509999999999999953e-01 6.197394999999999987e-01 7.693440000000000722e+00 1.164579999999999984e+02 1.534949999999999818e+03
1.519999999999999962e-01 6.197224999999999540e-01 7.614689999999999515e+00 1.163919999999999959e+02 1.534940000000000055e+03
1.529999999999999971e-01 6.197034999999999627e-01 7.523640000000000327e+00 1.163110000000000070e+02 1.534930000000000064e+03
1.539999999999999980e-01 6.196835000000000537e-01 7.424755000000000216e+00 1.162224999999999966e+02 1.534910000000000082e+03
1.549999999999999989e-01 6.196639999999999926e-01 7.322454999999999714e+00 1.161345000000000027e+02 1.534889999999999873e+03
1.559999999999999998e-01 6.196475000000000177e-01 7.220935000000000770e+00 1.160540000000000020e+02 1.534875000000000000e+03
1.570000000000000007e-01 6.196345000000000880e-01 7.123979999999999535e+00 1.159860000000000042e+02 1.534860000000000127e+03
1.580000000000000016e-01 6.196265000000000800e-01 7.034834999999999283e+00 1.159350000000000023e+02 1.534844999999999800e+03
1.590000000000000024e-01 6.196234999999999937e-01 6.956084999999999852e+00 1.159050000000000011e+02 1.534839999999999918e+03
