# t [s], A [cm^2], U [cm/s], P [cPa], c [cm/s]
1.000000000000000021e-03 4.865779999999999550e-01 3.902599999999999125e-03 9.563884999999999081e+01 1.591769999999999982e+03
2.000000000000000042e-03 4.865715000000000456e-01 -1.286675499999999882e-03 9.561795000000000755e+01 1.591764999999999873e+03
3.000000000000000062e-03 4.866024999999999934e-01 6.742969999999999520e-02 9.568899999999999295e+01 1.591789999999999964e+03
4.000000000000000083e-03 4.866405000000000314e-01 1.563469500000000123e-01 9.580280000000000484e+01 1.591820000000000164e+03
5.000000000000000104e-03 4.866380000000000150e-01 1.611315000000000108e-01 9.580514999999999759e+01 1.591820000000000164e+03
6.000000000000000125e-03 4.866024999999999934e-01 9.180900000000000172e-02 9.566979999999999507e+01 1.591789999999999964e+03
7.000000000000000146e-03 4.865685000000000149e-01 2.015400000000000524e-02 9.547429999999999950e+01 1.591750000000000000e+03
8.000000000000000167e-03 4.865270000000000428e-01 -7.381450000000000511e-02 9.520964999999999634e+01 1.591690000000000055e+03
9.000000000000001055e-03 4.864550000000000263e-01 -2.483815000000000328e-01 9.480100000000000193e+01 1.591594999999999800e+03
1.000000000000000194e-02 4.863429999999999698e-01 -5.231000000000000094e-01 9.419854999999999734e+01 1.591460000000000036e+03
1.099999999999999936e-02 4.861830000000000318e-01 -9.114499999999998714e-01 9.335564999999999714e+01 1.591259999999999991e+03
1.200000000000000025e-02 4.859655000000000502e-01 -1.426539999999999919e+00 9.222229999999998995e+01 1.590994999999999891e+03
1.300000000000000114e-02 4.856954999999999467e-01 -2.041330000000000311e+00 9.079650000000000887e+01 1.590654999999999973e+03
1.400000000000000203e-02 4.854009999999999714e-01 -2.672724999999999795e+00 8.915840000000000032e+01 1.590255000000000109e+03
1.499999999999999944e-02 4.851170000000000204e-01 -3.212760000000000282e+00 8.744650000000000034e+01 1.589815000000000055e+03
1.600000000000000033e-02 4.848720000000000252e-01 -3.574645499999999920e+00 8.579890000000000327e+01 1.589380000000000109e+03
1.700000000000000122e-02 4.846719999999999917e-01 -3.720270499999999814e+00 8.430525000000000091e+01 1.588954999999999927e+03
1.800000000000000211e-02 4.845085000000000086e-01 -3.661205999999999960e+00 8.298904999999999177e+01 1.588565000000000055e+03
1.900000000000000300e-02 4.843625000000000291e-01 -3.442514000000000074e+00 8.181700000000000728e+01 1.588199999999999818e+03
2.000000000000000042e-02 4.842134999999999634e-01 -3.120844500000000021e+00 8.072289999999999566e+01 1.587849999999999909e+03
2.100000000000000130e-02 4.840470000000000050e-01 -2.744886500000000229e+00 7.963634999999999309e+01 1.587494999999999891e+03
2.200000000000000219e-02 4.838560000000000083e-01 -2.342893999999999810e+00 7.850605000000000189e+01 1.587139999999999873e+03
2.299999999999999961e-02 4.836435000000000040e-01 -1.919575000000000031e+00 7.731250000000000000e+01 1.586769999999999982e+03
2.400000000000000050e-02 4.834199999999999608e-01 -1.462305000000000188e+00 7.606745000000000800e+01 1.586380000000000109e+03
2.500000000000000139e-02 4.831940000000000124e-01 -9.532950000000002255e-01 7.480129999999999768e+01 1.585990000000000009e+03
2.600000000000000228e-02 4.829735000000000555e-01 -3.825400000000001022e-01 7.354534999999999911e+01 1.585599999999999909e+03
2.700000000000000316e-02 4.827595000000000081e-01 2.431999999999998607e-01 7.231589999999999918e+01 1.585210000000000036e+03
2.800000000000000058e-02 4.825454999999999606e-01 8.977499999999998259e-01 7.110470000000000823e+01 1.584825000000000045e+03
2.900000000000000147e-02 4.823209999999999997e-01 1.539109999999999978e+00 6.987855000000000416e+01 1.584440000000000055e+03
3.000000000000000236e-02 4.820740000000000025e-01 2.117659999999999876e+00 6.858644999999999925e+01 1.584034999999999854e+03
3.099999999999999978e-02 4.817909999999999693e-01 2.586474999999999635e+00 6.717255000000000109e+01 1.583610000000000127e+03
3.200000000000000067e-02 4.814665000000000195e-01 2.911419999999999675e+00 6.559100000000000819e+01 1.583144999999999982e+03
3.300000000000000155e-02 4.811000000000000276e-01 3.078475000000000072e+00 6.381990000000000407e+01 1.582634999999999991e+03
3.400000000000000244e-02 4.806985000000000285e-01 3.096609999999999641e+00 6.186965000000000003e+01 1.582094999999999800e+03
3.500000000000000333e-02 4.802764999999999951e-01 2.995569999999999844e+00 5.978475000000000250e+01 1.581514999999999873e+03
3.600000000000000422e-02 4.798520000000000008e-01 2.819735000000000102e+00 5.763844999999999885e+01 1.580914999999999964e+03
3.700000000000000511e-02 4.794444999999999957e-01 2.619744999999999546e+00 5.552199999999999847e+01 1.580319999999999936e+03
3.799999999999999906e-02 4.790725000000000122e-01 2.444854999999999556e+00 5.353249999999999886e+01 1.579755000000000109e+03
3.899999999999999994e-02 4.787500000000000089e-01 2.336794999999999956e+00 5.176144999999999641e+01 1.579234999999999900e+03
4.000000000000000083e-02 4.784889999999999421e-01 2.327169999999999739e+00 5.028674999999999784e+01 1.578789999999999964e+03
4.100000000000000172e-02 4.782965000000000133e-01 2.437044999999999906e+00 4.916790000000000305e+01 1.578425000000000182e+03
4.200000000000000261e-02 4.781765000000000043e-01 2.678783500000000206e+00 4.844570000000000221e+01 1.578164999999999964e+03
4.300000000000000350e-02 4.781315000000000426e-01 3.058859999999999690e+00 4.814419999999999789e+01 1.578009999999999991e+03
4.400000000000000439e-02 4.781600000000000295e-01 3.580814999999999859e+00 4.827424999999999500e+01 1.577974999999999909e+03
4.499999999999999833e-02 4.782634999999999525e-01 4.247574999999999434e+00 4.883809999999999718e+01 1.578065000000000055e+03
4.599999999999999922e-02 4.784410000000000052e-01 5.062640000000000029e+00 4.983254999999999768e+01 1.578264999999999873e+03
4.700000000000000011e-02 4.786930000000000351e-01 6.030015000000000569e+00 5.125130000000000052e+01 1.578590000000000146e+03
4.800000000000000100e-02 4.790179999999999438e-01 7.153169999999999362e+00 5.308525000000000205e+01 1.579025000000000091e+03
4.900000000000000189e-02 4.794134999999999924e-01 8.433279999999999887e+00 5.532220000000000226e+01 1.579579999999999927e+03
5.000000000000000278e-02 4.798784999999999856e-01 9.867789999999999395e+00 5.794494999999999862e+01 1.580244999999999891e+03
5.100000000000000366e-02 4.804074999999999873e-01 1.144877500000000126e+01 6.092974999999999852e+01 1.581019999999999982e+03
5.200000000000000455e-02 4.809939999999999771e-01 1.316271500000000039e+01 6.424569999999999936e+01 1.581884999999999991e+03
5.300000000000000544e-02 4.816310000000000313e-01 1.499056500000000014e+01 6.785419999999999163e+01 1.582845000000000027e+03
5.399999999999999939e-02 4.823085000000000289e-01 1.690887999999999991e+01 7.170980000000000132e+01 1.583880000000000109e+03
5.500000000000000028e-02 4.830185000000000173e-01 1.889116999999999891e+01 7.576239999999999952e+01 1.584980000000000018e+03
5.600000000000000117e-02 4.837500000000000133e-01 2.090964999999999918e+01 7.995924999999999727e+01 1.586134999999999991e+03
5.700000000000000205e-02 4.844939999999999802e-01 2.293700000000000117e+01 8.424779999999999802e+01 1.587319999999999936e+03
5.800000000000000294e-02 4.852434999999999388e-01 2.494764999999999944e+01 8.857769999999999300e+01 1.588539999999999964e+03
5.900000000000000383e-02 4.859890000000000043e-01 2.691915000000000191e+01 9.290520000000000778e+01 1.589764999999999873e+03
6.000000000000000472e-02 4.867270000000000207e-01 2.883259999999999934e+01 9.719134999999999991e+01 1.590994999999999891e+03
6.099999999999999867e-02 4.874519999999999964e-01 3.067304999999999993e+01 1.014062500000000000e+02 1.592214999999999918e+03
6.199999999999999956e-02 4.881604999999999972e-01 3.242945000000000277e+01 1.055272500000000093e+02 1.593420000000000073e+03
6.300000000000000044e-02 4.888520000000000643e-01 3.409420000000000073e+01 1.095393499999999989e+02 1.594599999999999909e+03
6.400000000000000133e-02 4.895260000000000167e-01 3.566264999999999930e+01 1.134350500000000039e+02 1.595755000000000109e+03
6.500000000000000222e-02 4.901814999999999367e-01 3.713275000000000148e+01 1.172120000000000033e+02 1.596884999999999991e+03
6.600000000000000311e-02 4.908199999999999785e-01 3.850419999999999732e+01 1.208730000000000047e+02 1.597990000000000009e+03
6.700000000000000400e-02 4.914419999999999900e-01 3.977795000000000414e+01 1.244224999999999852e+02 1.599059999999999945e+03
6.800000000000000488e-02 4.920484999999999998e-01 4.095564999999999856e+01 1.278679999999999950e+02 1.600105000000000018e+03
6.900000000000000577e-02 4.926409999999999956e-01 4.203929999999999723e+01 1.312154999999999916e+02 1.601125000000000000e+03
7.000000000000000666e-02 4.932199999999999918e-01 4.303069999999999595e+01 1.344719999999999800e+02 1.602119999999999891e+03
7.100000000000000755e-02 4.937845000000000151e-01 4.393130000000000024e+01 1.376410000000000196e+02 1.603095000000000027e+03
7.200000000000000844e-02 4.943364999999999565e-01 4.474179999999999779e+01 1.407239999999999895e+02 1.604045000000000073e+03
7.300000000000000933e-02 4.948744999999999949e-01 4.546235000000000070e+01 1.437210000000000036e+02 1.604965000000000146e+03
7.399999999999999634e-02 4.953960000000000585e-01 4.609244999999999948e+01 1.466270000000000095e+02 1.605869999999999891e+03
7.499999999999999722e-02 4.959020000000000095e-01 4.663105000000000189e+01 1.494350000000000023e+02 1.606735000000000127e+03
7.599999999999999811e-02 4.963885000000000103e-01 4.707689999999999486e+01 1.521370000000000005e+02 1.607579999999999927e+03
7.699999999999999900e-02 4.968550000000000466e-01 4.742875000000000085e+01 1.547235000000000014e+02 1.608389999999999873e+03
7.799999999999999989e-02 4.972985000000000322e-01 4.768545000000000300e+01 1.571825000000000045e+02 1.609164999999999964e+03
7.900000000000000078e-02 4.977179999999999938e-01 4.784644999999999726e+01 1.595040000000000191e+02 1.609904999999999973e+03
8.000000000000000167e-02 4.981114999999999848e-01 4.791169999999999618e+01 1.616775000000000091e+02 1.610595000000000027e+03
8.100000000000000255e-02 4.984775000000000178e-01 4.788195000000000334e+01 1.636954999999999814e+02 1.611244999999999891e+03
8.200000000000000344e-02 4.988145000000000495e-01 4.775854999999999961e+01 1.655500000000000114e+02 1.611849999999999909e+03
8.300000000000000433e-02 4.991229999999999833e-01 4.754380000000000450e+01 1.672355000000000018e+02 1.612404999999999973e+03
8.400000000000000522e-02 4.994009999999999838e-01 4.724060000000000059e+01 1.687500000000000000e+02 1.612909999999999854e+03
8.500000000000000611e-02 4.996494999999999687e-01 4.685285000000000366e+01 1.700925000000000011e+02 1.613360000000000127e+03
8.600000000000000699e-02 4.998685000000000489e-01 4.638504999999999967e+01 1.712634999999999934e+02 1.613769999999999982e+03
8.700000000000000788e-02 5.000584999999999614e-01 4.584239999999999782e+01 1.722680000000000007e+02 1.614119999999999891e+03
8.800000000000000877e-02 5.002204999999999568e-01 4.523109999999999786e+01 1.731105000000000018e+02 1.614425000000000182e+03
8.899999999999999578e-02 5.003560000000000230e-01 4.455780000000000030e+01 1.737990000000000066e+02 1.614679999999999836e+03
8.999999999999999667e-02 5.004664999999999253e-01 4.383004999999999995e+01 1.743444999999999823e+02 1.614894999999999982e+03
9.099999999999999756e-02 5.005539999999999434e-01 4.305594999999999573e+01 1.747570000000000050e+02 1.615069999999999936e+03
9.199999999999999845e-02 5.006209999999999827e-01 4.224399999999999977e+01 1.750500000000000114e+02 1.615199999999999818e+03
9.299999999999999933e-02 5.006699999999999484e-01 4.140314999999999657e+01 1.752379999999999995e+02 1.615299999999999955e+03
9.400000000000000022e-02 5.007030000000000092e-01 4.054234999999999900e+01 1.753354999999999961e+02 1.615364999999999782e+03
9.500000000000000111e-02 5.007234999999999880e-01 3.967034999999999911e+01 1.753580000000000041e+02 1.615404999999999973e+03
9.600000000000000200e-02 5.007334999999999425e-01 3.879534999999999911e+01 1.753215000000000146e+02 1.615430000000000064e+03
9.700000000000000289e-02 5.007360000000000699e-01 3.792490000000000094e+01 1.752384999999999877e+02 1.615430000000000064e+03
9.800000000000000377e-02 5.007325000000000248e-01 3.706544999999999845e+01 1.751229999999999905e+02 1.615414999999999964e+03
9.900000000000000466e-02 5.007239999999999469e-01 3.622194999999999965e+01 1.749859999999999900e+02 1.615389999999999873e+03
1.000000000000000056e-01 5.007129999999999637e-01 3.539815000000000111e+01 1.748365000000000009e+02 1.615360000000000127e+03
1.010000000000000064e-01 5.006994999999999640e-01 3.459615000000000151e+01 1.746795000000000186e+02 1.615325000000000045e+03
1.020000000000000073e-01 5.006850000000000467e-01 3.381654999999999944e+01 1.745194999999999936e+02 1.615279999999999973e+03
1.030000000000000082e-01 5.006680000000000019e-01 3.305839999999999890e+01 1.743575000000000159e+02 1.615239999999999782e+03
1.040000000000000091e-01 5.006490000000000107e-01 3.231949999999999790e+01 1.741909999999999741e+02 1.615190000000000055e+03
1.050000000000000100e-01 5.006275000000000031e-01 3.159649999999999892e+01 1.740169999999999959e+02 1.615134999999999991e+03
1.059999999999999970e-01 5.006014999999999215e-01 3.088534999999999897e+01 1.738310000000000173e+02 1.615085000000000036e+03
1.069999999999999979e-01 5.005699999999999594e-01 3.018135000000000190e+01 1.736245000000000118e+02 1.615025000000000091e+03
1.079999999999999988e-01 5.005319999999999769e-01 2.947955000000000325e+01 1.733909999999999911e+02 1.614954999999999927e+03
1.089999999999999997e-01 5.004870000000000152e-01 2.877505000000000024e+01 1.731234999999999786e+02 1.614875000000000000e+03
1.100000000000000006e-01 5.004324999999999468e-01 2.806315000000000026e+01 1.728154999999999859e+02 1.614784999999999854e+03
1.110000000000000014e-01 5.003690000000000637e-01 2.733970000000000056e+01 1.724600000000000080e+02 1.614684999999999945e+03
1.120000000000000023e-01 5.002949999999999342e-01 2.660119999999999862e+01 1.720525000000000091e+02 1.614575000000000045e+03
1.130000000000000032e-01 5.002109999999999612e-01 2.584505000000000052e+01 1.715889999999999986e+02 1.614440000000000055e+03
1.140000000000000041e-01 5.001154999999999351e-01 2.506949999999999790e+01 1.710685000000000002e+02 1.614299999999999955e+03
1.150000000000000050e-01 5.000099999999999545e-01 2.427390000000000114e+01 1.704915000000000020e+02 1.614139999999999873e+03
1.160000000000000059e-01 4.998944999999999639e-01 2.345859999999999701e+01 1.698594999999999970e+02 1.613960000000000036e+03
1.170000000000000068e-01 4.997709999999999653e-01 2.262494999999999834e+01 1.691765000000000043e+02 1.613769999999999982e+03
1.180000000000000077e-01 4.996384999999999854e-01 2.177534999999999954e+01 1.684479999999999791e+02 1.613565000000000055e+03
1.190000000000000085e-01 4.995009999999999728e-01 2.091300000000000026e+01 1.676819999999999879e+02 1.613349999999999909e+03
1.200000000000000094e-01 4.993584999999999829e-01 2.004194999999999993e+01 1.668860000000000241e+02 1.613125000000000000e+03
1.209999999999999964e-01 4.992129999999999623e-01 1.916685000000000016e+01 1.660699999999999932e+02 1.612894999999999982e+03
1.219999999999999973e-01 4.990665000000000240e-01 1.829285000000000139e+01 1.652439999999999998e+02 1.612659999999999854e+03
1.229999999999999982e-01 4.989204999999999890e-01 1.742530000000000001e+01 1.644180000000000064e+02 1.612420000000000073e+03
1.239999999999999991e-01 4.987774999999999848e-01 1.656970000000000098e+01 1.636025000000000205e+02 1.612179999999999836e+03
1.250000000000000000e-01 4.986390000000000544e-01 1.573144999999999882e+01 1.628075000000000045e+02 1.611950000000000045e+03
1.260000000000000009e-01 4.985064999999999635e-01 1.491569999999999929e+01 1.620414999999999850e+02 1.611720000000000027e+03
1.270000000000000018e-01 4.983810000000000184e-01 1.412708500000000100e+01 1.613129999999999882e+02 1.611505000000000109e+03
1.280000000000000027e-01 4.982639999999999847e-01 1.336986500000000078e+01 1.606295000000000073e+02 1.611300000000000182e+03
1.290000000000000036e-01 4.981554999999999733e-01 1.264731499999999897e+01 1.599954999999999927e+02 1.611099999999999909e+03
1.300000000000000044e-01 4.980575000000000419e-01 1.196222999999999992e+01 1.594145000000000039e+02 1.610920000000000073e+03
1.310000000000000053e-01 4.979694999999999538e-01 1.131635999999999953e+01 1.588894999999999982e+02 1.610755000000000109e+03
1.320000000000000062e-01 4.978905000000000136e-01 1.071061500000000066e+01 1.584199999999999875e+02 1.610605000000000018e+03
1.330000000000000071e-01 4.978214999999999724e-01 1.014524499999999918e+01 1.580049999999999955e+02 1.610470000000000027e+03
1.340000000000000080e-01 4.977614999999999679e-01 9.619545000000000456e+00 1.576424999999999841e+02 1.610349999999999909e+03
1.350000000000000089e-01 4.977099999999999858e-01 9.132144999999999513e+00 1.573274999999999864e+02 1.610244999999999891e+03
1.360000000000000098e-01 4.976645000000000096e-01 8.681140000000000967e+00 1.570564999999999998e+02 1.610144999999999982e+03
1.370000000000000107e-01 4.976260000000000128e-01 8.264025000000000176e+00 1.568215000000000146e+02 1.610065000000000055e+03
1.380000000000000115e-01 4.975919999999999788e-01 7.877990000000000492e+00 1.566175000000000068e+02 1.609985000000000127e+03
1.390000000000000124e-01 4.975614999999999899e-01 7.520030000000000214e+00 1.564379999999999882e+02 1.609920000000000073e+03
1.400000000000000133e-01 4.975340000000000318e-01 7.186964999999999826e+00 1.562754999999999939e+02 1.609865000000000009e+03
1.410000000000000142e-01 4.975080000000000058e-01 6.875619999999999621e+00 1.561245000000000118e+02 1.609805000000000064e+03
1.420000000000000151e-01 4.974824999999999386e-01 6.582925000000000360e+00 1.559789999999999850e+02 1.609755000000000109e+03
1.430000000000000160e-01 4.974565000000000237e-01 6.305975000000000108e+00 1.558329999999999984e+02 1.609704999999999927e+03
1.440000000000000169e-01 4.974294999999999689e-01 6.042099999999999582e+00 1.556829999999999927e+02 1.609650000000000091e+03
1.450000000000000178e-01 4.974005000000000232e-01 5.788915000000000255e+00 1.555240000000000009e+02 1.609599999999999909e+03
1.459999999999999909e-01 4.973699999999999788e-01 5.544354999999999478e+00 1.553539999999999850e+02 1.609545000000000073e+03
1.469999999999999918e-01 4.973365000000000147e-01 5.306709999999999816e+00 1.551699999999999875e+02 1.609489999999999782e+03
1.479999999999999927e-01 4.973005000000000342e-01 5.074619999999999465e+00 1.549710000000000036e+02 1.609429999999999836e+03
1.489999999999999936e-01 4.972619999999999818e-01 4.847080000000000055e+00 1.547570000000000050e+02 1.609365000000000009e+03
1.499999999999999944e-01 4.972210000000000241e-01 4.623435000000000628e+00 1.545274999999999750e+02 1.609295000000000073e+03
1.509999999999999953e-01 4.971774999999999944e-01 4.403380000000000294e+00 1.542844999999999800e+02 1.609224999999999909e+03
1.519999999999999962e-01 4.971319999999999628e-01 4.186910000000000132e+00 1.540280000000000200e+02 1.609150000000000091e+03
1.529999999999999971e-01 4.970839999999999703e-01 3.974314999999999820e+00 1.537610000000000241e+02 1.609065000000000055e+03
1.539999999999999980e-01 4.970355000000000190e-01 3.766094999999999970e+00 1.534844999999999970e+02 1.608990000000000009e+03
1.549999999999999989e-01 4.969860000000000388e-01 3.562945000000000029e+00 1.532019999999999982e+02 1.608909999999999854e+03
1.559999999999999998e-01 4.969359999999999888e-01 3.365655000000000285e+00 1.529159999999999968e+02 1.608820000000000164e+03
1.570000000000000007e-01 4.968854999999999800e-01 3.175065000000000026e+00 1.526279999999999859e+02 1.608735000000000127e+03
1.580000000000000016e-01 4.968360000000000554e-01 2.991970000000000240e+00 1.523414999999999964e+02 1.608655000000000200e+03
1.590000000000000024e-01 4.967869999999999786e-01 2.817074999999999996e+00 1.520579999999999927e+02 1.608569999999999936e+03
