# t [s], A [cm^2], U [cm/s], P [cPa], c [cm/s]
1.000000000000000021e-03 5.576225000000000209e-01 5.187899999999995293e-03 9.690075000000000216e+01 1.612485000000000127e+03
2.000000000000000042e-03 5.576130000000000253e-01 -3.896204999999999807e-03 9.687555000000000405e+01 1.612480000000000018e+03
3.000000000000000062e-03 5.576444999999999874e-01 5.712015000000000148e-02 9.693959999999999866e+01 1.612494999999999891e+03
4.000000000000000083e-03 5.576910000000000478e-01 1.530498999999999887e-01 9.706114999999999782e+01 1.612525000000000091e+03
5.000000000000000104e-03 5.576904999999999779e-01 1.692454999999999932e-01 9.707300000000000750e+01 1.612529999999999973e+03
6.000000000000000125e-03 5.576444999999999874e-01 9.577949999999998965e-02 9.692659999999999343e+01 1.612500000000000000e+03
7.000000000000000146e-03 5.576010000000000133e-01 2.342300000000002713e-02 9.672325000000000728e+01 1.612450000000000045e+03
8.000000000000000167e-03 5.575554999999999817e-01 -6.060500000000001997e-02 9.646835000000000093e+01 1.612389999999999873e+03
9.000000000000001055e-03 5.574755000000000127e-01 -2.255515000000000159e-01 9.607819999999999538e+01 1.612289999999999964e+03
1.000000000000000194e-02 5.573529999999999873e-01 -4.898350000000000204e-01 9.550605000000000189e+01 1.612159999999999854e+03
1.099999999999999936e-02 5.571800000000000086e-01 -8.645400000000000862e-01 9.470920000000000982e+01 1.611965000000000146e+03
1.200000000000000025e-02 5.569419999999999371e-01 -1.370945000000000080e+00 9.362780000000000769e+01 1.611704999999999927e+03
1.300000000000000114e-02 5.566415000000000113e-01 -1.990629999999999900e+00 9.224565000000001191e+01 1.611365000000000009e+03
1.400000000000000203e-02 5.563104999999999301e-01 -2.636835000000000040e+00 9.064254999999999995e+01 1.610960000000000036e+03
1.499999999999999944e-02 5.559965000000000046e-01 -3.187653999999999765e+00 8.897010000000000218e+01 1.610519999999999982e+03
1.600000000000000033e-02 5.557339999999999502e-01 -3.543568999999999747e+00 8.737999999999999545e+01 1.610085000000000036e+03
1.700000000000000122e-02 5.555315000000000669e-01 -3.662946999999999953e+00 8.596460000000000434e+01 1.609674999999999955e+03
1.800000000000000211e-02 5.553740000000000343e-01 -3.563465499999999953e+00 8.473615000000000919e+01 1.609300000000000182e+03
1.900000000000000300e-02 5.552319999999999478e-01 -3.301420499999999869e+00 8.364164999999999850e+01 1.608949999999999818e+03
2.000000000000000042e-02 5.550775000000000015e-01 -2.944236499999999701e+00 8.259479999999999222e+01 1.608605000000000018e+03
2.100000000000000130e-02 5.548899999999999944e-01 -2.546645499999999895e+00 8.151189999999999714e+01 1.608255000000000109e+03
2.200000000000000219e-02 5.546645000000000048e-01 -2.136393499999999612e+00 8.033914999999998940e+01 1.607884999999999991e+03
2.299999999999999961e-02 5.544080000000000119e-01 -1.711820000000000119e+00 7.906595000000000084e+01 1.607485000000000127e+03
2.400000000000000050e-02 5.541359999999999619e-01 -1.250625000000000098e+00 7.772075000000000955e+01 1.607074999999999818e+03
2.500000000000000139e-02 5.538649999999999407e-01 -7.254849999999997134e-01 7.635360000000000014e+01 1.606644999999999982e+03
2.600000000000000228e-02 5.536060000000000425e-01 -1.201050000000001283e-01 7.501259999999999195e+01 1.606224999999999909e+03
2.700000000000000316e-02 5.533624999999999794e-01 5.598650000000000571e-01 7.372374999999999545e+01 1.605815000000000055e+03
2.800000000000000058e-02 5.531249999999999778e-01 1.283735000000000070e+00 7.248009999999999309e+01 1.605414999999999964e+03
2.900000000000000147e-02 5.528774999999999107e-01 2.000124999999999709e+00 7.124084999999999468e+01 1.605014999999999873e+03
3.000000000000000236e-02 5.526014999999999677e-01 2.646910000000000096e+00 6.994065000000000509e+01 1.604599999999999909e+03
3.099999999999999978e-02 5.522789999999999644e-01 3.164064999999999905e+00 6.850600000000000023e+01 1.604164999999999964e+03
3.200000000000000067e-02 5.518994999999999873e-01 3.506520000000000081e+00 6.687415000000000020e+01 1.603679999999999836e+03
3.300000000000000155e-02 5.514605000000000201e-01 3.653899999999999704e+00 6.501115000000000066e+01 1.603139999999999873e+03
3.400000000000000244e-02 5.509714999999999474e-01 3.614415000000000155e+00 6.292284999999999684e+01 1.602554999999999836e+03
3.500000000000000333e-02 5.504519999999999413e-01 3.422254999999999825e+00 6.065685000000000571e+01 1.601924999999999955e+03
3.600000000000000422e-02 5.499254999999999560e-01 3.128765000000000462e+00 5.829469999999999885e+01 1.601259999999999991e+03
3.700000000000000511e-02 5.494170000000000442e-01 2.791855000000000420e+00 5.593770000000000664e+01 1.600595000000000027e+03
3.799999999999999906e-02 5.489485000000000614e-01 2.466019999999999879e+00 5.369115000000000038e+01 1.599950000000000045e+03
3.899999999999999994e-02 5.485369999999999413e-01 2.195059999999999789e+00 5.165049999999999386e+01 1.599355000000000018e+03
4.000000000000000083e-02 5.481945000000000290e-01 2.009410000000000363e+00 4.989249999999999829e+01 1.598829999999999927e+03
4.100000000000000172e-02 5.479249999999999954e-01 1.926395000000000080e+00 4.847074999999999534e+01 1.598380000000000109e+03
4.200000000000000261e-02 5.477309999999999679e-01 1.953115000000000157e+00 4.741655000000000086e+01 1.598029999999999973e+03
4.300000000000000350e-02 5.476119999999999877e-01 2.090535500000000102e+00 4.674259999999999593e+01 1.597784999999999854e+03
4.400000000000000439e-02 5.475645000000000095e-01 2.337588499999999847e+00 4.644859999999999900e+01 1.597639999999999873e+03
4.499999999999999833e-02 5.475875000000000048e-01 2.694415000000000227e+00 4.652740000000000009e+01 1.597605000000000018e+03
4.599999999999999922e-02 5.476800000000000557e-01 3.164130000000000109e+00 4.696989999999999554e+01 1.597670000000000073e+03
4.700000000000000011e-02 5.478419999999999401e-01 3.752785000000000259e+00 4.776765000000000327e+01 1.597840000000000146e+03
4.800000000000000100e-02 5.480724999999999625e-01 4.467919999999999447e+00 4.891360000000000241e+01 1.598110000000000127e+03
4.900000000000000189e-02 5.483725000000000405e-01 5.316150000000000375e+00 5.040064999999999884e+01 1.598480000000000018e+03
5.000000000000000278e-02 5.487400000000000055e-01 6.300679999999999836e+00 5.221885000000000332e+01 1.598944999999999936e+03
5.100000000000000366e-02 5.491709999999999647e-01 7.419195000000000206e+00 5.435299999999999443e+01 1.599500000000000000e+03
5.200000000000000455e-02 5.496604999999999963e-01 8.663059999999999761e+00 5.678020000000000067e+01 1.600144999999999982e+03
5.300000000000000544e-02 5.502004999999999812e-01 1.001707000000000036e+01 5.946944999999999482e+01 1.600869999999999891e+03
5.399999999999999939e-02 5.507819999999999938e-01 1.146066500000000055e+01 6.238185000000000002e+01 1.601659999999999854e+03
5.500000000000000028e-02 5.513950000000000795e-01 1.296944500000000033e+01 6.547239999999999327e+01 1.602509999999999991e+03
5.600000000000000117e-02 5.520285000000000331e-01 1.451754000000000033e+01 6.869299999999999784e+01 1.603404999999999973e+03
5.700000000000000205e-02 5.526725000000000110e-01 1.607919499999999857e+01 7.199500000000000455e+01 1.604335000000000036e+03
5.800000000000000294e-02 5.533200000000000340e-01 1.763091999999999970e+01 7.533254999999999768e+01 1.605285000000000082e+03
5.900000000000000383e-02 5.539620000000000655e-01 1.915265000000000128e+01 7.866530000000000200e+01 1.606244999999999891e+03
6.000000000000000472e-02 5.545944999999999903e-01 2.062825000000000131e+01 8.195990000000000464e+01 1.607199999999999818e+03
6.099999999999999867e-02 5.552129999999999566e-01 2.204589999999999961e+01 8.519110000000000582e+01 1.608150000000000091e+03
6.199999999999999956e-02 5.558160000000000878e-01 2.339780000000000015e+01 8.834184999999999377e+01 1.609079999999999927e+03
6.300000000000000044e-02 5.564035000000000508e-01 2.467954999999999899e+01 9.140364999999999895e+01 1.609994999999999891e+03
6.400000000000000133e-02 5.569744999999999280e-01 2.588945000000000007e+01 9.437235000000001151e+01 1.610884999999999991e+03
6.500000000000000222e-02 5.575304999999999289e-01 2.702769999999999939e+01 9.725200000000000955e+01 1.611755000000000109e+03
6.600000000000000311e-02 5.580735000000000001e-01 2.809580000000000055e+01 1.000473000000000070e+02 1.612605000000000018e+03
6.700000000000000400e-02 5.586050000000000182e-01 2.909595000000000198e+01 1.027667500000000018e+02 1.613434999999999945e+03
6.800000000000000488e-02 5.591254999999999420e-01 3.003025000000000233e+01 1.054184999999999945e+02 1.614244999999999891e+03
6.900000000000000577e-02 5.596375000000000099e-01 3.090050000000000097e+01 1.080099999999999909e+02 1.615039999999999964e+03
7.000000000000000666e-02 5.601410000000000000e-01 3.170790000000000219e+01 1.105469999999999970e+02 1.615815000000000055e+03
7.100000000000000755e-02 5.606354999999999533e-01 3.245239999999999725e+01 1.130330000000000013e+02 1.616579999999999927e+03
7.200000000000000844e-02 5.611209999999999809e-01 3.313329999999999842e+01 1.154660000000000082e+02 1.617324999999999818e+03
7.300000000000000933e-02 5.615955000000000252e-01 3.374864999999999782e+01 1.178430000000000035e+02 1.618059999999999945e+03
7.399999999999999634e-02 5.620574999999999877e-01 3.429574999999999818e+01 1.201569999999999965e+02 1.618769999999999982e+03
7.499999999999999722e-02 5.625050000000000328e-01 3.477139999999999986e+01 1.223984999999999985e+02 1.619465000000000146e+03
7.599999999999999811e-02 5.629349999999999632e-01 3.517234999999999445e+01 1.245554999999999950e+02 1.620140000000000100e+03
7.699999999999999900e-02 5.633455000000000545e-01 3.549524999999999864e+01 1.266165000000000020e+02 1.620784999999999854e+03
7.799999999999999989e-02 5.637334999999999985e-01 3.573744999999999550e+01 1.285679999999999836e+02 1.621400000000000091e+03
7.900000000000000078e-02 5.640970000000000706e-01 3.589705000000000013e+01 1.303985000000000127e+02 1.621980000000000018e+03
8.000000000000000167e-02 5.644350000000000200e-01 3.597289999999999566e+01 1.320974999999999966e+02 1.622525000000000091e+03
8.100000000000000255e-02 5.647444999999999826e-01 3.596484999999999843e+01 1.336564999999999941e+02 1.623030000000000200e+03
8.200000000000000344e-02 5.650254999999999583e-01 3.587364999999999782e+01 1.350690000000000168e+02 1.623494999999999891e+03
8.300000000000000433e-02 5.652774999999999883e-01 3.570104999999999507e+01 1.363299999999999841e+02 1.623909999999999854e+03
8.400000000000000522e-02 5.654995000000000438e-01 3.544955000000000211e+01 1.374385000000000048e+02 1.624284999999999854e+03
8.500000000000000611e-02 5.656919999999999726e-01 3.512234999999999729e+01 1.383935000000000173e+02 1.624615000000000009e+03
8.600000000000000699e-02 5.658559999999999146e-01 3.472344999999999970e+01 1.391980000000000075e+02 1.624894999999999982e+03
8.700000000000000788e-02 5.659914999999999807e-01 3.425764999999999816e+01 1.398545000000000016e+02 1.625139999999999873e+03
8.800000000000000877e-02 5.660994999999999777e-01 3.373049999999999926e+01 1.403704999999999927e+02 1.625335000000000036e+03
8.899999999999999578e-02 5.661825000000000330e-01 3.314804999999999779e+01 1.407535000000000025e+02 1.625485000000000127e+03
8.999999999999999667e-02 5.662415000000000642e-01 3.251739999999999498e+01 1.410124999999999886e+02 1.625605000000000018e+03
9.099999999999999756e-02 5.662795000000000467e-01 3.184620000000000317e+01 1.411585000000000036e+02 1.625684999999999945e+03
9.199999999999999845e-02 5.662985000000000380e-01 3.114254999999999995e+01 1.412044999999999959e+02 1.625735000000000127e+03
9.299999999999999933e-02 5.663015000000000132e-01 3.041505000000000081e+01 1.411634999999999991e+02 1.625750000000000000e+03
9.400000000000000022e-02 5.662914999999999477e-01 2.967225000000000179e+01 1.410504999999999995e+02 1.625744999999999891e+03
9.500000000000000111e-02 5.662700000000000511e-01 2.892275000000000063e+01 1.408789999999999907e+02 1.625720000000000027e+03
9.600000000000000200e-02 5.662415000000000642e-01 2.817435000000000045e+01 1.406639999999999873e+02 1.625674999999999955e+03
9.700000000000000289e-02 5.662065000000000570e-01 2.743420000000000059e+01 1.404180000000000064e+02 1.625619999999999891e+03
9.800000000000000377e-02 5.661684999999999635e-01 2.670839999999999748e+01 1.401530000000000200e+02 1.625549999999999955e+03
9.900000000000000466e-02 5.661285000000000345e-01 2.600164999999999793e+01 1.398789999999999907e+02 1.625480000000000018e+03
1.000000000000000056e-01 5.660884999999999945e-01 2.531719999999999970e+01 1.396030000000000086e+02 1.625404999999999973e+03
1.010000000000000064e-01 5.660485000000000655e-01 2.465684999999999860e+01 1.393310000000000173e+02 1.625324999999999818e+03
1.020000000000000073e-01 5.660080000000000666e-01 2.402100000000000080e+01 1.390639999999999930e+02 1.625250000000000000e+03
1.030000000000000082e-01 5.659674999999999567e-01 2.340850000000000009e+01 1.388040000000000020e+02 1.625170000000000073e+03
1.040000000000000091e-01 5.659264999999999990e-01 2.281729999999999947e+01 1.385480000000000018e+02 1.625095000000000027e+03
1.050000000000000100e-01 5.658834999999999837e-01 2.224414999999999765e+01 1.382924999999999898e+02 1.625015000000000100e+03
1.059999999999999970e-01 5.658385000000000220e-01 2.168515000000000015e+01 1.380320000000000107e+02 1.624929999999999836e+03
1.069999999999999979e-01 5.657885000000000275e-01 2.113615000000000066e+01 1.377599999999999909e+02 1.624844999999999800e+03
1.079999999999999988e-01 5.657339999999999591e-01 2.059250000000000114e+01 1.374704999999999870e+02 1.624755000000000109e+03
1.089999999999999997e-01 5.656729999999999814e-01 2.004974999999999952e+01 1.371569999999999823e+02 1.624664999999999964e+03
1.100000000000000006e-01 5.656044999999999545e-01 1.950370000000000203e+01 1.368134999999999764e+02 1.624559999999999945e+03
1.110000000000000014e-01 5.655270000000000019e-01 1.895054999999999978e+01 1.364345000000000141e+02 1.624450000000000045e+03
1.120000000000000023e-01 5.654410000000000824e-01 1.838714999999999833e+01 1.360149999999999864e+02 1.624329999999999927e+03
1.130000000000000032e-01 5.653460000000000152e-01 1.781109999999999971e+01 1.355525000000000091e+02 1.624195000000000164e+03
1.140000000000000041e-01 5.652409999999999934e-01 1.722094999999999843e+01 1.350469999999999970e+02 1.624045000000000073e+03
1.150000000000000050e-01 5.651279999999999637e-01 1.661619999999999919e+01 1.344985000000000070e+02 1.623884999999999991e+03
1.160000000000000059e-01 5.650064999999999671e-01 1.599729999999999919e+01 1.339095000000000084e+02 1.623720000000000027e+03
1.170000000000000068e-01 5.648784999999999501e-01 1.536580000000000013e+01 1.332839999999999918e+02 1.623539999999999964e+03
1.180000000000000077e-01 5.647444999999999826e-01 1.472419999999999973e+01 1.326279999999999859e+02 1.623349999999999909e+03
1.190000000000000085e-01 5.646065000000000111e-01 1.407588499999999954e+01 1.319495000000000005e+02 1.623154999999999973e+03
1.200000000000000094e-01 5.644670000000000520e-01 1.342513500000000093e+01 1.312570000000000050e+02 1.622950000000000045e+03
1.209999999999999964e-01 5.643274999999999819e-01 1.277661499999999961e+01 1.305600000000000023e+02 1.622750000000000000e+03
1.219999999999999973e-01 5.641905000000000392e-01 1.213558499999999896e+01 1.298694999999999879e+02 1.622549999999999955e+03
1.229999999999999982e-01 5.640579999999999483e-01 1.150746999999999964e+01 1.291964999999999861e+02 1.622349999999999909e+03
1.239999999999999991e-01 5.639315000000000300e-01 1.089762499999999967e+01 1.285509999999999877e+02 1.622155000000000200e+03
1.250000000000000000e-01 5.638140000000000374e-01 1.031137499999999996e+01 1.279420000000000073e+02 1.621970000000000027e+03
1.260000000000000009e-01 5.637069999999999581e-01 9.753425000000000011e+00 1.273804999999999978e+02 1.621800000000000182e+03
1.270000000000000018e-01 5.636105000000000143e-01 9.227949999999999875e+00 1.268725000000000023e+02 1.621644999999999982e+03
1.280000000000000027e-01 5.635270000000000001e-01 8.738459999999999894e+00 1.264249999999999972e+02 1.621494999999999891e+03
1.290000000000000036e-01 5.634575000000000555e-01 8.287530000000000285e+00 1.260420000000000016e+02 1.621369999999999891e+03
1.300000000000000044e-01 5.634004999999999708e-01 7.876670000000000726e+00 1.257270000000000039e+02 1.621264999999999873e+03
1.310000000000000053e-01 5.633574999999999555e-01 7.506639999999999979e+00 1.254784999999999968e+02 1.621179999999999836e+03
1.320000000000000062e-01 5.633269999999999111e-01 7.177105000000000956e+00 1.252969999999999970e+02 1.621109999999999900e+03
1.330000000000000071e-01 5.633090000000000597e-01 6.886885000000000367e+00 1.251779999999999973e+02 1.621059999999999945e+03
1.340000000000000080e-01 5.633010000000000517e-01 6.634030000000000094e+00 1.251175000000000068e+02 1.621029999999999973e+03
1.350000000000000089e-01 5.633034999999999570e-01 6.415950000000000486e+00 1.251090000000000089e+02 1.621005000000000109e+03
1.360000000000000098e-01 5.633140000000000924e-01 6.229559999999999320e+00 1.251465000000000032e+02 1.621009999999999991e+03
1.370000000000000107e-01 5.633314999999999850e-01 6.071444999999999759e+00 1.252224999999999966e+02 1.621014999999999873e+03
1.380000000000000115e-01 5.633544999999999803e-01 5.938034999999999286e+00 1.253280000000000030e+02 1.621030000000000200e+03
1.390000000000000124e-01 5.633804999999999508e-01 5.825715000000000643e+00 1.254569999999999936e+02 1.621059999999999945e+03
1.400000000000000133e-01 5.634095000000000075e-01 5.730974999999999930e+00 1.256015000000000015e+02 1.621090000000000146e+03
1.410000000000000142e-01 5.634394999999999820e-01 5.650479999999999947e+00 1.257549999999999955e+02 1.621130000000000109e+03
1.420000000000000151e-01 5.634700000000000264e-01 5.581179999999999808e+00 1.259120000000000061e+02 1.621170000000000073e+03
1.430000000000000160e-01 5.635000000000000009e-01 5.520305000000000462e+00 1.260674999999999955e+02 1.621210000000000036e+03
1.440000000000000169e-01 5.635284999999999878e-01 5.465415000000000134e+00 1.262169999999999987e+02 1.621250000000000000e+03
1.450000000000000178e-01 5.635544999999999582e-01 5.414384999999999337e+00 1.263580000000000041e+02 1.621289999999999964e+03
1.459999999999999909e-01 5.635790000000000521e-01 5.365415000000000489e+00 1.264869999999999948e+02 1.621325000000000045e+03
1.469999999999999918e-01 5.636010000000000186e-01 5.317000000000000171e+00 1.266034999999999968e+02 1.621360000000000127e+03
1.479999999999999927e-01 5.636200000000000099e-01 5.267929999999999779e+00 1.267049999999999983e+02 1.621389999999999873e+03
1.489999999999999936e-01 5.636360000000000259e-01 5.217234999999999623e+00 1.267920000000000016e+02 1.621414999999999964e+03
1.499999999999999944e-01 5.636494999999999145e-01 5.164194999999999425e+00 1.268640000000000043e+02 1.621440000000000055e+03
1.509999999999999953e-01 5.636600000000000499e-01 5.108309999999999462e+00 1.269209999999999923e+02 1.621454999999999927e+03
1.519999999999999962e-01 5.636680000000000579e-01 5.049285000000000245e+00 1.269639999999999986e+02 1.621470000000000027e+03
1.529999999999999971e-01 5.636734999999999385e-01 4.986990000000000478e+00 1.269935000000000116e+02 1.621485000000000127e+03
1.539999999999999980e-01 5.636769999999999836e-01 4.921459999999999724e+00 1.270095000000000027e+02 1.621490000000000009e+03
1.549999999999999989e-01 5.636780000000000124e-01 4.852870000000000239e+00 1.270139999999999958e+02 1.621490000000000009e+03
1.559999999999999998e-01 5.636769999999999836e-01 4.781475000000000364e+00 1.270074999999999932e+02 1.621494999999999891e+03
1.570000000000000007e-01 5.636735000000000495e-01 4.707600000000000229e+00 1.269900000000000091e+02 1.621490000000000009e+03
1.580000000000000016e-01 5.636695000000000455e-01 4.631619999999999848e+00 1.269639999999999986e+02 1.621490000000000009e+03
1.590000000000000024e-01 5.636634999999999840e-01 4.553905000000000314e+00 1.269290000000000020e+02 1.621480000000000018e+03
