# t [s], A [cm^2], U [cm/s], P [cPa], c [cm/s]
1.000000000000000021e-03 1.951490000000000169e-01 3.135004999999999598e-01 9.352824999999999989e+01 2.006295000000000073e+03
2.000000000000000042e-03 1.951054999999999873e-01 1.771418500000000229e+00 9.045550000000000068e+01 2.005960000000000036e+03
3.000000000000000062e-03 1.949764999999999970e-01 3.548960499999999740e+00 8.631305000000000405e+01 2.005000000000000000e+03
4.000000000000000083e-03 1.947945000000000093e-01 5.528117499999999573e+00 8.182179999999999609e+01 2.003670000000000073e+03
5.000000000000000104e-03 1.945950000000000180e-01 7.647190000000000154e+00 7.779035000000000366e+01 2.002224999999999909e+03
6.000000000000000125e-03 1.944000000000000172e-01 9.755580000000000140e+00 7.450954999999999018e+01 2.000829999999999927e+03
7.000000000000000146e-03 1.942165000000000141e-01 1.166153500000000065e+01 7.177929999999999211e+01 1.999529999999999973e+03
8.000000000000000167e-03 1.940469999999999973e-01 1.327463499999999996e+01 6.936010000000000275e+01 1.998360000000000127e+03
9.000000000000001055e-03 1.938964999999999994e-01 1.461894999999999811e+01 6.725769999999999982e+01 1.997329999999999927e+03
1.000000000000000194e-02 1.937685000000000102e-01 1.572980000000000089e+01 6.554404999999999859e+01 1.996465000000000146e+03
1.099999999999999936e-02 1.936620000000000008e-01 1.662144999999999939e+01 6.420660000000000878e+01 1.995755000000000109e+03
1.200000000000000025e-02 1.935769999999999991e-01 1.730375000000000085e+01 6.318474999999999397e+01 1.995200000000000045e+03
1.300000000000000114e-02 1.935100000000000153e-01 1.778255000000000052e+01 6.239405000000000001e+01 1.994764999999999873e+03
1.400000000000000203e-02 1.934560000000000168e-01 1.806534999999999869e+01 6.173494999999999777e+01 1.994420000000000073e+03
1.499999999999999944e-02 1.934115000000000140e-01 1.819379999999999953e+01 6.117229999999999990e+01 1.994150000000000091e+03
1.600000000000000033e-02 1.933789999999999953e-01 1.826500000000000057e+01 6.082990000000000208e+01 1.993954999999999927e+03
1.700000000000000122e-02 1.933654999999999957e-01 1.840804999999999936e+01 6.097625000000000028e+01 1.993884999999999991e+03
1.800000000000000211e-02 1.933789999999999953e-01 1.872545000000000215e+01 6.188150000000000261e+01 1.993985000000000127e+03
1.900000000000000300e-02 1.934250000000000136e-01 1.924210000000000065e+01 6.364325000000000188e+01 1.994305000000000064e+03
2.000000000000000042e-02 1.935009999999999786e-01 1.989160000000000039e+01 6.609539999999999793e+01 1.994820000000000164e+03
2.100000000000000130e-02 1.935979999999999923e-01 2.054339999999999833e+01 6.884479999999999222e+01 1.995474999999999909e+03
2.200000000000000219e-02 1.937010000000000121e-01 2.105219999999999914e+01 7.140254999999999086e+01 1.996184999999999945e+03
2.299999999999999961e-02 1.937939999999999940e-01 2.130715000000000003e+01 7.334395000000000664e+01 1.996835000000000036e+03
2.400000000000000050e-02 1.938655000000000239e-01 2.126169999999999760e+01 7.443004999999999427e+01 1.997340000000000146e+03
2.500000000000000139e-02 1.939089999999999980e-01 2.093819999999999837e+01 7.465364999999999895e+01 1.997664999999999964e+03
2.600000000000000228e-02 1.939265000000000017e-01 2.040910000000000224e+01 7.420400000000000773e+01 1.997799999999999955e+03
2.700000000000000316e-02 1.939230000000000120e-01 1.976510000000000034e+01 7.337354999999999450e+01 1.997800000000000182e+03
2.800000000000000058e-02 1.939075000000000104e-01 1.908324999999999960e+01 7.244830000000000325e+01 1.997704999999999927e+03
2.900000000000000147e-02 1.938865000000000172e-01 1.840670000000000073e+01 7.162174999999999159e+01 1.997565000000000055e+03
3.000000000000000236e-02 1.938654999999999962e-01 1.774024999999999963e+01 7.095664999999999623e+01 1.997420000000000073e+03
3.099999999999999978e-02 1.938445000000000029e-01 1.705959999999999965e+01 7.039820000000000277e+01 1.997284999999999854e+03
3.200000000000000067e-02 1.938225000000000087e-01 1.633000000000000185e+01 6.982505000000000450e+01 1.997139999999999873e+03
3.300000000000000155e-02 1.937969999999999970e-01 1.552609999999999957e+01 6.911464999999999748e+01 1.996964999999999918e+03
3.400000000000000244e-02 1.937645000000000062e-01 1.464714999999999989e+01 6.820314999999999372e+01 1.996750000000000000e+03
3.500000000000000333e-02 1.937254999999999949e-01 1.372390000000000043e+01 6.711965000000000714e+01 1.996490000000000009e+03
3.600000000000000422e-02 1.936820000000000208e-01 1.281479999999999997e+01 6.598910000000000764e+01 1.996199999999999818e+03
3.700000000000000511e-02 1.936394999999999922e-01 1.199360000000000070e+01 6.500274999999999181e+01 1.995909999999999854e+03
3.799999999999999906e-02 1.936049999999999993e-01 1.133149999999999835e+01 6.436719999999999686e+01 1.995670000000000073e+03
3.899999999999999994e-02 1.935850000000000071e-01 1.088000500000000059e+01 6.424814999999999543e+01 1.995529999999999973e+03
4.000000000000000083e-02 1.935844999999999927e-01 1.065850000000000009e+01 6.472469999999999857e+01 1.995514999999999873e+03
4.100000000000000172e-02 1.936054999999999859e-01 1.064959999999999951e+01 6.576675000000000182e+01 1.995644999999999982e+03
4.200000000000000261e-02 1.936459999999999848e-01 1.080264999999999986e+01 6.723820000000000618e+01 1.995905000000000200e+03
4.300000000000000350e-02 1.937004999999999977e-01 1.104344999999999999e+01 6.892394999999999072e+01 1.996264999999999873e+03
4.400000000000000439e-02 1.937619999999999898e-01 1.128780000000000072e+01 7.057019999999999982e+01 1.996670000000000073e+03
4.499999999999999833e-02 1.938199999999999923e-01 1.145384999999999920e+01 7.192844999999999800e+01 1.997065000000000055e+03
4.599999999999999922e-02 1.938679999999999848e-01 1.147370000000000090e+01 7.279269999999999641e+01 1.997389999999999873e+03
4.700000000000000011e-02 1.938980000000000148e-01 1.129954999999999998e+01 7.302445000000000164e+01 1.997599999999999909e+03
4.800000000000000100e-02 1.939044999999999797e-01 1.090639999999999965e+01 7.256245000000001255e+01 1.997650000000000091e+03
4.900000000000000189e-02 1.938860000000000028e-01 1.029054000000000002e+01 7.141814999999999714e+01 1.997534999999999854e+03
5.000000000000000278e-02 1.938409999999999855e-01 9.465780000000000527e+00 6.966075000000000728e+01 1.997244999999999891e+03
5.100000000000000366e-02 1.937734999999999874e-01 8.458050000000000068e+00 6.739759999999999707e+01 1.996785000000000082e+03
5.200000000000000455e-02 1.936849999999999961e-01 7.300650000000000972e+00 6.475400000000000489e+01 1.996194999999999936e+03
5.300000000000000544e-02 1.935804999999999887e-01 6.030120000000000147e+00 6.185694999999999766e+01 1.995490000000000009e+03
5.399999999999999939e-02 1.934639999999999971e-01 4.684134999999999494e+00 5.882459999999999667e+01 1.994704999999999927e+03
5.500000000000000028e-02 1.933409999999999851e-01 3.300171299999999697e+00 5.576219999999999999e+01 1.993864999999999782e+03
5.600000000000000117e-02 1.932139999999999969e-01 1.915515000000000079e+00 5.276205000000000211e+01 1.993005000000000109e+03
5.700000000000000205e-02 1.930879999999999819e-01 5.676799999999999624e-01 4.990729999999999933e+01 1.992150000000000091e+03
5.800000000000000294e-02 1.929664999999999853e-01 -7.053099999999998815e-01 4.727535000000000309e+01 1.991320000000000164e+03
5.900000000000000383e-02 1.928529999999999966e-01 -1.865043999999999924e+00 4.494134999999999991e+01 1.990545000000000073e+03
6.000000000000000472e-02 1.927510000000000057e-01 -2.873397999999999897e+00 4.297884999999999422e+01 1.989845000000000027e+03
6.099999999999999867e-02 1.926634999999999875e-01 -3.693959999999999688e+00 4.145865000000000578e+01 1.989240000000000009e+03
6.199999999999999956e-02 1.925945000000000018e-01 -4.293770000000000309e+00 4.044530000000000314e+01 1.988759999999999991e+03
6.300000000000000044e-02 1.925454999999999806e-01 -4.645349999999999646e+00 3.999249999999999972e+01 1.988414999999999964e+03
6.400000000000000133e-02 1.925199999999999967e-01 -4.728559999999999874e+00 4.013850000000000051e+01 1.988220000000000027e+03
6.500000000000000222e-02 1.925189999999999957e-01 -4.532080000000000553e+00 4.090155000000000030e+01 1.988194999999999936e+03
6.600000000000000311e-02 1.925429999999999919e-01 -4.054285000000000139e+00 4.227765000000000128e+01 1.988345000000000027e+03
6.700000000000000400e-02 1.925935000000000008e-01 -3.303469999999999906e+00 4.423959999999999582e+01 1.988664999999999964e+03
6.800000000000000488e-02 1.926680000000000059e-01 -2.297306850000000011e+00 4.673855000000000359e+01 1.989150000000000091e+03
6.900000000000000577e-02 1.927654999999999785e-01 -1.061764999999999848e+00 4.970664999999999623e+01 1.989795000000000073e+03
7.000000000000000666e-02 1.928825000000000123e-01 3.704600000000000115e-01 5.306179999999999808e+01 1.990570000000000164e+03
7.100000000000000755e-02 1.930169999999999941e-01 1.961864999999999970e+00 5.671280000000000143e+01 1.991474999999999909e+03
7.200000000000000844e-02 1.931654999999999900e-01 3.672146450000000062e+00 6.056504999999999939e+01 1.992470000000000027e+03
7.300000000000000933e-02 1.933235000000000092e-01 5.460300000000000153e+00 6.452590000000000714e+01 1.993539999999999964e+03
7.399999999999999634e-02 1.934879999999999933e-01 7.286579999999999835e+00 6.850955000000000439e+01 1.994654999999999973e+03
7.499999999999999722e-02 1.936554999999999804e-01 9.114290000000000447e+00 7.244155000000000655e+01 1.995795000000000073e+03
7.599999999999999811e-02 1.938225000000000087e-01 1.091121499999999855e+01 7.626189999999999714e+01 1.996929999999999836e+03
7.699999999999999900e-02 1.939870000000000205e-01 1.265080500000000185e+01 7.992709999999999582e+01 1.998059999999999945e+03
7.799999999999999989e-02 1.941464999999999996e-01 1.431269999999999953e+01 8.341085000000001060e+01 1.999154999999999973e+03
7.900000000000000078e-02 1.943000000000000005e-01 1.588325000000000031e+01 8.670384999999998854e+01 2.000214999999999918e+03
8.000000000000000167e-02 1.944474999999999953e-01 1.735495000000000232e+01 8.981194999999999595e+01 2.001235000000000127e+03
8.100000000000000255e-02 1.945880000000000110e-01 1.872605000000000075e+01 9.275379999999999825e+01 2.002215000000000146e+03
8.200000000000000344e-02 1.947230000000000072e-01 1.999954999999999927e+01 9.555684999999999718e+01 2.003150000000000091e+03
8.300000000000000433e-02 1.948524999999999840e-01 2.118209999999999837e+01 9.825489999999999213e+01 2.004049999999999955e+03
8.400000000000000522e-02 1.949779999999999847e-01 2.228245000000000076e+01 1.008825499999999948e+02 2.004929999999999836e+03
8.500000000000000611e-02 1.951005000000000100e-01 2.331070000000000064e+01 1.034727499999999907e+02 2.005784999999999854e+03
8.600000000000000699e-02 1.952220000000000066e-01 2.427665000000000006e+01 1.060544999999999902e+02 2.006634999999999991e+03
8.700000000000000788e-02 1.953429999999999889e-01 2.518925000000000125e+01 1.086490000000000009e+02 2.007474999999999909e+03
8.800000000000000877e-02 1.954635000000000122e-01 2.605535000000000068e+01 1.112694999999999936e+02 2.008324999999999818e+03
8.899999999999999578e-02 1.955850000000000088e-01 2.687964999999999804e+01 1.139194999999999993e+02 2.009170000000000073e+03
8.999999999999999667e-02 1.957070000000000198e-01 2.766420000000000101e+01 1.165949999999999989e+02 2.010029999999999973e+03
9.099999999999999756e-02 1.958305000000000184e-01 2.840830000000000055e+01 1.192824999999999989e+02 2.010889999999999873e+03
9.199999999999999845e-02 1.959535000000000027e-01 2.910889999999999844e+01 1.219615000000000009e+02 2.011750000000000000e+03
9.299999999999999933e-02 1.960760000000000003e-01 2.976059999999999661e+01 1.246080000000000041e+02 2.012610000000000127e+03
9.400000000000000022e-02 1.961975000000000247e-01 3.035620000000000118e+01 1.271915000000000049e+02 2.013454999999999927e+03
9.500000000000000111e-02 1.963154999999999761e-01 3.088729999999999976e+01 1.296804999999999950e+02 2.014285000000000082e+03
9.600000000000000200e-02 1.964294999999999791e-01 3.134465000000000146e+01 1.320439999999999827e+02 2.015085000000000036e+03
9.700000000000000289e-02 1.965385000000000049e-01 3.171885000000000332e+01 1.342510000000000048e+02 2.015849999999999909e+03
9.800000000000000377e-02 1.966410000000000102e-01 3.200090000000000146e+01 1.362719999999999914e+02 2.016575000000000045e+03
9.900000000000000466e-02 1.967355000000000076e-01 3.218249999999999744e+01 1.380829999999999984e+02 2.017240000000000009e+03
1.000000000000000056e-01 1.968214999999999826e-01 3.225685000000000002e+01 1.396639999999999873e+02 2.017845000000000027e+03
1.010000000000000064e-01 1.968975000000000031e-01 3.221880000000000166e+01 1.409985000000000070e+02 2.018389999999999873e+03
1.020000000000000073e-01 1.969635000000000136e-01 3.206550000000000011e+01 1.420780000000000030e+02 2.018855000000000018e+03
1.030000000000000082e-01 1.970179999999999987e-01 3.179630000000000223e+01 1.428999999999999773e+02 2.019250000000000000e+03
1.040000000000000091e-01 1.970625000000000016e-01 3.141319999999999979e+01 1.434675000000000011e+02 2.019570000000000164e+03
1.050000000000000100e-01 1.970955000000000068e-01 3.092089999999999961e+01 1.437905000000000086e+02 2.019815000000000055e+03
1.059999999999999970e-01 1.971179999999999877e-01 3.032649999999999935e+01 1.438845000000000027e+02 2.019980000000000018e+03
1.069999999999999979e-01 1.971304999999999863e-01 2.963935000000000031e+01 1.437704999999999984e+02 2.020074999999999818e+03
1.079999999999999988e-01 1.971340000000000037e-01 2.887100000000000222e+01 1.434735000000000014e+02 2.020110000000000127e+03
1.089999999999999997e-01 1.971289999999999987e-01 2.803444999999999965e+01 1.430219999999999914e+02 2.020079999999999927e+03
1.100000000000000006e-01 1.971169999999999867e-01 2.714390000000000214e+01 1.424465000000000146e+02 2.020005000000000109e+03
1.110000000000000014e-01 1.970989999999999964e-01 2.621399999999999864e+01 1.417775000000000034e+02 2.019889999999999873e+03
1.120000000000000023e-01 1.970764999999999878e-01 2.525954999999999728e+01 1.410455000000000041e+02 2.019740000000000009e+03
1.130000000000000032e-01 1.970504999999999896e-01 2.429469999999999885e+01 1.402789999999999964e+02 2.019559999999999945e+03
1.140000000000000041e-01 1.970220000000000027e-01 2.333279999999999887e+01 1.395029999999999859e+02 2.019365000000000009e+03
1.150000000000000050e-01 1.969925000000000148e-01 2.238569999999999993e+01 1.387389999999999759e+02 2.019164999999999964e+03
1.160000000000000059e-01 1.969629999999999992e-01 2.146349999999999980e+01 1.380054999999999836e+02 2.018954999999999927e+03
1.170000000000000068e-01 1.969334999999999836e-01 2.057424999999999926e+01 1.373139999999999930e+02 2.018744999999999891e+03
1.180000000000000077e-01 1.969055000000000111e-01 1.972384999999999877e+01 1.366715000000000089e+02 2.018549999999999955e+03
1.190000000000000085e-01 1.968785000000000118e-01 1.891590000000000060e+01 1.360815000000000055e+02 2.018360000000000127e+03
1.200000000000000094e-01 1.968530000000000002e-01 1.815185000000000315e+01 1.355409999999999968e+02 2.018180000000000064e+03
1.209999999999999964e-01 1.968294999999999906e-01 1.743094999999999928e+01 1.350434999999999945e+02 2.018009999999999991e+03
1.219999999999999973e-01 1.968070000000000097e-01 1.675049999999999883e+01 1.345785000000000196e+02 2.017849999999999909e+03
1.229999999999999982e-01 1.967860000000000165e-01 1.610624999999999929e+01 1.341329999999999814e+02 2.017699999999999818e+03
1.239999999999999991e-01 1.967654999999999821e-01 1.549249999999999972e+01 1.336904999999999859e+02 2.017549999999999955e+03
1.250000000000000000e-01 1.967450000000000032e-01 1.490269999999999939e+01 1.332350000000000136e+02 2.017400000000000091e+03
1.260000000000000009e-01 1.967229999999999812e-01 1.432965000000000089e+01 1.327500000000000000e+02 2.017250000000000000e+03
1.270000000000000018e-01 1.967005000000000003e-01 1.376604999999999990e+01 1.322185000000000059e+02 2.017090000000000146e+03
1.280000000000000027e-01 1.966760000000000175e-01 1.320495000000000019e+01 1.316260000000000048e+02 2.016914999999999964e+03
1.290000000000000036e-01 1.966485000000000039e-01 1.263990000000000080e+01 1.309590000000000032e+02 2.016724999999999909e+03
1.300000000000000044e-01 1.966185000000000016e-01 1.206559999999999988e+01 1.302094999999999914e+02 2.016509999999999991e+03
1.310000000000000053e-01 1.965850000000000097e-01 1.147795499999999969e+01 1.293709999999999809e+02 2.016275000000000091e+03
1.320000000000000062e-01 1.965480000000000005e-01 1.087446999999999875e+01 1.284420000000000073e+02 2.016009999999999991e+03
1.330000000000000071e-01 1.965065000000000006e-01 1.025439000000000078e+01 1.274244999999999948e+02 2.015724999999999909e+03
1.340000000000000080e-01 1.964619999999999977e-01 9.618674999999999642e+00 1.263259999999999934e+02 2.015414999999999964e+03
1.350000000000000089e-01 1.964140000000000053e-01 8.970169999999999533e+00 1.251574999999999989e+02 2.015085000000000036e+03
1.360000000000000098e-01 1.963635000000000241e-01 8.313269999999999271e+00 1.239325000000000045e+02 2.014730000000000018e+03
1.370000000000000107e-01 1.963099999999999845e-01 7.653859999999999886e+00 1.226700000000000017e+02 2.014360000000000127e+03
1.380000000000000115e-01 1.962550000000000128e-01 6.999045000000000627e+00 1.213894999999999982e+02 2.013974999999999909e+03
1.390000000000000124e-01 1.961990000000000123e-01 6.356765000000000221e+00 1.201115000000000066e+02 2.013585000000000036e+03
1.400000000000000133e-01 1.961434999999999984e-01 5.735454999999999970e+00 1.188594999999999970e+02 2.013195000000000164e+03
1.410000000000000142e-01 1.960879999999999845e-01 5.143634999999999735e+00 1.176539999999999964e+02 2.012809999999999945e+03
1.420000000000000151e-01 1.960345000000000004e-01 4.589515000000000455e+00 1.165155000000000030e+02 2.012440000000000055e+03
1.430000000000000160e-01 1.959839999999999915e-01 4.080645000000000522e+00 1.154615000000000009e+02 2.012085000000000036e+03
1.440000000000000169e-01 1.959365000000000134e-01 3.623565000000000147e+00 1.145064999999999884e+02 2.011744999999999891e+03
1.450000000000000178e-01 1.958929999999999838e-01 3.223549999999999915e+00 1.136620000000000061e+02 2.011440000000000055e+03
1.459999999999999909e-01 1.958529999999999993e-01 2.884409999999999918e+00 1.129355000000000047e+02 2.011164999999999964e+03
1.469999999999999918e-01 1.958189999999999931e-01 2.608354999999999979e+00 1.123315000000000055e+02 2.010925000000000182e+03
1.479999999999999927e-01 1.957895000000000052e-01 2.395989999999999842e+00 1.118474999999999966e+02 2.010710000000000036e+03
1.489999999999999936e-01 1.957650000000000223e-01 2.246285000000000309e+00 1.114819999999999993e+02 2.010534999999999854e+03
1.499999999999999944e-01 1.957455000000000167e-01 2.156724999999999781e+00 1.112265000000000015e+02 2.010394999999999982e+03
1.509999999999999953e-01 1.957305000000000017e-01 2.123439999999999994e+00 1.110715000000000003e+02 2.010284999999999854e+03
1.519999999999999962e-01 1.957200000000000051e-01 2.141379999999999839e+00 1.110045000000000073e+02 2.010204999999999927e+03
1.529999999999999971e-01 1.957134999999999847e-01 2.204600000000000115e+00 1.110124999999999886e+02 2.010154999999999973e+03
1.539999999999999980e-01 1.957099999999999951e-01 2.306454999999999700e+00 1.110799999999999983e+02 2.010130000000000109e+03
1.549999999999999989e-01 1.957095000000000085e-01 2.439874999999999794e+00 1.111924999999999955e+02 2.010119999999999891e+03
1.559999999999999998e-01 1.957109999999999961e-01 2.597604999999999720e+00 1.113354999999999961e+02 2.010119999999999891e+03
1.570000000000000007e-01 1.957145000000000135e-01 2.772445000000000270e+00 1.114944999999999879e+02 2.010144999999999982e+03
1.580000000000000016e-01 1.957185000000000175e-01 2.957435000000000258e+00 1.116564999999999941e+02 2.010170000000000073e+03
1.590000000000000024e-01 1.957229999999999803e-01 3.146079999999999988e+00 1.118110000000000070e+02 2.010200000000000045e+03
