# t [s], A [cm^2], U [cm/s], P [cPa], c [cm/s]
1.000000000000000021e-03 4.695905000000000218e-01 4.555549999999998489e-03 1.058290000000000077e+02 1.510349999999999909e+03
2.000000000000000042e-03 4.695835000000000425e-01 -9.091109999999999903e-04 1.058110000000000070e+02 1.510344999999999800e+03
3.000000000000000062e-03 4.696035000000000070e-01 3.962174999999999725e-02 1.058515000000000015e+02 1.510360000000000127e+03
4.000000000000000083e-03 4.696439999999999504e-01 1.240949999999999970e-01 1.059560000000000031e+02 1.510394999999999982e+03
5.000000000000000104e-03 4.696559999999999624e-01 1.570705000000000018e-01 1.059989999999999952e+02 1.510409999999999854e+03
6.000000000000000125e-03 4.696294999999999775e-01 1.103024000000000088e-01 1.059174999999999898e+02 1.510389999999999873e+03
7.000000000000000146e-03 4.695940000000000114e-01 4.291349999999996556e-02 1.057630000000000052e+02 1.510349999999999909e+03
8.000000000000000167e-03 4.695635000000000225e-01 -1.889350000000000751e-02 1.055750000000000028e+02 1.510305000000000064e+03
9.000000000000001055e-03 4.695160000000000444e-01 -1.241505000000000525e-01 1.053075000000000045e+02 1.510230000000000018e+03
1.000000000000000194e-02 4.694389999999999397e-01 -3.057880000000000598e-01 1.049090000000000060e+02 1.510125000000000000e+03
1.099999999999999936e-02 4.693275000000000086e-01 -5.707849999999999868e-01 1.043490000000000038e+02 1.509969999999999800e+03
1.200000000000000025e-02 4.691730000000000067e-01 -9.328550000000001008e-01 1.035875000000000057e+02 1.509764999999999873e+03
1.300000000000000114e-02 4.689664999999999528e-01 -1.400335000000000107e+00 1.025834499999999991e+02 1.509490000000000009e+03
1.400000000000000203e-02 4.687164999999999804e-01 -1.942640000000000144e+00 1.013427999999999969e+02 1.509139999999999873e+03
1.499999999999999944e-02 4.684469999999999468e-01 -2.484110000000000262e+00 9.993334999999999013e+01 1.508730000000000018e+03
1.600000000000000033e-02 4.681895000000000362e-01 -2.932559999999999611e+00 9.846434999999999604e+01 1.508289999999999964e+03
1.700000000000000122e-02 4.679650000000000198e-01 -3.215520999999999852e+00 9.703979999999999961e+01 1.507839999999999918e+03
1.800000000000000211e-02 4.677795000000000147e-01 -3.301038500000000209e+00 9.572594999999999743e+01 1.507410000000000082e+03
1.900000000000000300e-02 4.676239999999999841e-01 -3.198310000000000208e+00 9.453735000000000355e+01 1.507000000000000000e+03
2.000000000000000042e-02 4.674804999999999655e-01 -2.945038999999999962e+00 9.344575000000000387e+01 1.506605000000000018e+03
2.100000000000000130e-02 4.673310000000000519e-01 -2.590060499999999877e+00 9.239699999999999136e+01 1.506220000000000027e+03
2.200000000000000219e-02 4.671604999999999785e-01 -2.177310000000000301e+00 9.133289999999999509e+01 1.505819999999999936e+03
2.299999999999999961e-02 4.669619999999999882e-01 -1.734859999999999847e+00 9.020949999999999136e+01 1.505409999999999854e+03
2.400000000000000050e-02 4.667369999999999575e-01 -1.270825000000000093e+00 8.900825000000000387e+01 1.504974999999999909e+03
2.500000000000000139e-02 4.664935000000000054e-01 -7.762899999999999245e-01 8.773765000000000214e+01 1.504514999999999873e+03
2.600000000000000228e-02 4.662435000000000329e-01 -2.336350000000000371e-01 8.642645000000000266e+01 1.504045000000000073e+03
2.700000000000000316e-02 4.659955000000000069e-01 3.730549999999999145e-01 8.511100000000000421e+01 1.503569999999999936e+03
2.800000000000000058e-02 4.657565000000000177e-01 1.048969999999999736e+00 8.382165000000000532e+01 1.503094999999999800e+03
2.900000000000000147e-02 4.655255000000000365e-01 1.783529999999999838e+00 8.257269999999999754e+01 1.502634999999999991e+03
3.000000000000000236e-02 4.652970000000000161e-01 2.549965000000000259e+00 8.135729999999999507e+01 1.502179999999999836e+03
3.099999999999999978e-02 4.650615000000000165e-01 3.309139999999999748e+00 8.014875000000000682e+01 1.501730000000000018e+03
3.200000000000000067e-02 4.648075000000000401e-01 4.016305000000000014e+00 7.890649999999999409e+01 1.501269999999999982e+03
3.300000000000000155e-02 4.645249999999999657e-01 4.629279999999999617e+00 7.758584999999999354e+01 1.500795000000000073e+03
3.400000000000000244e-02 4.642074999999999951e-01 5.116285000000000416e+00 7.614965000000000828e+01 1.500289999999999964e+03
3.500000000000000333e-02 4.638545000000000584e-01 5.462150000000000283e+00 7.457814999999999372e+01 1.499755000000000109e+03
3.600000000000000422e-02 4.634724999999999540e-01 5.670774999999999899e+00 7.287590000000000146e+01 1.499184999999999945e+03
3.700000000000000511e-02 4.630724999999999980e-01 5.764070000000000249e+00 7.107394999999999641e+01 1.498585000000000036e+03
3.799999999999999906e-02 4.626709999999999989e-01 5.777050000000000018e+00 6.922624999999999318e+01 1.497980000000000018e+03
3.899999999999999994e-02 4.622844999999999871e-01 5.751749999999999474e+00 6.740219999999999345e+01 1.497369999999999891e+03
4.000000000000000083e-02 4.619284999999999641e-01 5.730434999999999945e+00 6.567770000000000152e+01 1.496789999999999964e+03
4.100000000000000172e-02 4.616169999999999995e-01 5.750390000000000335e+00 6.412639999999998963e+01 1.496259999999999991e+03
4.200000000000000261e-02 4.613610000000000211e-01 5.841193000000000524e+00 6.281300000000000239e+01 1.495795000000000073e+03
4.300000000000000350e-02 4.611669999999999936e-01 6.023443499999999950e+00 6.178914999999999935e+01 1.495414999999999964e+03
4.400000000000000439e-02 4.610389999999999766e-01 6.309829999999999828e+00 6.109189999999999543e+01 1.495134999999999991e+03
4.499999999999999833e-02 4.609794999999999865e-01 6.707234999999999836e+00 6.074459999999999837e+01 1.494954999999999927e+03
4.599999999999999922e-02 4.609885000000000232e-01 7.218835000000000335e+00 6.075950000000000273e+01 1.494894999999999982e+03
4.700000000000000011e-02 4.610655000000000170e-01 7.846585000000000143e+00 6.114034999999999798e+01 1.494950000000000045e+03
4.800000000000000100e-02 4.612100000000000088e-01 8.592740000000000933e+00 6.188599999999999568e+01 1.495119999999999891e+03
4.900000000000000189e-02 4.614219999999999988e-01 9.460525000000000517e+00 6.299219999999999686e+01 1.495414999999999964e+03
5.000000000000000278e-02 4.617005000000000137e-01 1.045388999999999946e+01 6.445335000000000036e+01 1.495824999999999818e+03
5.100000000000000366e-02 4.620454999999999979e-01 1.157654499999999942e+01 6.626219999999999288e+01 1.496349999999999909e+03
5.200000000000000455e-02 4.624559999999999782e-01 1.283033499999999982e+01 6.840935000000000343e+01 1.496994999999999891e+03
5.300000000000000544e-02 4.629285000000000205e-01 1.421398999999999901e+01 7.088155000000000427e+01 1.497744999999999891e+03
5.399999999999999939e-02 4.634595000000000242e-01 1.572196999999999889e+01 7.366060000000000230e+01 1.498599999999999909e+03
5.500000000000000028e-02 4.640440000000000120e-01 1.734376500000000121e+01 7.672249999999999659e+01 1.499554999999999836e+03
5.600000000000000117e-02 4.646755000000000191e-01 1.906424000000000163e+01 8.003679999999999950e+01 1.500599999999999909e+03
5.700000000000000205e-02 4.653455000000000230e-01 2.086410000000000053e+01 8.356739999999999213e+01 1.501724999999999909e+03
5.800000000000000294e-02 4.660459999999999603e-01 2.272109999999999985e+01 8.727389999999999759e+01 1.502914999999999964e+03
5.900000000000000383e-02 4.667680000000000162e-01 2.461129999999999995e+01 9.111260000000000048e+01 1.504160000000000082e+03
6.000000000000000472e-02 4.675035000000000163e-01 2.651074999999999804e+01 9.503910000000000480e+01 1.505445000000000164e+03
6.099999999999999867e-02 4.682429999999999648e-01 2.839630000000000010e+01 9.900999999999999091e+01 1.506759999999999991e+03
6.199999999999999956e-02 4.689809999999999812e-01 3.024719999999999942e+01 1.029863000000000000e+02 1.508090000000000146e+03
6.300000000000000044e-02 4.697109999999999896e-01 3.204540000000000077e+01 1.069322999999999979e+02 1.509414999999999964e+03
6.400000000000000133e-02 4.704285000000000272e-01 3.377595000000000169e+01 1.108182999999999936e+02 1.510740000000000009e+03
6.500000000000000222e-02 4.711299999999999377e-01 3.542745000000000033e+01 1.146211999999999875e+02 1.512050000000000182e+03
6.600000000000000311e-02 4.718134999999999968e-01 3.699160000000000537e+01 1.183240000000000123e+02 1.513329999999999927e+03
6.700000000000000400e-02 4.724770000000000358e-01 3.846269999999999811e+01 1.219159999999999968e+02 1.514590000000000146e+03
6.800000000000000488e-02 4.731210000000000138e-01 3.983759999999999479e+01 1.253909999999999911e+02 1.515804999999999836e+03
6.900000000000000577e-02 4.737445000000000128e-01 4.111499999999999488e+01 1.287475000000000023e+02 1.516994999999999891e+03
7.000000000000000666e-02 4.743494999999999795e-01 4.229484999999999673e+01 1.319870000000000232e+02 1.518150000000000091e+03
7.100000000000000755e-02 4.749354999999999549e-01 4.337819999999999965e+01 1.351140000000000043e+02 1.519269999999999982e+03
7.200000000000000844e-02 4.755040000000000378e-01 4.436664999999999992e+01 1.381324999999999932e+02 1.520360000000000127e+03
7.300000000000000933e-02 4.760560000000000347e-01 4.526194999999999879e+01 1.410495000000000232e+02 1.521409999999999854e+03
7.399999999999999634e-02 4.765914999999999457e-01 4.606569999999999965e+01 1.438685000000000116e+02 1.522434999999999945e+03
7.499999999999999722e-02 4.771110000000000073e-01 4.677934999999999377e+01 1.465935000000000059e+02 1.523424999999999955e+03
7.599999999999999811e-02 4.776139999999999830e-01 4.740390000000000015e+01 1.492259999999999991e+02 1.524384999999999991e+03
7.699999999999999900e-02 4.781009999999999982e-01 4.793979999999999819e+01 1.517659999999999911e+02 1.525315000000000055e+03
7.799999999999999989e-02 4.785705000000000098e-01 4.838719999999999999e+01 1.542110000000000127e+02 1.526210000000000036e+03
7.900000000000000078e-02 4.790220000000000589e-01 4.874590000000000600e+01 1.565570000000000164e+02 1.527079999999999927e+03
8.000000000000000167e-02 4.794534999999999769e-01 4.901539999999999964e+01 1.587984999999999900e+02 1.527910000000000082e+03
8.100000000000000255e-02 4.798639999999999572e-01 4.919545000000000101e+01 1.609289999999999736e+02 1.528700000000000045e+03
8.200000000000000344e-02 4.802520000000000122e-01 4.928580000000000183e+01 1.629420000000000073e+02 1.529454999999999927e+03
8.300000000000000433e-02 4.806159999999999877e-01 4.928685000000000116e+01 1.648290000000000077e+02 1.530164999999999964e+03
8.400000000000000522e-02 4.809550000000000214e-01 4.919929999999999382e+01 1.665844999999999914e+02 1.530829999999999927e+03
8.500000000000000611e-02 4.812684999999999880e-01 4.902459999999999951e+01 1.682019999999999982e+02 1.531449999999999818e+03
8.600000000000000699e-02 4.815550000000000108e-01 4.876474999999999937e+01 1.696775000000000091e+02 1.532025000000000091e+03
8.700000000000000788e-02 4.818145000000000344e-01 4.842249999999999943e+01 1.710074999999999932e+02 1.532545000000000073e+03
8.800000000000000877e-02 4.820465000000000444e-01 4.800114999999999554e+01 1.721910000000000025e+02 1.533019999999999982e+03
8.899999999999999578e-02 4.822514999999999996e-01 4.750469999999999970e+01 1.732280000000000086e+02 1.533440000000000055e+03
8.999999999999999667e-02 4.824295000000000111e-01 4.693744999999999834e+01 1.741200000000000045e+02 1.533804999999999836e+03
9.099999999999999756e-02 4.825814999999999966e-01 4.630445000000000277e+01 1.748700000000000045e+02 1.534125000000000000e+03
9.199999999999999845e-02 4.827080000000000259e-01 4.561090000000000089e+01 1.754830000000000041e+02 1.534394999999999982e+03
9.299999999999999933e-02 4.828105000000000313e-01 4.486280000000000001e+01 1.759644999999999868e+02 1.534619999999999891e+03
9.400000000000000022e-02 4.828894999999999715e-01 4.406619999999999493e+01 1.763215000000000146e+02 1.534795000000000073e+03
9.500000000000000111e-02 4.829474999999999740e-01 4.322769999999999868e+01 1.765625000000000000e+02 1.534924999999999955e+03
9.600000000000000200e-02 4.829860000000000264e-01 4.235424999999999329e+01 1.766970000000000027e+02 1.535025000000000091e+03
9.700000000000000289e-02 4.830065000000000053e-01 4.145289999999999964e+01 1.767355000000000018e+02 1.535079999999999927e+03
9.800000000000000377e-02 4.830110000000000237e-01 4.053079999999999927e+01 1.766875000000000000e+02 1.535099999999999909e+03
9.900000000000000466e-02 4.830019999999999869e-01 3.959530000000000172e+01 1.765654999999999859e+02 1.535094999999999800e+03
1.000000000000000056e-01 4.829815000000000635e-01 3.865324999999999989e+01 1.763799999999999955e+02 1.535065000000000055e+03
1.010000000000000064e-01 4.829514999999999780e-01 3.771114999999999640e+01 1.761425000000000125e+02 1.535009999999999991e+03
1.020000000000000073e-01 4.829134999999999955e-01 3.677495000000000402e+01 1.758629999999999995e+02 1.534934999999999945e+03
1.030000000000000082e-01 4.828689999999999927e-01 3.584975000000000023e+01 1.755519999999999925e+02 1.534845000000000027e+03
1.040000000000000091e-01 4.828200000000000269e-01 3.493954999999999700e+01 1.752164999999999964e+02 1.534750000000000000e+03
1.050000000000000100e-01 4.827675000000000161e-01 3.404735000000000156e+01 1.748640000000000043e+02 1.534634999999999991e+03
1.059999999999999970e-01 4.827120000000000299e-01 3.317499999999999716e+01 1.744995000000000118e+02 1.534514999999999873e+03
1.069999999999999979e-01 4.826534999999999576e-01 3.232289999999999708e+01 1.741259999999999764e+02 1.534394999999999982e+03
1.079999999999999988e-01 4.825925000000000353e-01 3.149049999999999727e+01 1.737445000000000164e+02 1.534264999999999873e+03
1.089999999999999997e-01 4.825285000000000268e-01 3.067620000000000147e+01 1.733539999999999850e+02 1.534130000000000109e+03
1.100000000000000006e-01 4.824610000000000287e-01 2.987730000000000175e+01 1.729524999999999864e+02 1.533990000000000009e+03
1.110000000000000014e-01 4.823890000000000122e-01 2.909074999999999989e+01 1.725370000000000061e+02 1.533845000000000027e+03
1.120000000000000023e-01 4.823119999999999630e-01 2.831269999999999953e+01 1.721030000000000086e+02 1.533695000000000164e+03
1.130000000000000032e-01 4.822285000000000044e-01 2.753925000000000267e+01 1.716449999999999818e+02 1.533529999999999973e+03
1.140000000000000041e-01 4.821385000000000254e-01 2.676629999999999754e+01 1.711580000000000155e+02 1.533369999999999891e+03
1.150000000000000050e-01 4.820404999999999829e-01 2.599009999999999820e+01 1.706370000000000005e+02 1.533184999999999945e+03
1.160000000000000059e-01 4.819335000000000147e-01 2.520700000000000074e+01 1.700774999999999864e+02 1.532994999999999891e+03
1.170000000000000068e-01 4.818180000000000240e-01 2.441380000000000194e+01 1.694759999999999991e+02 1.532789999999999964e+03
1.180000000000000077e-01 4.816929999999999823e-01 2.360810000000000031e+01 1.688284999999999911e+02 1.532570000000000164e+03
1.190000000000000085e-01 4.815585000000000004e-01 2.278800000000000026e+01 1.681340000000000146e+02 1.532335000000000036e+03
1.200000000000000094e-01 4.814140000000000086e-01 2.195230000000000103e+01 1.673915000000000077e+02 1.532085000000000036e+03
1.209999999999999964e-01 4.812605000000000355e-01 2.110044999999999860e+01 1.666025000000000205e+02 1.531820000000000164e+03
1.219999999999999973e-01 4.810980000000000256e-01 2.023279999999999745e+01 1.657669999999999959e+02 1.531535000000000082e+03
1.229999999999999982e-01 4.809280000000000221e-01 1.935044999999999860e+01 1.648899999999999864e+02 1.531244999999999891e+03
1.239999999999999991e-01 4.807504999999999695e-01 1.845504999999999995e+01 1.639739999999999895e+02 1.530934999999999945e+03
1.250000000000000000e-01 4.805679999999999952e-01 1.754895000000000138e+01 1.630250000000000057e+02 1.530615000000000009e+03
1.260000000000000009e-01 4.803800000000000292e-01 1.663519999999999754e+01 1.620490000000000066e+02 1.530289999999999964e+03
1.270000000000000018e-01 4.801889999999999770e-01 1.571725499999999975e+01 1.610519999999999925e+02 1.529949999999999818e+03
1.280000000000000027e-01 4.799964999999999371e-01 1.479900500000000108e+01 1.600420000000000016e+02 1.529605000000000018e+03
1.290000000000000036e-01 4.798029999999999795e-01 1.388475999999999999e+01 1.590254999999999939e+02 1.529255000000000109e+03
1.300000000000000044e-01 4.796110000000000095e-01 1.297896000000000072e+01 1.580110000000000241e+02 1.528909999999999854e+03
1.310000000000000053e-01 4.794215000000000004e-01 1.208622000000000085e+01 1.570065000000000168e+02 1.528565000000000055e+03
1.320000000000000062e-01 4.792354999999999809e-01 1.121118500000000040e+01 1.560185000000000173e+02 1.528220000000000027e+03
1.330000000000000071e-01 4.790550000000000086e-01 1.035833500000000029e+01 1.550550000000000068e+02 1.527884999999999991e+03
1.340000000000000080e-01 4.788814999999999600e-01 9.531909999999999883e+00 1.541225000000000023e+02 1.527555000000000064e+03
1.350000000000000089e-01 4.787150000000000016e-01 8.735834999999999795e+00 1.532270000000000039e+02 1.527240000000000009e+03
1.360000000000000098e-01 4.785570000000000102e-01 7.973629999999999995e+00 1.523735000000000070e+02 1.526934999999999945e+03
1.370000000000000107e-01 4.784085000000000143e-01 7.248200000000000642e+00 1.515664999999999907e+02 1.526650000000000091e+03
1.380000000000000115e-01 4.782695000000000141e-01 6.561910000000000132e+00 1.508085000000000093e+02 1.526369999999999891e+03
1.390000000000000124e-01 4.781400000000000095e-01 5.916484999999999772e+00 1.501014999999999873e+02 1.526110000000000127e+03
1.400000000000000133e-01 4.780209999999999737e-01 5.312854999999999883e+00 1.494465000000000146e+02 1.525869999999999891e+03
1.410000000000000142e-01 4.779114999999999891e-01 4.751355000000000217e+00 1.488435000000000059e+02 1.525644999999999982e+03
1.420000000000000151e-01 4.778105000000000269e-01 4.231630000000000003e+00 1.482899999999999920e+02 1.525434999999999945e+03
1.430000000000000160e-01 4.777190000000000047e-01 3.752734999999999932e+00 1.477850000000000250e+02 1.525244999999999891e+03
1.440000000000000169e-01 4.776350000000000318e-01 3.313174999999999759e+00 1.473245000000000005e+02 1.525065000000000055e+03
1.450000000000000178e-01 4.775584999999999969e-01 2.911024999999999974e+00 1.469039999999999964e+02 1.524900000000000091e+03
1.459999999999999909e-01 4.774880000000000235e-01 2.544005499999999920e+00 1.465194999999999936e+02 1.524750000000000000e+03
1.469999999999999918e-01 4.774230000000000418e-01 2.209642500000000176e+00 1.461659999999999968e+02 1.524609999999999900e+03
1.479999999999999927e-01 4.773625000000000229e-01 1.905306999999999862e+00 1.458394999999999868e+02 1.524484999999999900e+03
1.489999999999999936e-01 4.773060000000000080e-01 1.628345000000000153e+00 1.455345000000000084e+02 1.524360000000000127e+03
1.499999999999999944e-01 4.772514999999999397e-01 1.376157999999999992e+00 1.452475000000000023e+02 1.524244999999999891e+03
1.509999999999999953e-01 4.771994999999999987e-01 1.146250100000000050e+00 1.449730000000000132e+02 1.524139999999999873e+03
1.519999999999999962e-01 4.771489999999999898e-01 9.362817000000001055e-01 1.447085000000000150e+02 1.524034999999999854e+03
1.529999999999999971e-01 4.770999999999999686e-01 7.440809999999999924e-01 1.444504999999999768e+02 1.523934999999999945e+03
1.539999999999999980e-01 4.770504999999999884e-01 5.676605000000000123e-01 1.441970000000000027e+02 1.523835000000000036e+03
1.549999999999999989e-01 4.770020000000000371e-01 4.051910000000000234e-01 1.439454999999999814e+02 1.523740000000000009e+03
1.559999999999999998e-01 4.769534999999999747e-01 2.549865000000000048e-01 1.436949999999999932e+02 1.523644999999999982e+03
1.570000000000000007e-01 4.769049999999999678e-01 1.154799999999999716e-01 1.434424999999999955e+02 1.523550000000000182e+03
1.580000000000000016e-01 4.768554999999999877e-01 -1.481250000000000622e-02 1.431889999999999930e+02 1.523460000000000036e+03
1.590000000000000024e-01 4.768054999999999932e-01 -1.373145000000000060e-01 1.429325000000000045e+02 1.523365000000000009e+03
