# t [s], A [cm^2], U [cm/s], P [cPa], c [cm/s]
1.000000000000000021e-03 5.986139999999999795e-01 4.103499999999996040e-03 9.463380000000000791e+01 1.520530000000000200e+03
2.000000000000000042e-03 5.986050000000000537e-01 -1.943467499999999891e-03 9.461574999999999136e+01 1.520525000000000091e+03
3.000000000000000062e-03 5.986279999999999379e-01 3.541455000000000297e-02 9.465090000000000714e+01 1.520539999999999964e+03
4.000000000000000083e-03 5.986780000000000435e-01 1.213841500000000101e-01 9.475509999999999877e+01 1.520570000000000164e+03
5.000000000000000104e-03 5.986949999999999772e-01 1.604725999999999930e-01 9.480250000000000909e+01 1.520585000000000036e+03
6.000000000000000125e-03 5.986609999999999987e-01 1.169273000000000118e-01 9.472414999999999452e+01 1.520565000000000055e+03
7.000000000000000146e-03 5.986150000000000082e-01 4.983150000000002855e-02 9.457165000000000532e+01 1.520530000000000200e+03
8.000000000000000167e-03 5.985770000000000257e-01 -7.473000000000007415e-03 9.439359999999999218e+01 1.520480000000000018e+03
9.000000000000001055e-03 5.985209999999999697e-01 -1.042985000000000162e-01 9.414445000000000618e+01 1.520420000000000073e+03
1.000000000000000194e-02 5.984270000000000422e-01 -2.769185000000000119e-01 9.377240000000000464e+01 1.520320000000000164e+03
1.099999999999999936e-02 5.982925000000000049e-01 -5.327849999999999531e-01 9.324844999999999118e+01 1.520190000000000055e+03
1.200000000000000025e-02 5.981049999999999978e-01 -8.859799999999998787e-01 9.253335000000001287e+01 1.520005000000000109e+03
1.300000000000000114e-02 5.978544999999999554e-01 -1.347539999999999960e+00 9.158654999999998836e+01 1.519759999999999991e+03
1.400000000000000203e-02 5.975489999999999968e-01 -1.890464999999999840e+00 9.041055000000000064e+01 1.519450000000000045e+03
1.499999999999999944e-02 5.972204999999999320e-01 -2.441285000000000149e+00 8.907255000000000678e+01 1.519085000000000036e+03
1.600000000000000033e-02 5.969075000000000353e-01 -2.908139999999999947e+00 8.768084999999999241e+01 1.518694999999999936e+03
1.700000000000000122e-02 5.966390000000000304e-01 -3.218069999999999986e+00 8.634004999999999086e+01 1.518305000000000064e+03
1.800000000000000211e-02 5.964225000000000776e-01 -3.338585499999999762e+00 8.511549999999999727e+01 1.517924999999999955e+03
1.900000000000000300e-02 5.962454999999999838e-01 -3.278448500000000099e+00 8.402145000000000152e+01 1.517575000000000045e+03
2.000000000000000042e-02 5.960870000000000335e-01 -3.074855499999999964e+00 8.302850000000000819e+01 1.517240000000000009e+03
2.100000000000000130e-02 5.959205000000000751e-01 -2.775871450000000351e+00 8.208225000000000193e+01 1.516914999999999964e+03
2.200000000000000219e-02 5.957305000000000517e-01 -2.424517499999999881e+00 8.112484999999999502e+01 1.516585000000000036e+03
2.299999999999999961e-02 5.955059999999999798e-01 -2.048084999999999933e+00 8.011305000000000121e+01 1.516230000000000018e+03
2.400000000000000050e-02 5.952494999999999870e-01 -1.654185000000000239e+00 7.902864999999999895e+01 1.515869999999999891e+03
2.500000000000000139e-02 5.949725000000000152e-01 -1.233745000000000314e+00 7.788030000000000541e+01 1.515484999999999900e+03
2.600000000000000228e-02 5.946875000000000355e-01 -7.692550000000000221e-01 7.669599999999999795e+01 1.515089999999999918e+03
2.700000000000000316e-02 5.944069999999999077e-01 -2.450650000000003104e-01 7.551054999999999495e+01 1.514690000000000055e+03
2.800000000000000058e-02 5.941385000000000138e-01 3.437100000000001820e-01 7.435224999999999795e+01 1.514300000000000182e+03
2.900000000000000147e-02 5.938795000000000046e-01 9.860849999999998783e-01 7.323269999999999413e+01 1.513909999999999854e+03
3.000000000000000236e-02 5.936239999999999295e-01 1.654815000000000147e+00 7.214205000000001178e+01 1.513535000000000082e+03
3.099999999999999978e-02 5.933570000000000233e-01 2.310134999999999827e+00 7.105029999999999291e+01 1.513155000000000200e+03
3.200000000000000067e-02 5.930634999999999657e-01 2.906439999999999912e+00 6.991335000000000832e+01 1.512764999999999873e+03
3.300000000000000155e-02 5.927305000000000490e-01 3.400409999999999933e+00 6.868309999999999604e+01 1.512360000000000127e+03
3.400000000000000244e-02 5.923484999999999445e-01 3.758955000000000268e+00 6.731834999999999525e+01 1.511920000000000073e+03
3.500000000000000333e-02 5.919164999999999566e-01 3.965249999999999275e+00 6.579550000000000409e+01 1.511445000000000164e+03
3.600000000000000422e-02 5.914409999999999945e-01 4.021490000000000009e+00 6.411534999999999229e+01 1.510924999999999955e+03
3.700000000000000511e-02 5.909355000000000580e-01 3.947644999999999627e+00 6.230454999999999899e+01 1.510380000000000109e+03
3.799999999999999906e-02 5.904190000000000271e-01 3.777019999999999822e+00 6.041290000000000049e+01 1.509805000000000064e+03
3.899999999999999994e-02 5.899119999999999919e-01 3.549529999999999408e+00 5.850504999999999711e+01 1.509224999999999909e+03
4.000000000000000083e-02 5.894334999999999436e-01 3.305344999999999978e+00 5.665215000000000600e+01 1.508655000000000200e+03
4.100000000000000172e-02 5.889995000000000092e-01 3.079754999999999576e+00 5.492279999999999518e+01 1.508119999999999891e+03
4.200000000000000261e-02 5.886225000000000485e-01 2.899944999999999773e+00 5.337635000000000218e+01 1.507625000000000000e+03
4.300000000000000350e-02 5.883095000000000407e-01 2.784535000000000426e+00 5.205939999999999657e+01 1.507190000000000055e+03
4.400000000000000439e-02 5.880650000000000599e-01 2.744275000000000020e+00 5.100409999999999400e+01 1.506835000000000036e+03
4.499999999999999833e-02 5.878885000000000360e-01 2.784235999999999933e+00 5.022969999999999402e+01 1.506554999999999836e+03
4.599999999999999922e-02 5.877814999999999568e-01 2.906362500000000182e+00 4.974474999999999625e+01 1.506360000000000127e+03
4.700000000000000011e-02 5.877415000000000278e-01 3.111810000000000187e+00 4.955060000000000286e+01 1.506250000000000000e+03
4.800000000000000100e-02 5.877689999999999859e-01 3.402725000000000222e+00 4.964464999999999861e+01 1.506224999999999909e+03
4.900000000000000189e-02 5.878619999999999957e-01 3.783039999999999736e+00 5.002289999999999992e+01 1.506284999999999854e+03
5.000000000000000278e-02 5.880220000000000447e-01 4.258350000000000080e+00 5.068125000000000568e+01 1.506440000000000055e+03
5.100000000000000366e-02 5.882485000000000630e-01 4.834894999999999499e+00 5.161584999999999468e+01 1.506675000000000182e+03
5.200000000000000455e-02 5.885415000000000507e-01 5.518120000000000580e+00 5.282205000000000439e+01 1.506994999999999891e+03
5.300000000000000544e-02 5.888995000000000202e-01 6.311094999999999899e+00 5.429310000000000258e+01 1.507400000000000091e+03
5.399999999999999939e-02 5.893200000000000660e-01 7.213154999999999539e+00 5.601855000000000473e+01 1.507884999999999991e+03
5.500000000000000028e-02 5.897980000000000445e-01 8.219290000000000873e+00 5.798310000000000741e+01 1.508440000000000055e+03
5.600000000000000117e-02 5.903275000000000050e-01 9.319800000000000750e+00 6.016554999999999609e+01 1.509070000000000164e+03
5.700000000000000205e-02 5.909010000000000096e-01 1.050094999999999956e+01 6.253945000000000221e+01 1.509755000000000109e+03
5.800000000000000294e-02 5.915099999999999802e-01 1.174575499999999906e+01 6.507359999999999900e+01 1.510505000000000109e+03
5.900000000000000383e-02 5.921449999999999214e-01 1.303519999999999968e+01 6.773359999999999559e+01 1.511295000000000073e+03
6.000000000000000472e-02 5.927964999999999485e-01 1.434978999999999871e+01 7.048345000000000482e+01 1.512119999999999891e+03
6.099999999999999867e-02 5.934570000000000123e-01 1.567034500000000108e+01 7.328775000000000261e+01 1.512969999999999800e+03
6.199999999999999956e-02 5.941184999999999938e-01 1.697961499999999901e+01 7.611320000000000618e+01 1.513840000000000146e+03
6.300000000000000044e-02 5.947744999999999838e-01 1.826259999999999906e+01 7.893030000000000257e+01 1.514710000000000036e+03
6.400000000000000133e-02 5.954209999999999781e-01 1.950694999999999979e+01 8.171444999999999936e+01 1.515579999999999927e+03
6.500000000000000222e-02 5.960535000000000139e-01 2.070335000000000036e+01 8.444614999999998872e+01 1.516444999999999936e+03
6.600000000000000311e-02 5.966704999999999925e-01 2.184519999999999840e+01 8.711140000000000327e+01 1.517295000000000073e+03
6.700000000000000400e-02 5.972705000000000375e-01 2.292815000000000225e+01 8.970140000000000668e+01 1.518119999999999891e+03
6.800000000000000488e-02 5.978535000000000377e-01 2.394989999999999952e+01 9.221184999999999832e+01 1.518934999999999945e+03
6.900000000000000577e-02 5.984205000000000219e-01 2.490954999999999941e+01 9.464164999999999850e+01 1.519724999999999909e+03
7.000000000000000666e-02 5.989704999999999613e-01 2.580715000000000003e+01 9.699254999999999427e+01 1.520494999999999891e+03
7.100000000000000755e-02 5.995064999999999422e-01 2.664345000000000141e+01 9.926860000000000639e+01 1.521244999999999891e+03
7.200000000000000844e-02 6.000280000000000058e-01 2.741939999999999955e+01 1.014746499999999969e+02 1.521965000000000146e+03
7.300000000000000933e-02 6.005365000000000286e-01 2.813575000000000159e+01 1.036138499999999993e+02 1.522675000000000182e+03
7.399999999999999634e-02 6.010320000000000107e-01 2.879319999999999879e+01 1.056905000000000001e+02 1.523365000000000009e+03
7.499999999999999722e-02 6.015154999999999808e-01 2.939179999999999993e+01 1.077075000000000102e+02 1.524035000000000082e+03
7.599999999999999811e-02 6.019849999999999923e-01 2.993120000000000047e+01 1.096640000000000015e+02 1.524690000000000055e+03
7.699999999999999900e-02 6.024415000000000742e-01 3.041055000000000064e+01 1.115600000000000023e+02 1.525319999999999936e+03
7.799999999999999989e-02 6.028830000000000577e-01 3.082840000000000202e+01 1.133924999999999983e+02 1.525929999999999836e+03
7.900000000000000078e-02 6.033079999999999554e-01 3.118329999999999913e+01 1.151564999999999941e+02 1.526525000000000091e+03
8.000000000000000167e-02 6.037155000000000715e-01 3.147350000000000136e+01 1.168460000000000036e+02 1.527099999999999909e+03
8.100000000000000255e-02 6.041030000000000566e-01 3.169740000000000180e+01 1.184544999999999959e+02 1.527640000000000100e+03
8.200000000000000344e-02 6.044694999999999929e-01 3.185374999999999801e+01 1.199749999999999943e+02 1.528164999999999964e+03
8.300000000000000433e-02 6.048124999999999751e-01 3.194180000000000064e+01 1.214010000000000105e+02 1.528650000000000091e+03
8.400000000000000522e-02 6.051320000000000032e-01 3.196120000000000161e+01 1.227259999999999991e+02 1.529115000000000009e+03
8.500000000000000611e-02 6.054254999999999498e-01 3.191239999999999810e+01 1.239449999999999932e+02 1.529545000000000073e+03
8.600000000000000699e-02 6.056934999999999958e-01 3.179639999999999844e+01 1.250529999999999973e+02 1.529934999999999945e+03
8.700000000000000788e-02 6.059339999999999726e-01 3.161475000000000080e+01 1.260480000000000018e+02 1.530289999999999964e+03
8.800000000000000877e-02 6.061484999999999790e-01 3.136959999999999837e+01 1.269270000000000067e+02 1.530610000000000127e+03
8.899999999999999578e-02 6.063355000000000272e-01 3.106360000000000099e+01 1.276905000000000143e+02 1.530900000000000091e+03
8.999999999999999667e-02 6.064955000000000762e-01 3.069969999999999999e+01 1.283385000000000105e+02 1.531144999999999982e+03
9.099999999999999756e-02 6.066300000000000026e-01 3.028130000000000166e+01 1.288735000000000070e+02 1.531355000000000018e+03
9.199999999999999845e-02 6.067379999999999995e-01 2.981215000000000259e+01 1.292975000000000136e+02 1.531530000000000200e+03
9.299999999999999933e-02 6.068215000000000137e-01 2.929635000000000034e+01 1.296150000000000091e+02 1.531670000000000073e+03
9.400000000000000022e-02 6.068814999999999626e-01 2.873849999999999838e+01 1.298305000000000007e+02 1.531775000000000091e+03
9.500000000000000111e-02 6.069189999999999863e-01 2.814345000000000141e+01 1.299499999999999886e+02 1.531849999999999909e+03
9.600000000000000200e-02 6.069360000000000310e-01 2.751650000000000063e+01 1.299800000000000182e+02 1.531889999999999873e+03
9.700000000000000289e-02 6.069339999999999735e-01 2.686335000000000051e+01 1.299284999999999854e+02 1.531900000000000091e+03
9.800000000000000377e-02 6.069154999999999411e-01 2.618990000000000151e+01 1.298040000000000020e+02 1.531894999999999982e+03
9.900000000000000466e-02 6.068819999999999215e-01 2.550225000000000009e+01 1.296165000000000020e+02 1.531855000000000018e+03
1.000000000000000056e-01 6.068365000000000009e-01 2.480665000000000120e+01 1.293734999999999786e+02 1.531805000000000064e+03
1.010000000000000064e-01 6.067815000000000847e-01 2.410904999999999987e+01 1.290869999999999891e+02 1.531730000000000018e+03
1.020000000000000073e-01 6.067180000000000906e-01 2.341514999999999702e+01 1.287649999999999864e+02 1.531650000000000091e+03
1.030000000000000082e-01 6.066489999999999938e-01 2.273004999999999853e+01 1.284184999999999945e+02 1.531550000000000182e+03
1.040000000000000091e-01 6.065760000000000041e-01 2.205830000000000268e+01 1.280544999999999902e+02 1.531440000000000055e+03
1.050000000000000100e-01 6.065015000000000267e-01 2.140355000000000274e+01 1.276820000000000022e+02 1.531335000000000036e+03
1.059999999999999970e-01 6.064255000000000617e-01 2.076839999999999975e+01 1.273054999999999950e+02 1.531219999999999800e+03
1.069999999999999979e-01 6.063495000000000967e-01 2.015455000000000041e+01 1.269320000000000022e+02 1.531099999999999909e+03
1.079999999999999988e-01 6.062730000000000619e-01 1.956259999999999977e+01 1.265629999999999882e+02 1.530980000000000018e+03
1.089999999999999997e-01 6.061974999999999447e-01 1.899215000000000231e+01 1.262005000000000052e+02 1.530865000000000009e+03
1.100000000000000006e-01 6.061225000000000085e-01 1.844215000000000160e+01 1.258455000000000013e+02 1.530750000000000000e+03
1.110000000000000014e-01 6.060470000000000024e-01 1.791035000000000110e+01 1.254954999999999927e+02 1.530634999999999991e+03
1.120000000000000023e-01 6.059710000000000374e-01 1.739430000000000121e+01 1.251495000000000033e+02 1.530519999999999982e+03
1.130000000000000032e-01 6.058930000000000149e-01 1.689075000000000060e+01 1.248040000000000020e+02 1.530404999999999973e+03
1.140000000000000041e-01 6.058125000000000870e-01 1.639645000000000152e+01 1.244550000000000125e+02 1.530289999999999964e+03
1.150000000000000050e-01 6.057289999999999619e-01 1.590775000000000006e+01 1.240985000000000014e+02 1.530170000000000073e+03
1.160000000000000059e-01 6.056405000000000260e-01 1.542109999999999914e+01 1.237305000000000064e+02 1.530045000000000073e+03
1.170000000000000068e-01 6.055464999999999876e-01 1.493319999999999936e+01 1.233464999999999918e+02 1.529920000000000073e+03
1.180000000000000077e-01 6.054474999999999163e-01 1.444089999999999918e+01 1.229435000000000002e+02 1.529795000000000073e+03
1.190000000000000085e-01 6.053410000000000180e-01 1.394159999999999933e+01 1.225184999999999889e+02 1.529654999999999973e+03
1.200000000000000094e-01 6.052284999999999471e-01 1.343306000000000111e+01 1.220690000000000026e+02 1.529509999999999991e+03
1.209999999999999964e-01 6.051094999999999668e-01 1.291381499999999960e+01 1.215949999999999989e+02 1.529359999999999900e+03
1.219999999999999973e-01 6.049839999999999662e-01 1.238291500000000056e+01 1.210955000000000013e+02 1.529204999999999927e+03
1.229999999999999982e-01 6.048519999999999452e-01 1.184026499999999871e+01 1.205709999999999980e+02 1.529039999999999964e+03
1.239999999999999991e-01 6.047150000000000025e-01 1.128642499999999949e+01 1.200250000000000057e+02 1.528865000000000009e+03
1.250000000000000000e-01 6.045739999999999448e-01 1.072264999999999979e+01 1.194604999999999961e+02 1.528690000000000055e+03
1.260000000000000009e-01 6.044300000000000228e-01 1.015091499999999947e+01 1.188820000000000050e+02 1.528505000000000109e+03
1.270000000000000018e-01 6.042845000000000022e-01 9.573909999999999698e+00 1.182944999999999993e+02 1.528324999999999818e+03
1.280000000000000027e-01 6.041389999999999816e-01 8.994785000000000252e+00 1.177040000000000077e+02 1.528139999999999873e+03
1.290000000000000036e-01 6.039959999999999773e-01 8.417130000000000223e+00 1.171179999999999950e+02 1.527954999999999927e+03
1.300000000000000044e-01 6.038565000000000182e-01 7.844949999999999868e+00 1.165434999999999945e+02 1.527769999999999982e+03
1.310000000000000053e-01 6.037230000000000096e-01 7.282354999999999912e+00 1.159879999999999995e+02 1.527594999999999800e+03
1.320000000000000062e-01 6.035960000000000214e-01 6.733560000000000656e+00 1.154585000000000008e+02 1.527420000000000073e+03
1.330000000000000071e-01 6.034789999999999877e-01 6.202645000000000408e+00 1.149620000000000033e+02 1.527259999999999991e+03
1.340000000000000080e-01 6.033724999999999783e-01 5.693465000000000664e+00 1.145049999999999955e+02 1.527105000000000018e+03
1.350000000000000089e-01 6.032770000000000632e-01 5.209500000000000242e+00 1.140935000000000059e+02 1.526970000000000027e+03
1.360000000000000098e-01 6.031950000000000367e-01 4.753740000000000521e+00 1.137315000000000111e+02 1.526844999999999800e+03
1.370000000000000107e-01 6.031254999999999811e-01 4.328565000000000218e+00 1.134230000000000018e+02 1.526740000000000009e+03
1.380000000000000115e-01 6.030699999999999950e-01 3.935719999999999885e+00 1.131700000000000017e+02 1.526650000000000091e+03
1.390000000000000124e-01 6.030290000000000372e-01 3.576220000000000176e+00 1.129729999999999990e+02 1.526569999999999936e+03
1.400000000000000133e-01 6.030005000000000503e-01 3.250385000000000080e+00 1.128319999999999936e+02 1.526509999999999991e+03
1.410000000000000142e-01 6.029854999999999521e-01 2.957830000000000403e+00 1.127445000000000022e+02 1.526470000000000027e+03
1.420000000000000151e-01 6.029815000000000591e-01 2.697529999999999983e+00 1.127085000000000008e+02 1.526444999999999936e+03
1.430000000000000160e-01 6.029884999999999273e-01 2.467875000000000263e+00 1.127185000000000059e+02 1.526434999999999945e+03
1.440000000000000169e-01 6.030050000000000132e-01 2.266790000000000305e+00 1.127704999999999984e+02 1.526440000000000055e+03
1.450000000000000178e-01 6.030294999999999961e-01 2.091829999999999856e+00 1.128580000000000041e+02 1.526454999999999927e+03
1.459999999999999909e-01 6.030600000000000405e-01 1.940285000000000037e+00 1.129754999999999967e+02 1.526480000000000018e+03
1.469999999999999918e-01 6.030960000000000765e-01 1.809289999999999843e+00 1.131159999999999997e+02 1.526509999999999991e+03
1.479999999999999927e-01 6.031355000000000466e-01 1.695939999999999781e+00 1.132745000000000033e+02 1.526555000000000064e+03
1.489999999999999936e-01 6.031765000000000043e-01 1.597369999999999957e+00 1.134435000000000002e+02 1.526599999999999909e+03
1.499999999999999944e-01 6.032184999999999908e-01 1.510850000000000026e+00 1.136179999999999950e+02 1.526644999999999982e+03
1.509999999999999953e-01 6.032604999999999773e-01 1.433813500000000074e+00 1.137924999999999898e+02 1.526695000000000164e+03
1.519999999999999962e-01 6.033005000000000173e-01 1.363924499999999984e+00 1.139629999999999939e+02 1.526750000000000000e+03
1.529999999999999971e-01 6.033384999999999998e-01 1.299088999999999938e+00 1.141250000000000000e+02 1.526795000000000073e+03
1.539999999999999980e-01 6.033740000000000769e-01 1.237490499999999827e+00 1.142754999999999939e+02 1.526839999999999918e+03
1.549999999999999989e-01 6.034059999999999979e-01 1.177572500000000133e+00 1.144120000000000061e+02 1.526880000000000109e+03
1.559999999999999998e-01 6.034340000000000259e-01 1.118039500000000075e+00 1.145324999999999989e+02 1.526920000000000073e+03
1.570000000000000007e-01 6.034580000000000499e-01 1.057857499999999895e+00 1.146359999999999957e+02 1.526954999999999927e+03
1.580000000000000016e-01 6.034779999999999589e-01 9.962275000000000436e-01 1.147210000000000036e+02 1.526980000000000018e+03
1.590000000000000024e-01 6.034935000000000160e-01 9.325764999999999194e-01 1.147870000000000061e+02 1.527005000000000109e+03
