# t [s], A [cm^2], U [cm/s], P [cPa], c [cm/s]
1.000000000000000021e-03 6.098580000000000112e-01 4.945400000000002572e-03 1.032884999999999991e+02 1.555525000000000091e+03
2.000000000000000042e-03 6.098479999999999457e-01 -2.613124999999999996e-03 1.032659999999999911e+02 1.555514999999999873e+03
3.000000000000000062e-03 6.098835000000000228e-01 5.677909999999999902e-02 1.033265000000000100e+02 1.555535000000000082e+03
4.000000000000000083e-03 6.099364999999999926e-01 1.498235499999999720e-01 1.034424999999999955e+02 1.555565000000000055e+03
5.000000000000000104e-03 6.099384999999999390e-01 1.665415000000000090e-01 1.034579999999999984e+02 1.555574999999999818e+03
6.000000000000000125e-03 6.098894999999999733e-01 9.753099999999999270e-02 1.033259999999999934e+02 1.555539999999999964e+03
7.000000000000000146e-03 6.098414999999999253e-01 2.392450000000001520e-02 1.031304999999999978e+02 1.555500000000000000e+03
8.000000000000000167e-03 6.097900000000000542e-01 -5.998649999999999816e-02 1.028824999999999932e+02 1.555440000000000055e+03
9.000000000000001055e-03 6.097019999999999662e-01 -2.201130000000000586e-01 1.025065000000000026e+02 1.555355000000000018e+03
1.000000000000000194e-02 6.095660000000000522e-01 -4.776899999999999480e-01 1.019540000000000077e+02 1.555230000000000018e+03
1.099999999999999936e-02 6.093750000000000000e-01 -8.398400000000000309e-01 1.011869499999999960e+02 1.555055000000000064e+03
1.200000000000000025e-02 6.091140000000000443e-01 -1.324265000000000025e+00 1.001521000000000043e+02 1.554809999999999945e+03
1.300000000000000114e-02 6.087795000000000289e-01 -1.920714999999999950e+00 9.882489999999999952e+01 1.554494999999999891e+03
1.400000000000000203e-02 6.084015000000000395e-01 -2.558765000000000178e+00 9.725854999999999961e+01 1.554115000000000009e+03
1.499999999999999944e-02 6.080259999999999554e-01 -3.127040000000000042e+00 9.558089999999999975e+01 1.553690000000000055e+03
1.600000000000000033e-02 6.076964999999999728e-01 -3.522449500000000011e+00 9.393625000000000114e+01 1.553259999999999991e+03
1.700000000000000122e-02 6.074300000000000255e-01 -3.688242499999999868e+00 9.243035000000000423e+01 1.552840000000000146e+03
1.800000000000000211e-02 6.072184999999999944e-01 -3.623596500000000109e+00 9.110134999999999650e+01 1.552450000000000045e+03
1.900000000000000300e-02 6.070355000000000611e-01 -3.370740999999999765e+00 8.992269999999999186e+01 1.552089999999999918e+03
2.000000000000000042e-02 6.068510000000000293e-01 -2.992161049999999989e+00 8.882585000000000264e+01 1.551739999999999782e+03
2.100000000000000130e-02 6.066394999999999982e-01 -2.547670499999999727e+00 8.773040000000000305e+01 1.551394999999999982e+03
2.200000000000000219e-02 6.063870000000000093e-01 -2.077459999999999862e+00 8.657210000000000605e+01 1.551035000000000082e+03
2.299999999999999961e-02 6.060955000000000092e-01 -1.594695000000000196e+00 8.532079999999999131e+01 1.550644999999999982e+03
2.400000000000000050e-02 6.057770000000000099e-01 -1.088715000000000099e+00 8.398455000000001291e+01 1.550239999999999782e+03
2.500000000000000139e-02 6.054490000000000149e-01 -5.368650000000001477e-01 8.259935000000000116e+01 1.549819999999999936e+03
2.600000000000000228e-02 6.051265000000000116e-01 8.044000000000028905e-02 8.121045000000000869e+01 1.549400000000000091e+03
2.700000000000000316e-02 6.048169999999999380e-01 7.670399999999997220e-01 7.985259999999999536e+01 1.548980000000000018e+03
2.800000000000000058e-02 6.045169999999999710e-01 1.504634999999999945e+00 7.853530000000000655e+01 1.548570000000000164e+03
2.900000000000000147e-02 6.042149999999999466e-01 2.253465000000000273e+00 7.723799999999999955e+01 1.548159999999999854e+03
3.000000000000000236e-02 6.038924999999999432e-01 2.958969999999999878e+00 7.591320000000000334e+01 1.547750000000000000e+03
3.099999999999999978e-02 6.035280000000000644e-01 3.562265000000000015e+00 7.449770000000000891e+01 1.547320000000000164e+03
3.200000000000000067e-02 6.031079999999999774e-01 4.011955000000000382e+00 7.292830000000000723e+01 1.546855000000000018e+03
3.300000000000000155e-02 6.026234999999999786e-01 4.274610000000000021e+00 7.115825000000000955e+01 1.546349999999999909e+03
3.400000000000000244e-02 6.020780000000000021e-01 4.341659999999999187e+00 6.917070000000001073e+01 1.545800000000000182e+03
3.500000000000000333e-02 6.014850000000000474e-01 4.230475000000000207e+00 6.698574999999999591e+01 1.545200000000000045e+03
3.600000000000000422e-02 6.008670000000000400e-01 3.980050000000000310e+00 6.465925000000000011e+01 1.544559999999999945e+03
3.700000000000000511e-02 6.002505000000000202e-01 3.642725000000000435e+00 6.227424999999999500e+01 1.543910000000000082e+03
3.799999999999999906e-02 5.996615000000000695e-01 3.274589999999999446e+00 5.992839999999999634e+01 1.543259999999999991e+03
3.899999999999999994e-02 5.991250000000000187e-01 2.927104999999999624e+00 5.772019999999999840e+01 1.542639999999999873e+03
4.000000000000000083e-02 5.986569999999999947e-01 2.641720000000000290e+00 5.573819999999999908e+01 1.542070000000000164e+03
4.100000000000000172e-02 5.982704999999999274e-01 2.447465000000000224e+00 5.405299999999999727e+01 1.541574999999999818e+03
4.200000000000000261e-02 5.979719999999999480e-01 2.361724999999999852e+00 5.271444999999999936e+01 1.541160000000000082e+03
4.300000000000000350e-02 5.977630000000000443e-01 2.392555000000000209e+00 5.175189999999999912e+01 1.540840000000000146e+03
4.400000000000000439e-02 5.976430000000000353e-01 2.542245384999999747e+00 5.117759999999999820e+01 1.540625000000000000e+03
4.499999999999999833e-02 5.976099999999999746e-01 2.810795000000000154e+00 5.099115000000000464e+01 1.540509999999999991e+03
4.599999999999999922e-02 5.976620000000000266e-01 3.198604999999999698e+00 5.118515000000000015e+01 1.540505000000000109e+03
4.700000000000000011e-02 5.977970000000000228e-01 3.707925000000000360e+00 5.174875000000000114e+01 1.540595000000000027e+03
4.800000000000000100e-02 5.980134999999999756e-01 4.342859999999999943e+00 5.267065000000000197e+01 1.540795000000000073e+03
4.900000000000000189e-02 5.983110000000000372e-01 5.108170000000000321e+00 5.393945000000000078e+01 1.541085000000000036e+03
5.000000000000000278e-02 5.986865000000000103e-01 6.007380000000000386e+00 5.554299999999999926e+01 1.541474999999999909e+03
5.100000000000000366e-02 5.991379999999999484e-01 7.040670000000000428e+00 5.746629999999999683e+01 1.541954999999999927e+03
5.200000000000000455e-02 5.996595000000000120e-01 8.203419999999999490e+00 5.968984999999999985e+01 1.542519999999999982e+03
5.300000000000000544e-02 6.002454999999999874e-01 9.485129999999999839e+00 6.218769999999999953e+01 1.543170000000000073e+03
5.399999999999999939e-02 6.008860000000000312e-01 1.086984999999999957e+01 6.492719999999999914e+01 1.543884999999999991e+03
5.500000000000000028e-02 6.015700000000000491e-01 1.233679499999999862e+01 6.786945000000000050e+01 1.544664999999999964e+03
5.600000000000000117e-02 6.022874999999999757e-01 1.386188500000000090e+01 7.097065000000000623e+01 1.545494999999999891e+03
5.700000000000000205e-02 6.030260000000000620e-01 1.541967499999999980e+01 7.418439999999999657e+01 1.546369999999999891e+03
5.800000000000000294e-02 6.037749999999999506e-01 1.698499999999999943e+01 7.746444999999999936e+01 1.547269999999999982e+03
5.900000000000000383e-02 6.045245000000000202e-01 1.853474999999999895e+01 8.076720000000000255e+01 1.548184999999999945e+03
6.000000000000000472e-02 6.052674999999999583e-01 2.004889999999999972e+01 8.405385000000001128e+01 1.549110000000000127e+03
6.099999999999999867e-02 6.059965000000000490e-01 2.151125000000000043e+01 8.729259999999999309e+01 1.550030000000000200e+03
6.199999999999999956e-02 6.067074999999999552e-01 2.290974999999999895e+01 9.045834999999999582e+01 1.550934999999999945e+03
6.300000000000000044e-02 6.073990000000000222e-01 2.423635000000000161e+01 9.353530000000000655e+01 1.551825000000000045e+03
6.400000000000000133e-02 6.080689999999999706e-01 2.548655000000000115e+01 9.651359999999999673e+01 1.552694999999999936e+03
6.500000000000000222e-02 6.087190000000000101e-01 2.665865000000000151e+01 9.939055000000000462e+01 1.553539999999999964e+03
6.600000000000000311e-02 6.093494999999999884e-01 2.775334999999999752e+01 1.021689999999999969e+02 1.554360000000000127e+03
6.700000000000000400e-02 6.099620000000000042e-01 2.877289999999999992e+01 1.048553500000000014e+02 1.555160000000000082e+03
6.800000000000000488e-02 6.105599999999999916e-01 2.972044999999999959e+01 1.074590499999999906e+02 1.555934999999999945e+03
6.900000000000000577e-02 6.111444999999999794e-01 3.059965000000000046e+01 1.099904999999999973e+02 1.556690000000000055e+03
7.000000000000000666e-02 6.117185000000000539e-01 3.141380000000000194e+01 1.124585000000000008e+02 1.557429999999999836e+03
7.100000000000000755e-02 6.122825000000000628e-01 3.216599999999999682e+01 1.148729999999999905e+02 1.558159999999999854e+03
7.200000000000000844e-02 6.128379999999999939e-01 3.285824999999999818e+01 1.172394999999999925e+02 1.558869999999999891e+03
7.300000000000000933e-02 6.133850000000000691e-01 3.349159999999999826e+01 1.195600000000000023e+02 1.559570000000000164e+03
7.399999999999999634e-02 6.139220000000000788e-01 3.406579999999999586e+01 1.218359999999999985e+02 1.560250000000000000e+03
7.499999999999999722e-02 6.144475000000000353e-01 3.457959999999999923e+01 1.240619999999999976e+02 1.560920000000000073e+03
7.599999999999999811e-02 6.149605000000000210e-01 3.503055000000000518e+01 1.262314999999999827e+02 1.561579999999999927e+03
7.699999999999999900e-02 6.154574999999999907e-01 3.541575000000000273e+01 1.283344999999999914e+02 1.562220000000000027e+03
7.799999999999999989e-02 6.159350000000000103e-01 3.573149999999999693e+01 1.303584999999999923e+02 1.562835000000000036e+03
7.900000000000000078e-02 6.163905000000000634e-01 3.597440000000000282e+01 1.322905000000000086e+02 1.563424999999999955e+03
8.000000000000000167e-02 6.168204999999999938e-01 3.614104999999999990e+01 1.341170000000000186e+02 1.563990000000000009e+03
8.100000000000000255e-02 6.172219999999999374e-01 3.622874999999999801e+01 1.358240000000000123e+02 1.564519999999999982e+03
8.200000000000000344e-02 6.175930000000000586e-01 3.623550000000000182e+01 1.374010000000000105e+02 1.565014999999999873e+03
8.300000000000000433e-02 6.179310000000000080e-01 3.616029999999999944e+01 1.388369999999999891e+02 1.565470000000000027e+03
8.400000000000000522e-02 6.182345000000000201e-01 3.600314999999999799e+01 1.401245000000000118e+02 1.565889999999999873e+03
8.500000000000000611e-02 6.185019999999999962e-01 3.576505000000000223e+01 1.412570000000000050e+02 1.566259999999999991e+03
8.600000000000000699e-02 6.187340000000000062e-01 3.544814999999999827e+01 1.422334999999999923e+02 1.566590000000000146e+03
8.700000000000000788e-02 6.189299999999999802e-01 3.505550000000000210e+01 1.430519999999999925e+02 1.566869999999999891e+03
8.800000000000000877e-02 6.190915000000000168e-01 3.459125000000000227e+01 1.437160000000000082e+02 1.567105000000000018e+03
8.899999999999999578e-02 6.192189999999999639e-01 3.406049999999999756e+01 1.442300000000000182e+02 1.567299999999999955e+03
8.999999999999999667e-02 6.193134999999999613e-01 3.346920000000000073e+01 1.446009999999999991e+02 1.567449999999999818e+03
9.099999999999999756e-02 6.193785000000000540e-01 3.282414999999999594e+01 1.448374999999999773e+02 1.567559999999999945e+03
9.199999999999999845e-02 6.194159999999999666e-01 3.213280000000000314e+01 1.449515000000000100e+02 1.567634999999999991e+03
9.299999999999999933e-02 6.194290000000000074e-01 3.140329999999999799e+01 1.449544999999999959e+02 1.567670000000000073e+03
9.400000000000000022e-02 6.194209999999999994e-01 3.064424999999999955e+01 1.448614999999999782e+02 1.567679999999999836e+03
9.500000000000000111e-02 6.193940000000000001e-01 2.986440000000000339e+01 1.446854999999999905e+02 1.567659999999999854e+03
9.600000000000000200e-02 6.193530000000000424e-01 2.907245000000000346e+01 1.444429999999999836e+02 1.567615000000000009e+03
9.700000000000000289e-02 6.192999999999999616e-01 2.827684999999999960e+01 1.441479999999999961e+02 1.567549999999999955e+03
9.800000000000000377e-02 6.192394999999999428e-01 2.748555000000000348e+01 1.438149999999999977e+02 1.567474999999999909e+03
9.900000000000000466e-02 6.191735000000000433e-01 2.670555000000000234e+01 1.434574999999999818e+02 1.567384999999999991e+03
1.000000000000000056e-01 6.191044999999999465e-01 2.594270000000000209e+01 1.430869999999999891e+02 1.567289999999999964e+03
1.010000000000000064e-01 6.190344999999999320e-01 2.520170000000000243e+01 1.427135000000000105e+02 1.567190000000000055e+03
1.020000000000000073e-01 6.189644999999999175e-01 2.448574999999999946e+01 1.423449999999999989e+02 1.567089999999999918e+03
1.030000000000000082e-01 6.188960000000000017e-01 2.379654999999999987e+01 1.419859999999999900e+02 1.566985000000000127e+03
1.040000000000000091e-01 6.188294999999999213e-01 2.313450000000000273e+01 1.416394999999999982e+02 1.566884999999999991e+03
1.050000000000000100e-01 6.187644999999999396e-01 2.249840000000000018e+01 1.413059999999999832e+02 1.566789999999999964e+03
1.059999999999999970e-01 6.187000000000000277e-01 2.188615000000000066e+01 1.409834999999999923e+02 1.566690000000000055e+03
1.069999999999999979e-01 6.186350000000000460e-01 2.129435000000000144e+01 1.406689999999999827e+02 1.566594999999999800e+03
1.079999999999999988e-01 6.185684999999999656e-01 2.071920000000000073e+01 1.403564999999999827e+02 1.566494999999999891e+03
1.089999999999999997e-01 6.184994999999999798e-01 2.015610000000000213e+01 1.400405000000000086e+02 1.566404999999999973e+03
1.100000000000000006e-01 6.184260000000000312e-01 1.960040000000000049e+01 1.397150000000000034e+02 1.566305000000000064e+03
1.110000000000000014e-01 6.183465000000000211e-01 1.904729999999999990e+01 1.393725000000000023e+02 1.566199999999999818e+03
1.120000000000000023e-01 6.182600000000000318e-01 1.849239999999999995e+01 1.390065000000000168e+02 1.566095000000000027e+03
1.130000000000000032e-01 6.181654999999999234e-01 1.793155000000000143e+01 1.386125000000000114e+02 1.565980000000000018e+03
1.140000000000000041e-01 6.180620000000000003e-01 1.736124999999999829e+01 1.381845000000000141e+02 1.565855000000000018e+03
1.150000000000000050e-01 6.179485000000000117e-01 1.677874999999999872e+01 1.377205000000000155e+02 1.565719999999999800e+03
1.160000000000000059e-01 6.178255000000000274e-01 1.618215000000000003e+01 1.372180000000000177e+02 1.565575000000000045e+03
1.170000000000000068e-01 6.176935000000000064e-01 1.557045000000000101e+01 1.366765000000000043e+02 1.565425000000000182e+03
1.180000000000000077e-01 6.175524999999999487e-01 1.494364999999999988e+01 1.360980000000000132e+02 1.565259999999999991e+03
1.190000000000000085e-01 6.174040000000000639e-01 1.430280499999999932e+01 1.354850000000000136e+02 1.565090000000000146e+03
1.200000000000000094e-01 6.172485000000000888e-01 1.364981000000000044e+01 1.348435000000000059e+02 1.564909999999999854e+03
1.209999999999999964e-01 6.170889999999999986e-01 1.298760000000000048e+01 1.341784999999999854e+02 1.564724999999999909e+03
1.219999999999999973e-01 6.169264999999999333e-01 1.231976500000000030e+01 1.334990000000000236e+02 1.564529999999999973e+03
1.229999999999999982e-01 6.167635000000000201e-01 1.165084000000000053e+01 1.328114999999999952e+02 1.564335000000000036e+03
1.239999999999999991e-01 6.166024999999999423e-01 1.098560999999999943e+01 1.321274999999999977e+02 1.564139999999999873e+03
1.250000000000000000e-01 6.164454999999999796e-01 1.032937000000000083e+01 1.314560000000000173e+02 1.563945000000000164e+03
1.260000000000000009e-01 6.162950000000000372e-01 9.687590000000000146e+00 1.308070000000000164e+02 1.563755000000000109e+03
1.270000000000000018e-01 6.161535000000000206e-01 9.065709999999999269e+00 1.301910000000000025e+02 1.563579999999999927e+03
1.280000000000000027e-01 6.160220000000000695e-01 8.468910000000001048e+00 1.296154999999999973e+02 1.563404999999999973e+03
1.290000000000000036e-01 6.159045000000000769e-01 7.901959999999999873e+00 1.290910000000000082e+02 1.563250000000000000e+03
1.300000000000000044e-01 6.158000000000000140e-01 7.369164999999999743e+00 1.286235000000000070e+02 1.563105000000000018e+03
1.310000000000000053e-01 6.157109999999998973e-01 6.873974999999999724e+00 1.282185000000000059e+02 1.562980000000000018e+03
1.320000000000000062e-01 6.156390000000000473e-01 6.419074999999999420e+00 1.278805000000000121e+02 1.562865000000000009e+03
1.330000000000000071e-01 6.155824999999999214e-01 6.006214999999999193e+00 1.276109999999999900e+02 1.562780000000000200e+03
1.340000000000000080e-01 6.155420000000000336e-01 5.636179999999999524e+00 1.274120000000000061e+02 1.562704999999999927e+03
1.350000000000000089e-01 6.155180000000000096e-01 5.308799999999999741e+00 1.272804999999999893e+02 1.562654999999999973e+03
1.360000000000000098e-01 6.155085000000000139e-01 5.022999999999999687e+00 1.272145000000000010e+02 1.562619999999999891e+03
1.370000000000000107e-01 6.155120000000000591e-01 4.776864999999999917e+00 1.272090000000000032e+02 1.562599999999999909e+03
1.380000000000000115e-01 6.155280000000000751e-01 4.567764999999999631e+00 1.272579999999999956e+02 1.562599999999999909e+03
1.390000000000000124e-01 6.155545000000000044e-01 4.392479999999999940e+00 1.273539999999999850e+02 1.562610000000000127e+03
1.400000000000000133e-01 6.155889999999999418e-01 4.247345000000000148e+00 1.274904999999999973e+02 1.562634999999999991e+03
1.410000000000000142e-01 6.156300000000000106e-01 4.128420000000000201e+00 1.276590000000000060e+02 1.562670000000000073e+03
1.420000000000000151e-01 6.156755000000000422e-01 4.031634999999999636e+00 1.278505000000000109e+02 1.562715000000000146e+03
1.430000000000000160e-01 6.157245000000000079e-01 3.952914999999999957e+00 1.280575000000000045e+02 1.562764999999999873e+03
1.440000000000000169e-01 6.157734999999999737e-01 3.888325000000000031e+00 1.282715000000000032e+02 1.562820000000000164e+03
1.450000000000000178e-01 6.158234999999999681e-01 3.834170000000000300e+00 1.284869999999999948e+02 1.562875000000000000e+03
1.459999999999999909e-01 6.158704999999999874e-01 3.787049999999999805e+00 1.286970000000000027e+02 1.562929999999999836e+03
1.469999999999999918e-01 6.159155000000000602e-01 3.743940000000000268e+00 1.288965000000000032e+02 1.562980000000000018e+03
1.479999999999999927e-01 6.159565000000000179e-01 3.702239999999999753e+00 1.290810000000000173e+02 1.563035000000000082e+03
1.489999999999999936e-01 6.159935000000000827e-01 3.659769999999999968e+00 1.292470000000000141e+02 1.563079999999999927e+03
1.499999999999999944e-01 6.160255000000000036e-01 3.614770000000000039e+00 1.293924999999999841e+02 1.563119999999999891e+03
1.509999999999999953e-01 6.160525000000000029e-01 3.565914999999999946e+00 1.295165000000000077e+02 1.563159999999999854e+03
1.519999999999999962e-01 6.160745000000000804e-01 3.512284999999999879e+00 1.296165000000000020e+02 1.563190000000000055e+03
1.529999999999999971e-01 6.160920000000000840e-01 3.453310000000000102e+00 1.296949999999999932e+02 1.563215000000000146e+03
1.539999999999999980e-01 6.161039999999999850e-01 3.388765000000000249e+00 1.297509999999999764e+02 1.563235000000000127e+03
1.549999999999999989e-01 6.161115000000000341e-01 3.318715000000000082e+00 1.297860000000000014e+02 1.563250000000000000e+03
1.559999999999999998e-01 6.161149999999999682e-01 3.243444999999999911e+00 1.298009999999999877e+02 1.563259999999999991e+03
1.570000000000000007e-01 6.161149999999999682e-01 3.163459999999999717e+00 1.297990000000000066e+02 1.563264999999999873e+03
1.580000000000000016e-01 6.161114999999999231e-01 3.079365000000000130e+00 1.297810000000000059e+02 1.563259999999999991e+03
1.590000000000000024e-01 6.161049999999999027e-01 2.991875000000000284e+00 1.297479999999999905e+02 1.563255000000000109e+03
