# t [s], A [cm^2], U [cm/s], P [cPa], c [cm/s]
1.000000000000000021e-03 6.260580000000000034e-01 6.984000000000004094e-03 1.076115000000000066e+02 1.730369999999999891e+03
2.000000000000000042e-03 6.260470000000000201e-01 -1.988469500000000258e-03 1.075784999999999911e+02 1.730365000000000009e+03
3.000000000000000062e-03 6.261035000000000350e-01 1.043426999999999966e-01 1.077040000000000077e+02 1.730389999999999873e+03
4.000000000000000083e-03 6.261455000000000215e-01 2.005688300000000035e-01 1.078299999999999983e+02 1.730425000000000182e+03
5.000000000000000104e-03 6.261084999999999567e-01 1.556102500000000055e-01 1.077289999999999992e+02 1.730404999999999973e+03
6.000000000000000125e-03 6.260414999999999175e-01 4.963549999999999907e-02 1.074604999999999961e+02 1.730345000000000027e+03
7.000000000000000146e-03 6.259835000000000260e-01 -4.822850000000000747e-02 1.071345000000000027e+02 1.730269999999999982e+03
8.000000000000000167e-03 6.258835000000000370e-01 -2.431049999999999045e-01 1.066315000000000026e+02 1.730154999999999973e+03
9.000000000000001055e-03 6.257220000000000004e-01 -5.768799999999999484e-01 1.058605000000000018e+02 1.729980000000000018e+03
1.000000000000000194e-02 6.254920000000000480e-01 -1.055479999999999974e+00 1.047694999999999936e+02 1.729739999999999782e+03
1.099999999999999936e-02 6.251700000000000035e-01 -1.711000000000000298e+00 1.032637500000000017e+02 1.729394999999999982e+03
1.200000000000000025e-02 6.247590000000000643e-01 -2.517094999999999860e+00 1.013187000000000069e+02 1.728940000000000055e+03
1.300000000000000114e-02 6.243164999999999409e-01 -3.331679999999999531e+00 9.908510000000001128e+01 1.728404999999999973e+03
1.400000000000000203e-02 6.239190000000000014e-01 -3.962724000000000579e+00 9.683314999999998918e+01 1.727840000000000146e+03
1.499999999999999944e-02 6.236155000000001003e-01 -4.274357649999999786e+00 9.480830000000000268e+01 1.727305000000000064e+03
1.600000000000000033e-02 6.234034999999999993e-01 -4.239301999999999460e+00 9.311809999999999832e+01 1.726829999999999927e+03
1.700000000000000122e-02 6.232429999999999914e-01 -3.925254999999999939e+00 9.172100000000000364e+01 1.726409999999999854e+03
1.800000000000000211e-02 6.230809999999999960e-01 -3.446543000000000134e+00 9.047204999999999586e+01 1.726019999999999982e+03
1.900000000000000300e-02 6.228734999999999689e-01 -2.911154499999999867e+00 8.920109999999999673e+01 1.725625000000000000e+03
2.000000000000000042e-02 6.226019999999999888e-01 -2.382233000000000267e+00 8.778344999999998777e+01 1.725194999999999936e+03
2.100000000000000130e-02 6.222765000000000102e-01 -1.864805000000000046e+00 8.618075000000000330e+01 1.724735000000000127e+03
2.200000000000000219e-02 6.219235000000000735e-01 -1.319855000000000000e+00 8.444014999999998849e+01 1.724235000000000127e+03
2.299999999999999961e-02 6.215735000000000010e-01 -6.964749999999999552e-01 8.265585000000000093e+01 1.723724999999999909e+03
2.400000000000000050e-02 6.212465000000000348e-01 3.444499999999983686e-02 8.091665000000000418e+01 1.723220000000000027e+03
2.500000000000000139e-02 6.209424999999999528e-01 8.590300000000001823e-01 7.926200000000000045e+01 1.722730000000000018e+03
2.600000000000000228e-02 6.206419999999999160e-01 1.717080000000000162e+00 7.766105000000000302e+01 1.722244999999999891e+03
2.700000000000000316e-02 6.203134999999999621e-01 2.514505000000000212e+00 7.601800000000000068e+01 1.721759999999999991e+03
2.800000000000000058e-02 6.199220000000000841e-01 3.146154999999999813e+00 7.419819999999999993e+01 1.721240000000000009e+03
2.900000000000000147e-02 6.194405000000000605e-01 3.522734999999999950e+00 7.206820000000000448e+01 1.720650000000000091e+03
3.000000000000000236e-02 6.188580000000000192e-01 3.594345000000000123e+00 6.953804999999999836e+01 1.719980000000000018e+03
3.099999999999999978e-02 6.181849999999999845e-01 3.363915000000000433e+00 6.659295000000000186e+01 1.719215000000000146e+03
3.200000000000000067e-02 6.174515000000000420e-01 2.884914999999999896e+00 6.330395000000000039e+01 1.718365000000000009e+03
3.300000000000000155e-02 6.166989999999999972e-01 2.246099999999999763e+00 5.981455000000000410e+01 1.717465000000000146e+03
3.400000000000000244e-02 6.159725000000000339e-01 1.549145000000000216e+00 5.631024999999999636e+01 1.716550000000000182e+03
3.500000000000000333e-02 6.153100000000000236e-01 8.880650000000001043e-01 5.298369999999999891e+01 1.715670000000000073e+03
3.600000000000000422e-02 6.147400000000000642e-01 3.355450000000002042e-01 5.000464999999999804e+01 1.714855000000000018e+03
3.700000000000000511e-02 6.142790000000000195e-01 -6.228500000000014580e-02 4.750119999999999720e+01 1.714144999999999982e+03
3.799999999999999906e-02 6.139335000000000209e-01 -2.840199999999999392e-01 4.555254999999999654e+01 1.713570000000000164e+03
3.899999999999999994e-02 6.137004999999999821e-01 -3.264249999999999652e-01 4.419200000000000017e+01 1.713139999999999873e+03
4.000000000000000083e-02 6.135770000000000390e-01 -1.959649999999999448e-01 4.341785000000000139e+01 1.712855000000000018e+03
4.100000000000000172e-02 6.135534999999999739e-01 9.917400000000001214e-02 4.320615000000000094e+01 1.712720000000000027e+03
4.200000000000000261e-02 6.136260000000000048e-01 5.545204999999999718e-01 4.352465000000000117e+01 1.712724999999999909e+03
4.300000000000000350e-02 6.137905000000000166e-01 1.171215000000000117e+00 4.434125000000000227e+01 1.712869999999999891e+03
4.400000000000000439e-02 6.140440000000000342e-01 1.954294999999999893e+00 4.562810000000000343e+01 1.713139999999999873e+03
4.499999999999999833e-02 6.143840000000000412e-01 2.908619999999999983e+00 4.736005000000000109e+01 1.713534999999999854e+03
4.599999999999999922e-02 6.148065000000000335e-01 4.034105000000000274e+00 4.950990000000000180e+01 1.714045000000000073e+03
4.700000000000000011e-02 6.153035000000000032e-01 5.321981499999999699e+00 5.204299999999999926e+01 1.714655000000000200e+03
4.800000000000000100e-02 6.158649999999999958e-01 6.753008499999999970e+00 5.491324999999999790e+01 1.715369999999999891e+03
4.900000000000000189e-02 6.164775000000000116e-01 8.298178499999998792e+00 5.806190000000000140e+01 1.716154999999999973e+03
5.000000000000000278e-02 6.171240000000000059e-01 9.921194999999999098e+00 6.141944999999999766e+01 1.717009999999999991e+03
5.100000000000000366e-02 6.177904999999999092e-01 1.158204999999999885e+01 6.490984999999999161e+01 1.717914999999999964e+03
5.200000000000000455e-02 6.184600000000000097e-01 1.324106000000000094e+01 6.845659999999999457e+01 1.718840000000000146e+03
5.300000000000000544e-02 6.191204999999999625e-01 1.486251999999999995e+01 7.198859999999999104e+01 1.719779999999999973e+03
5.399999999999999939e-02 6.197615000000000762e-01 1.641729499999999931e+01 7.544570000000000221e+01 1.720715000000000146e+03
5.500000000000000028e-02 6.203760000000000385e-01 1.788410000000000011e+01 7.878229999999999222e+01 1.721619999999999891e+03
5.600000000000000117e-02 6.209609999999999852e-01 1.924990000000000023e+01 8.196909999999999741e+01 1.722505000000000109e+03
5.700000000000000205e-02 6.215165000000000273e-01 2.050910000000000011e+01 8.499280000000000257e+01 1.723355000000000018e+03
5.800000000000000294e-02 6.220440000000000413e-01 2.166225000000000023e+01 8.785464999999999236e+01 1.724160000000000082e+03
5.900000000000000383e-02 6.225475000000000314e-01 2.271455000000000268e+01 9.056725000000000136e+01 1.724934999999999945e+03
6.000000000000000472e-02 6.230324999999999891e-01 2.367425000000000068e+01 9.315190000000001191e+01 1.725675000000000182e+03
6.099999999999999867e-02 6.235024999999999595e-01 2.455134999999999934e+01 9.563445000000000107e+01 1.726384999999999991e+03
6.199999999999999956e-02 6.239639999999999631e-01 2.535634999999999906e+01 9.804245000000000232e+01 1.727085000000000036e+03
6.300000000000000044e-02 6.244205000000000449e-01 2.609915000000000163e+01 1.004021500000000060e+02 1.727759999999999991e+03
6.400000000000000133e-02 6.248759999999999870e-01 2.678795000000000215e+01 1.027352499999999935e+02 1.728429999999999836e+03
6.500000000000000222e-02 6.253325000000000689e-01 2.742889999999999873e+01 1.050585000000000093e+02 1.729090000000000146e+03
6.600000000000000311e-02 6.257894999999999985e-01 2.802519999999999811e+01 1.073780000000000001e+02 1.729750000000000000e+03
6.700000000000000400e-02 6.262469999999999981e-01 2.857699999999999818e+01 1.096940000000000026e+02 1.730409999999999854e+03
6.800000000000000488e-02 6.267015000000000224e-01 2.908149999999999835e+01 1.119980000000000047e+02 1.731065000000000055e+03
6.900000000000000577e-02 6.271495000000000264e-01 2.953349999999999653e+01 1.142725000000000080e+02 1.731715000000000146e+03
7.000000000000000666e-02 6.275855000000000183e-01 2.992584999999999695e+01 1.164945000000000022e+02 1.732349999999999909e+03
7.100000000000000755e-02 6.280040000000000067e-01 3.025054999999999694e+01 1.186380000000000052e+02 1.732960000000000036e+03
7.200000000000000844e-02 6.284000000000000696e-01 3.049944999999999951e+01 1.206734999999999900e+02 1.733545000000000073e+03
7.300000000000000933e-02 6.287679999999999936e-01 3.066485000000000127e+01 1.225745000000000005e+02 1.734105000000000018e+03
7.399999999999999634e-02 6.291035000000000377e-01 3.074060000000000059e+01 1.243149999999999977e+02 1.734619999999999891e+03
7.499999999999999722e-02 6.294029999999999347e-01 3.072189999999999799e+01 1.258729999999999905e+02 1.735085000000000036e+03
7.599999999999999811e-02 6.296635000000000426e-01 3.060620000000000118e+01 1.272315000000000111e+02 1.735500000000000000e+03
7.699999999999999900e-02 6.298835000000000406e-01 3.039265000000000327e+01 1.283804999999999836e+02 1.735860000000000127e+03
7.799999999999999989e-02 6.300624999999999698e-01 3.008270000000000266e+01 1.293125000000000000e+02 1.736164999999999964e+03
7.900000000000000078e-02 6.302004999999999413e-01 2.967994999999999806e+01 1.300289999999999964e+02 1.736404999999999973e+03
8.000000000000000167e-02 6.302989999999999426e-01 2.918979999999999819e+01 1.305339999999999918e+02 1.736590000000000146e+03
8.100000000000000255e-02 6.303604999999999903e-01 2.861980000000000146e+01 1.308395000000000152e+02 1.736714999999999918e+03
8.200000000000000344e-02 6.303879999999999484e-01 2.797919999999999874e+01 1.309594999999999914e+02 1.736799999999999955e+03
8.300000000000000433e-02 6.303849999999999731e-01 2.727875000000000227e+01 1.309130000000000109e+02 1.736824999999999818e+03
8.400000000000000522e-02 6.303564999999999863e-01 2.653054999999999808e+01 1.307224999999999966e+02 1.736809999999999945e+03
8.500000000000000611e-02 6.303060000000000329e-01 2.574739999999999895e+01 1.304124999999999943e+02 1.736759999999999991e+03
8.600000000000000699e-02 6.302395000000000636e-01 2.494275000000000020e+01 1.300080000000000098e+02 1.736680000000000064e+03
8.700000000000000788e-02 6.301615000000000411e-01 2.412959999999999994e+01 1.295344999999999800e+02 1.736574999999999818e+03
8.800000000000000877e-02 6.300760000000000804e-01 2.332025000000000148e+01 1.290180000000000007e+02 1.736450000000000045e+03
8.899999999999999578e-02 6.299879999999999924e-01 2.252590000000000003e+01 1.284800000000000182e+02 1.736315000000000055e+03
8.999999999999999667e-02 6.299000000000000155e-01 2.175569999999999737e+01 1.279405000000000143e+02 1.736174999999999955e+03
9.099999999999999756e-02 6.298144999999999438e-01 2.101664999999999850e+01 1.274150000000000063e+02 1.736034999999999854e+03
9.199999999999999845e-02 6.297340000000000160e-01 2.031325000000000003e+01 1.269149999999999920e+02 1.735900000000000091e+03
9.299999999999999933e-02 6.296580000000000510e-01 1.964754999999999896e+01 1.264449999999999932e+02 1.735769999999999982e+03
9.400000000000000022e-02 6.295870000000000077e-01 1.901895000000000024e+01 1.260070000000000050e+02 1.735650000000000091e+03
9.500000000000000111e-02 6.295195000000000096e-01 1.842479999999999762e+01 1.255979999999999990e+02 1.735525000000000091e+03
9.600000000000000200e-02 6.294539999999999580e-01 1.786029999999999873e+01 1.252094999999999914e+02 1.735414999999999964e+03
9.700000000000000289e-02 6.293874999999999886e-01 1.731940000000000168e+01 1.248315000000000055e+02 1.735300000000000182e+03
9.800000000000000377e-02 6.293189999999999618e-01 1.679489999999999839e+01 1.244509999999999934e+02 1.735190000000000055e+03
9.900000000000000466e-02 6.292440000000000255e-01 1.627905000000000157e+01 1.240544999999999902e+02 1.735074999999999818e+03
1.000000000000000056e-01 6.291614999999999291e-01 1.576399999999999935e+01 1.236270000000000095e+02 1.734954999999999927e+03
1.010000000000000064e-01 6.290679999999999605e-01 1.524239999999999995e+01 1.231555000000000035e+02 1.734824999999999818e+03
1.020000000000000073e-01 6.289620000000000211e-01 1.470754999999999946e+01 1.226274999999999977e+02 1.734675000000000182e+03
1.030000000000000082e-01 6.288415000000000532e-01 1.415409999999999968e+01 1.220339999999999918e+02 1.734514999999999873e+03
1.040000000000000091e-01 6.287070000000000158e-01 1.357812500000000000e+01 1.213689999999999998e+02 1.734335000000000036e+03
1.050000000000000100e-01 6.285570000000000324e-01 1.297752499999999998e+01 1.206285000000000025e+02 1.734144999999999982e+03
1.059999999999999970e-01 6.283924999999999095e-01 1.235222999999999871e+01 1.198149999999999977e+02 1.733920000000000073e+03
1.069999999999999979e-01 6.282149999999999679e-01 1.170399000000000100e+01 1.189320000000000022e+02 1.733690000000000055e+03
1.079999999999999988e-01 6.280270000000000019e-01 1.103680999999999912e+01 1.179894999999999925e+02 1.733440000000000055e+03
1.089999999999999997e-01 6.278310000000000279e-01 1.035632500000000000e+01 1.170000000000000000e+02 1.733174999999999955e+03
1.100000000000000006e-01 6.276304999999999801e-01 9.669874999999999332e+00 1.159795000000000016e+02 1.732900000000000091e+03
1.110000000000000014e-01 6.274284999999999446e-01 8.985894999999999300e+00 1.149449999999999932e+02 1.732625000000000000e+03
1.120000000000000023e-01 6.272305000000000241e-01 8.313760000000000261e+00 1.139184999999999945e+02 1.732339999999999918e+03
1.130000000000000032e-01 6.270394999999999719e-01 7.663129999999999775e+00 1.129184999999999945e+02 1.732065000000000055e+03
1.140000000000000041e-01 6.268599999999999728e-01 7.043519999999999115e+00 1.119659999999999940e+02 1.731800000000000182e+03
1.150000000000000050e-01 6.266939999999999733e-01 6.463944999999999830e+00 1.110799999999999983e+02 1.731554999999999836e+03
1.160000000000000059e-01 6.265454999999999774e-01 5.932305000000000383e+00 1.102764999999999986e+02 1.731320000000000164e+03
1.170000000000000068e-01 6.264164999999999317e-01 5.455129999999999590e+00 1.095695000000000050e+02 1.731115000000000009e+03
1.180000000000000077e-01 6.263090000000000046e-01 5.037264999999999660e+00 1.089685000000000059e+02 1.730934999999999945e+03
1.190000000000000085e-01 6.262235000000000440e-01 4.681689999999999685e+00 1.084809999999999945e+02 1.730779999999999973e+03
1.200000000000000094e-01 6.261600000000000499e-01 4.389405000000000001e+00 1.081069999999999993e+02 1.730659999999999854e+03
1.209999999999999964e-01 6.261175000000001045e-01 4.159505000000000230e+00 1.078464999999999918e+02 1.730565000000000055e+03
1.219999999999999973e-01 6.260949999999999571e-01 3.989295000000000258e+00 1.076924999999999955e+02 1.730500000000000000e+03
1.229999999999999982e-01 6.260900000000000354e-01 3.874519999999999964e+00 1.076359999999999957e+02 1.730465000000000146e+03
1.239999999999999991e-01 6.261000000000001009e-01 3.809670000000000112e+00 1.076655000000000086e+02 1.730449999999999818e+03
1.250000000000000000e-01 6.261225000000000263e-01 3.788279999999999870e+00 1.077674999999999983e+02 1.730454999999999927e+03
1.260000000000000009e-01 6.261544999999999472e-01 3.803329999999999878e+00 1.079275000000000091e+02 1.730485000000000127e+03
1.270000000000000018e-01 6.261940000000000284e-01 3.847535000000000149e+00 1.081304999999999978e+02 1.730525000000000091e+03
1.280000000000000027e-01 6.262369999999999326e-01 3.913705000000000211e+00 1.083615000000000066e+02 1.730575000000000045e+03
1.290000000000000036e-01 6.262820000000000054e-01 3.994955000000000034e+00 1.086080000000000041e+02 1.730630000000000109e+03
1.300000000000000044e-01 6.263265000000000082e-01 4.084960000000000591e+00 1.088574999999999875e+02 1.730690000000000055e+03
1.310000000000000053e-01 6.263689999999999536e-01 4.178090000000000082e+00 1.090990000000000038e+02 1.730750000000000000e+03
1.320000000000000062e-01 6.264080000000000759e-01 4.269535000000000302e+00 1.093255000000000052e+02 1.730804999999999836e+03
1.330000000000000071e-01 6.264434999999999309e-01 4.355335000000000178e+00 1.095310000000000059e+02 1.730860000000000127e+03
1.340000000000000080e-01 6.264730000000000576e-01 4.432434999999999903e+00 1.097104999999999961e+02 1.730904999999999973e+03
1.350000000000000089e-01 6.264974999999999294e-01 4.498654999999999404e+00 1.098619999999999948e+02 1.730949999999999818e+03
1.360000000000000098e-01 6.265169999999999906e-01 4.552659999999999485e+00 1.099855000000000018e+02 1.730985000000000127e+03
1.370000000000000107e-01 6.265309999999999491e-01 4.593904999999999461e+00 1.100809999999999889e+02 1.731014999999999873e+03
1.380000000000000115e-01 6.265414999999999734e-01 4.622560000000000002e+00 1.101514999999999986e+02 1.731034999999999854e+03
1.390000000000000124e-01 6.265484999999999527e-01 4.639395000000000380e+00 1.102009999999999934e+02 1.731054999999999836e+03
1.400000000000000133e-01 6.265524999999999567e-01 4.645704999999999529e+00 1.102324999999999875e+02 1.731065000000000055e+03
1.410000000000000142e-01 6.265545000000000142e-01 4.643164999999999765e+00 1.102500000000000000e+02 1.731075000000000045e+03
1.420000000000000151e-01 6.265549999999999731e-01 4.633670000000000400e+00 1.102595000000000027e+02 1.731079999999999927e+03
1.430000000000000160e-01 6.265560000000000018e-01 4.619250000000000078e+00 1.102640000000000100e+02 1.731090000000000146e+03
1.440000000000000169e-01 6.265574999999999894e-01 4.601869999999999905e+00 1.102680000000000007e+02 1.731090000000000146e+03
1.450000000000000178e-01 6.265595000000000470e-01 4.583339999999999748e+00 1.102754999999999939e+02 1.731095000000000027e+03
1.459999999999999909e-01 6.265640000000000098e-01 4.565195000000000114e+00 1.102884999999999991e+02 1.731105000000000018e+03
1.469999999999999918e-01 6.265689999999999316e-01 4.548614999999999853e+00 1.103089999999999975e+02 1.731110000000000127e+03
1.479999999999999927e-01 6.265765000000000917e-01 4.534354999999999691e+00 1.103375000000000057e+02 1.731119999999999891e+03
1.489999999999999936e-01 6.265849999999999476e-01 4.522775000000000212e+00 1.103735000000000070e+02 1.731130000000000109e+03
1.499999999999999944e-01 6.265950000000000131e-01 4.513815000000000133e+00 1.104159999999999968e+02 1.731139999999999873e+03
1.509999999999999953e-01 6.266054999999999264e-01 4.507089999999999819e+00 1.104629999999999939e+02 1.731150000000000091e+03
1.519999999999999962e-01 6.266159999999999508e-01 4.501940000000000275e+00 1.105114999999999981e+02 1.731164999999999964e+03
1.529999999999999971e-01 6.266264999999999752e-01 4.497555000000000192e+00 1.105585000000000093e+02 1.731174999999999955e+03
1.539999999999999980e-01 6.266355000000000119e-01 4.493050000000000210e+00 1.106009999999999991e+02 1.731190000000000055e+03
1.549999999999999989e-01 6.266424999999999912e-01 4.487589999999999968e+00 1.106359999999999957e+02 1.731199999999999818e+03
1.559999999999999998e-01 6.266479999999999828e-01 4.480475000000000207e+00 1.106620000000000061e+02 1.731210000000000036e+03
1.570000000000000007e-01 6.266504999999999992e-01 4.471204999999999430e+00 1.106749999999999972e+02 1.731214999999999918e+03
1.580000000000000016e-01 6.266510000000000691e-01 4.459524999999999295e+00 1.106760000000000019e+02 1.731214999999999918e+03
1.590000000000000024e-01 6.266484999999999417e-01 4.445460000000000633e+00 1.106624999999999943e+02 1.731210000000000036e+03
