# t [s], A [cm^2], U [cm/s], P [cPa], c [cm/s]
1.000000000000000021e-03 5.097814999999999985e-01 3.775500000000001077e-03 1.029039999999999964e+02 1.563204999999999927e+03
2.000000000000000042e-03 5.097769999999999246e-01 7.458049999999999922e-03 1.028805000000000121e+02 1.563195000000000164e+03
3.000000000000000062e-03 5.098390000000000422e-01 1.438752000000000086e-01 1.030204999999999984e+02 1.563235000000000127e+03
4.000000000000000083e-03 5.098679999999999879e-01 2.234119999999999995e-01 1.031105000000000018e+02 1.563259999999999991e+03
5.000000000000000104e-03 5.098199999999999399e-01 1.421545000000000170e-01 1.029555000000000007e+02 1.563224999999999909e+03
6.000000000000000125e-03 5.097500000000000364e-01 3.981999999999985551e-03 1.026299999999999955e+02 1.563150000000000091e+03
7.000000000000000146e-03 5.096720000000000139e-01 -1.646900000000000031e-01 1.021844999999999999e+02 1.563034999999999854e+03
8.000000000000000167e-03 5.095340000000000424e-01 -4.772399999999999975e-01 1.014805000000000064e+02 1.562855000000000018e+03
9.000000000000001055e-03 5.093280000000000030e-01 -9.492649999999999144e-01 1.004477500000000134e+02 1.562595000000000027e+03
1.000000000000000194e-02 5.090529999999999777e-01 -1.565420000000000034e+00 9.905474999999999852e+01 1.562235000000000127e+03
1.099999999999999936e-02 5.086874999999999591e-01 -2.350305000000000089e+00 9.722655000000000314e+01 1.561744999999999891e+03
1.200000000000000025e-02 5.082284999999999719e-01 -3.282235000000000014e+00 9.493670000000000186e+01 1.561130000000000109e+03
1.300000000000000114e-02 5.077270000000000394e-01 -4.214125000000000121e+00 9.232975000000000421e+01 1.560405000000000200e+03
1.400000000000000203e-02 5.072670000000000234e-01 -4.921065999999999718e+00 8.970840000000001169e+01 1.559650000000000091e+03
1.499999999999999944e-02 5.069129999999999470e-01 -5.219397500000000356e+00 8.738705000000000211e+01 1.558930000000000064e+03
1.600000000000000033e-02 5.066820000000000768e-01 -5.047625000000000028e+00 8.555480000000000018e+01 1.558320000000000164e+03
1.700000000000000122e-02 5.065414999999999779e-01 -4.473970000000000447e+00 8.421609999999999729e+01 1.557820000000000164e+03
1.800000000000000211e-02 5.064334999999999809e-01 -3.652944999999999887e+00 8.321424999999999272e+01 1.557405000000000200e+03
1.900000000000000300e-02 5.062940000000000218e-01 -2.760765999999999831e+00 8.230649999999999977e+01 1.557025000000000091e+03
2.000000000000000042e-02 5.060805000000000442e-01 -1.932892000000000055e+00 8.125950000000000273e+01 1.556619999999999891e+03
2.100000000000000130e-02 5.057829999999999826e-01 -1.225014999999999965e+00 7.993074999999998909e+01 1.556160000000000082e+03
2.200000000000000219e-02 5.054199999999999804e-01 -6.126499999999999169e-01 7.830160000000000764e+01 1.555625000000000000e+03
2.299999999999999961e-02 5.050270000000000037e-01 -2.627999999999985903e-02 7.645400000000000773e+01 1.555034999999999854e+03
2.400000000000000050e-02 5.046355000000000146e-01 5.998899999999998123e-01 7.450929999999999609e+01 1.554409999999999854e+03
2.500000000000000139e-02 5.042599999999999305e-01 1.289630000000000276e+00 7.256360000000000809e+01 1.553769999999999982e+03
2.600000000000000228e-02 5.038940000000000641e-01 2.008789999999999853e+00 7.064525000000000432e+01 1.553130000000000109e+03
2.700000000000000316e-02 5.035134999999999472e-01 2.671674999999999578e+00 6.870134999999999081e+01 1.552480000000000018e+03
2.800000000000000058e-02 5.030835000000000168e-01 3.163264999999999993e+00 6.661369999999999436e+01 1.551795000000000073e+03
2.900000000000000147e-02 5.025699999999999612e-01 3.369300000000000406e+00 6.423369999999999891e+01 1.551039999999999964e+03
3.000000000000000236e-02 5.019504999999999661e-01 3.207110000000000127e+00 6.142879999999999541e+01 1.550180000000000064e+03
3.099999999999999978e-02 5.012195000000000400e-01 2.648295000000000066e+00 5.812650000000000006e+01 1.549200000000000045e+03
3.200000000000000067e-02 5.003949999999999232e-01 1.728710000000000413e+00 5.434399999999999409e+01 1.548090000000000146e+03
3.300000000000000155e-02 4.995124999999999704e-01 5.411000000000001364e-01 5.019409999999999883e+01 1.546869999999999891e+03
3.400000000000000244e-02 4.986209999999999809e-01 -7.839000000000000412e-01 4.586919999999999931e+01 1.545590000000000146e+03
3.500000000000000333e-02 4.977714999999999779e-01 -2.102594999999999992e+00 4.160880000000000223e+01 1.544315000000000055e+03
3.600000000000000422e-02 4.970109999999999806e-01 -3.280874999999999986e+00 3.766205000000000069e+01 1.543105000000000018e+03
3.700000000000000511e-02 4.963779999999999859e-01 -4.210024999999999906e+00 3.425495000000000090e+01 1.542014999999999873e+03
3.799999999999999906e-02 4.958989999999999787e-01 -4.814535000000000231e+00 3.156564999999999799e+01 1.541110000000000127e+03
3.899999999999999994e-02 4.955859999999999710e-01 -5.052647499999999958e+00 2.971195000000000164e+01 1.540420000000000073e+03
4.000000000000000083e-02 4.954425000000000079e-01 -4.911340000000000039e+00 2.874924999999999997e+01 1.539985000000000127e+03
4.100000000000000172e-02 4.954634999999999456e-01 -4.398649999999999949e+00 2.867790000000000106e+01 1.539805000000000064e+03
4.200000000000000261e-02 4.956375000000000086e-01 -3.535287499999999916e+00 2.945584999999999809e+01 1.539884999999999991e+03
4.300000000000000350e-02 4.959509999999999752e-01 -2.347795000000000076e+00 3.101355000000000217e+01 1.540200000000000045e+03
4.400000000000000439e-02 4.963885000000000103e-01 -8.646750000000000824e-01 3.326640000000000441e+01 1.540735000000000127e+03
4.499999999999999833e-02 4.969350000000000156e-01 8.843950000000004863e-01 3.612369999999999948e+01 1.541470000000000027e+03
4.599999999999999922e-02 4.975745000000000307e-01 2.866975000000000495e+00 3.949264999999999759e+01 1.542369999999999891e+03
4.700000000000000011e-02 4.982900000000000107e-01 5.045204999999999274e+00 4.327844999999999942e+01 1.543420000000000073e+03
4.800000000000000100e-02 4.990630000000000344e-01 7.374225000000000918e+00 4.738309999999999889e+01 1.544585000000000036e+03
4.900000000000000189e-02 4.998730000000000118e-01 9.801377999999999702e+00 5.170489999999999498e+01 1.545835000000000036e+03
5.000000000000000278e-02 5.007004999999999928e-01 1.226843500000000020e+01 5.613880000000000337e+01 1.547144999999999982e+03
5.100000000000000366e-02 5.015239999999999698e-01 1.471465499999999871e+01 6.058010000000000161e+01 1.548480000000000018e+03
5.200000000000000455e-02 5.023249999999999105e-01 1.708110999999999891e+01 6.492910000000000537e+01 1.549805000000000064e+03
5.300000000000000544e-02 5.030870000000000619e-01 1.931524999999999892e+01 6.909709999999999752e+01 1.551099999999999909e+03
5.399999999999999939e-02 5.037985000000000380e-01 2.137464999999999904e+01 7.301245000000000118e+01 1.552345000000000027e+03
5.500000000000000028e-02 5.044509999999999827e-01 2.322944999999999993e+01 7.662460000000000093e+01 1.553509999999999991e+03
5.600000000000000117e-02 5.050430000000000197e-01 2.486345000000000027e+01 7.990739999999999554e+01 1.554599999999999909e+03
5.700000000000000205e-02 5.055754999999999555e-01 2.627390000000000114e+01 8.285829999999999984e+01 1.555595000000000027e+03
5.800000000000000294e-02 5.060550000000000326e-01 2.746945000000000192e+01 8.549739999999999895e+01 1.556500000000000000e+03
5.900000000000000383e-02 5.064895000000000369e-01 2.846844999999999715e+01 8.786279999999999291e+01 1.557329999999999927e+03
6.000000000000000472e-02 5.068889999999999230e-01 2.929599999999999937e+01 9.000655000000000427e+01 1.558090000000000146e+03
6.099999999999999867e-02 5.072659999999999947e-01 2.998179999999999978e+01 9.198930000000000007e+01 1.558800000000000182e+03
6.199999999999999956e-02 5.076319999999999721e-01 3.055809999999999960e+01 9.387574999999999648e+01 1.559470000000000027e+03
6.300000000000000044e-02 5.079985000000000195e-01 3.105794999999999817e+01 9.573070000000001301e+01 1.560125000000000000e+03
6.400000000000000133e-02 5.083765000000000089e-01 3.151415000000000077e+01 9.761570000000000391e+01 1.560775000000000091e+03
6.500000000000000222e-02 5.087749999999999773e-01 3.195765000000000100e+01 9.958615000000000350e+01 1.561444999999999936e+03
6.600000000000000311e-02 5.092030000000000722e-01 3.241660000000000252e+01 1.016893000000000029e+02 1.562139999999999873e+03
6.700000000000000400e-02 5.096654999999999935e-01 3.291464999999999463e+01 1.039615000000000009e+02 1.562880000000000109e+03
6.800000000000000488e-02 5.101664999999999672e-01 3.346959999999999980e+01 1.064269999999999925e+02 1.563670000000000073e+03
6.900000000000000577e-02 5.107074999999999809e-01 3.409179999999999922e+01 1.090949999999999989e+02 1.564519999999999982e+03
7.000000000000000666e-02 5.112849999999999895e-01 3.478355000000000530e+01 1.119594999999999914e+02 1.565425000000000182e+03
7.100000000000000755e-02 5.118945000000000300e-01 3.553835000000000122e+01 1.149975000000000023e+02 1.566380000000000109e+03
7.200000000000000844e-02 5.125269999999999548e-01 3.634134999999999849e+01 1.181715000000000089e+02 1.567380000000000109e+03
7.300000000000000933e-02 5.131725000000000314e-01 3.717050000000000409e+01 1.214300000000000068e+02 1.568410000000000082e+03
7.399999999999999634e-02 5.138165000000000093e-01 3.799779999999999802e+01 1.247104999999999961e+02 1.569450000000000045e+03
7.499999999999999722e-02 5.144480000000000164e-01 3.879169999999999874e+01 1.279450000000000074e+02 1.570485000000000127e+03
7.599999999999999811e-02 5.150514999999999954e-01 3.951935000000000286e+01 1.310610000000000070e+02 1.571494999999999891e+03
7.699999999999999900e-02 5.156155000000000044e-01 4.014874999999999972e+01 1.339900000000000091e+02 1.572460000000000036e+03
7.799999999999999989e-02 5.161274999999999613e-01 4.065090000000000003e+01 1.366680000000000064e+02 1.573355000000000018e+03
7.900000000000000078e-02 5.165790000000000104e-01 4.100140000000000384e+01 1.390420000000000016e+02 1.574164999999999964e+03
8.000000000000000167e-02 5.169630000000000614e-01 4.118175000000000097e+01 1.410704999999999814e+02 1.574880000000000109e+03
8.100000000000000255e-02 5.172754999999999992e-01 4.118040000000000589e+01 1.427284999999999968e+02 1.575485000000000127e+03
8.200000000000000344e-02 5.175159999999999760e-01 4.099264999999999759e+01 1.440024999999999977e+02 1.575974999999999909e+03
8.300000000000000433e-02 5.176855000000000206e-01 4.062109999999999843e+01 1.448969999999999914e+02 1.576355000000000018e+03
8.400000000000000522e-02 5.177874999999999561e-01 4.007479999999999620e+01 1.454295000000000186e+02 1.576615000000000009e+03
8.500000000000000611e-02 5.178295000000000536e-01 3.936899999999999977e+01 1.456299999999999955e+02 1.576775000000000091e+03
8.600000000000000699e-02 5.178184999999999594e-01 3.852380000000000138e+01 1.455384999999999991e+02 1.576835000000000036e+03
8.700000000000000788e-02 5.177640000000000020e-01 3.756345000000000312e+01 1.452024999999999864e+02 1.576815000000000055e+03
8.800000000000000877e-02 5.176760000000000250e-01 3.651489999999999725e+01 1.446750000000000114e+02 1.576719999999999800e+03
8.899999999999999578e-02 5.175644999999999829e-01 3.540680000000000405e+01 1.440120000000000005e+02 1.576579999999999927e+03
8.999999999999999667e-02 5.174410000000000398e-01 3.426820000000000022e+01 1.432680000000000007e+02 1.576394999999999982e+03
9.099999999999999756e-02 5.173134999999999817e-01 3.312720000000000198e+01 1.424964999999999975e+02 1.576195000000000164e+03
9.199999999999999845e-02 5.171915000000000262e-01 3.200979999999999848e+01 1.417450000000000045e+02 1.575985000000000127e+03
9.299999999999999933e-02 5.170820000000000416e-01 3.093900000000000006e+01 1.410550000000000068e+02 1.575785000000000082e+03
9.400000000000000022e-02 5.169909999999999783e-01 2.993374999999999631e+01 1.404599999999999795e+02 1.575605000000000018e+03
9.500000000000000111e-02 5.169224999999999515e-01 2.900829999999999842e+01 1.399834999999999923e+02 1.575450000000000045e+03
9.600000000000000200e-02 5.168785000000000185e-01 2.817184999999999917e+01 1.396405000000000030e+02 1.575329999999999927e+03
9.700000000000000289e-02 5.168589999999999574e-01 2.742839999999999989e+01 1.394345000000000141e+02 1.575244999999999891e+03
9.800000000000000377e-02 5.168630000000000724e-01 2.677690000000000126e+01 1.393609999999999900e+02 1.575200000000000045e+03
9.900000000000000466e-02 5.168869999999999854e-01 2.621144999999999925e+01 1.394064999999999941e+02 1.575184999999999945e+03
1.000000000000000056e-01 5.169265000000000665e-01 2.572225000000000250e+01 1.395489999999999782e+02 1.575204999999999927e+03
1.010000000000000064e-01 5.169770000000000199e-01 2.529579999999999984e+01 1.397620000000000005e+02 1.575244999999999891e+03
1.020000000000000073e-01 5.170314999999999772e-01 2.491615000000000180e+01 1.400140000000000100e+02 1.575305000000000064e+03
1.030000000000000082e-01 5.170839999999999881e-01 2.456569999999999965e+01 1.402715000000000032e+02 1.575365000000000009e+03
1.040000000000000091e-01 5.171280000000000321e-01 2.422605000000000075e+01 1.404995000000000118e+02 1.575424999999999955e+03
1.050000000000000100e-01 5.171574999999999367e-01 2.387910000000000110e+01 1.406644999999999754e+02 1.575469999999999800e+03
1.059999999999999970e-01 5.171665000000000845e-01 2.350789999999999935e+01 1.407359999999999900e+02 1.575490000000000009e+03
1.069999999999999979e-01 5.171510000000000273e-01 2.309750000000000014e+01 1.406870000000000118e+02 1.575480000000000018e+03
1.079999999999999988e-01 5.171069999999999833e-01 2.263535000000000252e+01 1.404979999999999905e+02 1.575429999999999836e+03
1.089999999999999997e-01 5.170330000000000759e-01 2.211260000000000048e+01 1.401535000000000082e+02 1.575339999999999918e+03
1.100000000000000006e-01 5.169274999999999842e-01 2.152364999999999995e+01 1.396460000000000150e+02 1.575195000000000164e+03
1.110000000000000014e-01 5.167915000000000703e-01 2.086710000000000065e+01 1.389759999999999991e+02 1.575010000000000218e+03
1.120000000000000023e-01 5.166254999999999598e-01 2.014519999999999911e+01 1.381504999999999939e+02 1.574775000000000091e+03
1.130000000000000032e-01 5.164345000000000185e-01 1.936435000000000173e+01 1.371839999999999975e+02 1.574494999999999891e+03
1.140000000000000041e-01 5.162219999999999587e-01 1.853419999999999845e+01 1.360974999999999966e+02 1.574179999999999836e+03
1.150000000000000050e-01 5.159934999999999938e-01 1.766769999999999996e+01 1.349159999999999968e+02 1.573829999999999927e+03
1.160000000000000059e-01 5.157545000000000046e-01 1.678014999999999901e+01 1.336709999999999923e+02 1.573454999999999927e+03
1.170000000000000068e-01 5.155115000000000114e-01 1.588861999999999952e+01 1.323950000000000102e+02 1.573065000000000055e+03
1.180000000000000077e-01 5.152714999999999934e-01 1.501129500000000050e+01 1.311229999999999905e+02 1.572674999999999955e+03
1.190000000000000085e-01 5.150409999999999711e-01 1.416641000000000084e+01 1.298890000000000100e+02 1.572285000000000082e+03
1.200000000000000094e-01 5.148254999999999360e-01 1.337161000000000044e+01 1.287264999999999873e+02 1.571914999999999964e+03
1.209999999999999964e-01 5.146309999999999496e-01 1.264283000000000001e+01 1.276639999999999873e+02 1.571565000000000055e+03
1.219999999999999973e-01 5.144619999999999749e-01 1.199404499999999985e+01 1.267279999999999944e+02 1.571250000000000000e+03
1.229999999999999982e-01 5.143204999999999583e-01 1.143617000000000061e+01 1.259375000000000000e+02 1.570974999999999909e+03
1.239999999999999991e-01 5.142105000000000148e-01 1.097703500000000076e+01 1.253064999999999998e+02 1.570744999999999891e+03
1.250000000000000000e-01 5.141314999999999635e-01 1.062074999999999925e+01 1.248419999999999987e+02 1.570565000000000055e+03
1.260000000000000009e-01 5.140844999999999443e-01 1.036800500000000014e+01 1.245444999999999993e+02 1.570430000000000064e+03
1.270000000000000018e-01 5.140660000000000229e-01 1.021584499999999984e+01 1.244069999999999965e+02 1.570345000000000027e+03
1.280000000000000027e-01 5.140744999999999898e-01 1.015813499999999969e+01 1.244184999999999945e+02 1.570315000000000055e+03
1.290000000000000036e-01 5.141069999999999807e-01 1.018585999999999991e+01 1.245625000000000000e+02 1.570315000000000055e+03
1.300000000000000044e-01 5.141584999999999628e-01 1.028777000000000008e+01 1.248165000000000049e+02 1.570360000000000127e+03
1.310000000000000053e-01 5.142240000000000144e-01 1.045069499999999962e+01 1.251585000000000036e+02 1.570430000000000064e+03
1.320000000000000062e-01 5.142999999999999794e-01 1.066049999999999898e+01 1.255625000000000000e+02 1.570525000000000091e+03
1.330000000000000071e-01 5.143809999999999771e-01 1.090240000000000009e+01 1.260024999999999977e+02 1.570639999999999873e+03
1.340000000000000080e-01 5.144619999999999749e-01 1.116189999999999927e+01 1.264544999999999959e+02 1.570759999999999991e+03
1.350000000000000089e-01 5.145399999999999974e-01 1.142490000000000094e+01 1.268940000000000055e+02 1.570884999999999991e+03
1.360000000000000098e-01 5.146104999999999707e-01 1.167869999999999919e+01 1.273009999999999877e+02 1.571000000000000000e+03
1.370000000000000107e-01 5.146705000000000307e-01 1.191199999999999903e+01 1.276590000000000060e+02 1.571105000000000018e+03
1.380000000000000115e-01 5.147180000000000089e-01 1.211550000000000082e+01 1.279530000000000030e+02 1.571199999999999818e+03
1.390000000000000124e-01 5.147509999999999586e-01 1.228190000000000026e+01 1.281750000000000114e+02 1.571279999999999973e+03
1.400000000000000133e-01 5.147700000000000609e-01 1.240625000000000000e+01 1.283189999999999884e+02 1.571329999999999927e+03
1.410000000000000142e-01 5.147739999999999538e-01 1.248580000000000112e+01 1.283834999999999980e+02 1.571360000000000127e+03
1.420000000000000151e-01 5.147645000000000692e-01 1.251994999999999969e+01 1.283720000000000141e+02 1.571369999999999891e+03
1.430000000000000160e-01 5.147420000000000329e-01 1.251035000000000075e+01 1.282884999999999991e+02 1.571360000000000127e+03
1.440000000000000169e-01 5.147089999999999721e-01 1.246026499999999970e+01 1.281440000000000055e+02 1.571329999999999927e+03
1.450000000000000178e-01 5.146674999999999445e-01 1.237466500000000025e+01 1.279484999999999957e+02 1.571279999999999973e+03
1.459999999999999909e-01 5.146195000000000075e-01 1.225981499999999969e+01 1.277145000000000010e+02 1.571224999999999909e+03
1.469999999999999918e-01 5.145695000000000130e-01 1.212273500000000048e+01 1.274565000000000055e+02 1.571154999999999973e+03
1.479999999999999927e-01 5.145174999999999610e-01 1.197102500000000092e+01 1.271879999999999882e+02 1.571079999999999927e+03
1.489999999999999936e-01 5.144680000000000364e-01 1.181245000000000012e+01 1.269234999999999900e+02 1.571005000000000109e+03
1.499999999999999944e-01 5.144219999999999349e-01 1.165450999999999837e+01 1.266740000000000066e+02 1.570934999999999945e+03
1.509999999999999953e-01 5.143824999999999648e-01 1.150415999999999883e+01 1.264525000000000006e+02 1.570865000000000009e+03
1.519999999999999962e-01 5.143504999999999328e-01 1.136752500000000055e+01 1.262669999999999959e+02 1.570805000000000064e+03
1.529999999999999971e-01 5.143275000000000485e-01 1.124948499999999996e+01 1.261250000000000000e+02 1.570759999999999991e+03
1.539999999999999980e-01 5.143134999999999790e-01 1.115380000000000038e+01 1.260310000000000059e+02 1.570724999999999909e+03
1.549999999999999989e-01 5.143090000000000162e-01 1.108282999999999952e+01 1.259865000000000066e+02 1.570704999999999927e+03
1.559999999999999998e-01 5.143134999999999790e-01 1.103741499999999931e+01 1.259909999999999997e+02 1.570699999999999818e+03
1.570000000000000007e-01 5.143265000000000198e-01 1.101718999999999937e+01 1.260414999999999992e+02 1.570704999999999927e+03
1.580000000000000016e-01 5.143474999999999575e-01 1.102050500000000000e+01 1.261320000000000050e+02 1.570724999999999909e+03
1.590000000000000024e-01 5.143735000000000390e-01 1.104454499999999939e+01 1.262560000000000002e+02 1.570759999999999991e+03
