# t [s], A [cm^2], U [cm/s], P [cPa], c [cm/s]
1.000000000000000021e-03 1.744560000000000000e-01 2.917409000000000252e-01 8.903344999999998777e+01 2.348579999999999927e+03
2.000000000000000042e-03 1.744040000000000035e-01 1.679470500000000088e+00 8.551744999999999663e+01 2.348069999999999709e+03
3.000000000000000062e-03 1.742830000000000212e-01 3.426255999999999968e+00 8.052400000000000091e+01 2.346904999999999745e+03
4.000000000000000083e-03 1.741294999999999926e-01 5.435634499999999925e+00 7.530119999999999436e+01 2.345449999999999818e+03
5.000000000000000104e-03 1.739755000000000051e-01 7.601230000000000153e+00 7.089929999999999666e+01 2.344005000000000109e+03
6.000000000000000125e-03 1.738330000000000153e-01 9.639965000000000117e+00 6.735724999999999341e+01 2.342695000000000164e+03
7.000000000000000146e-03 1.737015000000000087e-01 1.132058999999999926e+01 6.417050000000000409e+01 2.341510000000000218e+03
8.000000000000000167e-03 1.735855000000000037e-01 1.266780999999999935e+01 6.132040000000000646e+01 2.340484999999999673e+03
9.000000000000001055e-03 1.734890000000000043e-01 1.374615000000000009e+01 5.899774999999999636e+01 2.339639999999999873e+03
1.000000000000000194e-02 1.734120000000000106e-01 1.457839999999999847e+01 5.720100000000000051e+01 2.338980000000000018e+03
1.099999999999999936e-02 1.733524999999999927e-01 1.518725000000000058e+01 5.585824999999999818e+01 2.338474999999999909e+03
1.200000000000000025e-02 1.733065000000000022e-01 1.556799999999999962e+01 5.480270000000000152e+01 2.338090000000000146e+03
1.300000000000000114e-02 1.732680000000000053e-01 1.572775000000000034e+01 5.382390000000000185e+01 2.337774999999999636e+03
1.400000000000000203e-02 1.732364999999999877e-01 1.579469999999999885e+01 5.302065000000000339e+01 2.337525000000000091e+03
1.499999999999999944e-02 1.732235000000000025e-01 1.601539999999999964e+01 5.296264999999999645e+01 2.337425000000000182e+03
1.600000000000000033e-02 1.732440000000000091e-01 1.660040000000000049e+01 5.431879999999999598e+01 2.337605000000000018e+03
1.700000000000000122e-02 1.733049999999999868e-01 1.756435000000000102e+01 5.727485000000000070e+01 2.338119999999999891e+03
1.800000000000000211e-02 1.733965000000000090e-01 1.869619999999999749e+01 6.125795000000000101e+01 2.338925000000000182e+03
1.900000000000000300e-02 1.734974999999999989e-01 1.966655000000000086e+01 6.515344999999999231e+01 2.339820000000000164e+03
2.000000000000000042e-02 1.735804999999999987e-01 2.018999999999999773e+01 6.782804999999999040e+01 2.340579999999999927e+03
2.100000000000000130e-02 1.736270000000000036e-01 2.014835000000000065e+01 6.863179999999999836e+01 2.341029999999999745e+03
2.200000000000000219e-02 1.736309999999999798e-01 1.962069999999999936e+01 6.762739999999999441e+01 2.341105000000000018e+03
2.299999999999999961e-02 1.736015000000000197e-01 1.882015000000000171e+01 6.546965000000000146e+01 2.340875000000000000e+03
2.400000000000000050e-02 1.735545000000000004e-01 1.798035000000000139e+01 6.303750000000000142e+01 2.340470000000000255e+03
2.500000000000000139e-02 1.735070000000000223e-01 1.725314999999999799e+01 6.102674999999999983e+01 2.340045000000000073e+03
2.600000000000000228e-02 1.734680000000000111e-01 1.666114999999999924e+01 5.969435000000000002e+01 2.339690000000000055e+03
2.700000000000000316e-02 1.734384999999999954e-01 1.611554999999999893e+01 5.883809999999999718e+01 2.339420000000000073e+03
2.800000000000000058e-02 1.734104999999999952e-01 1.547959999999999958e+01 5.797639999999999816e+01 2.339170000000000073e+03
2.900000000000000147e-02 1.733744999999999870e-01 1.464655000000000129e+01 5.662635000000000218e+01 2.338855000000000018e+03
3.000000000000000236e-02 1.733230000000000048e-01 1.360125000000000028e+01 5.456000000000000227e+01 2.338409999999999854e+03
3.099999999999999978e-02 1.732575000000000087e-01 1.244211999999999918e+01 5.194259999999999877e+01 2.337840000000000146e+03
3.200000000000000067e-02 1.731864999999999932e-01 1.135444999999999993e+01 4.929795000000000016e+01 2.337219999999999800e+03
3.300000000000000155e-02 1.731260000000000021e-01 1.054685500000000076e+01 4.731940000000000168e+01 2.336664999999999964e+03
3.400000000000000244e-02 1.730895000000000072e-01 1.017755000000000010e+01 4.660985000000000156e+01 2.336320000000000164e+03
3.500000000000000333e-02 1.730884999999999785e-01 1.030075000000000074e+01 4.745980000000000132e+01 2.336284999999999854e+03
3.600000000000000422e-02 1.731245000000000145e-01 1.085074999999999967e+01 4.974535000000000196e+01 2.336574999999999818e+03
3.700000000000000511e-02 1.731909999999999838e-01 1.166375000000000028e+01 5.296809999999999974e+01 2.337135000000000218e+03
3.799999999999999906e-02 1.732714999999999950e-01 1.252400000000000091e+01 5.640245000000000175e+01 2.337835000000000036e+03
3.899999999999999994e-02 1.733505000000000185e-01 1.321645000000000003e+01 5.928775000000000261e+01 2.338534999999999854e+03
4.000000000000000083e-02 1.734100000000000086e-01 1.357034999999999947e+01 6.100270000000000437e+01 2.339069999999999709e+03
4.100000000000000172e-02 1.734370000000000078e-01 1.348519999999999897e+01 6.117900000000000205e+01 2.339335000000000036e+03
4.200000000000000261e-02 1.734249999999999958e-01 1.293585000000000029e+01 5.973489999999999611e+01 2.339250000000000000e+03
4.300000000000000350e-02 1.733740000000000003e-01 1.195969499999999996e+01 5.683669999999999334e+01 2.338824999999999818e+03
4.400000000000000439e-02 1.732885000000000120e-01 1.063480000000000025e+01 5.281250000000000000e+01 2.338090000000000146e+03
4.499999999999999833e-02 1.731769999999999976e-01 9.055714999999999293e+00 4.805199999999999960e+01 2.337109999999999673e+03
4.599999999999999922e-02 1.730470000000000064e-01 7.314985000000000070e+00 4.292284999999999684e+01 2.335965000000000146e+03
4.700000000000000011e-02 1.729074999999999918e-01 5.493484999999999729e+00 3.772214999999999918e+01 2.334734999999999673e+03
4.800000000000000100e-02 1.727655000000000163e-01 3.659189500000000095e+00 3.266564999999999941e+01 2.333474999999999909e+03
4.900000000000000189e-02 1.726265000000000160e-01 1.871435000000000182e+00 2.790480000000000160e+01 2.332239999999999782e+03
5.000000000000000278e-02 1.724944999999999951e-01 1.872000000000000330e-01 2.355774999999999864e+01 2.331059999999999945e+03
5.100000000000000366e-02 1.723735000000000128e-01 -1.334179999999999922e+00 1.973835000000000051e+01 2.329985000000000127e+03
5.200000000000000455e-02 1.722674999999999901e-01 -2.629645050000000150e+00 1.657375000000000043e+01 2.329034999999999854e+03
5.300000000000000544e-02 1.721810000000000007e-01 -3.635035000000000238e+00 1.420537999999999990e+01 2.328250000000000000e+03
5.399999999999999939e-02 1.721179999999999932e-01 -4.290639999999999787e+00 1.277672499999999900e+01 2.327664999999999964e+03
5.500000000000000028e-02 1.720814999999999984e-01 -4.548180000000000334e+00 1.241164999999999985e+01 2.327319999999999709e+03
5.600000000000000117e-02 1.720760000000000067e-01 -4.377164999999999750e+00 1.319194999999999851e+01 2.327239999999999782e+03
5.700000000000000205e-02 1.721020000000000050e-01 -3.769169999999999909e+00 1.513995000000000068e+01 2.327445000000000164e+03
5.800000000000000294e-02 1.721604999999999941e-01 -2.739213499999999968e+00 1.821099999999999852e+01 2.327930000000000291e+03
5.900000000000000383e-02 1.722489999999999855e-01 -1.324375000000000080e+00 2.229554999999999865e+01 2.328690000000000055e+03
6.000000000000000472e-02 1.723649999999999904e-01 4.198100000000000165e-01 2.723004999999999853e+01 2.329690000000000055e+03
6.099999999999999867e-02 1.725035000000000041e-01 2.424135000000000151e+00 3.281274999999999409e+01 2.330899999999999636e+03
6.199999999999999956e-02 1.726595000000000213e-01 4.611163500000000859e+00 3.882139999999999702e+01 2.332265000000000327e+03
6.300000000000000044e-02 1.728264999999999940e-01 6.900549999999999962e+00 4.503090000000000259e+01 2.333739999999999782e+03
6.400000000000000133e-02 1.729995000000000005e-01 9.214400000000001256e+00 5.122925000000000040e+01 2.335269999999999982e+03
6.500000000000000222e-02 1.731719999999999926e-01 1.148203999999999958e+01 5.723205000000000098e+01 2.336809999999999945e+03
6.600000000000000311e-02 1.733395000000000075e-01 1.364454999999999885e+01 6.289424999999999955e+01 2.338315000000000055e+03
6.700000000000000400e-02 1.734984999999999999e-01 1.565820000000000078e+01 6.811885000000000900e+01 2.339739999999999782e+03
6.800000000000000488e-02 1.736469999999999958e-01 1.749654999999999916e+01 7.286185000000000400e+01 2.341085000000000036e+03
6.900000000000000577e-02 1.737835000000000074e-01 1.915084999999999837e+01 7.713124999999999432e+01 2.342319999999999709e+03
7.000000000000000666e-02 1.739080000000000070e-01 2.062850000000000250e+01 8.098135000000000616e+01 2.343454999999999927e+03
7.100000000000000755e-02 1.740229999999999833e-01 2.195025000000000048e+01 8.450114999999999554e+01 2.344505000000000109e+03
7.200000000000000844e-02 1.741300000000000070e-01 2.314589999999999748e+01 8.780055000000000121e+01 2.345480000000000018e+03
7.300000000000000933e-02 1.742319999999999980e-01 2.424960000000000093e+01 9.099459999999999127e+01 2.346414999999999964e+03
7.399999999999999634e-02 1.743325000000000014e-01 2.529545000000000243e+01 9.418919999999999959e+01 2.347324999999999818e+03
7.499999999999999722e-02 1.744320000000000037e-01 2.631370000000000076e+01 9.747005000000000052e+01 2.348235000000000127e+03
7.599999999999999811e-02 1.745349999999999957e-01 2.732799999999999940e+01 1.008943000000000012e+02 2.349164999999999964e+03
7.699999999999999900e-02 1.746404999999999763e-01 2.835354999999999848e+01 1.044884999999999877e+02 2.350125000000000000e+03
7.799999999999999989e-02 1.747504999999999753e-01 2.939659999999999940e+01 1.082479999999999905e+02 2.351119999999999891e+03
7.900000000000000078e-02 1.748645000000000060e-01 3.045470000000000255e+01 1.121419999999999959e+02 2.352149999999999636e+03
8.000000000000000167e-02 1.749809999999999977e-01 3.151749999999999829e+01 1.161159999999999997e+02 2.353204999999999927e+03
8.100000000000000255e-02 1.750984999999999903e-01 3.256839999999999691e+01 1.201004999999999967e+02 2.354269999999999982e+03
8.200000000000000344e-02 1.752155000000000240e-01 3.358585000000000065e+01 1.240155000000000030e+02 2.355335000000000036e+03
8.300000000000000433e-02 1.753299999999999859e-01 3.454534999999999911e+01 1.277770000000000152e+02 2.356369999999999891e+03
8.400000000000000522e-02 1.754390000000000116e-01 3.542130000000000223e+01 1.313029999999999973e+02 2.357364999999999782e+03
8.500000000000000611e-02 1.755410000000000026e-01 3.618855000000000643e+01 1.345174999999999841e+02 2.358300000000000182e+03
8.600000000000000699e-02 1.756340000000000123e-01 3.682444999999999879e+01 1.373545000000000016e+02 2.359150000000000091e+03
8.700000000000000788e-02 1.757159999999999833e-01 3.731024999999999636e+01 1.397629999999999768e+02 2.359904999999999745e+03
8.800000000000000877e-02 1.757855000000000112e-01 3.763230000000000075e+01 1.417079999999999984e+02 2.360550000000000182e+03
8.899999999999999578e-02 1.758419999999999983e-01 3.778324999999999534e+01 1.431739999999999782e+02 2.361079999999999927e+03
8.999999999999999667e-02 1.758855000000000002e-01 3.776269999999999527e+01 1.441644999999999754e+02 2.361485000000000127e+03
9.099999999999999756e-02 1.759159999999999890e-01 3.757685000000000031e+01 1.447024999999999864e+02 2.361775000000000091e+03
9.199999999999999845e-02 1.759334999999999927e-01 3.723850000000000193e+01 1.448294999999999959e+02 2.361944999999999709e+03
9.299999999999999933e-02 1.759399999999999853e-01 3.676600000000000534e+01 1.445999999999999943e+02 2.362014999999999873e+03
9.400000000000000022e-02 1.759364999999999957e-01 3.618189999999999884e+01 1.440785000000000196e+02 2.362000000000000000e+03
9.500000000000000111e-02 1.759244999999999837e-01 3.551180000000000092e+01 1.433365000000000009e+02 2.361905000000000200e+03
9.600000000000000200e-02 1.759070000000000078e-01 3.478240000000000265e+01 1.424474999999999909e+02 2.361750000000000000e+03
9.700000000000000289e-02 1.758855000000000002e-01 3.402060000000000173e+01 1.414805000000000064e+02 2.361555000000000291e+03
9.800000000000000377e-02 1.758609999999999896e-01 3.325180000000000291e+01 1.405015000000000214e+02 2.361340000000000146e+03
9.900000000000000466e-02 1.758365000000000067e-01 3.249864999999999782e+01 1.395660000000000025e+02 2.361119999999999891e+03
1.000000000000000056e-01 1.758124999999999827e-01 3.178025000000000233e+01 1.387175000000000011e+02 2.360904999999999745e+03
1.010000000000000064e-01 1.757910000000000028e-01 3.111124999999999829e+01 1.379894999999999925e+02 2.360704999999999927e+03
1.020000000000000073e-01 1.757719999999999838e-01 3.050100000000000122e+01 1.374000000000000057e+02 2.360529999999999745e+03
1.030000000000000082e-01 1.757565000000000099e-01 2.995364999999999966e+01 1.369519999999999982e+02 2.360380000000000109e+03
1.040000000000000091e-01 1.757440000000000113e-01 2.946779999999999688e+01 1.366355000000000075e+02 2.360270000000000437e+03
1.050000000000000100e-01 1.757350000000000023e-01 2.903665000000000163e+01 1.364254999999999995e+02 2.360180000000000291e+03
1.059999999999999970e-01 1.757285000000000097e-01 2.864894999999999925e+01 1.362860000000000014e+02 2.360119999999999891e+03
1.069999999999999979e-01 1.757235000000000047e-01 2.828974999999999795e+01 1.361730000000000018e+02 2.360065000000000055e+03
1.079999999999999988e-01 1.757184999999999997e-01 2.794140000000000157e+01 1.360355000000000132e+02 2.360014999999999873e+03
1.089999999999999997e-01 1.757119999999999793e-01 2.758520000000000039e+01 1.358215000000000146e+02 2.359960000000000036e+03
1.100000000000000006e-01 1.757029999999999981e-01 2.720275000000000176e+01 1.354805000000000064e+02 2.359880000000000109e+03
1.110000000000000014e-01 1.756909999999999861e-01 2.677714999999999890e+01 1.349685000000000059e+02 2.359765000000000327e+03
1.120000000000000023e-01 1.756735000000000102e-01 2.629459999999999908e+01 1.342514999999999930e+02 2.359610000000000127e+03
1.130000000000000032e-01 1.756500000000000006e-01 2.574519999999999698e+01 1.333075000000000045e+02 2.359400000000000091e+03
1.140000000000000041e-01 1.756209999999999993e-01 2.512389999999999901e+01 1.321274999999999977e+02 2.359140000000000327e+03
1.150000000000000050e-01 1.755855000000000055e-01 2.443080000000000140e+01 1.307189999999999941e+02 2.358819999999999709e+03
1.160000000000000059e-01 1.755440000000000056e-01 2.367125000000000057e+01 1.291034999999999968e+02 2.358449999999999818e+03
1.170000000000000068e-01 1.754964999999999997e-01 2.285549999999999926e+01 1.273154999999999859e+02 2.358019999999999982e+03
1.180000000000000077e-01 1.754445000000000032e-01 2.199794999999999945e+01 1.254009999999999962e+02 2.357555000000000291e+03
1.190000000000000085e-01 1.753899999999999904e-01 2.111639999999999873e+01 1.234140000000000015e+02 2.357064999999999600e+03
1.200000000000000094e-01 1.753335000000000032e-01 2.023065000000000069e+01 1.214124999999999943e+02 2.356554999999999836e+03
1.209999999999999964e-01 1.752765000000000017e-01 1.936124999999999829e+01 1.194549999999999983e+02 2.356039999999999964e+03
1.219999999999999973e-01 1.752215000000000023e-01 1.852829999999999799e+01 1.175974999999999966e+02 2.355534999999999854e+03
1.229999999999999982e-01 1.751690000000000191e-01 1.775009999999999977e+01 1.158884999999999934e+02 2.355059999999999945e+03
1.239999999999999991e-01 1.751210000000000266e-01 1.704214999999999947e+01 1.143689999999999998e+02 2.354619999999999891e+03
1.250000000000000000e-01 1.750774999999999970e-01 1.641675000000000040e+01 1.130674999999999955e+02 2.354225000000000364e+03
1.260000000000000009e-01 1.750410000000000021e-01 1.588194999999999979e+01 1.120024999999999977e+02 2.353885000000000218e+03
1.270000000000000018e-01 1.750099999999999989e-01 1.544200000000000017e+01 1.111800000000000068e+02 2.353599999999999909e+03
1.280000000000000027e-01 1.749864999999999893e-01 1.509700000000000131e+01 1.105960000000000036e+02 2.353380000000000109e+03
1.290000000000000036e-01 1.749684999999999990e-01 1.484345000000000070e+01 1.102355000000000018e+02 2.353210000000000036e+03
1.300000000000000044e-01 1.749570000000000014e-01 1.467470000000000141e+01 1.100775000000000006e+02 2.353100000000000364e+03
1.310000000000000053e-01 1.749515000000000098e-01 1.458155000000000001e+01 1.100949999999999989e+02 2.353039999999999964e+03
1.320000000000000062e-01 1.749505000000000088e-01 1.455294999999999916e+01 1.102570000000000050e+02 2.353025000000000091e+03
1.330000000000000071e-01 1.749529999999999974e-01 1.457649999999999935e+01 1.105300000000000011e+02 2.353045000000000073e+03
1.340000000000000080e-01 1.749594999999999900e-01 1.463939999999999841e+01 1.108810000000000002e+02 2.353095000000000255e+03
1.350000000000000089e-01 1.749674999999999980e-01 1.472860000000000014e+01 1.112775000000000034e+02 2.353164999999999964e+03
1.360000000000000098e-01 1.749775000000000080e-01 1.483174999999999955e+01 1.116895000000000095e+02 2.353244999999999891e+03
1.370000000000000107e-01 1.749875000000000180e-01 1.493750000000000000e+01 1.120910000000000082e+02 2.353340000000000146e+03
1.380000000000000115e-01 1.749975000000000003e-01 1.503575000000000017e+01 1.124590000000000032e+02 2.353425000000000182e+03
1.390000000000000124e-01 1.750065000000000093e-01 1.511840000000000117e+01 1.127760000000000105e+02 2.353510000000000218e+03
1.400000000000000133e-01 1.750145000000000173e-01 1.517924999999999969e+01 1.130300000000000011e+02 2.353579999999999927e+03
1.410000000000000142e-01 1.750210000000000099e-01 1.521439999999999948e+01 1.132139999999999986e+02 2.353644999999999982e+03
1.420000000000000151e-01 1.750260000000000149e-01 1.522209999999999930e+01 1.133280000000000030e+02 2.353684999999999945e+03
1.430000000000000160e-01 1.750285000000000035e-01 1.520279999999999987e+01 1.133760000000000048e+02 2.353720000000000255e+03
1.440000000000000169e-01 1.750300000000000189e-01 1.515900000000000070e+01 1.133675000000000068e+02 2.353729999999999563e+03
1.450000000000000178e-01 1.750300000000000189e-01 1.509465000000000146e+01 1.133155000000000001e+02 2.353729999999999563e+03
1.459999999999999909e-01 1.750285000000000035e-01 1.501504999999999868e+01 1.132359999999999900e+02 2.353725000000000364e+03
1.469999999999999918e-01 1.750269999999999881e-01 1.492600000000000016e+01 1.131454999999999984e+02 2.353710000000000036e+03
1.479999999999999927e-01 1.750255000000000005e-01 1.483360000000000056e+01 1.130600000000000023e+02 2.353695000000000164e+03
1.489999999999999936e-01 1.750234999999999985e-01 1.474350000000000094e+01 1.129944999999999879e+02 2.353680000000000291e+03
1.499999999999999944e-01 1.750224999999999975e-01 1.466094999999999970e+01 1.129615000000000009e+02 2.353670000000000073e+03
1.509999999999999953e-01 1.750224999999999975e-01 1.458964999999999890e+01 1.129689999999999941e+02 2.353670000000000073e+03
1.519999999999999962e-01 1.750229999999999841e-01 1.453245000000000076e+01 1.130219999999999914e+02 2.353675000000000182e+03
1.529999999999999971e-01 1.750249999999999861e-01 1.449070000000000036e+01 1.131214999999999975e+02 2.353690000000000055e+03
1.539999999999999980e-01 1.750280000000000169e-01 1.446444999999999936e+01 1.132640000000000100e+02 2.353720000000000255e+03
1.549999999999999989e-01 1.750325000000000075e-01 1.445274999999999999e+01 1.134449999999999932e+02 2.353755000000000109e+03
1.559999999999999998e-01 1.750379999999999991e-01 1.445350000000000001e+01 1.136550000000000011e+02 2.353805000000000291e+03
1.570000000000000007e-01 1.750434999999999908e-01 1.446410000000000018e+01 1.138865000000000123e+02 2.353859999999999673e+03
1.580000000000000016e-01 1.750504999999999978e-01 1.448124999999999929e+01 1.141280000000000001e+02 2.353920000000000073e+03
1.590000000000000024e-01 1.750575000000000048e-01 1.450159999999999982e+01 1.143700000000000045e+02 2.353979999999999563e+03
