# t [s], A [cm^2], U [cm/s], P [cPa], c [cm/s]
1.000000000000000021e-03 8.158525000000000915e-01 3.952700000000003433e-03 9.141624999999999091e+01 1.561150000000000091e+03
2.000000000000000042e-03 8.158389999999999809e-01 -2.526634499999999995e-03 9.139209999999999923e+01 1.561150000000000091e+03
3.000000000000000062e-03 8.159009999999999874e-01 7.918435000000000057e-02 9.147355000000000302e+01 1.561170000000000073e+03
4.000000000000000083e-03 8.159680000000000266e-01 1.754367000000000010e-01 9.158949999999998681e+01 1.561195000000000164e+03
5.000000000000000104e-03 8.159499999999999531e-01 1.702859999999999929e-01 9.156815000000000282e+01 1.561190000000000055e+03
6.000000000000000125e-03 8.158735000000000293e-01 8.488850000000000562e-02 9.139404999999999291e+01 1.561154999999999973e+03
7.000000000000000146e-03 8.158024999999999860e-01 9.520000000000083951e-04 9.116004999999999825e+01 1.561105000000000018e+03
8.000000000000000167e-03 8.157090000000000174e-01 -1.229345000000000021e-01 9.083609999999998763e+01 1.561034999999999854e+03
9.000000000000001055e-03 8.155464999999999520e-01 -3.521199999999999886e-01 9.033465000000001055e+01 1.560924999999999955e+03
1.000000000000000194e-02 8.153075000000000738e-01 -6.966000000000001080e-01 8.961209999999999809e+01 1.560764999999999873e+03
1.099999999999999936e-02 8.149785000000000501e-01 -1.167374999999999829e+00 8.862284999999999968e+01 1.560545000000000073e+03
1.200000000000000025e-02 8.145390000000000130e-01 -1.778539999999999788e+00 8.731369999999999720e+01 1.560255000000000109e+03
1.300000000000000114e-02 8.140030000000000321e-01 -2.493540000000000312e+00 8.569105000000000416e+01 1.559880000000000109e+03
1.400000000000000203e-02 8.134320000000000439e-01 -3.206690000000000040e+00 8.386214999999999975e+01 1.559450000000000045e+03
1.499999999999999944e-02 8.129020000000000135e-01 -3.785293999999999937e+00 8.200059999999999150e+01 1.558994999999999891e+03
1.600000000000000033e-02 8.124655000000000626e-01 -4.128440499999999957e+00 8.027160000000000650e+01 1.558555000000000064e+03
1.700000000000000122e-02 8.121355000000000102e-01 -4.199739499999999737e+00 7.877235000000000298e+01 1.558150000000000091e+03
1.800000000000000211e-02 8.118830000000000213e-01 -4.026208999999999705e+00 7.751339999999999009e+01 1.557789999999999964e+03
1.900000000000000300e-02 8.116630000000000233e-01 -3.675803000000000154e+00 7.643330000000000268e+01 1.557464999999999918e+03
2.000000000000000042e-02 8.114280000000000381e-01 -3.228105999999999920e+00 7.543240000000000123e+01 1.557150000000000091e+03
2.100000000000000130e-02 8.111435000000000173e-01 -2.748003999999999891e+00 7.441219999999999857e+01 1.556840000000000146e+03
2.200000000000000219e-02 8.107990000000000475e-01 -2.269139000000000017e+00 7.330665000000000475e+01 1.556509999999999991e+03
2.299999999999999961e-02 8.104055000000000009e-01 -1.791335000000000122e+00 7.209774999999999068e+01 1.556154999999999973e+03
2.400000000000000050e-02 8.099870000000000125e-01 -1.291619999999999990e+00 7.081059999999999377e+01 1.555784999999999854e+03
2.500000000000000139e-02 8.095689999999999831e-01 -7.430399999999999228e-01 6.949234999999998763e+01 1.555409999999999854e+03
2.600000000000000228e-02 8.091660000000000519e-01 -1.329100000000003057e-01 6.818599999999999284e+01 1.555034999999999854e+03
2.700000000000000316e-02 8.087775000000000380e-01 5.260449999999998738e-01 6.690904999999999347e+01 1.554664999999999964e+03
2.800000000000000058e-02 8.083854999999999791e-01 1.193894999999999929e+00 6.564239999999999498e+01 1.554295000000000073e+03
2.900000000000000147e-02 8.079620000000000690e-01 1.810220000000000162e+00 6.433214999999999861e+01 1.553910000000000082e+03
3.000000000000000236e-02 8.074745000000000950e-01 2.306369999999999809e+00 6.290155000000000030e+01 1.553509999999999991e+03
3.099999999999999978e-02 8.068950000000000289e-01 2.620260000000000034e+00 6.127015000000000100e+01 1.553059999999999945e+03
3.200000000000000067e-02 8.062089999999999534e-01 2.710070000000000423e+00 5.937470000000000425e+01 1.552559999999999945e+03
3.300000000000000155e-02 8.054175000000000084e-01 2.563639999999999919e+00 5.718800000000000239e+01 1.551994999999999891e+03
3.400000000000000244e-02 8.045400000000000329e-01 2.201229999999999798e+00 5.472890000000000299e+01 1.551365000000000009e+03
3.500000000000000333e-02 8.036110000000000753e-01 1.670744999999999703e+00 5.206260000000000332e+01 1.550690000000000055e+03
3.600000000000000422e-02 8.026729999999999698e-01 1.038045000000000329e+00 4.929099999999999682e+01 1.549985000000000127e+03
3.700000000000000511e-02 8.017704999999999416e-01 3.747999999999995779e-01 4.653695000000000448e+01 1.549269999999999982e+03
3.799999999999999906e-02 8.009425000000000017e-01 -2.522999999999999687e-01 4.392655000000000598e+01 1.548585000000000036e+03
3.899999999999999994e-02 8.002205000000000013e-01 -7.888300000000003642e-01 4.157435000000000258e+01 1.547954999999999927e+03
4.000000000000000083e-02 7.996244999999999603e-01 -1.196099999999999941e+00 3.957245000000000346e+01 1.547404999999999973e+03
4.100000000000000172e-02 7.991680000000001005e-01 -1.450934999999999864e+00 3.798570000000000135e+01 1.546940000000000055e+03
4.200000000000000261e-02 7.988530000000000353e-01 -1.542869999999999964e+00 3.685139999999999816e+01 1.546590000000000146e+03
4.300000000000000350e-02 7.986779999999999990e-01 -1.470040999999999931e+00 3.618290000000000362e+01 1.546345000000000027e+03
4.400000000000000439e-02 7.986394999999999467e-01 -1.234904000000000002e+00 3.597575000000000500e+01 1.546219999999999800e+03
4.499999999999999833e-02 7.987314999999999277e-01 -8.408296499999999840e-01 3.621415000000000362e+01 1.546215000000000146e+03
4.599999999999999922e-02 7.989465000000000039e-01 -2.901850000000000263e-01 3.687635000000000218e+01 1.546315000000000055e+03
4.700000000000000011e-02 7.992805000000000604e-01 4.158950000000001257e-01 3.793860000000000099e+01 1.546525000000000091e+03
4.800000000000000100e-02 7.997279999999999944e-01 1.276275000000000048e+00 3.937619999999999720e+01 1.546835000000000036e+03
4.900000000000000189e-02 8.002825000000000077e-01 2.287874999999999659e+00 4.116335000000000122e+01 1.547244999999999891e+03
5.000000000000000278e-02 8.009349999999999525e-01 3.443589999999999929e+00 4.327105000000000246e+01 1.547735000000000127e+03
5.100000000000000366e-02 8.016749999999999154e-01 4.730889999999999596e+00 4.566570000000000107e+01 1.548309999999999945e+03
5.200000000000000455e-02 8.024890000000000079e-01 6.131204999999999572e+00 4.830769999999999698e+01 1.548949999999999818e+03
5.300000000000000544e-02 8.033609999999999918e-01 7.620658999999999850e+00 5.115144999999999698e+01 1.549654999999999973e+03
5.399999999999999939e-02 8.042745000000000033e-01 9.171293499999999099e+00 5.414665000000000106e+01 1.550405000000000200e+03
5.500000000000000028e-02 8.052114999999999689e-01 1.075323000000000029e+01 5.724034999999999940e+01 1.551190000000000055e+03
5.600000000000000117e-02 8.061564999999999426e-01 1.233670499999999848e+01 6.037964999999999804e+01 1.552000000000000000e+03
5.700000000000000205e-02 8.070945000000000480e-01 1.389404499999999842e+01 6.351510000000000389e+01 1.552820000000000164e+03
5.800000000000000294e-02 8.080125000000000224e-01 1.540163500000000063e+01 6.660335000000000605e+01 1.553634999999999991e+03
5.900000000000000383e-02 8.089020000000000099e-01 1.684049999999999869e+01 6.960904999999999632e+01 1.554434999999999945e+03
6.000000000000000472e-02 8.097575000000000189e-01 1.819725000000000037e+01 7.250669999999999504e+01 1.555220000000000027e+03
6.099999999999999867e-02 8.105759999999999632e-01 1.946369999999999933e+01 7.528069999999999595e+01 1.555980000000000018e+03
6.199999999999999956e-02 8.113585000000000935e-01 2.063654999999999973e+01 7.792529999999999291e+01 1.556710000000000036e+03
6.300000000000000044e-02 8.121065000000000644e-01 2.171679999999999922e+01 8.044315000000000282e+01 1.557414999999999964e+03
6.400000000000000133e-02 8.128250000000000197e-01 2.270854999999999890e+01 8.284430000000000405e+01 1.558085000000000036e+03
6.500000000000000222e-02 8.135185000000000333e-01 2.361840000000000117e+01 8.514404999999999291e+01 1.558735000000000127e+03
6.600000000000000311e-02 8.141929999999999445e-01 2.445449999999999946e+01 8.736115000000000919e+01 1.559365000000000009e+03
6.700000000000000400e-02 8.148554999999999549e-01 2.522569999999999979e+01 8.951595000000000368e+01 1.559974999999999909e+03
6.800000000000000488e-02 8.155105000000000270e-01 2.594080000000000297e+01 9.162850000000000250e+01 1.560579999999999927e+03
6.900000000000000577e-02 8.161635000000000417e-01 2.660800000000000054e+01 9.371689999999999543e+01 1.561170000000000073e+03
7.000000000000000666e-02 8.168180000000000440e-01 2.723404999999999987e+01 9.579605000000000814e+01 1.561759999999999991e+03
7.100000000000000755e-02 8.174755000000000216e-01 2.782410000000000139e+01 9.787614999999999554e+01 1.562340000000000146e+03
7.200000000000000844e-02 8.181365000000000443e-01 2.838100000000000023e+01 9.996245000000000402e+01 1.562930000000000064e+03
7.300000000000000933e-02 8.188005000000000422e-01 2.890545000000000186e+01 1.020537500000000080e+02 1.563514999999999873e+03
7.399999999999999634e-02 8.194639999999999702e-01 2.939574999999999960e+01 1.041434999999999889e+02 1.564095000000000027e+03
7.499999999999999722e-02 8.201220000000000176e-01 2.984839999999999804e+01 1.062204999999999870e+02 1.564679999999999836e+03
7.599999999999999811e-02 8.207699999999999996e-01 3.025820000000000221e+01 1.082690000000000055e+02 1.565255000000000109e+03
7.699999999999999900e-02 8.214010000000000478e-01 3.061870000000000047e+01 1.102699999999999960e+02 1.565815000000000055e+03
7.799999999999999989e-02 8.220084999999999198e-01 3.092314999999999969e+01 1.122019999999999982e+02 1.566365000000000009e+03
7.900000000000000078e-02 8.225854999999999695e-01 3.116449999999999676e+01 1.140430000000000064e+02 1.566894999999999982e+03
8.000000000000000167e-02 8.231260000000000243e-01 3.133650000000000091e+01 1.157729999999999961e+02 1.567384999999999991e+03
8.100000000000000255e-02 8.236250000000000515e-01 3.143345000000000056e+01 1.173719999999999999e+02 1.567855000000000018e+03
8.200000000000000344e-02 8.240775000000000183e-01 3.145125000000000171e+01 1.188245000000000005e+02 1.568279999999999973e+03
8.300000000000000433e-02 8.244800000000001017e-01 3.138694999999999879e+01 1.201159999999999997e+02 1.568670000000000073e+03
8.400000000000000522e-02 8.248305000000000220e-01 3.123935000000000173e+01 1.212390000000000043e+02 1.569014999999999873e+03
8.500000000000000611e-02 8.251275000000000137e-01 3.100900000000000034e+01 1.221875000000000000e+02 1.569309999999999945e+03
8.600000000000000699e-02 8.253714999999999247e-01 3.069804999999999851e+01 1.229609999999999985e+02 1.569565000000000055e+03
8.700000000000000788e-02 8.255639999999999645e-01 3.031034999999999968e+01 1.235625000000000000e+02 1.569764999999999873e+03
8.800000000000000877e-02 8.257069999999999688e-01 2.985144999999999982e+01 1.239989999999999952e+02 1.569930000000000064e+03
8.899999999999999578e-02 8.258039999999999825e-01 2.932815000000000083e+01 1.242814999999999941e+02 1.570045000000000073e+03
8.999999999999999667e-02 8.258594999999999686e-01 2.874869999999999948e+01 1.244225000000000136e+02 1.570125000000000000e+03
9.099999999999999756e-02 8.258780000000000010e-01 2.812225000000000108e+01 1.244379999999999882e+02 1.570164999999999964e+03
9.199999999999999845e-02 8.258659999999999890e-01 2.745870000000000033e+01 1.243460000000000036e+02 1.570174999999999955e+03
9.299999999999999933e-02 8.258275000000000476e-01 2.676854999999999762e+01 1.241659999999999968e+02 1.570154999999999973e+03
9.400000000000000022e-02 8.257700000000000040e-01 2.606214999999999904e+01 1.239170000000000016e+02 1.570119999999999891e+03
9.500000000000000111e-02 8.256985000000000019e-01 2.534975000000000023e+01 1.236179999999999950e+02 1.570059999999999945e+03
9.600000000000000200e-02 8.256185000000000329e-01 2.464085000000000036e+01 1.232884999999999991e+02 1.569985000000000127e+03
9.700000000000000289e-02 8.255339999999999900e-01 2.394409999999999883e+01 1.229444999999999908e+02 1.569904999999999973e+03
9.800000000000000377e-02 8.254505000000000869e-01 2.326655000000000229e+01 1.226009999999999991e+02 1.569825000000000045e+03
9.900000000000000466e-02 8.253705000000000069e-01 2.261400000000000077e+01 1.222699999999999960e+02 1.569740000000000009e+03
1.000000000000000056e-01 8.252960000000000296e-01 2.199025000000000318e+01 1.219609999999999985e+02 1.569660000000000082e+03
1.010000000000000064e-01 8.252289999999999903e-01 2.139754999999999896e+01 1.216790000000000020e+02 1.569585000000000036e+03
1.020000000000000073e-01 8.251690000000000413e-01 2.083624999999999972e+01 1.214269999999999925e+02 1.569514999999999873e+03
1.030000000000000082e-01 8.251165000000000305e-01 2.030494999999999806e+01 1.212049999999999983e+02 1.569450000000000045e+03
1.040000000000000091e-01 8.250690000000000524e-01 1.980085000000000051e+01 1.210090000000000003e+02 1.569389999999999873e+03
1.050000000000000100e-01 8.250250000000000083e-01 1.931985000000000241e+01 1.208329999999999984e+02 1.569335000000000036e+03
1.059999999999999970e-01 8.249819999999999931e-01 1.885694999999999766e+01 1.206694999999999993e+02 1.569284999999999854e+03
1.069999999999999979e-01 8.249374999999999902e-01 1.840634999999999977e+01 1.205095000000000027e+02 1.569230000000000018e+03
1.079999999999999988e-01 8.248869999999999258e-01 1.796205000000000140e+01 1.203429999999999893e+02 1.569184999999999945e+03
1.089999999999999997e-01 8.248299999999999521e-01 1.751789999999999736e+01 1.201599999999999966e+02 1.569130000000000109e+03
1.100000000000000006e-01 8.247619999999999951e-01 1.706815000000000282e+01 1.199505000000000052e+02 1.569070000000000164e+03
1.110000000000000014e-01 8.246809999999999974e-01 1.660739999999999839e+01 1.197065000000000055e+02 1.569005000000000109e+03
1.120000000000000023e-01 8.245854999999999713e-01 1.613134999999999764e+01 1.194205000000000041e+02 1.568929999999999836e+03
1.130000000000000032e-01 8.244750000000000689e-01 1.563644999999999996e+01 1.190875000000000057e+02 1.568840000000000146e+03
1.140000000000000041e-01 8.243475000000000108e-01 1.512049999999999983e+01 1.187034999999999911e+02 1.568740000000000009e+03
1.150000000000000050e-01 8.242035000000000888e-01 1.458239999999999981e+01 1.182685000000000031e+02 1.568630000000000109e+03
1.160000000000000059e-01 8.240449999999999164e-01 1.402265000000000050e+01 1.177835000000000036e+02 1.568500000000000000e+03
1.170000000000000068e-01 8.238725000000000076e-01 1.344284000000000034e+01 1.172524999999999977e+02 1.568365000000000009e+03
1.180000000000000077e-01 8.236890000000000045e-01 1.284609000000000023e+01 1.166825000000000045e+02 1.568215000000000146e+03
1.190000000000000085e-01 8.234970000000000345e-01 1.223657000000000039e+01 1.160809999999999889e+02 1.568065000000000055e+03
1.200000000000000094e-01 8.233004999999999907e-01 1.161946499999999993e+01 1.154590000000000032e+02 1.567894999999999982e+03
1.209999999999999964e-01 8.231025000000000702e-01 1.100086999999999904e+01 1.148275000000000006e+02 1.567730000000000018e+03
1.219999999999999973e-01 8.229085000000000427e-01 1.038737499999999869e+01 1.141990000000000123e+02 1.567565000000000055e+03
1.229999999999999982e-01 8.227204999999999657e-01 9.785904999999999632e+00 1.135870000000000033e+02 1.567400000000000091e+03
1.239999999999999991e-01 8.225430000000000241e-01 9.203384999999999039e+00 1.130045000000000073e+02 1.567244999999999891e+03
1.250000000000000000e-01 8.223810000000000286e-01 8.646565000000000722e+00 1.124629999999999939e+02 1.567094999999999800e+03
1.260000000000000009e-01 8.222365000000000368e-01 8.121620000000000061e+00 1.119745000000000061e+02 1.566954999999999927e+03
1.270000000000000018e-01 8.221130000000000937e-01 7.633895000000000763e+00 1.115485000000000042e+02 1.566829999999999927e+03
1.280000000000000027e-01 8.220119999999999649e-01 7.187889999999999446e+00 1.111924999999999955e+02 1.566724999999999909e+03
1.290000000000000036e-01 8.219350000000000822e-01 6.786865000000000592e+00 1.109130000000000109e+02 1.566639999999999873e+03
1.300000000000000044e-01 8.218820000000000014e-01 6.432895000000000252e+00 1.107125000000000057e+02 1.566569999999999936e+03
1.310000000000000053e-01 8.218544999999999323e-01 6.126755000000000173e+00 1.105904999999999916e+02 1.566525000000000091e+03
1.320000000000000062e-01 8.218499999999999694e-01 5.867955000000000254e+00 1.105474999999999994e+02 1.566500000000000000e+03
1.330000000000000071e-01 8.218674999999999731e-01 5.654790000000000205e+00 1.105784999999999911e+02 1.566490000000000009e+03
1.340000000000000080e-01 8.219049999999999967e-01 5.484485000000000277e+00 1.106765000000000043e+02 1.566500000000000000e+03
1.350000000000000089e-01 8.219594999999999541e-01 5.353334999999999511e+00 1.108350000000000080e+02 1.566525000000000091e+03
1.360000000000000098e-01 8.220285000000000508e-01 5.256895000000000095e+00 1.110439999999999969e+02 1.566570000000000164e+03
1.370000000000000107e-01 8.221085000000000198e-01 5.190195000000000114e+00 1.112939999999999969e+02 1.566619999999999891e+03
1.380000000000000115e-01 8.221970000000000667e-01 5.147954999999999615e+00 1.115745000000000005e+02 1.566684999999999945e+03
1.390000000000000124e-01 8.222895000000000065e-01 5.124750000000000583e+00 1.118739999999999952e+02 1.566755000000000109e+03
1.400000000000000133e-01 8.223835000000000450e-01 5.115244999999999820e+00 1.121835000000000093e+02 1.566829999999999927e+03
1.410000000000000142e-01 8.224770000000000136e-01 5.114329999999999821e+00 1.124919999999999902e+02 1.566904999999999973e+03
1.420000000000000151e-01 8.225670000000000481e-01 5.117289999999999672e+00 1.127924999999999898e+02 1.566984999999999900e+03
1.430000000000000160e-01 8.226510000000000211e-01 5.119885000000000019e+00 1.130765000000000100e+02 1.567059999999999945e+03
1.440000000000000169e-01 8.227275000000000560e-01 5.118444999999999467e+00 1.133384999999999962e+02 1.567125000000000000e+03
1.450000000000000178e-01 8.227959999999999718e-01 5.109925000000000495e+00 1.135730000000000075e+02 1.567190000000000055e+03
1.459999999999999909e-01 8.228550000000000031e-01 5.091939999999999245e+00 1.137764999999999986e+02 1.567250000000000000e+03
1.469999999999999918e-01 8.229040000000000799e-01 5.062765000000000626e+00 1.139475000000000051e+02 1.567295000000000073e+03
1.479999999999999927e-01 8.229429999999999801e-01 5.021300000000000097e+00 1.140854999999999961e+02 1.567339999999999918e+03
1.489999999999999936e-01 8.229720000000000368e-01 4.967074999999999463e+00 1.141894999999999953e+02 1.567369999999999891e+03
1.499999999999999944e-01 8.229919999999999458e-01 4.900164999999999438e+00 1.142614999999999981e+02 1.567394999999999982e+03
1.509999999999999953e-01 8.230034999999999989e-01 4.821155000000000079e+00 1.143040000000000020e+02 1.567409999999999854e+03
1.519999999999999962e-01 8.230075000000000029e-01 4.731054999999999566e+00 1.143195000000000050e+02 1.567424999999999955e+03
1.529999999999999971e-01 8.230044999999999167e-01 4.631240000000000023e+00 1.143104999999999905e+02 1.567424999999999955e+03
1.539999999999999980e-01 8.229965000000000197e-01 4.523344999999999949e+00 1.142810000000000059e+02 1.567425000000000182e+03
1.549999999999999989e-01 8.229839999999999378e-01 4.409200000000000230e+00 1.142360000000000042e+02 1.567414999999999964e+03
1.559999999999999998e-01 8.229675000000000740e-01 4.290725000000000122e+00 1.141775000000000091e+02 1.567410000000000082e+03
1.570000000000000007e-01 8.229495000000000005e-01 4.169850000000000279e+00 1.141094999999999970e+02 1.567389999999999873e+03
1.580000000000000016e-01 8.229299999999999393e-01 4.048449999999999882e+00 1.140360000000000014e+02 1.567375000000000000e+03
1.590000000000000024e-01 8.229104999999999892e-01 3.928230000000000111e+00 1.139590000000000032e+02 1.567360000000000127e+03
