# t [s], A [cm^2], U [cm/s], P [cPa], c [cm/s]
1.000000000000000021e-03 6.176835000000000520e-01 3.723200000000002896e-03 9.414525000000000432e+01 1.644079999999999927e+03
2.000000000000000042e-03 6.176774999999999904e-01 6.123450000000000767e-03 9.412194999999999823e+01 1.644070000000000164e+03
3.000000000000000062e-03 6.177445000000000297e-01 1.346017499999999922e-01 9.426134999999999309e+01 1.644099999999999909e+03
4.000000000000000083e-03 6.177785000000000082e-01 2.146103500000000053e-01 9.435885000000000389e+01 1.644125000000000000e+03
5.000000000000000104e-03 6.177300000000000013e-01 1.461075000000000013e-01 9.422315000000000396e+01 1.644094999999999800e+03
6.000000000000000125e-03 6.176604999999999457e-01 2.874650000000000816e-02 9.393299999999999272e+01 1.644039999999999964e+03
7.000000000000000146e-03 6.175850000000000506e-01 -1.109300000000000841e-01 9.354030000000000200e+01 1.643960000000000036e+03
8.000000000000000167e-03 6.174494999999999845e-01 -3.778400000000000647e-01 9.291525000000000034e+01 1.643840000000000146e+03
9.000000000000001055e-03 6.172394999999999410e-01 -7.997800000000000464e-01 9.197679999999999723e+01 1.643650000000000091e+03
1.000000000000000194e-02 6.169485000000000108e-01 -1.379844999999999988e+00 9.067320000000000846e+01 1.643390000000000100e+03
1.099999999999999936e-02 6.165559999999999929e-01 -2.138209999999999944e+00 8.893099999999999739e+01 1.643029999999999973e+03
1.200000000000000025e-02 6.160710000000000353e-01 -3.031894999999999563e+00 8.675419999999999732e+01 1.642569999999999936e+03
1.300000000000000114e-02 6.155559999999999921e-01 -3.911865000000000148e+00 8.430995000000000061e+01 1.642039999999999964e+03
1.400000000000000203e-02 6.150925000000000420e-01 -4.586639500000000425e+00 8.187690000000000623e+01 1.641494999999999891e+03
1.499999999999999944e-02 6.147320000000000562e-01 -4.919436000000000142e+00 7.971280000000000143e+01 1.640980000000000018e+03
1.600000000000000033e-02 6.144799999999999152e-01 -4.878945000000000753e+00 7.795089999999999009e+01 1.640525000000000091e+03
1.700000000000000122e-02 6.143015000000000558e-01 -4.530999999999999694e+00 7.657255000000000678e+01 1.640139999999999873e+03
1.800000000000000211e-02 6.141419999999999657e-01 -3.995679999999999676e+00 7.544290000000000873e+01 1.639799999999999955e+03
1.900000000000000300e-02 6.139529999999999710e-01 -3.395259999999999945e+00 7.438044999999999618e+01 1.639485000000000127e+03
2.000000000000000042e-02 6.137065000000000436e-01 -2.811487500000000139e+00 7.323054999999999382e+01 1.639154999999999973e+03
2.100000000000000130e-02 6.134034999999999904e-01 -2.266208500000000292e+00 7.191644999999999754e+01 1.638795000000000073e+03
2.200000000000000219e-02 6.130655000000000410e-01 -1.731560000000000210e+00 7.044845000000000823e+01 1.638414999999999964e+03
2.299999999999999961e-02 6.127190000000000136e-01 -1.161799999999999944e+00 6.889284999999999570e+01 1.638009999999999991e+03
2.400000000000000050e-02 6.123834999999999695e-01 -5.287999999999999368e-01 6.732110000000000127e+01 1.637599999999999909e+03
2.500000000000000139e-02 6.120585000000000608e-01 1.547899999999997611e-01 6.576500000000000057e+01 1.637190000000000055e+03
2.600000000000000228e-02 6.117249999999999632e-01 8.310349999999999682e-01 6.419290000000000873e+01 1.636775000000000091e+03
2.700000000000000316e-02 6.113515000000000477e-01 1.408854999999999968e+00 6.251265000000000072e+01 1.636335000000000036e+03
2.800000000000000058e-02 6.109020000000000561e-01 1.786864999999999704e+00 6.059499999999999886e+01 1.635849999999999909e+03
2.900000000000000147e-02 6.103484999999999605e-01 1.879820000000000046e+00 5.831190000000000140e+01 1.635289999999999964e+03
3.000000000000000236e-02 6.096799999999999997e-01 1.641700000000000159e+00 5.557599999999999341e+01 1.634650000000000091e+03
3.099999999999999978e-02 6.089054999999999884e-01 1.078880000000000727e+00 5.237284999999999968e+01 1.633904999999999973e+03
3.200000000000000067e-02 6.080550000000000122e-01 2.495449999999994617e-01 4.877325000000000443e+01 1.633079999999999927e+03
3.300000000000000155e-02 6.071729999999999627e-01 -7.496450000000001168e-01 4.492484999999999928e+01 1.632195000000000164e+03
3.400000000000000244e-02 6.063089999999999868e-01 -1.804140000000000299e+00 4.102670000000000528e+01 1.631284999999999854e+03
3.500000000000000333e-02 6.055094999999999228e-01 -2.802405000000000257e+00 3.729529999999999745e+01 1.630400000000000091e+03
3.600000000000000422e-02 6.048139999999999628e-01 -3.651419999999999888e+00 3.393295000000000528e+01 1.629574999999999818e+03
3.700000000000000511e-02 6.042484999999999662e-01 -4.284874999999999545e+00 3.110460000000000136e+01 1.628860000000000127e+03
3.799999999999999906e-02 6.038274999999999615e-01 -4.663956999999999908e+00 2.892439999999999856e+01 1.628269999999999982e+03
3.899999999999999994e-02 6.035570000000000102e-01 -4.773150000000000226e+00 2.745414999999999850e+01 1.627835000000000036e+03
4.000000000000000083e-02 6.034329999999999972e-01 -4.612994999999999735e+00 2.670984999999999943e+01 1.627565000000000055e+03
4.100000000000000172e-02 6.034490000000000132e-01 -4.192540000000000155e+00 2.667295000000000016e+01 1.627454999999999927e+03
4.200000000000000261e-02 6.035960000000000214e-01 -3.523419999999999774e+00 2.730339999999999989e+01 1.627505000000000109e+03
4.300000000000000350e-02 6.038649999999999851e-01 -2.616750000000000131e+00 2.855039999999999978e+01 1.627704999999999927e+03
4.400000000000000439e-02 6.042465000000000197e-01 -1.483155000000000223e+00 3.035909999999999798e+01 1.628045000000000073e+03
4.499999999999999833e-02 6.047305000000000597e-01 -1.349199999999997068e-01 3.267304999999999637e+01 1.628509999999999991e+03
4.599999999999999922e-02 6.053055000000000518e-01 1.410835000000000061e+00 3.543294999999999817e+01 1.629090000000000146e+03
4.700000000000000011e-02 6.059594999999999843e-01 3.129604999999999748e+00 3.857435000000000258e+01 1.629764999999999873e+03
4.800000000000000100e-02 6.066750000000000753e-01 4.988494999999999457e+00 4.202564999999999884e+01 1.630529999999999973e+03
4.900000000000000189e-02 6.074349999999999472e-01 6.947029999999999816e+00 4.570805000000000007e+01 1.631360000000000127e+03
5.000000000000000278e-02 6.082210000000000116e-01 8.959535499999999431e+00 4.953725000000000023e+01 1.632244999999999891e+03
5.100000000000000366e-02 6.090139999999999443e-01 1.097872000000000092e+01 5.342775000000000318e+01 1.633150000000000091e+03
5.200000000000000455e-02 6.097970000000000335e-01 1.295939499999999889e+01 5.729795000000000016e+01 1.634065000000000055e+03
5.300000000000000544e-02 6.105570000000000164e-01 1.486195500000000003e+01 6.107540000000000191e+01 1.634970000000000027e+03
5.399999999999999939e-02 6.112819999999999920e-01 1.665456500000000162e+01 6.470149999999999579e+01 1.635864999999999782e+03
5.500000000000000028e-02 6.119660000000000100e-01 1.831484999999999985e+01 6.813450000000000273e+01 1.636710000000000036e+03
5.600000000000000117e-02 6.126065000000000538e-01 1.982999999999999829e+01 7.135105000000000075e+01 1.637525000000000091e+03
5.700000000000000205e-02 6.132045000000000412e-01 2.119619999999999749e+01 7.434569999999999368e+01 1.638295000000000073e+03
5.800000000000000294e-02 6.137630000000000585e-01 2.241740000000000066e+01 7.712930000000000064e+01 1.639019999999999982e+03
5.900000000000000383e-02 6.142900000000000027e-01 2.350365000000000038e+01 7.972599999999999909e+01 1.639699999999999818e+03
6.000000000000000472e-02 6.147905000000000175e-01 2.446994999999999720e+01 8.217005000000000337e+01 1.640349999999999909e+03
6.099999999999999867e-02 6.152754999999999752e-01 2.533415000000000106e+01 8.450199999999999534e+01 1.640965000000000146e+03
6.199999999999999956e-02 6.157524999999999249e-01 2.611610000000000298e+01 8.676560000000000628e+01 1.641565000000000055e+03
6.300000000000000044e-02 6.162305000000000144e-01 2.683569999999999922e+01 8.900409999999999400e+01 1.642154999999999973e+03
6.400000000000000133e-02 6.167165000000000008e-01 2.751210000000000022e+01 9.125720000000001164e+01 1.642740000000000009e+03
6.500000000000000222e-02 6.172174999999999745e-01 2.816190000000000282e+01 9.355830000000000268e+01 1.643340000000000146e+03
6.600000000000000311e-02 6.177360000000000628e-01 2.879850000000000065e+01 9.593184999999999718e+01 1.643944999999999936e+03
6.700000000000000400e-02 6.182750000000000190e-01 2.943059999999999832e+01 9.839175000000000182e+01 1.644575000000000045e+03
6.800000000000000488e-02 6.188329999999999664e-01 3.006199999999999761e+01 1.009398500000000070e+02 1.645220000000000027e+03
6.900000000000000577e-02 6.194070000000000409e-01 3.069125000000000369e+01 1.035661000000000058e+02 1.645875000000000000e+03
7.000000000000000666e-02 6.199915000000000287e-01 3.131210000000000093e+01 1.062489999999999952e+02 1.646550000000000182e+03
7.100000000000000755e-02 6.205789999999999917e-01 3.191394999999999982e+01 1.089569999999999936e+02 1.647234999999999900e+03
7.200000000000000844e-02 6.211610000000000742e-01 3.248320000000000363e+01 1.116525000000000034e+02 1.647914999999999964e+03
7.300000000000000933e-02 6.217280000000000584e-01 3.300419999999999732e+01 1.142915000000000134e+02 1.648585000000000036e+03
7.399999999999999634e-02 6.222699999999999898e-01 3.346090000000000231e+01 1.168299999999999983e+02 1.649235000000000127e+03
7.499999999999999722e-02 6.227804999999999591e-01 3.383745000000000402e+01 1.192240000000000038e+02 1.649855000000000018e+03
7.599999999999999811e-02 6.232489999999999419e-01 3.411984999999999957e+01 1.214335000000000093e+02 1.650434999999999945e+03
7.699999999999999900e-02 6.236709999999999754e-01 3.429650000000000176e+01 1.234265000000000043e+02 1.650964999999999918e+03
7.799999999999999989e-02 6.240404999999999980e-01 3.435880000000000223e+01 1.251760000000000019e+02 1.651444999999999936e+03
7.900000000000000078e-02 6.243554999999999522e-01 3.430185000000000173e+01 1.266649999999999920e+02 1.651860000000000127e+03
8.000000000000000167e-02 6.246145000000000724e-01 3.412429999999999808e+01 1.278845000000000027e+02 1.652214999999999918e+03
8.100000000000000255e-02 6.248184999999999434e-01 3.382849999999999824e+01 1.288360000000000127e+02 1.652500000000000000e+03
8.200000000000000344e-02 6.249689999999999968e-01 3.342064999999999486e+01 1.295294999999999845e+02 1.652724999999999909e+03
8.300000000000000433e-02 6.250715000000000021e-01 3.291015000000000157e+01 1.299814999999999827e+02 1.652894999999999982e+03
8.400000000000000522e-02 6.251295000000000046e-01 3.230924999999999869e+01 1.302160000000000082e+02 1.653005000000000109e+03
8.500000000000000611e-02 6.251504999999999423e-01 3.163260000000000005e+01 1.302624999999999886e+02 1.653065000000000055e+03
8.600000000000000699e-02 6.251415000000000166e-01 3.089659999999999940e+01 1.301535000000000082e+02 1.653085000000000036e+03
8.700000000000000788e-02 6.251085000000000669e-01 3.011860000000000070e+01 1.299250000000000114e+02 1.653065000000000055e+03
8.800000000000000877e-02 6.250594999999999901e-01 2.931604999999999706e+01 1.296119999999999948e+02 1.653019999999999982e+03
8.899999999999999578e-02 6.250020000000000575e-01 2.850600000000000023e+01 1.292495000000000118e+02 1.652960000000000036e+03
8.999999999999999667e-02 6.249415000000000386e-01 2.770410000000000039e+01 1.288685000000000116e+02 1.652889999999999873e+03
9.099999999999999756e-02 6.248834999999999251e-01 2.692404999999999760e+01 1.284975000000000023e+02 1.652809999999999945e+03
9.199999999999999845e-02 6.248325000000000129e-01 2.617709999999999937e+01 1.281599999999999966e+02 1.652740000000000009e+03
9.299999999999999933e-02 6.247920000000000140e-01 2.547145000000000081e+01 1.278725000000000023e+02 1.652670000000000073e+03
9.400000000000000022e-02 6.247620000000000395e-01 2.481215000000000259e+01 1.276449999999999960e+02 1.652615000000000009e+03
9.500000000000000111e-02 6.247449999999999948e-01 2.420114999999999839e+01 1.274819999999999993e+02 1.652570000000000164e+03
9.600000000000000200e-02 6.247384999999999744e-01 2.363714999999999833e+01 1.273815000000000026e+02 1.652539999999999964e+03
9.700000000000000289e-02 6.247415000000000607e-01 2.311630000000000251e+01 1.273354999999999961e+02 1.652519999999999982e+03
9.800000000000000377e-02 6.247504999999999864e-01 2.263199999999999790e+01 1.273310000000000031e+02 1.652505000000000109e+03
9.900000000000000466e-02 6.247620000000000395e-01 2.217585000000000051e+01 1.273515000000000157e+02 1.652505000000000109e+03
1.000000000000000056e-01 6.247724999999999529e-01 2.173819999999999908e+01 1.273780000000000001e+02 1.652500000000000000e+03
1.010000000000000064e-01 6.247774999999999856e-01 2.130845000000000056e+01 1.273900000000000148e+02 1.652494999999999891e+03
1.020000000000000073e-01 6.247715000000000352e-01 2.087610000000000099e+01 1.273654999999999973e+02 1.652485000000000127e+03
1.030000000000000082e-01 6.247525000000000439e-01 2.043095000000000283e+01 1.272854999999999990e+02 1.652464999999999918e+03
1.040000000000000091e-01 6.247160000000000490e-01 1.996399999999999864e+01 1.271324999999999932e+02 1.652429999999999836e+03
1.050000000000000100e-01 6.246599999999999930e-01 1.946770000000000067e+01 1.268924999999999983e+02 1.652375000000000000e+03
1.059999999999999970e-01 6.245834999999999582e-01 1.893655000000000044e+01 1.265550000000000068e+02 1.652304999999999836e+03
1.069999999999999979e-01 6.244834999999999692e-01 1.836734999999999829e+01 1.261150000000000091e+02 1.652199999999999818e+03
1.079999999999999988e-01 6.243630000000000013e-01 1.775929999999999964e+01 1.255709999999999980e+02 1.652079999999999927e+03
1.089999999999999997e-01 6.242214999999999847e-01 1.711430000000000007e+01 1.249290000000000020e+02 1.651934999999999945e+03
1.100000000000000006e-01 6.240630000000000344e-01 1.643665000000000020e+01 1.241980000000000075e+02 1.651765000000000100e+03
1.110000000000000014e-01 6.238894999999999857e-01 1.573294999999999888e+01 1.233914999999999935e+02 1.651579999999999927e+03
1.120000000000000023e-01 6.237055000000000238e-01 1.501180000000000092e+01 1.225284999999999940e+02 1.651380000000000109e+03
1.130000000000000032e-01 6.235159999999999592e-01 1.428336000000000183e+01 1.216289999999999907e+02 1.651164999999999964e+03
1.140000000000000041e-01 6.233254999999999768e-01 1.355895000000000117e+01 1.207169999999999987e+02 1.650950000000000045e+03
1.150000000000000050e-01 6.231389999999999985e-01 1.285040000000000049e+01 1.198164999999999907e+02 1.650730000000000018e+03
1.160000000000000059e-01 6.229614999999999458e-01 1.216953499999999977e+01 1.189505000000000052e+02 1.650514999999999873e+03
1.170000000000000068e-01 6.227975000000000039e-01 1.152755499999999955e+01 1.181419999999999959e+02 1.650309999999999945e+03
1.180000000000000077e-01 6.226514999999999134e-01 1.093458000000000041e+01 1.174115000000000038e+02 1.650130000000000109e+03
1.190000000000000085e-01 6.225260000000000238e-01 1.039912499999999973e+01 1.167754999999999939e+02 1.649960000000000036e+03
1.200000000000000094e-01 6.224239999999999773e-01 9.927889999999999660e+00 1.162464999999999975e+02 1.649815000000000055e+03
1.209999999999999964e-01 6.223459999999999548e-01 9.525180000000000646e+00 1.158345000000000056e+02 1.649695000000000164e+03
1.219999999999999973e-01 6.222929999999999851e-01 9.193139999999999645e+00 1.155409999999999968e+02 1.649605000000000018e+03
1.229999999999999982e-01 6.222644999999999982e-01 8.931485000000000340e+00 1.153669999999999902e+02 1.649539999999999964e+03
1.239999999999999991e-01 6.222585000000000477e-01 8.737690000000000623e+00 1.153054999999999950e+02 1.649500000000000000e+03
1.250000000000000000e-01 6.222730000000000761e-01 8.607284999999999187e+00 1.153485000000000014e+02 1.649489999999999782e+03
1.260000000000000009e-01 6.223049999999999971e-01 8.534015000000000128e+00 1.154819999999999993e+02 1.649500000000000000e+03
1.270000000000000018e-01 6.223520000000000163e-01 8.510320000000000107e+00 1.156910000000000025e+02 1.649530000000000200e+03
1.280000000000000027e-01 6.224095000000000599e-01 8.527699999999999392e+00 1.159590000000000032e+02 1.649579999999999927e+03
1.290000000000000036e-01 6.224735000000000129e-01 8.577120000000000744e+00 1.162680000000000007e+02 1.649639999999999873e+03
1.300000000000000044e-01 6.225419999999999288e-01 8.649425000000000807e+00 1.166009999999999991e+02 1.649704999999999927e+03
1.310000000000000053e-01 6.226099999999999968e-01 8.735694999999999766e+00 1.169410000000000025e+02 1.649780000000000200e+03
1.320000000000000062e-01 6.226754999999999374e-01 8.827569999999999695e+00 1.172729999999999961e+02 1.649855000000000018e+03
1.330000000000000071e-01 6.227359999999999562e-01 8.917545000000000499e+00 1.175840000000000032e+02 1.649924999999999955e+03
1.340000000000000080e-01 6.227894999999999959e-01 8.999155000000000015e+00 1.178624999999999972e+02 1.649990000000000009e+03
1.350000000000000089e-01 6.228335000000000399e-01 9.067119999999999180e+00 1.181020000000000039e+02 1.650050000000000182e+03
1.360000000000000098e-01 6.228694999999999649e-01 9.117449999999999832e+00 1.182959999999999923e+02 1.650095000000000027e+03
1.370000000000000107e-01 6.228945000000000176e-01 9.147475000000000023e+00 1.184420000000000073e+02 1.650140000000000100e+03
1.380000000000000115e-01 6.229105000000000336e-01 9.155760000000000787e+00 1.185405000000000086e+02 1.650164999999999964e+03
1.390000000000000124e-01 6.229169999999999430e-01 9.142125000000000057e+00 1.185925000000000011e+02 1.650190000000000055e+03
1.400000000000000133e-01 6.229154999999999553e-01 9.107480000000000686e+00 1.186034999999999968e+02 1.650194999999999936e+03
1.410000000000000142e-01 6.229074999999999473e-01 9.053664999999998741e+00 1.185780000000000030e+02 1.650195000000000164e+03
1.420000000000000151e-01 6.228940000000000587e-01 8.983335000000000292e+00 1.185229999999999961e+02 1.650190000000000055e+03
1.430000000000000160e-01 6.228769999999999030e-01 8.899615000000000720e+00 1.184455000000000098e+02 1.650180000000000064e+03
1.440000000000000169e-01 6.228574999999999529e-01 8.806179999999999453e+00 1.183539999999999992e+02 1.650159999999999854e+03
1.450000000000000178e-01 6.228380000000000027e-01 8.706694999999999851e+00 1.182560000000000002e+02 1.650139999999999873e+03
1.459999999999999909e-01 6.228190000000000115e-01 8.604929999999999524e+00 1.181585000000000036e+02 1.650119999999999891e+03
1.469999999999999918e-01 6.228024999999999256e-01 8.504364999999999952e+00 1.180679999999999978e+02 1.650099999999999909e+03
1.479999999999999927e-01 6.227884999999999671e-01 8.408104999999999052e+00 1.179894999999999925e+02 1.650085000000000036e+03
1.489999999999999936e-01 6.227785000000000126e-01 8.318719999999999004e+00 1.179274999999999949e+02 1.650070000000000164e+03
1.499999999999999944e-01 6.227719999999999922e-01 8.238184999999999647e+00 1.178845000000000027e+02 1.650059999999999945e+03
1.509999999999999953e-01 6.227705000000000046e-01 8.167794999999999916e+00 1.178615000000000066e+02 1.650049999999999955e+03
1.519999999999999962e-01 6.227730000000000210e-01 8.108164999999999623e+00 1.178580000000000041e+02 1.650054999999999836e+03
1.529999999999999971e-01 6.227785000000000126e-01 8.059269999999999712e+00 1.178719999999999999e+02 1.650049999999999955e+03
1.539999999999999980e-01 6.227880000000000082e-01 8.020490000000000563e+00 1.179025000000000034e+02 1.650059999999999945e+03
1.549999999999999989e-01 6.227985000000000326e-01 7.990734999999999921e+00 1.179440000000000026e+02 1.650070000000000164e+03
1.559999999999999998e-01 6.228110000000000035e-01 7.968545000000000655e+00 1.179935000000000116e+02 1.650075000000000045e+03
1.570000000000000007e-01 6.228230000000000155e-01 7.952230000000000132e+00 1.180459999999999923e+02 1.650090000000000146e+03
1.580000000000000016e-01 6.228350000000000275e-01 7.939989999999999881e+00 1.180974999999999966e+02 1.650099999999999909e+03
1.590000000000000024e-01 6.228449999999999820e-01 7.930060000000000997e+00 1.181434999999999889e+02 1.650110000000000127e+03
