# t [s], A [cm^2], U [cm/s], P [cPa], c [cm/s]
1.000000000000000021e-03 6.475349999999999717e-01 4.448500000000001064e-03 1.027180000000000035e+02 1.641110000000000127e+03
2.000000000000000042e-03 6.475299999999999390e-01 8.232449999999998796e-03 1.026939999999999884e+02 1.641105000000000018e+03
3.000000000000000062e-03 6.476070000000000437e-01 1.494782500000000069e-01 1.028479999999999990e+02 1.641139999999999873e+03
4.000000000000000083e-03 6.476385000000000058e-01 2.254780000000000117e-01 1.029354999999999905e+02 1.641164999999999964e+03
5.000000000000000104e-03 6.475729999999999542e-01 1.361260000000000248e-01 1.027540000000000049e+02 1.641125000000000000e+03
6.000000000000000125e-03 6.474900000000000100e-01 3.124000000000015653e-03 1.024120000000000061e+02 1.641050000000000182e+03
7.000000000000000146e-03 6.473925000000000374e-01 -1.680050000000000709e-01 1.019414999999999907e+02 1.640950000000000045e+03
8.000000000000000167e-03 6.472175000000000011e-01 -4.962150000000000727e-01 1.011870000000000118e+02 1.640784999999999854e+03
9.000000000000001055e-03 6.469575000000000742e-01 -9.908449999999999758e-01 1.000791499999999985e+02 1.640549999999999955e+03
1.000000000000000194e-02 6.466049999999999853e-01 -1.651375000000000037e+00 9.856659999999999400e+01 1.640215000000000146e+03
1.099999999999999936e-02 6.461330000000000684e-01 -2.501929999999999765e+00 9.656540000000001100e+01 1.639764999999999873e+03
1.200000000000000025e-02 6.455584999999999241e-01 -3.481360000000000010e+00 9.409485000000000809e+01 1.639194999999999936e+03
1.300000000000000114e-02 6.449664999999999981e-01 -4.398814999999999920e+00 9.137954999999999472e+01 1.638545000000000073e+03
1.400000000000000203e-02 6.444570000000000576e-01 -5.025911999999999935e+00 8.876359999999999673e+01 1.637894999999999982e+03
1.499999999999999944e-02 6.440890000000000226e-01 -5.218078499999999842e+00 8.653849999999999909e+01 1.637304999999999836e+03
1.600000000000000033e-02 6.438544999999999963e-01 -4.968039999999999345e+00 8.482304999999999495e+01 1.636805000000000064e+03
1.700000000000000122e-02 6.436969999999999636e-01 -4.384954999999999714e+00 8.354410000000000025e+01 1.636394999999999982e+03
1.800000000000000211e-02 6.435410000000000297e-01 -3.634570000000000078e+00 8.249500000000000455e+01 1.636039999999999964e+03
1.900000000000000300e-02 6.433230000000000892e-01 -2.870645500000000183e+00 8.143234999999999957e+01 1.635690000000000055e+03
2.000000000000000042e-02 6.430154999999999621e-01 -2.181694499999999870e+00 8.017345000000000255e+01 1.635304999999999836e+03
2.100000000000000130e-02 6.426294999999999646e-01 -1.573035000000000183e+00 7.865475000000000705e+01 1.634869999999999891e+03
2.200000000000000219e-02 6.422025000000000095e-01 -9.901349999999997653e-01 7.692849999999999966e+01 1.634394999999999982e+03
2.299999999999999961e-02 6.417749999999999844e-01 -3.668100000000000804e-01 7.510765000000000668e+01 1.633889999999999873e+03
2.400000000000000050e-02 6.413695000000000368e-01 3.290500000000000647e-01 7.329404999999999859e+01 1.633380000000000109e+03
2.500000000000000139e-02 6.409815000000000929e-01 1.071155000000000079e+00 7.152295000000000869e+01 1.632875000000000000e+03
2.600000000000000228e-02 6.405810000000000670e-01 1.775989999999999958e+00 6.974200000000000443e+01 1.632369999999999891e+03
2.700000000000000316e-02 6.401235000000000674e-01 2.323739999999999917e+00 6.782259999999999422e+01 1.631835000000000036e+03
2.800000000000000058e-02 6.395640000000000214e-01 2.590395000000000447e+00 6.559815000000000396e+01 1.631230000000000018e+03
2.900000000000000147e-02 6.388700000000000490e-01 2.482009999999999827e+00 6.291584999999999894e+01 1.630534999999999854e+03
3.000000000000000236e-02 6.380350000000000188e-01 1.961810000000000276e+00 5.968845000000000312e+01 1.629724999999999909e+03
3.099999999999999978e-02 6.370789999999999509e-01 1.062370000000000481e+00 5.592949999999999733e+01 1.628795000000000073e+03
3.200000000000000067e-02 6.360490000000000865e-01 -1.215999999999999304e-01 5.176109999999999900e+01 1.627764999999999873e+03
3.300000000000000155e-02 6.350065000000000293e-01 -1.454965000000000508e+00 4.739379999999999882e+01 1.626670000000000073e+03
3.400000000000000244e-02 6.340170000000000528e-01 -2.790474999999999817e+00 4.308750000000000568e+01 1.625579999999999927e+03
3.500000000000000333e-02 6.331370000000000609e-01 -3.993980000000000086e+00 3.910790000000000077e+01 1.624545000000000073e+03
3.600000000000000422e-02 6.324110000000000564e-01 -4.960700000000000109e+00 3.568845000000000312e+01 1.623625000000000000e+03
3.700000000000000511e-02 6.318664999999999976e-01 -5.622428000000000203e+00 3.300515000000000043e+01 1.622865000000000009e+03
3.799999999999999906e-02 6.315144999999999786e-01 -5.945505000000000706e+00 3.116584999999999894e+01 1.622295000000000073e+03
3.899999999999999994e-02 6.313549999999999995e-01 -5.923519999999999897e+00 3.021224999999999739e+01 1.621934999999999945e+03
4.000000000000000083e-02 6.313785000000000647e-01 -5.567639999999999922e+00 3.013199999999999790e+01 1.621795000000000073e+03
4.100000000000000172e-02 6.315720000000000223e-01 -4.897215000000000096e+00 3.087480000000000047e+01 1.621855000000000018e+03
4.200000000000000261e-02 6.319205000000001071e-01 -3.933319499999999636e+00 3.236970000000000169e+01 1.622119999999999891e+03
4.300000000000000350e-02 6.324075000000000113e-01 -2.696230000000000349e+00 3.453694999999999737e+01 1.622570000000000164e+03
4.400000000000000439e-02 6.330195000000000682e-01 -1.206624999999999837e+00 3.729510000000000502e+01 1.623174999999999955e+03
4.499999999999999833e-02 6.337390000000000523e-01 5.110249999999991743e-01 4.056139999999999901e+01 1.623925000000000182e+03
4.599999999999999922e-02 6.345484999999999598e-01 2.424860000000000237e+00 4.425010000000000332e+01 1.624795000000000073e+03
4.700000000000000011e-02 6.354275000000000340e-01 4.493440000000000545e+00 4.826895000000000380e+01 1.625764999999999873e+03
4.800000000000000100e-02 6.363524999999999876e-01 6.666225000000000733e+00 5.251865000000000094e+01 1.626815000000000055e+03
4.900000000000000189e-02 6.372980000000000311e-01 8.885899999999999466e+00 5.689399999999999835e+01 1.627904999999999973e+03
5.000000000000000278e-02 6.382415000000000171e-01 1.109289500000000039e+01 6.128875000000000028e+01 1.629025000000000091e+03
5.100000000000000366e-02 6.391594999999999915e-01 1.323025499999999965e+01 6.560179999999999723e+01 1.630139999999999873e+03
5.200000000000000455e-02 6.400339999999999918e-01 1.524815500000000057e+01 6.974434999999999718e+01 1.631224999999999909e+03
5.300000000000000544e-02 6.408519999999999772e-01 1.710760499999999951e+01 7.364565000000000339e+01 1.632269999999999982e+03
5.399999999999999939e-02 6.416049999999999809e-01 1.878204999999999814e+01 7.725764999999999816e+01 1.633259999999999991e+03
5.500000000000000028e-02 6.422919999999999741e-01 2.025815000000000055e+01 8.055629999999999313e+01 1.634174999999999955e+03
5.600000000000000117e-02 6.429145000000000554e-01 2.153425000000000011e+01 8.354120000000000346e+01 1.635025000000000091e+03
5.700000000000000205e-02 6.434800000000000519e-01 2.261905000000000143e+01 8.623274999999999579e+01 1.635799999999999955e+03
5.800000000000000294e-02 6.439969999999999306e-01 2.352915000000000134e+01 8.866790000000000305e+01 1.636505000000000109e+03
5.900000000000000383e-02 6.444775000000000365e-01 2.428694999999999737e+01 9.089564999999998918e+01 1.637164999999999964e+03
6.000000000000000472e-02 6.449335000000000484e-01 2.491859999999999786e+01 9.297265000000000157e+01 1.637779999999999973e+03
6.099999999999999867e-02 6.453774999999999373e-01 2.545255000000000223e+01 9.495860000000000412e+01 1.638365000000000009e+03
6.199999999999999956e-02 6.458220000000000072e-01 2.591790000000000305e+01 9.691249999999999432e+01 1.638940000000000055e+03
6.300000000000000044e-02 6.462784999999999780e-01 2.634279999999999688e+01 9.888939999999999486e+01 1.639505000000000109e+03
6.400000000000000133e-02 6.467555000000000387e-01 2.675300000000000011e+01 1.009363999999999919e+02 1.640085000000000036e+03
6.500000000000000222e-02 6.472599999999999465e-01 2.717029999999999745e+01 1.030919999999999987e+02 1.640690000000000055e+03
6.600000000000000311e-02 6.477969999999999562e-01 2.761074999999999946e+01 1.053785000000000025e+02 1.641320000000000164e+03
6.700000000000000400e-02 6.483654999999999280e-01 2.808359999999999701e+01 1.078059999999999974e+02 1.641980000000000018e+03
6.800000000000000488e-02 6.489639999999999853e-01 2.859039999999999893e+01 1.103679999999999950e+02 1.642670000000000073e+03
6.900000000000000577e-02 6.495845000000000091e-01 2.912525000000000119e+01 1.130409999999999968e+02 1.643394999999999982e+03
7.000000000000000666e-02 6.502185000000000326e-01 2.967504999999999882e+01 1.157870000000000061e+02 1.644130000000000109e+03
7.100000000000000755e-02 6.508530000000000149e-01 3.022109999999999985e+01 1.185570000000000022e+02 1.644875000000000000e+03
7.200000000000000844e-02 6.514750000000000263e-01 3.074084999999999823e+01 1.212930000000000064e+02 1.645625000000000000e+03
7.300000000000000933e-02 6.520715000000000261e-01 3.120949999999999847e+01 1.239329999999999927e+02 1.646344999999999800e+03
7.399999999999999634e-02 6.526279999999999859e-01 3.160249999999999915e+01 1.264155000000000086e+02 1.647035000000000082e+03
7.499999999999999722e-02 6.531325000000000047e-01 3.189689999999999870e+01 1.286829999999999927e+02 1.647674999999999955e+03
7.599999999999999811e-02 6.535760000000000458e-01 3.207325000000000159e+01 1.306864999999999952e+02 1.648255000000000109e+03
7.699999999999999900e-02 6.539500000000000313e-01 3.211655000000000371e+01 1.323865000000000123e+02 1.648755000000000109e+03
7.799999999999999989e-02 6.542499999999999982e-01 3.201704999999999757e+01 1.337565000000000168e+02 1.649179999999999836e+03
7.900000000000000078e-02 6.544749999999999179e-01 3.177084999999999937e+01 1.347855000000000132e+02 1.649514999999999873e+03
8.000000000000000167e-02 6.546254999999999713e-01 3.137959999999999638e+01 1.354724999999999966e+02 1.649764999999999873e+03
8.100000000000000255e-02 6.547060000000000102e-01 3.085069999999999979e+01 1.358319999999999936e+02 1.649924999999999955e+03
8.200000000000000344e-02 6.547220000000000262e-01 3.019634999999999891e+01 1.358904999999999745e+02 1.650000000000000000e+03
8.300000000000000433e-02 6.546819999999999862e-01 2.943305000000000149e+01 1.356814999999999998e+02 1.650009999999999991e+03
8.400000000000000522e-02 6.545954999999999968e-01 2.858070000000000022e+01 1.352489999999999952e+02 1.649950000000000045e+03
8.500000000000000611e-02 6.544729999999999714e-01 2.766154999999999831e+01 1.346405000000000030e+02 1.649835000000000036e+03
8.600000000000000699e-02 6.543259999999999632e-01 2.669930000000000092e+01 1.339060000000000059e+02 1.649684999999999945e+03
8.700000000000000788e-02 6.541649999999999965e-01 2.571754999999999924e+01 1.330970000000000084e+02 1.649505000000000109e+03
8.800000000000000877e-02 6.539994999999999559e-01 2.473924999999999841e+01 1.322609999999999957e+02 1.649309999999999945e+03
8.899999999999999578e-02 6.538399999999999768e-01 2.378515000000000157e+01 1.314435000000000002e+02 1.649105000000000018e+03
8.999999999999999667e-02 6.536930000000000796e-01 2.287335000000000207e+01 1.306814999999999998e+02 1.648909999999999854e+03
9.099999999999999756e-02 6.535649999999999515e-01 2.201829999999999998e+01 1.300064999999999884e+02 1.648735000000000127e+03
9.199999999999999845e-02 6.534609999999999586e-01 2.123029999999999973e+01 1.294395000000000095e+02 1.648575000000000045e+03
9.299999999999999933e-02 6.533820000000000183e-01 2.051534999999999798e+01 1.289944999999999879e+02 1.648445000000000164e+03
9.400000000000000022e-02 6.533284999999999787e-01 1.987500000000000000e+01 1.286744999999999948e+02 1.648344999999999800e+03
9.500000000000000111e-02 6.532989999999999631e-01 1.930655000000000143e+01 1.284749999999999943e+02 1.648269999999999982e+03
9.600000000000000200e-02 6.532910000000000661e-01 1.880345000000000155e+01 1.283834999999999980e+02 1.648224999999999909e+03
9.700000000000000289e-02 6.532985000000000042e-01 1.835585000000000022e+01 1.283804999999999836e+02 1.648204999999999927e+03
9.800000000000000377e-02 6.533174999999999955e-01 1.795134999999999792e+01 1.284420000000000073e+02 1.648199999999999818e+03
9.900000000000000466e-02 6.533409999999999496e-01 1.757564999999999955e+01 1.285405000000000086e+02 1.648204999999999927e+03
1.000000000000000056e-01 6.533619999999999983e-01 1.721359999999999957e+01 1.286460000000000150e+02 1.648220000000000027e+03
1.010000000000000064e-01 6.533754999999999979e-01 1.684980000000000189e+01 1.287284999999999968e+02 1.648230000000000018e+03
1.020000000000000073e-01 6.533750000000000391e-01 1.646954999999999814e+01 1.287605000000000075e+02 1.648235000000000127e+03
1.030000000000000082e-01 6.533554999999999779e-01 1.605995000000000061e+01 1.287160000000000082e+02 1.648220000000000027e+03
1.040000000000000091e-01 6.533134999999999915e-01 1.561005000000000109e+01 1.285759999999999934e+02 1.648184999999999945e+03
1.050000000000000100e-01 6.532454999999999234e-01 1.511204999999999998e+01 1.283259999999999934e+02 1.648125000000000000e+03
1.059999999999999970e-01 6.531514999999999960e-01 1.456109999999999971e+01 1.279565000000000055e+02 1.648039999999999964e+03
1.069999999999999979e-01 6.530314999999999870e-01 1.395609999999999928e+01 1.274680000000000035e+02 1.647924999999999955e+03
1.079999999999999988e-01 6.528869999999999951e-01 1.329939000000000071e+01 1.268649999999999949e+02 1.647779999999999973e+03
1.089999999999999997e-01 6.527224999999999833e-01 1.259697000000000067e+01 1.261610000000000014e+02 1.647610000000000127e+03
1.100000000000000006e-01 6.525415000000001076e-01 1.185783499999999968e+01 1.253750000000000000e+02 1.647414999999999964e+03
1.110000000000000014e-01 6.523495000000000266e-01 1.109370000000000012e+01 1.245305000000000035e+02 1.647204999999999927e+03
1.120000000000000023e-01 6.521540000000000115e-01 1.031838000000000122e+01 1.236544999999999987e+02 1.646980000000000018e+03
1.130000000000000032e-01 6.519610000000000127e-01 9.547109999999999985e+00 1.227779999999999916e+02 1.646755000000000109e+03
1.140000000000000041e-01 6.517770000000000508e-01 8.795629999999999171e+00 1.219319999999999879e+02 1.646534999999999854e+03
1.150000000000000050e-01 6.516094999999999526e-01 8.079480000000000217e+00 1.211469999999999914e+02 1.646320000000000164e+03
1.160000000000000059e-01 6.514634999999999732e-01 7.413240000000000052e+00 1.204505000000000052e+02 1.646130000000000109e+03
1.170000000000000068e-01 6.513444999999999929e-01 6.809625000000000483e+00 1.198669999999999902e+02 1.645965000000000146e+03
1.180000000000000077e-01 6.512560000000000571e-01 6.279075000000000628e+00 1.194164999999999992e+02 1.645829999999999927e+03
1.190000000000000085e-01 6.512005000000000710e-01 5.829150000000000276e+00 1.191115000000000066e+02 1.645730000000000018e+03
1.200000000000000094e-01 6.511789999999999523e-01 5.464265000000000150e+00 1.189594999999999914e+02 1.645664999999999964e+03
1.209999999999999964e-01 6.511914999999999232e-01 5.185575000000000045e+00 1.189609999999999985e+02 1.645644999999999982e+03
1.219999999999999973e-01 6.512350000000000083e-01 4.991049999999999542e+00 1.191109999999999900e+02 1.645654999999999973e+03
1.229999999999999982e-01 6.513074999999999282e-01 4.875690000000000524e+00 1.193960000000000008e+02 1.645704999999999927e+03
1.239999999999999991e-01 6.514045000000000529e-01 4.831884999999999764e+00 1.198010000000000019e+02 1.645784999999999854e+03
1.250000000000000000e-01 6.515215000000000867e-01 4.849920000000000009e+00 1.203044999999999902e+02 1.645894999999999982e+03
1.260000000000000009e-01 6.516530000000000378e-01 4.918495000000000061e+00 1.208834999999999980e+02 1.646029999999999973e+03
1.270000000000000018e-01 6.517934999999999146e-01 5.025294999999999845e+00 1.215120000000000005e+02 1.646174999999999955e+03
1.280000000000000027e-01 6.519375000000000586e-01 5.157590000000000785e+00 1.221659999999999968e+02 1.646335000000000036e+03
1.290000000000000036e-01 6.520794999999999231e-01 5.302759999999999252e+00 1.228199999999999932e+02 1.646500000000000000e+03
1.300000000000000044e-01 6.522149999999999892e-01 5.448800000000000310e+00 1.234514999999999958e+02 1.646659999999999854e+03
1.310000000000000053e-01 6.523404999999999898e-01 5.584770000000000678e+00 1.240409999999999968e+02 1.646809999999999945e+03
1.320000000000000062e-01 6.524514999999999620e-01 5.701124999999999332e+00 1.245699999999999932e+02 1.646954999999999927e+03
1.330000000000000071e-01 6.525460000000000704e-01 5.789994999999999337e+00 1.250275000000000034e+02 1.647085000000000036e+03
1.340000000000000080e-01 6.526224999999999943e-01 5.845359999999999445e+00 1.254025000000000034e+02 1.647190000000000055e+03
1.350000000000000089e-01 6.526800000000000379e-01 5.863150000000000084e+00 1.256910000000000025e+02 1.647275000000000091e+03
1.360000000000000098e-01 6.527184999999999793e-01 5.841245000000000687e+00 1.258909999999999911e+02 1.647340000000000146e+03
1.370000000000000107e-01 6.527384999999999993e-01 5.779399999999999871e+00 1.260049999999999955e+02 1.647384999999999991e+03
1.380000000000000115e-01 6.527420000000000444e-01 5.679130000000000678e+00 1.260380000000000109e+02 1.647409999999999854e+03
1.390000000000000124e-01 6.527304999999999913e-01 5.543474999999999930e+00 1.259975000000000023e+02 1.647414999999999964e+03
1.400000000000000133e-01 6.527069999999999261e-01 5.376799999999999358e+00 1.258944999999999936e+02 1.647400000000000091e+03
1.410000000000000142e-01 6.526724999999999888e-01 5.184474999999999945e+00 1.257400000000000091e+02 1.647375000000000000e+03
1.420000000000000151e-01 6.526309999999999611e-01 4.972604999999999720e+00 1.255455000000000041e+02 1.647335000000000036e+03
1.430000000000000160e-01 6.525845000000000118e-01 4.747650000000000148e+00 1.253245000000000005e+02 1.647284999999999854e+03
1.440000000000000169e-01 6.525365000000000748e-01 4.516175000000000495e+00 1.250895000000000010e+02 1.647235000000000127e+03
1.450000000000000178e-01 6.524879999999999569e-01 4.284485000000000099e+00 1.248495000000000061e+02 1.647179999999999836e+03
1.459999999999999909e-01 6.524415000000000076e-01 4.058365000000000222e+00 1.246159999999999997e+02 1.647125000000000000e+03
1.469999999999999918e-01 6.523995000000000211e-01 3.842835000000000001e+00 1.243970000000000056e+02 1.647065000000000055e+03
1.479999999999999927e-01 6.523619999999999974e-01 3.641989999999999839e+00 1.241974999999999909e+02 1.647015000000000100e+03
1.489999999999999936e-01 6.523295000000000066e-01 3.458820000000000228e+00 1.240219999999999914e+02 1.646965000000000146e+03
1.499999999999999944e-01 6.523025000000000073e-01 3.295214999999999783e+00 1.238714999999999975e+02 1.646925000000000182e+03
1.509999999999999953e-01 6.522805000000000408e-01 3.151925000000000310e+00 1.237450000000000045e+02 1.646889999999999873e+03
1.519999999999999962e-01 6.522630000000000372e-01 3.028659999999999908e+00 1.236405000000000030e+02 1.646860000000000127e+03
1.529999999999999971e-01 6.522490000000000787e-01 2.924195000000000100e+00 1.235540000000000020e+02 1.646829999999999927e+03
1.539999999999999980e-01 6.522364999999999968e-01 2.836539999999999839e+00 1.234795000000000016e+02 1.646805000000000064e+03
1.549999999999999989e-01 6.522244999999999848e-01 2.763155000000000250e+00 1.234104999999999990e+02 1.646784999999999854e+03
1.559999999999999998e-01 6.522114999999999441e-01 2.701105000000000089e+00 1.233410000000000082e+02 1.646759999999999991e+03
1.570000000000000007e-01 6.521964999999999568e-01 2.647320000000000118e+00 1.232640000000000100e+02 1.646740000000000009e+03
1.580000000000000016e-01 6.521775000000000766e-01 2.598749999999999893e+00 1.231749999999999972e+02 1.646715000000000146e+03
1.590000000000000024e-01 6.521540000000000115e-01 2.552559999999999718e+00 1.230670000000000073e+02 1.646684999999999945e+03
