# t [s], A [cm^2], U [cm/s], P [cPa], c [cm/s]
1.000000000000000021e-03 6.193524999999999725e-01 2.657349999999995827e-03 1.026149999999999949e+02 1.387389999999999873e+03
2.000000000000000042e-03 6.193444999999999645e-01 7.819149999999999972e-04 1.026009999999999991e+02 1.387384999999999991e+03
3.000000000000000062e-03 6.193815000000000293e-01 5.561469999999999608e-02 1.026479999999999961e+02 1.387404999999999973e+03
4.000000000000000083e-03 6.194379999999999331e-01 1.380369499999999916e-01 1.027415000000000020e+02 1.387434999999999945e+03
5.000000000000000104e-03 6.194485000000000685e-01 1.545731000000000188e-01 1.027655000000000030e+02 1.387449999999999818e+03
6.000000000000000125e-03 6.194135000000000613e-01 1.032000000000000001e-01 1.026839999999999975e+02 1.387430000000000064e+03
7.000000000000000146e-03 6.193689999999999474e-01 3.430899999999997840e-02 1.025345000000000084e+02 1.387394999999999982e+03
8.000000000000000167e-03 6.193205000000000515e-01 -4.462349999999998262e-02 1.023305000000000007e+02 1.387340000000000146e+03
9.000000000000001055e-03 6.192394999999999428e-01 -1.787839999999999985e-01 1.020254999999999939e+02 1.387264999999999873e+03
1.000000000000000194e-02 6.191085000000000615e-01 -3.955750000000000099e-01 1.015730000000000075e+02 1.387150000000000091e+03
1.099999999999999936e-02 6.189225000000000421e-01 -6.987200000000001188e-01 1.009445000000000050e+02 1.386974999999999909e+03
1.200000000000000025e-02 6.186719999999999997e-01 -1.094494999999999996e+00 1.001083500000000015e+02 1.386744999999999891e+03
1.300000000000000114e-02 6.183469999999999800e-01 -1.585049999999999848e+00 9.903645000000000209e+01 1.386444999999999936e+03
1.400000000000000203e-02 6.179554999999999909e-01 -2.143435000000000201e+00 9.773349999999999227e+01 1.386069999999999936e+03
1.499999999999999944e-02 6.175254999999999495e-01 -2.705414999999999903e+00 9.625335000000001173e+01 1.385630000000000109e+03
1.600000000000000033e-02 6.170979999999999244e-01 -3.187390000000000168e+00 9.468979999999999109e+01 1.385150000000000091e+03
1.700000000000000122e-02 6.167054999999999065e-01 -3.514909999999999979e+00 9.314594999999999914e+01 1.384664999999999964e+03
1.800000000000000211e-02 6.163674999999999571e-01 -3.643945000000000434e+00 9.170349999999999113e+01 1.384179999999999836e+03
1.900000000000000300e-02 6.160829999999999362e-01 -3.567705499999999752e+00 9.040505000000000280e+01 1.383724999999999909e+03
2.000000000000000042e-02 6.158360000000000500e-01 -3.311208500000000221e+00 8.925114999999999554e+01 1.383299999999999955e+03
2.100000000000000130e-02 6.156049999999999578e-01 -2.918912999999999869e+00 8.820884999999999820e+01 1.382889999999999873e+03
2.200000000000000219e-02 6.153664999999999274e-01 -2.440463999999999967e+00 8.722624999999999318e+01 1.382500000000000000e+03
2.299999999999999961e-02 6.151044999999999430e-01 -1.918175000000000185e+00 8.625010000000000332e+01 1.382115000000000009e+03
2.400000000000000050e-02 6.148100000000000787e-01 -1.379040000000000266e+00 8.523910000000000764e+01 1.381715000000000146e+03
2.500000000000000139e-02 6.144849999999999479e-01 -8.327049999999998064e-01 8.417255000000000109e+01 1.381300000000000182e+03
2.600000000000000228e-02 6.141364999999999741e-01 -2.753399999999999181e-01 8.305060000000000286e+01 1.380875000000000000e+03
2.700000000000000316e-02 6.137770000000000170e-01 3.026550000000001184e-01 8.188810000000000855e+01 1.380434999999999945e+03
2.800000000000000058e-02 6.134135000000000559e-01 9.081399999999999473e-01 8.070490000000000919e+01 1.379990000000000009e+03
2.900000000000000147e-02 6.130504999999999427e-01 1.538610000000000033e+00 7.951605000000000700e+01 1.379539999999999964e+03
3.000000000000000236e-02 6.126860000000000639e-01 2.179069999999999840e+00 7.832455000000000211e+01 1.379090000000000146e+03
3.099999999999999978e-02 6.123110000000000497e-01 2.802620000000000111e+00 7.711869999999998981e+01 1.378630000000000109e+03
3.200000000000000067e-02 6.119140000000000690e-01 3.374065000000000314e+00 7.587309999999999377e+01 1.378164999999999964e+03
3.300000000000000155e-02 6.114820000000000810e-01 3.855554999999999843e+00 7.455379999999999541e+01 1.377675000000000182e+03
3.400000000000000244e-02 6.110029999999999628e-01 4.212994999999999379e+00 7.312539999999999907e+01 1.377160000000000082e+03
3.500000000000000333e-02 6.104709999999999859e-01 4.421689999999999898e+00 7.155910000000000082e+01 1.376610000000000127e+03
3.600000000000000422e-02 6.098844999999999406e-01 4.470749999999999780e+00 6.983995000000000175e+01 1.376014999999999873e+03
3.700000000000000511e-02 6.092509999999999870e-01 4.364949999999999442e+00 6.797169999999999845e+01 1.375384999999999991e+03
3.799999999999999906e-02 6.085830000000000961e-01 4.124019999999999797e+00 6.597905000000000086e+01 1.374714999999999918e+03
3.899999999999999994e-02 6.078989999999999672e-01 3.779650000000000176e+00 6.390555000000000518e+01 1.374014999999999873e+03
4.000000000000000083e-02 6.072204999999999409e-01 3.371165000000000411e+00 6.180980000000000274e+01 1.373315000000000055e+03
4.100000000000000172e-02 6.065694999999999837e-01 2.940494999999999859e+00 5.975905000000000200e+01 1.372619999999999891e+03
4.200000000000000261e-02 6.059665000000000745e-01 2.527925000000000200e+00 5.782264999999999588e+01 1.371950000000000045e+03
4.300000000000000350e-02 6.054289999999999949e-01 2.168749999999999734e+00 5.606620000000000203e+01 1.371329999999999927e+03
4.400000000000000439e-02 6.049714999999999954e-01 1.891359999999999708e+00 5.454659999999999798e+01 1.370780000000000200e+03
4.499999999999999833e-02 6.046040000000000303e-01 1.716635000000000133e+00 5.330920000000000414e+01 1.370315000000000055e+03
4.599999999999999922e-02 6.043324999999999392e-01 1.658459999999999823e+00 5.238649999999999807e+01 1.369940000000000055e+03
4.700000000000000011e-02 6.041609999999999481e-01 1.724924999999999820e+00 5.179850000000000421e+01 1.369664999999999964e+03
4.800000000000000100e-02 6.040890000000000981e-01 1.919840999999999909e+00 5.155379999999999541e+01 1.369505000000000109e+03
4.900000000000000189e-02 6.041159999999999863e-01 2.244200000000000195e+00 5.165174999999999983e+01 1.369454999999999927e+03
5.000000000000000278e-02 6.042380000000000528e-01 2.697270000000000056e+00 5.208474999999999966e+01 1.369514999999999873e+03
5.100000000000000366e-02 6.044540000000000468e-01 3.277243499999999976e+00 5.284009999999999962e+01 1.369679999999999836e+03
5.200000000000000455e-02 6.047569999999999890e-01 3.981341500000000089e+00 5.390129999999999910e+01 1.369954999999999927e+03
5.300000000000000544e-02 6.051440000000000152e-01 4.805526000000000408e+00 5.524920000000000186e+01 1.370329999999999927e+03
5.399999999999999939e-02 6.056079999999999242e-01 5.743970000000000020e+00 5.686214999999999975e+01 1.370795000000000073e+03
5.500000000000000028e-02 6.061425000000000285e-01 6.788467999999999947e+00 5.871595000000000653e+01 1.371349999999999909e+03
5.600000000000000117e-02 6.067394999999999872e-01 7.928289499999999990e+00 6.078385000000000105e+01 1.371985000000000127e+03
5.700000000000000205e-02 6.073899999999999855e-01 9.149699999999999278e+00 6.303654999999999831e+01 1.372684999999999945e+03
5.800000000000000294e-02 6.080845000000000278e-01 1.043663999999999881e+01 6.544244999999999379e+01 1.373445000000000164e+03
5.900000000000000383e-02 6.088135000000000074e-01 1.177088499999999982e+01 6.796800000000000352e+01 1.374259999999999991e+03
6.000000000000000472e-02 6.095649999999999125e-01 1.313315499999999858e+01 7.057880000000000109e+01 1.375109999999999900e+03
6.099999999999999867e-02 6.103300000000000392e-01 1.450391499999999922e+01 7.324074999999999136e+01 1.375985000000000127e+03
6.199999999999999956e-02 6.110984999999999889e-01 1.586415000000000042e+01 7.592079999999999984e+01 1.376884999999999991e+03
6.300000000000000044e-02 6.118624999999999758e-01 1.719641500000000178e+01 7.858879999999999200e+01 1.377784999999999854e+03
6.400000000000000133e-02 6.126139999999999919e-01 1.848559999999999803e+01 8.121819999999999595e+01 1.378684999999999945e+03
6.500000000000000222e-02 6.133480000000000043e-01 1.971904999999999930e+01 8.378695000000000448e+01 1.379575000000000045e+03
6.600000000000000311e-02 6.140594999999999803e-01 2.088725000000000165e+01 8.627809999999999491e+01 1.380454999999999927e+03
6.700000000000000400e-02 6.147475000000000023e-01 2.198360000000000269e+01 8.868004999999999427e+01 1.381305000000000064e+03
6.800000000000000488e-02 6.154094999999999427e-01 2.300435000000000230e+01 9.098654999999999404e+01 1.382134999999999991e+03
6.900000000000000577e-02 6.160470000000000113e-01 2.394839999999999947e+01 9.319599999999999795e+01 1.382929999999999836e+03
7.000000000000000666e-02 6.166599999999999859e-01 2.481680000000000064e+01 9.531104999999999450e+01 1.383704999999999927e+03
7.100000000000000755e-02 6.172520000000000229e-01 2.561240000000000094e+01 9.733865000000000123e+01 1.384454999999999927e+03
7.200000000000000844e-02 6.178239999999999288e-01 2.633924999999999983e+01 9.928655000000000541e+01 1.385175000000000182e+03
7.300000000000000933e-02 6.183804999999999996e-01 2.700240000000000151e+01 1.011655499999999961e+02 1.385875000000000000e+03
7.399999999999999634e-02 6.189234999999999598e-01 2.760719999999999885e+01 1.029869999999999948e+02 1.386559999999999945e+03
7.499999999999999722e-02 6.194569999999999244e-01 2.815899999999999892e+01 1.047620000000000005e+02 1.387224999999999909e+03
7.599999999999999811e-02 6.199820000000000331e-01 2.866290000000000049e+01 1.064995000000000118e+02 1.387875000000000000e+03
7.699999999999999900e-02 6.205015000000000391e-01 2.912335000000000207e+01 1.082094999999999914e+02 1.388514999999999873e+03
7.799999999999999989e-02 6.210164999999999713e-01 2.954390000000000072e+01 1.098965000000000032e+02 1.389144999999999982e+03
7.900000000000000078e-02 6.215269999999999406e-01 2.992714999999999748e+01 1.115649999999999977e+02 1.389769999999999982e+03
8.000000000000000167e-02 6.220335000000000170e-01 3.027445000000000164e+01 1.132154999999999916e+02 1.390384999999999991e+03
8.100000000000000255e-02 6.225344999999999906e-01 3.058605000000000018e+01 1.148454999999999870e+02 1.390990000000000009e+03
8.200000000000000344e-02 6.230279999999999152e-01 3.086120000000000019e+01 1.164514999999999958e+02 1.391590000000000146e+03
8.300000000000000433e-02 6.235114999999999963e-01 3.109779999999999944e+01 1.180244999999999891e+02 1.392179999999999836e+03
8.400000000000000522e-02 6.239824999999999955e-01 3.129325000000000045e+01 1.195570000000000022e+02 1.392750000000000000e+03
8.500000000000000611e-02 6.244374999999999787e-01 3.144424999999999670e+01 1.210360000000000014e+02 1.393309999999999945e+03
8.600000000000000699e-02 6.248724999999999419e-01 3.154700000000000415e+01 1.224509999999999934e+02 1.393844999999999800e+03
8.700000000000000788e-02 6.252834999999999921e-01 3.159785000000000110e+01 1.237884999999999991e+02 1.394355000000000018e+03
8.800000000000000877e-02 6.256675000000000431e-01 3.159299999999999997e+01 1.250370000000000061e+02 1.394840000000000146e+03
8.899999999999999578e-02 6.260215000000000085e-01 3.152929999999999922e+01 1.261850000000000023e+02 1.395289999999999964e+03
8.999999999999999667e-02 6.263419999999999543e-01 3.140405000000000157e+01 1.272210000000000036e+02 1.395704999999999927e+03
9.099999999999999756e-02 6.266264999999999752e-01 3.121540000000000248e+01 1.281370000000000005e+02 1.396075000000000045e+03
9.199999999999999845e-02 6.268739999999999313e-01 3.096235000000000070e+01 1.289265000000000043e+02 1.396405000000000200e+03
9.299999999999999933e-02 6.270824999999999871e-01 3.064489999999999981e+01 1.295850000000000080e+02 1.396690000000000055e+03
9.400000000000000022e-02 6.272524999999999906e-01 3.026420000000000243e+01 1.301100000000000136e+02 1.396929999999999836e+03
9.500000000000000111e-02 6.273834999999999829e-01 2.982235000000000014e+01 1.305024999999999977e+02 1.397119999999999891e+03
9.600000000000000200e-02 6.274764999999999926e-01 2.932260000000000133e+01 1.307650000000000148e+02 1.397269999999999982e+03
9.700000000000000289e-02 6.275340000000000362e-01 2.876895000000000380e+01 1.309014999999999986e+02 1.397369999999999891e+03
9.800000000000000377e-02 6.275565000000000726e-01 2.816660000000000252e+01 1.309209999999999923e+02 1.397429999999999836e+03
9.900000000000000466e-02 6.275474999999999248e-01 2.752120000000000033e+01 1.308299999999999841e+02 1.397450000000000045e+03
1.000000000000000056e-01 6.275100000000000122e-01 2.683924999999999983e+01 1.306405000000000030e+02 1.397424999999999955e+03
1.010000000000000064e-01 6.274470000000000880e-01 2.612760000000000105e+01 1.303634999999999877e+02 1.397375000000000000e+03
1.020000000000000073e-01 6.273619999999999752e-01 2.539339999999999975e+01 1.300120000000000005e+02 1.397295000000000073e+03
1.030000000000000082e-01 6.272594999999999699e-01 2.464399999999999835e+01 1.295980000000000132e+02 1.397184999999999945e+03
1.040000000000000091e-01 6.271424999999999361e-01 2.388664999999999949e+01 1.291360000000000241e+02 1.397054999999999836e+03
1.050000000000000100e-01 6.270145000000000302e-01 2.312834999999999752e+01 1.286370000000000005e+02 1.396904999999999973e+03
1.059999999999999970e-01 6.268795000000000339e-01 2.237575000000000003e+01 1.281150000000000091e+02 1.396744999999999891e+03
1.069999999999999979e-01 6.267399999999999638e-01 2.163490000000000180e+01 1.275815000000000055e+02 1.396575000000000045e+03
1.079999999999999988e-01 6.266000000000000458e-01 2.091089999999999804e+01 1.270459999999999923e+02 1.396394999999999982e+03
1.089999999999999997e-01 6.264605000000000867e-01 2.020820000000000149e+01 1.265185000000000173e+02 1.396220000000000027e+03
1.100000000000000006e-01 6.263250000000000206e-01 1.953020000000000067e+01 1.260064999999999884e+02 1.396039999999999964e+03
1.110000000000000014e-01 6.261944999999999872e-01 1.887920000000000087e+01 1.255159999999999911e+02 1.395869999999999891e+03
1.120000000000000023e-01 6.260695000000000565e-01 1.825629999999999953e+01 1.250500000000000114e+02 1.395700000000000045e+03
1.130000000000000032e-01 6.259510000000000352e-01 1.766169999999999973e+01 1.246119999999999948e+02 1.395539999999999964e+03
1.140000000000000041e-01 6.258384999999999643e-01 1.709444999999999837e+01 1.242010000000000076e+02 1.395384999999999991e+03
1.150000000000000050e-01 6.257319999999999549e-01 1.655259999999999820e+01 1.238164999999999907e+02 1.395240000000000009e+03
1.160000000000000059e-01 6.256304999999999783e-01 1.603344999999999843e+01 1.234559999999999889e+02 1.395099999999999909e+03
1.170000000000000068e-01 6.255330000000000057e-01 1.553359999999999985e+01 1.231150000000000091e+02 1.394965000000000146e+03
1.180000000000000077e-01 6.254374999999999796e-01 1.504905000000000115e+01 1.227879999999999967e+02 1.394840000000000146e+03
1.190000000000000085e-01 6.253425000000000233e-01 1.457560000000000144e+01 1.224699999999999989e+02 1.394714999999999918e+03
1.200000000000000094e-01 6.252469999999999972e-01 1.410879999999999868e+01 1.221554999999999893e+02 1.394590000000000146e+03
1.209999999999999964e-01 6.251489999999999547e-01 1.364434999999999931e+01 1.218379999999999939e+02 1.394470000000000027e+03
1.219999999999999973e-01 6.250469999999999082e-01 1.317816000000000187e+01 1.215105000000000075e+02 1.394345000000000027e+03
1.229999999999999982e-01 6.249390000000000223e-01 1.270644499999999866e+01 1.211694999999999993e+02 1.394220000000000027e+03
1.239999999999999991e-01 6.248249999999999638e-01 1.222598499999999966e+01 1.208094999999999999e+02 1.394090000000000146e+03
1.250000000000000000e-01 6.247039999999999260e-01 1.173416500000000084e+01 1.204279999999999973e+02 1.393949999999999818e+03
1.260000000000000009e-01 6.245749999999999913e-01 1.122912999999999961e+01 1.200215000000000032e+02 1.393809999999999945e+03
1.270000000000000018e-01 6.244385000000000074e-01 1.070983999999999980e+01 1.195889999999999986e+02 1.393654999999999973e+03
1.280000000000000027e-01 6.242939999999999046e-01 1.017596499999999970e+01 1.191315000000000026e+02 1.393494999999999891e+03
1.290000000000000036e-01 6.241434999999999622e-01 9.628194999999999837e+00 1.186500000000000057e+02 1.393329999999999927e+03
1.300000000000000044e-01 6.239870000000000694e-01 9.067865000000001174e+00 1.181475000000000080e+02 1.393154999999999973e+03
1.310000000000000053e-01 6.238259999999999916e-01 8.497199999999999420e+00 1.176285000000000025e+02 1.392974999999999909e+03
1.320000000000000062e-01 6.236629999999999674e-01 7.919005000000000294e+00 1.170974999999999966e+02 1.392795000000000073e+03
1.330000000000000071e-01 6.234990000000000254e-01 7.336834999999999773e+00 1.165604999999999905e+02 1.392605000000000018e+03
1.340000000000000080e-01 6.233360000000000012e-01 6.754680000000000462e+00 1.160244999999999891e+02 1.392420000000000073e+03
1.350000000000000089e-01 6.231770000000000920e-01 6.176879999999999704e+00 1.154964999999999975e+02 1.392235000000000127e+03
1.360000000000000098e-01 6.230229999999999935e-01 5.608060000000000045e+00 1.149844999999999970e+02 1.392059999999999945e+03
1.370000000000000107e-01 6.228780000000000427e-01 5.052940000000000431e+00 1.144954999999999927e+02 1.391884999999999991e+03
1.380000000000000115e-01 6.227424999999999766e-01 4.516164999999999985e+00 1.140370000000000061e+02 1.391715000000000146e+03
1.390000000000000124e-01 6.226190000000000335e-01 4.002200000000000202e+00 1.136165000000000020e+02 1.391565000000000055e+03
1.400000000000000133e-01 6.225100000000000078e-01 3.515149999999999775e+00 1.132394999999999925e+02 1.391420000000000073e+03
1.410000000000000142e-01 6.224149999999999405e-01 3.058655000000000346e+00 1.129110000000000014e+02 1.391295000000000073e+03
1.420000000000000151e-01 6.223374999999999879e-01 2.635780000000000012e+00 1.126355000000000075e+02 1.391184999999999945e+03
1.430000000000000160e-01 6.222764999999998992e-01 2.248909999999999965e+00 1.124164999999999992e+02 1.391095000000000027e+03
1.440000000000000169e-01 6.222324999999999662e-01 1.899691000000000018e+00 1.122554999999999978e+02 1.391019999999999982e+03
1.450000000000000178e-01 6.222060000000000368e-01 1.589002999999999943e+00 1.121530000000000058e+02 1.390964999999999918e+03
1.459999999999999909e-01 6.221965000000000412e-01 1.316945999999999950e+00 1.121075000000000017e+02 1.390934999999999945e+03
1.469999999999999918e-01 6.222035000000000204e-01 1.082848000000000033e+00 1.121169999999999902e+02 1.390914999999999964e+03
1.479999999999999927e-01 6.222244999999999582e-01 8.853400000000000158e-01 1.121784999999999997e+02 1.390920000000000073e+03
1.489999999999999936e-01 6.222600000000000353e-01 7.223869999999998903e-01 1.122870000000000061e+02 1.390940000000000055e+03
1.499999999999999944e-01 6.223064999999999847e-01 5.914057499999999523e-01 1.124364999999999952e+02 1.390970000000000027e+03
1.509999999999999953e-01 6.223625000000000407e-01 4.893579999999999597e-01 1.126219999999999999e+02 1.391019999999999982e+03
1.519999999999999962e-01 6.224275000000000224e-01 4.128549999999999720e-01 1.128359999999999985e+02 1.391075000000000045e+03
1.529999999999999971e-01 6.224979999999999958e-01 3.582825000000000037e-01 1.130715000000000003e+02 1.391150000000000091e+03
1.539999999999999980e-01 6.225720000000000143e-01 3.219069999999999987e-01 1.133215000000000003e+02 1.391224999999999909e+03
1.549999999999999989e-01 6.226480000000000903e-01 2.999755000000000060e-01 1.135799999999999983e+02 1.391300000000000182e+03
1.559999999999999998e-01 6.227240000000000553e-01 2.888380000000000392e-01 1.138395000000000010e+02 1.391384999999999991e+03
1.570000000000000007e-01 6.227979999999999627e-01 2.850095000000000267e-01 1.140939999999999941e+02 1.391465000000000146e+03
1.580000000000000016e-01 6.228694999999999649e-01 2.852539999999999520e-01 1.143379999999999939e+02 1.391545000000000073e+03
1.590000000000000024e-01 6.229355000000000864e-01 2.866485000000000283e-01 1.145670000000000073e+02 1.391619999999999891e+03
