# t [s], A [cm^2], U [cm/s], P [cPa], c [cm/s]
1.000000000000000021e-03 1.422765000000000002e-01 3.433110000000000328e-01 1.023490999999999929e+02 1.781355000000000018e+03
2.000000000000000042e-03 1.422499999999999876e-01 1.990531999999999968e+00 9.921739999999999782e+01 1.781099999999999909e+03
3.000000000000000062e-03 1.421494999999999842e-01 3.994884499999999505e+00 9.515985000000000582e+01 1.780184999999999945e+03
4.000000000000000083e-03 1.419969999999999843e-01 6.206637999999999877e+00 9.066284999999999172e+01 1.778824999999999818e+03
5.000000000000000104e-03 1.418210000000000026e-01 8.570259999999999323e+00 8.644134999999999991e+01 1.777264999999999873e+03
6.000000000000000125e-03 1.416394999999999738e-01 1.097534500000000079e+01 8.285540000000000305e+01 1.775679999999999836e+03
7.000000000000000146e-03 1.414644999999999930e-01 1.326244999999999941e+01 7.986314999999999031e+01 1.774154999999999973e+03
8.000000000000000167e-03 1.412990000000000079e-01 1.530912999999999968e+01 7.725164999999999793e+01 1.772740000000000009e+03
9.000000000000001055e-03 1.411450000000000204e-01 1.708930000000000149e+01 7.491310000000000002e+01 1.771444999999999936e+03
1.000000000000000194e-02 1.410069999999999935e-01 1.863065000000000282e+01 7.287550000000000239e+01 1.770295000000000073e+03
1.099999999999999936e-02 1.408860000000000112e-01 1.995504999999999995e+01 7.116485000000000127e+01 1.769299999999999955e+03
1.200000000000000025e-02 1.407820000000000182e-01 2.107300000000000040e+01 6.975544999999999618e+01 1.768450000000000045e+03
1.300000000000000114e-02 1.406950000000000145e-01 2.199515000000000242e+01 6.860219999999999629e+01 1.767740000000000009e+03
1.400000000000000203e-02 1.406215000000000104e-01 2.273134999999999906e+01 6.765434999999999377e+01 1.767154999999999973e+03
1.499999999999999944e-02 1.405605000000000049e-01 2.329110000000000014e+01 6.685370000000000346e+01 1.766675000000000182e+03
1.600000000000000033e-02 1.405089999999999950e-01 2.369910000000000139e+01 6.616500000000000625e+01 1.766275000000000091e+03
1.700000000000000122e-02 1.404670000000000085e-01 2.401095000000000113e+01 6.562655000000000882e+01 1.765950000000000045e+03
1.800000000000000211e-02 1.404360000000000053e-01 2.430975000000000108e+01 6.536684999999999945e+01 1.765730000000000018e+03
1.900000000000000300e-02 1.404215000000000046e-01 2.467994999999999806e+01 6.555695000000000050e+01 1.765625000000000000e+03
2.000000000000000042e-02 1.404265000000000096e-01 2.517439999999999856e+01 6.632339999999999236e+01 1.765680000000000064e+03
2.100000000000000130e-02 1.404529999999999945e-01 2.579269999999999996e+01 6.767230000000000700e+01 1.765905000000000200e+03
2.200000000000000219e-02 1.404989999999999850e-01 2.648084999999999667e+01 6.946344999999999459e+01 1.766289999999999964e+03
2.299999999999999961e-02 1.405585000000000029e-01 2.714965000000000117e+01 7.144180000000000064e+01 1.766789999999999964e+03
2.400000000000000050e-02 1.406244999999999856e-01 2.770284999999999798e+01 7.330750000000000455e+01 1.767335000000000036e+03
2.500000000000000139e-02 1.406864999999999921e-01 2.806385000000000218e+01 7.479619999999999891e+01 1.767869999999999891e+03
2.600000000000000228e-02 1.407390000000000030e-01 2.819404999999999717e+01 7.574174999999999613e+01 1.768320000000000164e+03
2.700000000000000316e-02 1.407765000000000266e-01 2.809769999999999968e+01 7.610569999999999879e+01 1.768650000000000091e+03
2.800000000000000058e-02 1.407980000000000065e-01 2.781484999999999985e+01 7.596854999999999336e+01 1.768845000000000027e+03
2.900000000000000147e-02 1.408055000000000001e-01 2.740514999999999901e+01 7.549014999999999986e+01 1.768920000000000073e+03
3.000000000000000236e-02 1.408019999999999827e-01 2.692949999999999733e+01 7.485495000000000232e+01 1.768910000000000082e+03
3.099999999999999978e-02 1.407930000000000015e-01 2.643449999999999989e+01 7.422010000000000218e+01 1.768845000000000027e+03
3.200000000000000067e-02 1.407815000000000039e-01 2.594400000000000261e+01 7.368045000000000755e+01 1.768755000000000109e+03
3.300000000000000155e-02 1.407700000000000062e-01 2.545899999999999963e+01 7.325769999999999982e+01 1.768664999999999964e+03
3.400000000000000244e-02 1.407594999999999819e-01 2.496395000000000053e+01 7.291219999999999857e+01 1.768579999999999927e+03
3.500000000000000333e-02 1.407479999999999842e-01 2.443684999999999974e+01 7.256995000000000573e+01 1.768490000000000009e+03
3.600000000000000422e-02 1.407349999999999990e-01 2.386029999999999873e+01 7.215545000000000186e+01 1.768389999999999873e+03
3.700000000000000511e-02 1.407185000000000241e-01 2.323015000000000185e+01 7.162144999999999584e+01 1.768255000000000109e+03
3.799999999999999906e-02 1.406985000000000041e-01 2.256024999999999991e+01 7.096850000000000591e+01 1.768095000000000027e+03
3.899999999999999994e-02 1.406749999999999945e-01 2.188190000000000168e+01 7.024995000000001255e+01 1.767904999999999973e+03
4.000000000000000083e-02 1.406499999999999972e-01 2.123900000000000077e+01 6.956274999999999409e+01 1.767704999999999927e+03
4.100000000000000172e-02 1.406270000000000020e-01 2.067965000000000231e+01 6.902639999999999532e+01 1.767514999999999873e+03
4.200000000000000261e-02 1.406100000000000128e-01 2.024634999999999962e+01 6.875620000000000687e+01 1.767365000000000009e+03
4.300000000000000350e-02 1.406010000000000038e-01 1.996730000000000160e+01 6.883664999999999168e+01 1.767295000000000073e+03
4.400000000000000439e-02 1.406044999999999934e-01 1.985074999999999790e+01 6.930180000000000007e+01 1.767309999999999945e+03
4.499999999999999833e-02 1.406199999999999950e-01 1.988275000000000148e+01 7.012635000000000218e+01 1.767425000000000182e+03
4.599999999999999922e-02 1.406465000000000076e-01 2.002969999999999828e+01 7.122854999999999848e+01 1.767639999999999873e+03
4.700000000000000011e-02 1.406824999999999881e-01 2.024300000000000210e+01 7.248300000000000409e+01 1.767924999999999955e+03
4.800000000000000100e-02 1.407235000000000014e-01 2.046645000000000181e+01 7.374009999999999820e+01 1.768255000000000109e+03
4.900000000000000189e-02 1.407649999999999735e-01 2.064355000000000118e+01 7.484759999999999991e+01 1.768599999999999909e+03
5.000000000000000278e-02 1.408024999999999971e-01 2.072384999999999877e+01 7.567064999999999486e+01 1.768904999999999973e+03
5.100000000000000366e-02 1.408314999999999984e-01 2.066805000000000092e+01 7.610649999999999693e+01 1.769144999999999982e+03
5.200000000000000455e-02 1.408484999999999876e-01 2.045020000000000238e+01 7.609305000000000518e+01 1.769289999999999964e+03
5.300000000000000544e-02 1.408499999999999752e-01 2.005884999999999962e+01 7.561025000000000773e+01 1.769315000000000055e+03
5.399999999999999939e-02 1.408369999999999900e-01 1.949524999999999864e+01 7.467645000000000266e+01 1.769210000000000036e+03
5.500000000000000028e-02 1.408079999999999887e-01 1.877139999999999986e+01 7.334024999999999750e+01 1.768980000000000018e+03
5.600000000000000117e-02 1.407645000000000146e-01 1.790725000000000122e+01 7.167064999999999486e+01 1.768630000000000109e+03
5.700000000000000205e-02 1.407090000000000007e-01 1.692784999999999940e+01 6.974739999999999895e+01 1.768170000000000073e+03
5.800000000000000294e-02 1.406425000000000036e-01 1.586120000000000019e+01 6.765309999999999491e+01 1.767630000000000109e+03
5.900000000000000383e-02 1.405679999999999985e-01 1.473669999999999902e+01 6.546760000000000446e+01 1.767019999999999982e+03
6.000000000000000472e-02 1.404885000000000161e-01 1.358399999999999963e+01 6.326500000000000057e+01 1.766365000000000009e+03
6.099999999999999867e-02 1.404060000000000030e-01 1.243299999999999983e+01 6.111320000000000618e+01 1.765690000000000055e+03
6.199999999999999956e-02 1.403240000000000043e-01 1.131358999999999959e+01 5.907460000000000377e+01 1.765009999999999991e+03
6.300000000000000044e-02 1.402450000000000085e-01 1.025577999999999967e+01 5.720785000000000053e+01 1.764355000000000018e+03
6.400000000000000133e-02 1.401699999999999890e-01 9.289464999999999861e+00 5.556884999999999764e+01 1.763735000000000127e+03
6.500000000000000222e-02 1.401030000000000053e-01 8.444514999999999105e+00 5.421200000000000330e+01 1.763174999999999955e+03
6.600000000000000311e-02 1.400450000000000028e-01 7.749600000000000044e+00 5.318975000000000364e+01 1.762695000000000164e+03
6.700000000000000400e-02 1.399985000000000257e-01 7.231824999999999726e+00 5.255140000000000100e+01 1.762304999999999836e+03
6.800000000000000488e-02 1.399659999999999793e-01 6.915309999999999846e+00 5.234104999999999563e+01 1.762030000000000200e+03
6.900000000000000577e-02 1.399495000000000045e-01 6.820154999999999745e+00 5.259530000000000172e+01 1.761880000000000109e+03
7.000000000000000666e-02 1.399500000000000188e-01 6.961354999999999293e+00 5.334064999999999657e+01 1.761869999999999891e+03
7.100000000000000755e-02 1.399690000000000101e-01 7.347889999999999588e+00 5.459114999999999895e+01 1.762009999999999991e+03
7.200000000000000844e-02 1.400069999999999926e-01 7.982174999999999798e+00 5.634709999999999752e+01 1.762305000000000064e+03
7.300000000000000933e-02 1.400635000000000074e-01 8.859864999999999213e+00 5.859449999999999648e+01 1.762764999999999873e+03
7.399999999999999634e-02 1.401399999999999868e-01 9.970095000000000596e+00 6.130530000000000257e+01 1.763380000000000109e+03
7.499999999999999722e-02 1.402349999999999985e-01 1.129581500000000105e+01 6.443885000000000218e+01 1.764150000000000091e+03
7.599999999999999811e-02 1.403464999999999852e-01 1.281497999999999848e+01 6.794395000000000095e+01 1.765059999999999945e+03
7.699999999999999900e-02 1.404739999999999878e-01 1.450130000000000052e+01 7.176160000000000139e+01 1.766095000000000027e+03
7.799999999999999989e-02 1.406149999999999900e-01 1.632550000000000168e+01 7.582795000000000130e+01 1.767250000000000000e+03
7.900000000000000078e-02 1.407674999999999899e-01 1.825685000000000002e+01 8.007730000000000814e+01 1.768505000000000109e+03
8.000000000000000167e-02 1.409285000000000121e-01 2.026385000000000147e+01 8.444505000000000905e+01 1.769835000000000036e+03
8.100000000000000255e-02 1.410965000000000136e-01 2.231595000000000084e+01 8.887030000000000030e+01 1.771224999999999909e+03
8.200000000000000344e-02 1.412685000000000191e-01 2.438419999999999987e+01 9.329784999999999684e+01 1.772650000000000091e+03
8.300000000000000433e-02 1.414424999999999988e-01 2.644234999999999758e+01 9.768115000000000236e+01 1.774110000000000127e+03
8.400000000000000522e-02 1.416175000000000073e-01 2.846754999999999924e+01 1.019807500000000005e+02 1.775570000000000164e+03
8.500000000000000611e-02 1.417915000000000147e-01 3.044079999999999941e+01 1.061693999999999960e+02 1.777019999999999982e+03
8.600000000000000699e-02 1.419624999999999915e-01 3.234735000000000582e+01 1.102280000000000086e+02 1.778460000000000036e+03
8.700000000000000788e-02 1.421295000000000197e-01 3.417669999999999675e+01 1.141475000000000080e+02 1.779869999999999891e+03
8.800000000000000877e-02 1.422934999999999894e-01 3.592249999999999943e+01 1.179279999999999973e+02 1.781255000000000109e+03
8.899999999999999578e-02 1.424529999999999963e-01 3.758195000000000618e+01 1.215759999999999934e+02 1.782605000000000018e+03
8.999999999999999667e-02 1.426080000000000125e-01 3.915574999999999761e+01 1.251050000000000040e+02 1.783920000000000073e+03
9.099999999999999756e-02 1.427589999999999970e-01 4.064690000000000225e+01 1.285305000000000177e+02 1.785200000000000045e+03
9.199999999999999845e-02 1.429064999999999919e-01 4.206025000000000347e+01 1.318720000000000141e+02 1.786454999999999927e+03
9.299999999999999933e-02 1.430504999999999971e-01 4.340165000000000362e+01 1.351469999999999914e+02 1.787684999999999945e+03
9.400000000000000022e-02 1.431919999999999860e-01 4.467725000000000080e+01 1.383720000000000141e+02 1.788894999999999982e+03
9.500000000000000111e-02 1.433320000000000149e-01 4.589270000000000493e+01 1.415604999999999905e+02 1.790090000000000146e+03
9.600000000000000200e-02 1.434694999999999998e-01 4.705275000000000318e+01 1.447214999999999918e+02 1.791264999999999873e+03
9.700000000000000289e-02 1.436060000000000114e-01 4.816084999999999638e+01 1.478584999999999923e+02 1.792429999999999836e+03
9.800000000000000377e-02 1.437410000000000077e-01 4.921869999999999834e+01 1.509694999999999823e+02 1.793590000000000146e+03
9.900000000000000466e-02 1.438745000000000163e-01 5.022615000000000407e+01 1.540494999999999948e+02 1.794735000000000127e+03
1.000000000000000056e-01 1.440069999999999961e-01 5.118144999999999811e+01 1.570850000000000080e+02 1.795869999999999891e+03
1.010000000000000064e-01 1.441370000000000151e-01 5.208105000000000473e+01 1.600625000000000000e+02 1.796990000000000009e+03
1.020000000000000073e-01 1.442650000000000043e-01 5.292000000000000171e+01 1.629625000000000057e+02 1.798090000000000146e+03
1.030000000000000082e-01 1.443895000000000040e-01 5.369230000000000302e+01 1.657640000000000100e+02 1.799164999999999964e+03
1.040000000000000091e-01 1.445110000000000006e-01 5.439104999999999990e+01 1.684454999999999814e+02 1.800204999999999927e+03
1.050000000000000100e-01 1.446270000000000056e-01 5.500905000000000200e+01 1.709850000000000136e+02 1.801210000000000036e+03
1.059999999999999970e-01 1.447380000000000055e-01 5.553894999999999982e+01 1.733605000000000018e+02 1.802170000000000073e+03
1.069999999999999979e-01 1.448424999999999851e-01 5.597374999999999545e+01 1.755529999999999973e+02 1.803079999999999927e+03
1.079999999999999988e-01 1.449404999999999999e-01 5.630724999999999625e+01 1.775439999999999827e+02 1.803929999999999836e+03
1.089999999999999997e-01 1.450305000000000066e-01 5.653400000000000603e+01 1.793199999999999932e+02 1.804710000000000036e+03
1.100000000000000006e-01 1.451125000000000054e-01 5.664990000000000236e+01 1.808689999999999998e+02 1.805420000000000073e+03
1.110000000000000014e-01 1.451850000000000085e-01 5.665224999999999511e+01 1.821829999999999927e+02 1.806059999999999945e+03
1.120000000000000023e-01 1.452490000000000170e-01 5.653985000000000127e+01 1.832590000000000146e+02 1.806619999999999891e+03
1.130000000000000032e-01 1.453035000000000021e-01 5.631345000000000312e+01 1.840964999999999918e+02 1.807099999999999909e+03
1.140000000000000041e-01 1.453480000000000050e-01 5.597525000000000261e+01 1.846995000000000005e+02 1.807494999999999891e+03
1.150000000000000050e-01 1.453840000000000132e-01 5.552944999999999709e+01 1.850765000000000100e+02 1.807815000000000055e+03
1.160000000000000059e-01 1.454100000000000115e-01 5.498190000000000310e+01 1.852379999999999995e+02 1.808055000000000064e+03
1.170000000000000068e-01 1.454280000000000017e-01 5.434004999999999797e+01 1.851999999999999886e+02 1.808210000000000036e+03
1.180000000000000077e-01 1.454370000000000107e-01 5.361290000000000333e+01 1.849789999999999850e+02 1.808300000000000182e+03
1.190000000000000085e-01 1.454389999999999850e-01 5.281045000000000300e+01 1.845954999999999870e+02 1.808324999999999818e+03
1.200000000000000094e-01 1.454330000000000067e-01 5.194369999999999976e+01 1.840720000000000027e+02 1.808285000000000082e+03
1.209999999999999964e-01 1.454214999999999813e-01 5.102445000000000164e+01 1.834300000000000068e+02 1.808190000000000055e+03
1.219999999999999973e-01 1.454039999999999777e-01 5.006445000000000078e+01 1.826935000000000002e+02 1.808045000000000073e+03
1.229999999999999982e-01 1.453820000000000112e-01 4.907564999999999600e+01 1.818849999999999909e+02 1.807865000000000009e+03
1.239999999999999991e-01 1.453564999999999996e-01 4.806965000000000288e+01 1.810264999999999986e+02 1.807650000000000091e+03
1.250000000000000000e-01 1.453280000000000127e-01 4.705710000000000548e+01 1.801370000000000005e+02 1.807404999999999973e+03
1.260000000000000009e-01 1.452970000000000095e-01 4.604784999999999684e+01 1.792350000000000136e+02 1.807144999999999982e+03
1.270000000000000018e-01 1.452650000000000052e-01 4.505055000000000121e+01 1.783354999999999961e+02 1.806869999999999891e+03
1.280000000000000027e-01 1.452320000000000000e-01 4.407229999999999848e+01 1.774505000000000052e+02 1.806585000000000036e+03
1.290000000000000036e-01 1.451989999999999947e-01 4.311880000000000024e+01 1.765879999999999939e+02 1.806299999999999955e+03
1.300000000000000044e-01 1.451655000000000029e-01 4.219400000000000261e+01 1.757535000000000025e+02 1.806009999999999991e+03
1.310000000000000053e-01 1.451330000000000120e-01 4.130034999999999457e+01 1.749505000000000052e+02 1.805730000000000018e+03
1.320000000000000062e-01 1.451004999999999934e-01 4.043850000000000477e+01 1.741775000000000091e+02 1.805450000000000045e+03
1.330000000000000071e-01 1.450690000000000035e-01 3.960795000000000243e+01 1.734295000000000186e+02 1.805174999999999955e+03
1.340000000000000080e-01 1.450380000000000003e-01 3.880649999999999977e+01 1.727019999999999982e+02 1.804904999999999973e+03
1.350000000000000089e-01 1.450079999999999980e-01 3.803095000000000425e+01 1.719859999999999900e+02 1.804644999999999982e+03
1.360000000000000098e-01 1.449774999999999814e-01 3.727710000000000434e+01 1.712710000000000150e+02 1.804380000000000109e+03
1.370000000000000107e-01 1.449475000000000069e-01 3.653999999999999915e+01 1.705475000000000136e+02 1.804119999999999891e+03
1.380000000000000115e-01 1.449170000000000180e-01 3.581430000000000291e+01 1.698034999999999854e+02 1.803849999999999909e+03
1.390000000000000124e-01 1.448855000000000004e-01 3.509429999999999694e+01 1.690275000000000034e+02 1.803579999999999927e+03
1.400000000000000133e-01 1.448524999999999952e-01 3.437449999999999761e+01 1.682090000000000032e+02 1.803295000000000073e+03
1.410000000000000142e-01 1.448185000000000167e-01 3.364950000000000330e+01 1.673375000000000057e+02 1.803000000000000000e+03
1.420000000000000151e-01 1.447824999999999807e-01 3.291449999999999676e+01 1.664050000000000011e+02 1.802690000000000055e+03
1.430000000000000160e-01 1.447439999999999838e-01 3.216544999999999987e+01 1.654050000000000011e+02 1.802360000000000127e+03
1.440000000000000169e-01 1.447039999999999993e-01 3.139905000000000257e+01 1.643340000000000032e+02 1.802009999999999991e+03
1.450000000000000178e-01 1.446600000000000108e-01 3.061319999999999908e+01 1.631875000000000000e+02 1.801634999999999991e+03
1.459999999999999909e-01 1.446139999999999926e-01 2.980675000000000097e+01 1.619669999999999845e+02 1.801240000000000009e+03
1.469999999999999918e-01 1.445649999999999991e-01 2.897979999999999734e+01 1.606754999999999995e+02 1.800820000000000164e+03
1.479999999999999927e-01 1.445134999999999892e-01 2.813374999999999915e+01 1.593179999999999836e+02 1.800380000000000109e+03
1.489999999999999936e-01 1.444590000000000041e-01 2.727110000000000056e+01 1.579019999999999868e+02 1.799909999999999854e+03
1.499999999999999944e-01 1.444020000000000026e-01 2.639545000000000030e+01 1.564379999999999882e+02 1.799424999999999955e+03
1.509999999999999953e-01 1.443435000000000135e-01 2.551135000000000019e+01 1.549370000000000118e+02 1.798924999999999955e+03
1.519999999999999962e-01 1.442829999999999946e-01 2.462434999999999974e+01 1.534130000000000109e+02 1.798404999999999973e+03
1.529999999999999971e-01 1.442215000000000025e-01 2.374064999999999870e+01 1.518790000000000191e+02 1.797880000000000109e+03
1.539999999999999980e-01 1.441594999999999960e-01 2.286684999999999945e+01 1.503520000000000039e+02 1.797355000000000018e+03
1.549999999999999989e-01 1.440974999999999895e-01 2.200970000000000226e+01 1.488469999999999800e+02 1.796820000000000164e+03
1.559999999999999998e-01 1.440354999999999830e-01 2.117620000000000147e+01 1.473774999999999977e+02 1.796289999999999964e+03
1.570000000000000007e-01 1.439745000000000053e-01 2.037294999999999945e+01 1.459585000000000150e+02 1.795769999999999982e+03
1.580000000000000016e-01 1.439154999999999740e-01 1.960614999999999952e+01 1.446034999999999968e+02 1.795264999999999873e+03
1.590000000000000024e-01 1.438585000000000003e-01 1.888134999999999764e+01 1.433224999999999909e+02 1.794779999999999973e+03
