# t [s], A [cm^2], U [cm/s], P [cPa], c [cm/s]
1.000000000000000021e-03 7.927885000000000071e-01 7.970999999999998920e-03 1.058505000000000109e+02 1.771329999999999927e+03
2.000000000000000042e-03 7.927739999999999787e-01 -1.456150000000000239e-03 1.058100000000000023e+02 1.771320000000000164e+03
3.000000000000000062e-03 7.928564999999999641e-01 1.317975000000000119e-01 1.059685000000000059e+02 1.771360000000000127e+03
4.000000000000000083e-03 7.929005000000000081e-01 2.276325500000000168e-01 1.060809999999999889e+02 1.771380000000000109e+03
5.000000000000000104e-03 7.928180000000000227e-01 1.398475000000000135e-01 1.058804999999999978e+02 1.771335000000000036e+03
6.000000000000000125e-03 7.927200000000000912e-01 1.706099999999999284e-02 1.055235000000000127e+02 1.771259999999999991e+03
7.000000000000000146e-03 7.926225000000000076e-01 -1.200950000000000628e-01 1.050829999999999984e+02 1.771160000000000082e+03
8.000000000000000167e-03 7.924350000000000005e-01 -4.209600000000000009e-01 1.043605000000000018e+02 1.771005000000000109e+03
9.000000000000001055e-03 7.921610000000000040e-01 -8.844049999999999967e-01 1.033010000000000019e+02 1.770769999999999982e+03
1.000000000000000194e-02 7.917859999999999898e-01 -1.519219999999999793e+00 1.018412000000000006e+02 1.770450000000000045e+03
1.099999999999999936e-02 7.912695000000000700e-01 -2.368375000000000341e+00 9.985824999999999818e+01 1.770009999999999991e+03
1.200000000000000025e-02 7.906469999999999887e-01 -3.345594999999999430e+00 9.739639999999999986e+01 1.769445000000000164e+03
1.300000000000000114e-02 7.900439999999999685e-01 -4.208717000000000041e+00 9.476590000000000202e+01 1.768829999999999927e+03
1.400000000000000203e-02 7.895820000000000061e-01 -4.712132000000000431e+00 9.236500000000000909e+01 1.768230000000000018e+03
1.499999999999999944e-02 7.892964999999999565e-01 -4.748075000000000045e+00 9.044380000000001019e+01 1.767720000000000027e+03
1.600000000000000033e-02 7.891354999999999897e-01 -4.373509999999999565e+00 8.900865000000000293e+01 1.767295000000000073e+03
1.700000000000000122e-02 7.889984999999999360e-01 -3.751870000000000260e+00 8.786055000000000348e+01 1.766934999999999945e+03
1.800000000000000211e-02 7.887910000000000199e-01 -3.065535000000000121e+00 8.671539999999998827e+01 1.766585000000000036e+03
1.900000000000000300e-02 7.884605000000000086e-01 -2.438298500000000146e+00 8.533740000000000236e+01 1.766184999999999945e+03
2.000000000000000042e-02 7.880150000000000210e-01 -1.895059999999999967e+00 8.363384999999999536e+01 1.765720000000000027e+03
2.100000000000000130e-02 7.875069999999999570e-01 -1.373804999999999943e+00 8.167284999999999684e+01 1.765195000000000164e+03
2.200000000000000219e-02 7.870055000000000245e-01 -7.792050000000001475e-01 7.962189999999999657e+01 1.764650000000000091e+03
2.299999999999999961e-02 7.865564999999999918e-01 -4.504500000000000171e-02 7.764990000000000236e+01 1.764115000000000009e+03
2.400000000000000050e-02 7.861659999999999204e-01 8.248150000000000759e-01 7.584314999999999429e+01 1.763605000000000018e+03
2.500000000000000139e-02 7.857989999999999142e-01 1.748115000000000085e+00 7.416454999999999131e+01 1.763125000000000000e+03
2.600000000000000228e-02 7.853915000000000202e-01 2.583909999999999929e+00 7.246105000000000018e+01 1.762644999999999982e+03
2.700000000000000316e-02 7.848740000000000716e-01 3.170854999999999535e+00 7.050915000000000532e+01 1.762119999999999891e+03
2.800000000000000058e-02 7.841905000000000125e-01 3.373515000000000263e+00 6.808660000000000423e+01 1.761500000000000000e+03
2.900000000000000147e-02 7.833235000000000614e-01 3.124025000000000496e+00 6.504945000000000732e+01 1.760750000000000000e+03
3.000000000000000236e-02 7.822975000000000900e-01 2.444135000000000169e+00 6.138770000000000238e+01 1.759865000000000009e+03
3.099999999999999978e-02 7.811774999999999691e-01 1.437540000000000262e+00 5.723830000000000240e+01 1.758865000000000009e+03
3.200000000000000067e-02 7.800464999999999760e-01 2.579000000000002402e-01 5.285119999999999862e+01 1.757800000000000182e+03
3.300000000000000155e-02 7.789885000000000836e-01 -9.321000000000001506e-01 4.852895000000000181e+01 1.756730000000000018e+03
3.400000000000000244e-02 7.780690000000000106e-01 -1.994005000000000027e+00 4.456440000000000623e+01 1.755724999999999909e+03
3.500000000000000333e-02 7.773295000000000066e-01 -2.832134999999999625e+00 4.119389999999999930e+01 1.754840000000000146e+03
3.600000000000000422e-02 7.767884999999999929e-01 -3.397315000000000307e+00 3.857240000000000180e+01 1.754119999999999891e+03
3.700000000000000511e-02 7.764444999999999819e-01 -3.679380500000000165e+00 3.676990000000000691e+01 1.753579999999999927e+03
3.799999999999999906e-02 7.762819999999999165e-01 -3.693869999999999987e+00 3.578405000000000058e+01 1.753244999999999891e+03
3.899999999999999994e-02 7.762819999999999165e-01 -3.466540000000000177e+00 3.556390000000000384e+01 1.753095000000000027e+03
4.000000000000000083e-02 7.764275000000000482e-01 -3.020353499999999691e+00 3.603569999999999851e+01 1.753125000000000000e+03
4.100000000000000172e-02 7.767024999999999624e-01 -2.368164999999999853e+00 3.712559999999999860e+01 1.753320000000000164e+03
4.200000000000000261e-02 7.771010000000000417e-01 -1.512460000000000138e+00 3.877145000000000152e+01 1.753659999999999854e+03
4.300000000000000350e-02 7.776155000000000150e-01 -4.511549999999999727e-01 4.092360000000000042e+01 1.754139999999999873e+03
4.400000000000000439e-02 7.782390000000000141e-01 8.139149999999997220e-01 4.353739999999999810e+01 1.754735000000000127e+03
4.499999999999999833e-02 7.789604999999999446e-01 2.269514999999999727e+00 4.656225000000000591e+01 1.755444999999999936e+03
4.599999999999999922e-02 7.797610000000000374e-01 3.887059999999999516e+00 4.993330000000000268e+01 1.756244999999999891e+03
4.700000000000000011e-02 7.806170000000000053e-01 5.622984999999999900e+00 5.356759999999999877e+01 1.757125000000000000e+03
4.800000000000000100e-02 7.815015000000000711e-01 7.423026999999999376e+00 5.736700000000000443e+01 1.758054999999999836e+03
4.900000000000000189e-02 7.823875000000000135e-01 9.228509999999999991e+00 6.122499999999999432e+01 1.759014999999999873e+03
5.000000000000000278e-02 7.832494999999999319e-01 1.098318499999999887e+01 6.503690000000000282e+01 1.759974999999999909e+03
5.100000000000000366e-02 7.840679999999999872e-01 1.263903499999999980e+01 6.870994999999999209e+01 1.760914999999999964e+03
5.200000000000000455e-02 7.848295000000000687e-01 1.416026000000000096e+01 7.217170000000000130e+01 1.761825000000000045e+03
5.300000000000000544e-02 7.855265000000000164e-01 1.552475000000000094e+01 7.537440000000000850e+01 1.762670000000000073e+03
5.399999999999999939e-02 7.861590000000000522e-01 1.672330000000000183e+01 7.829680000000000462e+01 1.763460000000000036e+03
5.500000000000000028e-02 7.867314999999999170e-01 1.775789999999999935e+01 8.094129999999999825e+01 1.764184999999999945e+03
5.600000000000000117e-02 7.872525000000000217e-01 1.863879999999999981e+01 8.333029999999999404e+01 1.764845000000000027e+03
5.700000000000000205e-02 7.877309999999999590e-01 1.938219999999999743e+01 8.550084999999999980e+01 1.765454999999999927e+03
5.800000000000000294e-02 7.881804999999999506e-01 2.000795000000000101e+01 8.749965000000000259e+01 1.766014999999999873e+03
5.900000000000000383e-02 7.886109999999999509e-01 2.053815000000000168e+01 8.937819999999999254e+01 1.766545000000000073e+03
6.000000000000000472e-02 7.890349999999999309e-01 2.099540000000000006e+01 9.118864999999999554e+01 1.767055000000000064e+03
6.099999999999999867e-02 7.894619999999999971e-01 2.140140000000000242e+01 9.297989999999998645e+01 1.767549999999999955e+03
6.199999999999999956e-02 7.899009999999999643e-01 2.177555000000000263e+01 9.479359999999999786e+01 1.768045000000000073e+03
6.300000000000000044e-02 7.903569999999999762e-01 2.213295000000000101e+01 9.666065000000000396e+01 1.768550000000000182e+03
6.400000000000000133e-02 7.908325000000000493e-01 2.248345000000000127e+01 9.859829999999999472e+01 1.769070000000000164e+03
6.500000000000000222e-02 7.913255000000000150e-01 2.283034999999999926e+01 1.006086499999999972e+02 1.769605000000000018e+03
6.600000000000000311e-02 7.918315000000000214e-01 2.317050000000000054e+01 1.026769999999999925e+02 1.770155000000000200e+03
6.700000000000000400e-02 7.923409999999999620e-01 2.349470000000000169e+01 1.047754999999999939e+02 1.770710000000000036e+03
6.800000000000000488e-02 7.928435000000000343e-01 2.378940000000000055e+01 1.068640000000000043e+02 1.771264999999999873e+03
6.900000000000000577e-02 7.933265000000000455e-01 2.403810000000000002e+01 1.088935000000000031e+02 1.771804999999999836e+03
7.000000000000000666e-02 7.937784999999999425e-01 2.422350000000000136e+01 1.108135000000000048e+02 1.772320000000000164e+03
7.100000000000000755e-02 7.941880000000000051e-01 2.432905000000000229e+01 1.125739999999999981e+02 1.772804999999999836e+03
7.200000000000000844e-02 7.945455000000000156e-01 2.434065000000000012e+01 1.141299999999999955e+02 1.773235000000000127e+03
7.300000000000000933e-02 7.948439999999999950e-01 2.424755000000000038e+01 1.154445000000000050e+02 1.773614999999999782e+03
7.399999999999999634e-02 7.950774999999999926e-01 2.404325000000000045e+01 1.164915000000000020e+02 1.773925000000000182e+03
7.499999999999999722e-02 7.952455000000000496e-01 2.372530000000000072e+01 1.172565000000000026e+02 1.774164999999999964e+03
7.599999999999999811e-02 7.953474999999999850e-01 2.329579999999999984e+01 1.177355000000000018e+02 1.774329999999999927e+03
7.699999999999999900e-02 7.953864999999999963e-01 2.276100000000000279e+01 1.179355000000000047e+02 1.774424999999999955e+03
7.799999999999999989e-02 7.953675000000000050e-01 2.213085000000000235e+01 1.178760000000000048e+02 1.774449999999999818e+03
7.900000000000000078e-02 7.952969999999999207e-01 2.141864999999999952e+01 1.175819999999999936e+02 1.774414999999999964e+03
8.000000000000000167e-02 7.951835000000000431e-01 2.064014999999999844e+01 1.170875000000000057e+02 1.774324999999999818e+03
8.100000000000000255e-02 7.950359999999999649e-01 1.981315000000000026e+01 1.164294999999999902e+02 1.774184999999999945e+03
8.200000000000000344e-02 7.948640000000000150e-01 1.895664999999999978e+01 1.156504999999999939e+02 1.774014999999999873e+03
8.300000000000000433e-02 7.946765000000000079e-01 1.808954999999999913e+01 1.147914999999999992e+02 1.773815000000000055e+03
8.400000000000000522e-02 7.944839999999999680e-01 1.723039999999999949e+01 1.138935000000000031e+02 1.773595000000000027e+03
8.500000000000000611e-02 7.942929999999999158e-01 1.639590000000000103e+01 1.129945000000000022e+02 1.773375000000000000e+03
8.600000000000000699e-02 7.941110000000000113e-01 1.560050000000000026e+01 1.121274999999999977e+02 1.773150000000000091e+03
8.700000000000000788e-02 7.939439999999999831e-01 1.485550000000000104e+01 1.113190000000000026e+02 1.772940000000000055e+03
8.800000000000000877e-02 7.937954999999999872e-01 1.416869999999999941e+01 1.105879999999999939e+02 1.772744999999999891e+03
8.899999999999999578e-02 7.936665000000000525e-01 1.354390499999999875e+01 1.099475000000000051e+02 1.772569999999999936e+03
8.999999999999999667e-02 7.935575000000000268e-01 1.298124500000000126e+01 1.094004999999999939e+02 1.772409999999999854e+03
9.099999999999999756e-02 7.934669999999999224e-01 1.247722500000000068e+01 1.089424999999999955e+02 1.772275000000000091e+03
9.199999999999999845e-02 7.933915000000000273e-01 1.202510000000000012e+01 1.085635000000000048e+02 1.772164999999999964e+03
9.299999999999999933e-02 7.933265000000000455e-01 1.161548499999999962e+01 1.082469999999999999e+02 1.772070000000000164e+03
9.400000000000000022e-02 7.932675000000000143e-01 1.123699500000000029e+01 1.079720000000000084e+02 1.771985000000000127e+03
9.500000000000000111e-02 7.932084999999999830e-01 1.087689500000000109e+01 1.077154999999999916e+02 1.771900000000000091e+03
9.600000000000000200e-02 7.931435000000000013e-01 1.052192499999999953e+01 1.074505000000000052e+02 1.771825000000000045e+03
9.700000000000000289e-02 7.930675000000000363e-01 1.015895500000000062e+01 1.071539999999999964e+02 1.771740000000000009e+03
9.800000000000000377e-02 7.929749999999999854e-01 9.775960000000001315e+00 1.068009999999999877e+02 1.771644999999999982e+03
9.900000000000000466e-02 7.928625000000000256e-01 9.362629999999999342e+00 1.063730000000000047e+02 1.771534999999999854e+03
1.000000000000000056e-01 7.927269999999999595e-01 8.911179999999999879e+00 1.058540000000000134e+02 1.771404999999999973e+03
1.010000000000000064e-01 7.925659999999999927e-01 8.416750000000000398e+00 1.052360000000000042e+02 1.771250000000000000e+03
1.020000000000000073e-01 7.923824999999999896e-01 7.878020000000000245e+00 1.045155000000000030e+02 1.771070000000000164e+03
1.030000000000000082e-01 7.921765000000000612e-01 7.297235000000000582e+00 1.036979000000000042e+02 1.770869999999999891e+03
1.040000000000000091e-01 7.919525000000000592e-01 6.680139999999999745e+00 1.027950500000000034e+02 1.770644999999999982e+03
1.050000000000000100e-01 7.917155000000000165e-01 6.035719999999999530e+00 1.018260499999999951e+02 1.770400000000000091e+03
1.059999999999999970e-01 7.914725000000000232e-01 5.375680000000000902e+00 1.008150499999999994e+02 1.770150000000000091e+03
1.069999999999999979e-01 7.912289999999999601e-01 4.713705000000000034e+00 9.979000000000000625e+01 1.769884999999999991e+03
1.079999999999999988e-01 7.909939999999999749e-01 4.064681000000000211e+00 9.878255000000000052e+01 1.769630000000000109e+03
1.089999999999999997e-01 7.907744999999999358e-01 3.443805999999999923e+00 9.782365000000000066e+01 1.769380000000000109e+03
1.100000000000000006e-01 7.905774999999999331e-01 2.865693499999999894e+00 9.694505000000000905e+01 1.769150000000000091e+03
1.110000000000000014e-01 7.904085000000000694e-01 2.343554500000000207e+00 9.617374999999999829e+01 1.768940000000000055e+03
1.120000000000000023e-01 7.902724999999999334e-01 1.888460000000000027e+00 9.553334999999999866e+01 1.768759999999999991e+03
1.130000000000000032e-01 7.901730000000000143e-01 1.508801999999999977e+00 9.504050000000000864e+01 1.768619999999999891e+03
1.140000000000000041e-01 7.901110000000000078e-01 1.209880499999999914e+00 9.470640000000000214e+01 1.768514999999999873e+03
1.150000000000000050e-01 7.900875000000000536e-01 9.937440000000000717e-01 9.453470000000000084e+01 1.768444999999999936e+03
1.160000000000000059e-01 7.901000000000000245e-01 8.592284999999999506e-01 9.452219999999999800e+01 1.768420000000000073e+03
1.170000000000000068e-01 7.901454999999999451e-01 8.021694999999999798e-01 9.465919999999999845e+01 1.768429999999999836e+03
1.180000000000000077e-01 7.902204999999999924e-01 8.157925000000000315e-01 9.493049999999999500e+01 1.768474999999999909e+03
1.190000000000000085e-01 7.903200000000000225e-01 8.911945999999999479e-01 9.531640000000000157e+01 1.768555000000000064e+03
1.200000000000000094e-01 7.904375000000000151e-01 1.017931750000000024e+00 9.579425000000000523e+01 1.768659999999999854e+03
1.209999999999999964e-01 7.905674999999999786e-01 1.184590649999999856e+00 9.633940000000001191e+01 1.768780000000000200e+03
1.219999999999999973e-01 7.907049999999999912e-01 1.379363750000000000e+00 9.692685000000000173e+01 1.768920000000000073e+03
1.229999999999999982e-01 7.908444999999999503e-01 1.590573500000000084e+00 9.753239999999999554e+01 1.769065000000000055e+03
1.239999999999999991e-01 7.909804999999999753e-01 1.807136000000000076e+00 9.813365000000000293e+01 1.769215000000000146e+03
1.250000000000000000e-01 7.911084999999999923e-01 2.018928999999999974e+00 9.871035000000000537e+01 1.769355000000000018e+03
1.260000000000000009e-01 7.912259999999999849e-01 2.217095000000000038e+00 9.924644999999999584e+01 1.769494999999999891e+03
1.270000000000000018e-01 7.913299999999999779e-01 2.394270000000000120e+00 9.972799999999999443e+01 1.769619999999999891e+03
1.280000000000000027e-01 7.914185000000000247e-01 2.544690000000000119e+00 1.001458999999999975e+02 1.769735000000000127e+03
1.290000000000000036e-01 7.914909999999999446e-01 2.664324999999999832e+00 1.004939999999999998e+02 1.769829999999999927e+03
1.300000000000000044e-01 7.915464999999999307e-01 2.750849999999999795e+00 1.007702500000000043e+02 1.769909999999999854e+03
1.310000000000000053e-01 7.915864999999999707e-01 2.803605000000000125e+00 1.009749999999999943e+02 1.769974999999999909e+03
1.320000000000000062e-01 7.916115000000000235e-01 2.823500000000000121e+00 1.011129999999999995e+02 1.770019999999999982e+03
1.330000000000000071e-01 7.916240000000001054e-01 2.812825000000000131e+00 1.011905000000000001e+02 1.770050000000000182e+03
1.340000000000000080e-01 7.916259999999999408e-01 2.775084999999999802e+00 1.012155000000000058e+02 1.770065000000000055e+03
1.350000000000000089e-01 7.916190000000000726e-01 2.714685000000000237e+00 1.011980000000000075e+02 1.770074999999999818e+03
1.360000000000000098e-01 7.916069999999999496e-01 2.636660000000000004e+00 1.011485000000000127e+02 1.770070000000000164e+03
1.370000000000000107e-01 7.915909999999999336e-01 2.546355000000000146e+00 1.010780000000000030e+02 1.770059999999999945e+03
1.380000000000000115e-01 7.915745000000000697e-01 2.449069999999999858e+00 1.009968499999999949e+02 1.770039999999999964e+03
1.390000000000000124e-01 7.915585000000000537e-01 2.349779999999999980e+00 1.009144500000000022e+02 1.770025000000000091e+03
1.400000000000000133e-01 7.915449999999999431e-01 2.252835000000000143e+00 1.008375499999999931e+02 1.770009999999999991e+03
1.410000000000000142e-01 7.915350000000000996e-01 2.161744999999999806e+00 1.007731500000000011e+02 1.770000000000000000e+03
1.420000000000000151e-01 7.915294999999999970e-01 2.079060000000000130e+00 1.007237000000000080e+02 1.769985000000000127e+03
1.430000000000000160e-01 7.915274999999999395e-01 2.006275000000000031e+00 1.006910000000000025e+02 1.769974999999999909e+03
1.440000000000000169e-01 7.915289999999999271e-01 1.943864999999999954e+00 1.006734999999999900e+02 1.769970000000000027e+03
1.450000000000000178e-01 7.915330000000000421e-01 1.891384999999999872e+00 1.006684999999999945e+02 1.769965000000000146e+03
1.459999999999999909e-01 7.915379999999999638e-01 1.847630000000000106e+00 1.006709999999999923e+02 1.769965000000000146e+03
1.469999999999999918e-01 7.915425000000000377e-01 1.810820000000000096e+00 1.006759999999999877e+02 1.769970000000000027e+03
1.479999999999999927e-01 7.915455000000000130e-01 1.778839999999999977e+00 1.006765000000000043e+02 1.769970000000000027e+03
1.489999999999999936e-01 7.915444999999999842e-01 1.749460000000000015e+00 1.006664999999999992e+02 1.769965000000000146e+03
1.499999999999999944e-01 7.915395000000000625e-01 1.720539999999999958e+00 1.006400000000000006e+02 1.769954999999999927e+03
1.509999999999999953e-01 7.915290000000000381e-01 1.690179999999999794e+00 1.005919999999999987e+02 1.769944999999999936e+03
1.519999999999999962e-01 7.915114999999999235e-01 1.656875000000000098e+00 1.005190000000000055e+02 1.769929999999999836e+03
1.529999999999999971e-01 7.914875000000000105e-01 1.619600000000000151e+00 1.004194999999999993e+02 1.769904999999999973e+03
1.539999999999999980e-01 7.914565000000000072e-01 1.577865000000000073e+00 1.002915000000000134e+02 1.769875000000000000e+03
1.549999999999999989e-01 7.914194999999999425e-01 1.531705499999999942e+00 1.001370000000000005e+02 1.769840000000000146e+03
1.559999999999999998e-01 7.913765000000000382e-01 1.481711999999999918e+00 9.995810000000000173e+01 1.769789999999999964e+03
1.570000000000000007e-01 7.913295000000000190e-01 1.428956000000000115e+00 9.975820000000000221e+01 1.769740000000000009e+03
1.580000000000000016e-01 7.912790000000000656e-01 1.374965500000000063e+00 9.954285000000000139e+01 1.769690000000000055e+03
1.590000000000000024e-01 7.912259999999999849e-01 1.321663500000000102e+00 9.931739999999999213e+01 1.769630000000000109e+03
