# t [s], A [cm^2], U [cm/s], P [cPa], c [cm/s]
1.000000000000000021e-03 1.928885000000000183e-01 3.005154999999999910e-01 9.304800000000000182e+01 2.058260000000000218e+03
2.000000000000000042e-03 1.928425000000000000e-01 1.749695500000000070e+00 8.991450000000000387e+01 2.057925000000000182e+03
3.000000000000000062e-03 1.927125000000000088e-01 3.535571000000000019e+00 8.561679999999999779e+01 2.057010000000000218e+03
4.000000000000000083e-03 1.925310000000000077e-01 5.541698000000000235e+00 8.093834999999999980e+01 2.055760000000000218e+03
5.000000000000000104e-03 1.923350000000000060e-01 7.702849999999999753e+00 7.673394999999999300e+01 2.054409999999999854e+03
6.000000000000000125e-03 1.921444999999999959e-01 9.853839999999999932e+00 7.329144999999999754e+01 2.053114999999999782e+03
7.000000000000000146e-03 1.919649999999999967e-01 1.178799499999999867e+01 7.037205000000000155e+01 2.051920000000000073e+03
8.000000000000000167e-03 1.917999999999999983e-01 1.342134499999999875e+01 6.773879999999999768e+01 2.050835000000000036e+03
9.000000000000001055e-03 1.916530000000000178e-01 1.478845000000000098e+01 6.543455000000000155e+01 2.049884999999999764e+03
1.000000000000000194e-02 1.915280000000000038e-01 1.592464999999999975e+01 6.354009999999999536e+01 2.049085000000000036e+03
1.099999999999999936e-02 1.914244999999999974e-01 1.684309999999999974e+01 6.203594999999999970e+01 2.048429999999999836e+03
1.200000000000000025e-02 1.913414999999999977e-01 1.755424999999999969e+01 6.085745000000000005e+01 2.047914999999999964e+03
1.300000000000000114e-02 1.912745000000000140e-01 1.806155000000000044e+01 5.990810000000000457e+01 2.047504999999999882e+03
1.400000000000000203e-02 1.912190000000000001e-01 1.837469999999999715e+01 5.907940000000000680e+01 2.047170000000000073e+03
1.499999999999999944e-02 1.911729999999999818e-01 1.855105000000000004e+01 5.836430000000000007e+01 2.046900000000000091e+03
1.600000000000000033e-02 1.911404999999999910e-01 1.871164999999999878e+01 5.795479999999999876e+01 2.046704999999999927e+03
1.700000000000000122e-02 1.911295000000000077e-01 1.899889999999999901e+01 5.818120000000000402e+01 2.046649999999999864e+03
1.800000000000000211e-02 1.911490000000000133e-01 1.950404999999999944e+01 5.931239999999999668e+01 2.046784999999999854e+03
1.900000000000000300e-02 1.912030000000000118e-01 2.021695000000000064e+01 6.136384999999999934e+01 2.047130000000000109e+03
2.000000000000000042e-02 1.912849999999999828e-01 2.102769999999999939e+01 6.403700000000000614e+01 2.047654999999999973e+03
2.100000000000000130e-02 1.913814999999999822e-01 2.177210000000000178e+01 6.681295000000000073e+01 2.048279999999999745e+03
2.200000000000000219e-02 1.914755000000000207e-01 2.229424999999999812e+01 6.913660000000000139e+01 2.048900000000000091e+03
2.299999999999999961e-02 1.915514999999999857e-01 2.249855000000000160e+01 7.060184999999999889e+01 2.049404999999999745e+03
2.400000000000000050e-02 1.915994999999999782e-01 2.237315000000000254e+01 7.106395000000000550e+01 2.049734999999999673e+03
2.500000000000000139e-02 1.916174999999999962e-01 2.198029999999999973e+01 7.064875000000000682e+01 2.049880000000000109e+03
2.600000000000000228e-02 1.916114999999999902e-01 2.142329999999999757e+01 6.966679999999999495e+01 2.049855000000000018e+03
2.700000000000000316e-02 1.915884999999999949e-01 2.080420000000000158e+01 6.847849999999999682e+01 2.049720000000000255e+03
2.800000000000000058e-02 1.915594999999999937e-01 2.019085000000000107e+01 6.736650000000000205e+01 2.049539999999999964e+03
2.900000000000000147e-02 1.915299999999999780e-01 1.960245000000000104e+01 6.645959999999999468e+01 2.049349999999999909e+03
3.000000000000000236e-02 1.915030000000000066e-01 1.901570000000000249e+01 6.572575000000000500e+01 2.049175000000000182e+03
3.099999999999999978e-02 1.914760000000000073e-01 1.838540000000000063e+01 6.502355000000000018e+01 2.049000000000000000e+03
3.200000000000000067e-02 1.914449999999999763e-01 1.767099999999999937e+01 6.418524999999999636e+01 2.048800000000000182e+03
3.300000000000000155e-02 1.914064999999999794e-01 1.685879999999999868e+01 6.310014999999999930e+01 2.048565000000000055e+03
3.400000000000000244e-02 1.913600000000000023e-01 1.597480000000000011e+01 6.177164999999999395e+01 2.048264999999999873e+03
3.500000000000000333e-02 1.913074999999999914e-01 1.508320000000000149e+01 6.033205000000000240e+01 2.047934999999999945e+03
3.600000000000000422e-02 1.912550000000000083e-01 1.427234999999999943e+01 5.901225000000000165e+01 2.047595000000000027e+03
3.700000000000000511e-02 1.912105000000000055e-01 1.363200000000000145e+01 5.807784999999999798e+01 2.047300000000000182e+03
3.799999999999999906e-02 1.911820000000000186e-01 1.322990000000000066e+01 5.775249999999999773e+01 2.047110000000000127e+03
3.899999999999999994e-02 1.911754999999999982e-01 1.309440000000000026e+01 5.815375000000000227e+01 2.047054999999999836e+03
4.000000000000000083e-02 1.911944999999999895e-01 1.320714999999999861e+01 5.925839999999999463e+01 2.047164999999999964e+03
4.100000000000000172e-02 1.912355000000000027e-01 1.350734999999999886e+01 6.090474999999999994e+01 2.047414999999999964e+03
4.200000000000000261e-02 1.912935000000000052e-01 1.390460000000000029e+01 6.282744999999999891e+01 2.047775000000000091e+03
4.300000000000000350e-02 1.913584999999999869e-01 1.429595000000000127e+01 6.471129999999999427e+01 2.048184999999999945e+03
4.400000000000000439e-02 1.914210000000000078e-01 1.458354999999999890e+01 6.624989999999999668e+01 2.048590000000000146e+03
4.499999999999999833e-02 1.914700000000000013e-01 1.468820000000000014e+01 6.719474999999999909e+01 2.048904999999999745e+03
4.599999999999999922e-02 1.914984999999999882e-01 1.455734999999999957e+01 6.738694999999999879e+01 2.049094999999999800e+03
4.700000000000000011e-02 1.915005000000000179e-01 1.416764999999999830e+01 6.676689999999999259e+01 2.049119999999999891e+03
4.800000000000000100e-02 1.914744999999999919e-01 1.352169999999999916e+01 6.536610000000000298e+01 2.048965000000000146e+03
4.900000000000000189e-02 1.914214999999999944e-01 1.264250000000000007e+01 6.328464999999999918e+01 2.048630000000000109e+03
5.000000000000000278e-02 1.913434999999999997e-01 1.156581500000000062e+01 6.066389999999999816e+01 2.048139999999999873e+03
5.100000000000000366e-02 1.912455000000000127e-01 1.033374500000000040e+01 5.765964999999999918e+01 2.047514999999999873e+03
5.200000000000000455e-02 1.911319999999999963e-01 8.990095000000000169e+00 5.442225000000000534e+01 2.046785000000000082e+03
5.300000000000000544e-02 1.910084999999999977e-01 7.577844999999999942e+00 5.108539999999999992e+01 2.045994999999999891e+03
5.399999999999999939e-02 1.908794999999999797e-01 6.138230000000000075e+00 4.776324999999999932e+01 2.045159999999999854e+03
5.500000000000000028e-02 1.907490000000000019e-01 4.711750000000000327e+00 4.455360000000000298e+01 2.044320000000000164e+03
5.600000000000000117e-02 1.906220000000000137e-01 3.338872999999999980e+00 4.154415000000000191e+01 2.043500000000000000e+03
5.700000000000000205e-02 1.905005000000000170e-01 2.060884999999999856e+00 3.881860000000000355e+01 2.042714999999999918e+03
5.800000000000000294e-02 1.903905000000000181e-01 9.197750000000001203e-01 3.646065000000000111e+01 2.041994999999999891e+03
5.900000000000000383e-02 1.902935000000000043e-01 -4.278000000000004022e-02 3.455429999999999779e+01 2.041365000000000236e+03
6.000000000000000472e-02 1.902139999999999942e-01 -7.873255000000001225e-01 3.318120000000000402e+01 2.040844999999999800e+03
6.099999999999999867e-02 1.901559999999999917e-01 -1.279033550000000075e+00 3.241505000000000081e+01 2.040449999999999818e+03
6.199999999999999956e-02 1.901214999999999988e-01 -1.490228500000000178e+00 3.231479999999999819e+01 2.040210000000000036e+03
6.300000000000000044e-02 1.901125000000000176e-01 -1.402600000000000069e+00 3.291805000000000092e+01 2.040139999999999873e+03
6.400000000000000133e-02 1.901315000000000088e-01 -1.008754499999999998e+00 3.423659999999999570e+01 2.040240000000000009e+03
6.500000000000000222e-02 1.901780000000000137e-01 -3.128849999999999687e-01 3.625350000000000250e+01 2.040525000000000091e+03
6.600000000000000311e-02 1.902524999999999911e-01 6.695099999999999385e-01 3.892385000000000161e+01 2.040985000000000127e+03
6.700000000000000400e-02 1.903525000000000078e-01 1.912629499999999982e+00 4.217719999999999914e+01 2.041610000000000127e+03
6.800000000000000488e-02 1.904759999999999787e-01 3.382155500000000092e+00 4.592295000000000016e+01 2.042394999999999982e+03
6.900000000000000577e-02 1.906194999999999973e-01 5.037379999999999747e+00 5.005615000000000236e+01 2.043305000000000064e+03
7.000000000000000666e-02 1.907790000000000041e-01 6.833625000000000504e+00 5.446479999999999677e+01 2.044319999999999936e+03
7.100000000000000755e-02 1.909504999999999952e-01 8.724650000000000460e+00 5.903625000000000256e+01 2.045424999999999955e+03
7.200000000000000844e-02 1.911299999999999943e-01 1.066513999999999918e+01 6.366409999999999769e+01 2.046579999999999927e+03
7.300000000000000933e-02 1.913140000000000118e-01 1.261296000000000106e+01 6.825350000000000250e+01 2.047769999999999982e+03
7.399999999999999634e-02 1.914974999999999872e-01 1.453095000000000070e+01 7.272620000000000573e+01 2.048960000000000036e+03
7.499999999999999722e-02 1.916785000000000017e-01 1.638855000000000217e+01 7.702324999999999022e+01 2.050139999999999873e+03
7.599999999999999811e-02 1.918549999999999978e-01 1.816270000000000095e+01 8.110734999999999673e+01 2.051289999999999964e+03
7.699999999999999900e-02 1.920244999999999869e-01 1.983840000000000003e+01 8.496264999999999645e+01 2.052404999999999745e+03
7.799999999999999989e-02 1.921869999999999967e-01 2.140824999999999889e+01 8.859305000000000518e+01 2.053465000000000146e+03
7.900000000000000078e-02 1.923409999999999842e-01 2.287205000000000155e+01 9.201970000000000027e+01 2.054489999999999782e+03
8.000000000000000167e-02 1.924894999999999801e-01 2.423535000000000039e+01 9.527655000000000030e+01 2.055460000000000036e+03
8.100000000000000255e-02 1.926304999999999823e-01 2.550825000000000031e+01 9.840434999999999377e+01 2.056399999999999636e+03
8.200000000000000344e-02 1.927679999999999949e-01 2.670320000000000249e+01 1.014488000000000056e+02 2.057309999999999945e+03
8.300000000000000433e-02 1.929020000000000179e-01 2.783384999999999820e+01 1.044520499999999998e+02 2.058199999999999818e+03
8.400000000000000522e-02 1.930350000000000121e-01 2.891324999999999790e+01 1.074500000000000028e+02 2.059074999999999818e+03
8.500000000000000611e-02 1.931670000000000054e-01 2.995289999999999964e+01 1.104720000000000084e+02 2.059944999999999709e+03
8.600000000000000699e-02 1.932995000000000130e-01 3.096150000000000091e+01 1.135330000000000013e+02 2.060824999999999818e+03
8.700000000000000788e-02 1.934329999999999938e-01 3.194460000000000122e+01 1.166405000000000030e+02 2.061710000000000036e+03
8.800000000000000877e-02 1.935680000000000178e-01 3.290409999999999968e+01 1.197884999999999991e+02 2.062605000000000018e+03
8.899999999999999578e-02 1.937039999999999873e-01 3.383849999999999625e+01 1.229604999999999961e+02 2.063505000000000109e+03
8.999999999999999667e-02 1.938409999999999855e-01 3.474299999999999500e+01 1.261320000000000050e+02 2.064404999999999745e+03
9.099999999999999756e-02 1.939764999999999961e-01 3.561005000000000109e+01 1.292719999999999914e+02 2.065309999999999945e+03
9.199999999999999845e-02 1.941109999999999780e-01 3.642969999999999686e+01 1.323439999999999941e+02 2.066195000000000164e+03
9.299999999999999933e-02 1.942424999999999846e-01 3.719065000000000509e+01 1.353090000000000259e+02 2.067069999999999709e+03
9.400000000000000022e-02 1.943695000000000006e-01 3.788034999999999997e+01 1.381290000000000191e+02 2.067914999999999964e+03
9.500000000000000111e-02 1.944909999999999972e-01 3.848635000000000161e+01 1.407649999999999864e+02 2.068720000000000255e+03
9.600000000000000200e-02 1.946045000000000136e-01 3.899645000000000294e+01 1.431839999999999975e+02 2.069480000000000018e+03
9.700000000000000289e-02 1.947095000000000076e-01 3.939985000000000070e+01 1.453534999999999968e+02 2.070180000000000291e+03
9.800000000000000377e-02 1.948050000000000059e-01 3.968734999999999502e+01 1.472504999999999882e+02 2.070819999999999709e+03
9.900000000000000466e-02 1.948889999999999789e-01 3.985204999999999842e+01 1.488575000000000159e+02 2.071385000000000218e+03
1.000000000000000056e-01 1.949615000000000098e-01 3.989010000000000389e+01 1.501630000000000109e+02 2.071875000000000000e+03
1.010000000000000064e-01 1.950220000000000009e-01 3.980030000000000001e+01 1.511675000000000182e+02 2.072284999999999854e+03
1.020000000000000073e-01 1.950709999999999944e-01 3.958514999999999873e+01 1.518750000000000000e+02 2.072619999999999891e+03
1.030000000000000082e-01 1.951070000000000026e-01 3.925005000000000166e+01 1.523004999999999995e+02 2.072864999999999782e+03
1.040000000000000091e-01 1.951324999999999865e-01 3.880365000000000464e+01 1.524664999999999964e+02 2.073045000000000073e+03
1.050000000000000100e-01 1.951470000000000149e-01 3.825710000000000122e+01 1.524000000000000057e+02 2.073149999999999636e+03
1.059999999999999970e-01 1.951519999999999921e-01 3.762400000000000233e+01 1.521334999999999980e+02 2.073190000000000055e+03
1.069999999999999979e-01 1.951485000000000025e-01 3.691949999999999932e+01 1.517030000000000030e+02 2.073175000000000182e+03
1.079999999999999988e-01 1.951375000000000193e-01 3.615954999999999586e+01 1.511460000000000150e+02 2.073114999999999782e+03
1.089999999999999997e-01 1.951215000000000033e-01 3.536055000000000348e+01 1.504995000000000118e+02 2.073010000000000218e+03
1.100000000000000006e-01 1.951005000000000100e-01 3.453849999999999909e+01 1.497980000000000018e+02 2.072880000000000109e+03
1.110000000000000014e-01 1.950770000000000004e-01 3.370834999999999582e+01 1.490749999999999886e+02 2.072730000000000018e+03
1.120000000000000023e-01 1.950520000000000032e-01 3.288339999999999463e+01 1.483564999999999827e+02 2.072560000000000400e+03
1.130000000000000032e-01 1.950260000000000049e-01 3.207515000000000072e+01 1.476655000000000086e+02 2.072394999999999982e+03
1.140000000000000041e-01 1.950005000000000210e-01 3.129250000000000043e+01 1.470180000000000007e+02 2.072225000000000364e+03
1.150000000000000050e-01 1.949759999999999827e-01 3.054204999999999970e+01 1.464234999999999900e+02 2.072059999999999945e+03
1.160000000000000059e-01 1.949529999999999874e-01 2.982760000000000034e+01 1.458865000000000123e+02 2.071909999999999854e+03
1.170000000000000068e-01 1.949314999999999798e-01 2.915030000000000143e+01 1.454044999999999845e+02 2.071760000000000218e+03
1.180000000000000077e-01 1.949120000000000019e-01 2.850884999999999891e+01 1.449685000000000059e+02 2.071630000000000109e+03
1.190000000000000085e-01 1.948929999999999829e-01 2.789954999999999785e+01 1.445665000000000191e+02 2.071505000000000109e+03
1.200000000000000094e-01 1.948755000000000071e-01 2.731690000000000040e+01 1.441825000000000045e+02 2.071385000000000218e+03
1.209999999999999964e-01 1.948584999999999900e-01 2.675390000000000157e+01 1.437959999999999923e+02 2.071269999999999982e+03
1.219999999999999973e-01 1.948409999999999864e-01 2.620220000000000127e+01 1.433870000000000005e+02 2.071149999999999636e+03
1.229999999999999982e-01 1.948225000000000096e-01 2.565330000000000155e+01 1.429334999999999809e+02 2.071025000000000091e+03
1.239999999999999991e-01 1.948024999999999896e-01 2.509834999999999994e+01 1.424145000000000039e+02 2.070889999999999873e+03
1.250000000000000000e-01 1.947800000000000087e-01 2.452915000000000134e+01 1.418110000000000070e+02 2.070734999999999673e+03
1.260000000000000009e-01 1.947535000000000238e-01 2.393834999999999980e+01 1.411094999999999970e+02 2.070565000000000055e+03
1.270000000000000018e-01 1.947234999999999938e-01 2.332025000000000148e+01 1.402964999999999804e+02 2.070364999999999782e+03
1.280000000000000027e-01 1.946890000000000009e-01 2.267050000000000054e+01 1.393659999999999854e+02 2.070135000000000218e+03
1.290000000000000036e-01 1.946499999999999897e-01 2.198704999999999998e+01 1.383160000000000025e+02 2.069880000000000109e+03
1.300000000000000044e-01 1.946070000000000022e-01 2.126999999999999957e+01 1.371514999999999986e+02 2.069595000000000255e+03
1.310000000000000053e-01 1.945589999999999820e-01 2.052165000000000106e+01 1.358804999999999836e+02 2.069280000000000200e+03
1.320000000000000062e-01 1.945064999999999988e-01 1.974640000000000128e+01 1.345190000000000055e+02 2.068940000000000055e+03
1.330000000000000071e-01 1.944509999999999850e-01 1.895080000000000098e+01 1.330849999999999795e+02 2.068570000000000164e+03
1.340000000000000080e-01 1.943920000000000092e-01 1.814294999999999902e+01 1.316024999999999920e+02 2.068179999999999836e+03
1.350000000000000089e-01 1.943314999999999904e-01 1.733245000000000147e+01 1.300964999999999918e+02 2.067784999999999854e+03
1.360000000000000098e-01 1.942699999999999982e-01 1.652959999999999852e+01 1.285939999999999941e+02 2.067380000000000109e+03
1.370000000000000107e-01 1.942085000000000061e-01 1.574520000000000053e+01 1.271225000000000023e+02 2.066970000000000255e+03
1.380000000000000115e-01 1.941475000000000006e-01 1.498999999999999844e+01 1.257084999999999866e+02 2.066569999999999709e+03
1.390000000000000124e-01 1.940884999999999971e-01 1.427404999999999902e+01 1.243770000000000095e+02 2.066180000000000291e+03
1.400000000000000133e-01 1.940334999999999976e-01 1.360644999999999882e+01 1.231479999999999961e+02 2.065809999999999945e+03
1.410000000000000142e-01 1.939815000000000011e-01 1.299494999999999933e+01 1.220399999999999920e+02 2.065470000000000255e+03
1.420000000000000151e-01 1.939345000000000097e-01 1.244560000000000066e+01 1.210655000000000001e+02 2.065154999999999745e+03
1.430000000000000160e-01 1.938925000000000232e-01 1.196255000000000024e+01 1.202314999999999969e+02 2.064869999999999891e+03
1.440000000000000169e-01 1.938555000000000139e-01 1.154800000000000004e+01 1.195425000000000040e+02 2.064625000000000000e+03
1.450000000000000178e-01 1.938245000000000107e-01 1.120231499999999869e+01 1.189960000000000093e+02 2.064414999999999964e+03
1.459999999999999909e-01 1.937984999999999847e-01 1.092394999999999960e+01 1.185870000000000033e+02 2.064239999999999782e+03
1.469999999999999918e-01 1.937785000000000202e-01 1.070964000000000027e+01 1.183045000000000044e+02 2.064105000000000018e+03
1.479999999999999927e-01 1.937635000000000052e-01 1.055474999999999852e+01 1.181380000000000052e+02 2.064000000000000000e+03
1.489999999999999936e-01 1.937530000000000086e-01 1.045346999999999937e+01 1.180720000000000027e+02 2.063925000000000182e+03
1.499999999999999944e-01 1.937470000000000026e-01 1.039912500000000151e+01 1.180904999999999916e+02 2.063880000000000109e+03
1.509999999999999953e-01 1.937444999999999862e-01 1.038447500000000012e+01 1.181765000000000043e+02 2.063859999999999673e+03
1.519999999999999962e-01 1.937444999999999862e-01 1.040199499999999944e+01 1.183139999999999930e+02 2.063855000000000018e+03
1.529999999999999971e-01 1.937470000000000026e-01 1.044418500000000094e+01 1.184860000000000042e+02 2.063869999999999891e+03
1.539999999999999980e-01 1.937515000000000209e-01 1.050380000000000003e+01 1.186784999999999997e+02 2.063890000000000327e+03
1.549999999999999989e-01 1.937570000000000126e-01 1.057399999999999984e+01 1.188774999999999977e+02 2.063925000000000182e+03
1.559999999999999998e-01 1.937630000000000186e-01 1.064864999999999995e+01 1.190720000000000027e+02 2.063965000000000146e+03
1.570000000000000007e-01 1.937695000000000112e-01 1.072234999999999872e+01 1.192514999999999930e+02 2.064005000000000109e+03
1.580000000000000016e-01 1.937750000000000028e-01 1.079064999999999941e+01 1.194095000000000084e+02 2.064045000000000073e+03
1.590000000000000024e-01 1.937804999999999944e-01 1.084994999999999976e+01 1.195400000000000063e+02 2.064079999999999927e+03
