# t [s], A [cm^2], U [cm/s], P [cPa], c [cm/s]
1.000000000000000021e-03 2.058629999999999904e-01 3.178394499999999678e-01 9.770259999999998968e+01 2.279779999999999745e+03
2.000000000000000042e-03 2.057915000000000161e-01 1.896709500000000048e+00 9.391525000000000034e+01 2.279215000000000146e+03
3.000000000000000062e-03 2.056239999999999735e-01 3.880501999999999896e+00 8.849000000000000909e+01 2.277949999999999818e+03
4.000000000000000083e-03 2.054110000000000102e-01 6.148496999999999879e+00 8.279134999999999422e+01 2.276369999999999891e+03
5.000000000000000104e-03 2.051994999999999791e-01 8.573010000000000019e+00 7.797649999999998727e+01 2.274809999999999945e+03
6.000000000000000125e-03 2.050049999999999928e-01 1.084408499999999975e+01 7.413774999999999693e+01 2.273404999999999745e+03
7.000000000000000146e-03 2.048274999999999957e-01 1.269931500000000035e+01 7.075919999999999277e+01 2.272154999999999745e+03
8.000000000000000167e-03 2.046735000000000082e-01 1.415664999999999907e+01 6.779389999999999361e+01 2.271090000000000146e+03
9.000000000000001055e-03 2.045474999999999932e-01 1.529110000000000014e+01 6.543479999999999563e+01 2.270234999999999673e+03
1.000000000000000194e-02 2.044505000000000072e-01 1.613510000000000133e+01 6.367824999999999847e+01 2.269574999999999818e+03
1.099999999999999936e-02 2.043794999999999917e-01 1.673019999999999996e+01 6.246674999999999756e+01 2.269109999999999673e+03
1.200000000000000025e-02 2.043294999999999972e-01 1.709029999999999916e+01 6.166639999999999588e+01 2.268784999999999854e+03
1.300000000000000114e-02 2.042924999999999880e-01 1.721495000000000175e+01 6.104025000000000034e+01 2.268555000000000291e+03
1.400000000000000203e-02 2.042645000000000155e-01 1.720694999999999908e+01 6.057635000000000502e+01 2.268394999999999982e+03
1.499999999999999944e-02 2.042589999999999961e-01 1.730729999999999791e+01 6.074549999999999983e+01 2.268369999999999891e+03
1.600000000000000033e-02 2.042924999999999880e-01 1.775784999999999769e+01 6.222995000000000232e+01 2.268605000000000018e+03
1.700000000000000122e-02 2.043765000000000165e-01 1.862010000000000076e+01 6.533320000000000505e+01 2.269175000000000182e+03
1.800000000000000211e-02 2.045025000000000037e-01 1.970944999999999681e+01 6.960630000000000450e+01 2.270045000000000073e+03
1.900000000000000300e-02 2.046450000000000213e-01 2.068290000000000006e+01 7.396540000000000248e+01 2.271034999999999854e+03
2.000000000000000042e-02 2.047670000000000046e-01 2.120694999999999908e+01 7.718484999999999729e+01 2.271904999999999745e+03
2.100000000000000130e-02 2.048415000000000097e-01 2.110835000000000150e+01 7.845050000000000523e+01 2.272465000000000146e+03
2.200000000000000219e-02 2.048570000000000113e-01 2.043564999999999898e+01 7.768614999999999782e+01 2.272610000000000127e+03
2.299999999999999961e-02 2.048220000000000041e-01 1.941230000000000189e+01 7.551445000000001073e+01 2.272405000000000200e+03
2.400000000000000050e-02 2.047605000000000119e-01 1.831739999999999924e+01 7.290819999999999368e+01 2.271989999999999782e+03
2.500000000000000139e-02 2.046970000000000178e-01 1.736074999999999946e+01 7.073499999999999943e+01 2.271550000000000182e+03
2.600000000000000228e-02 2.046489999999999976e-01 1.660934999999999917e+01 6.942045000000000243e+01 2.271194999999999709e+03
2.700000000000000316e-02 2.046184999999999810e-01 1.598864999999999981e+01 6.885575000000000045e+01 2.270979999999999563e+03
2.800000000000000058e-02 2.045980000000000021e-01 1.534224999999999994e+01 6.854285000000000139e+01 2.270829999999999927e+03
2.900000000000000147e-02 2.045730000000000048e-01 1.451844999999999963e+01 6.787969999999999970e+01 2.270654999999999745e+03
3.000000000000000236e-02 2.045299999999999896e-01 1.344855000000000089e+01 6.645950000000000557e+01 2.270369999999999891e+03
3.099999999999999978e-02 2.044650000000000079e-01 1.218955500000000036e+01 6.427455000000000496e+01 2.269930000000000291e+03
3.200000000000000067e-02 2.043849999999999834e-01 1.091433500000000123e+01 6.174869999999999948e+01 2.269380000000000109e+03
3.300000000000000155e-02 2.043090000000000184e-01 9.853885000000000005e+00 5.958910000000000196e+01 2.268844999999999800e+03
3.400000000000000244e-02 2.042579999999999951e-01 9.215600000000000236e+00 5.852094999999999914e+01 2.268470000000000255e+03
3.500000000000000333e-02 2.042490000000000139e-01 9.111149999999998528e+00 5.901765000000000327e+01 2.268380000000000109e+03
3.600000000000000422e-02 2.042895000000000127e-01 9.520654999999999646e+00 6.113210000000000122e+01 2.268630000000000109e+03
3.700000000000000511e-02 2.043745000000000145e-01 1.030069500000000104e+01 6.447800000000000864e+01 2.269190000000000055e+03
3.799999999999999906e-02 2.044870000000000021e-01 1.122633000000000081e+01 6.834684999999998922e+01 2.269960000000000036e+03
3.899999999999999994e-02 2.046045000000000225e-01 1.204850000000000065e+01 7.190304999999999325e+01 2.270769999999999982e+03
4.000000000000000083e-02 2.047009999999999941e-01 1.254865000000000030e+01 7.438634999999999309e+01 2.271454999999999927e+03
4.100000000000000172e-02 2.047585000000000099e-01 1.257695000000000007e+01 7.526775000000000659e+01 2.271875000000000000e+03
4.200000000000000261e-02 2.047625000000000139e-01 1.206874999999999964e+01 7.432649999999999579e+01 2.271930000000000291e+03
4.300000000000000350e-02 2.047094999999999887e-01 1.103977000000000075e+01 7.164285000000000991e+01 2.271585000000000036e+03
4.400000000000000439e-02 2.046044999999999947e-01 9.565234999999999488e+00 6.752584999999999127e+01 2.270880000000000109e+03
4.499999999999999833e-02 2.044569999999999999e-01 7.753180000000000405e+00 6.240619999999999834e+01 2.269875000000000000e+03
4.599999999999999922e-02 2.042800000000000171e-01 5.719305000000000305e+00 5.673210000000000264e+01 2.268649999999999636e+03
4.700000000000000011e-02 2.040865000000000040e-01 3.570375000000000298e+00 5.089399999999999835e+01 2.267305000000000291e+03
4.800000000000000100e-02 2.038874999999999993e-01 1.397755000000000081e+00 4.519010000000000105e+01 2.265920000000000073e+03
4.900000000000000189e-02 2.036924999999999986e-01 -7.212650000000000450e-01 3.983015000000000327e+01 2.264559999999999945e+03
5.000000000000000278e-02 2.035080000000000222e-01 -2.717499999999999805e+00 3.496189999999999998e+01 2.263264999999999873e+03
5.100000000000000366e-02 2.033400000000000207e-01 -4.523695000000000022e+00 3.070564999999999856e+01 2.262079999999999927e+03
5.200000000000000455e-02 2.031930000000000125e-01 -6.071039999999999992e+00 2.718079999999999785e+01 2.261045000000000073e+03
5.300000000000000544e-02 2.030730000000000035e-01 -7.289865000000000705e+00 2.451754999999999995e+01 2.260190000000000055e+03
5.399999999999999939e-02 2.029850000000000265e-01 -8.114264999999999617e+00 2.285135000000000005e+01 2.259550000000000182e+03
5.500000000000000028e-02 2.029330000000000023e-01 -8.489155000000000229e+00 2.230525000000000091e+01 2.259159999999999854e+03
5.600000000000000117e-02 2.029214999999999769e-01 -8.377684999999999604e+00 2.296605000000000274e+01 2.259045000000000073e+03
5.700000000000000205e-02 2.029520000000000213e-01 -7.766844999999999999e+00 2.486375000000000313e+01 2.259230000000000018e+03
5.800000000000000294e-02 2.030255000000000254e-01 -6.670014999999999361e+00 2.795949999999999847e+01 2.259704999999999927e+03
5.900000000000000383e-02 2.031395000000000006e-01 -5.125975000000000392e+00 3.214480000000000359e+01 2.260470000000000255e+03
6.000000000000000472e-02 2.032904999999999851e-01 -3.195120000000000182e+00 3.725195000000000078e+01 2.261489999999999782e+03
6.099999999999999867e-02 2.034714999999999996e-01 -9.538800000000000612e-01 4.307065000000000055e+01 2.262734999999999673e+03
6.199999999999999956e-02 2.036764999999999826e-01 1.511290000000000244e+00 4.936764999999999759e+01 2.264140000000000327e+03
6.300000000000000044e-02 2.038964999999999805e-01 4.109606499999999940e+00 5.590489999999999782e+01 2.265670000000000073e+03
6.400000000000000133e-02 2.041244999999999865e-01 6.751134999999999664e+00 6.245534999999999570e+01 2.267255000000000109e+03
6.500000000000000222e-02 2.043524999999999925e-01 9.351234999999999076e+00 6.881480000000000530e+01 2.268855000000000018e+03
6.600000000000000311e-02 2.045739999999999781e-01 1.183499499999999927e+01 7.481255000000000166e+01 2.270414999999999964e+03
6.700000000000000400e-02 2.047840000000000216e-01 1.414100000000000001e+01 8.031980000000000075e+01 2.271894999999999982e+03
6.800000000000000488e-02 2.049770000000000203e-01 1.622494999999999976e+01 8.525669999999999504e+01 2.273275000000000091e+03
6.900000000000000577e-02 2.051520000000000010e-01 1.806169999999999831e+01 8.959675000000000011e+01 2.274519999999999982e+03
7.000000000000000666e-02 2.053079999999999905e-01 1.964610000000000056e+01 9.336674999999999613e+01 2.275645000000000437e+03
7.100000000000000755e-02 2.054455000000000031e-01 2.099180000000000135e+01 9.664054999999999040e+01 2.276635000000000218e+03
7.200000000000000844e-02 2.055690000000000017e-01 2.212805000000000177e+01 9.953174999999998818e+01 2.277524999999999636e+03
7.300000000000000933e-02 2.056800000000000017e-01 2.309550000000000125e+01 1.021755500000000012e+02 2.278329999999999927e+03
7.399999999999999634e-02 2.057844999999999813e-01 2.394044999999999845e+01 1.047145000000000010e+02 2.279085000000000036e+03
7.499999999999999722e-02 2.058865000000000001e-01 2.470980000000000132e+01 1.072819999999999965e+02 2.279820000000000164e+03
7.599999999999999811e-02 2.059900000000000064e-01 2.544554999999999723e+01 1.099885000000000019e+02 2.280565000000000055e+03
7.699999999999999900e-02 2.060985000000000178e-01 2.618175000000000097e+01 1.129104999999999990e+02 2.281340000000000146e+03
7.799999999999999989e-02 2.062140000000000084e-01 2.694120000000000203e+01 1.160860000000000127e+02 2.282164999999999964e+03
7.900000000000000078e-02 2.063375000000000070e-01 2.773474999999999824e+01 1.195144999999999982e+02 2.283045000000000073e+03
8.000000000000000167e-02 2.064679999999999849e-01 2.856099999999999994e+01 1.231589999999999918e+02 2.283974999999999909e+03
8.100000000000000255e-02 2.066050000000000109e-01 2.940784999999999982e+01 1.269519999999999982e+02 2.284949999999999818e+03
8.200000000000000344e-02 2.067454999999999987e-01 3.025404999999999944e+01 1.308050000000000068e+02 2.285949999999999818e+03
8.300000000000000433e-02 2.068865000000000010e-01 3.107174999999999798e+01 1.346150000000000091e+02 2.286954999999999927e+03
8.400000000000000522e-02 2.070250000000000146e-01 3.182905000000000229e+01 1.382755000000000223e+02 2.287944999999999709e+03
8.500000000000000611e-02 2.071560000000000068e-01 3.249280000000000257e+01 1.416814999999999998e+02 2.288885000000000218e+03
8.600000000000000699e-02 2.072780000000000178e-01 3.303095000000000425e+01 1.447384999999999877e+02 2.289760000000000218e+03
8.700000000000000788e-02 2.073869999999999880e-01 3.341499999999999915e+01 1.473684999999999832e+02 2.290545000000000073e+03
8.800000000000000877e-02 2.074805000000000121e-01 3.362175000000000580e+01 1.495099999999999909e+02 2.291225000000000364e+03
8.899999999999999578e-02 2.075565000000000049e-01 3.363514999999999588e+01 1.511260000000000048e+02 2.291779999999999745e+03
8.999999999999999667e-02 2.076144999999999796e-01 3.344695000000000107e+01 1.522024999999999864e+02 2.292204999999999927e+03
9.099999999999999756e-02 2.076530000000000042e-01 3.305740000000000123e+01 1.527479999999999905e+02 2.292494999999999891e+03
9.199999999999999845e-02 2.076735000000000109e-01 3.247535000000000593e+01 1.527930000000000064e+02 2.292659999999999854e+03
9.299999999999999933e-02 2.076764999999999861e-01 3.171699999999999875e+01 1.523890000000000100e+02 2.292694999999999709e+03
9.400000000000000022e-02 2.076649999999999885e-01 3.080545000000000044e+01 1.516005000000000109e+02 2.292625000000000000e+03
9.500000000000000111e-02 2.076399999999999912e-01 2.976879999999999882e+01 1.505034999999999741e+02 2.292460000000000036e+03
9.600000000000000200e-02 2.076034999999999964e-01 2.863860000000000028e+01 1.491809999999999832e+02 2.292215000000000146e+03
9.700000000000000289e-02 2.075604999999999811e-01 2.744814999999999827e+01 1.477160000000000082e+02 2.291914999999999964e+03
9.800000000000000377e-02 2.075124999999999886e-01 2.623069999999999879e+01 1.461879999999999882e+02 2.291574999999999818e+03
9.900000000000000466e-02 2.074620000000000075e-01 2.501810000000000045e+01 1.446719999999999970e+02 2.291220000000000255e+03
1.000000000000000056e-01 2.074114999999999986e-01 2.383944999999999936e+01 1.432330000000000041e+02 2.290855000000000018e+03
1.010000000000000064e-01 2.073634999999999784e-01 2.271950000000000003e+01 1.419234999999999900e+02 2.290519999999999982e+03
1.020000000000000073e-01 2.073205000000000187e-01 2.167820000000000036e+01 1.407844999999999800e+02 2.290199999999999818e+03
1.030000000000000082e-01 2.072824999999999807e-01 2.072964999999999947e+01 1.398394999999999868e+02 2.289925000000000182e+03
1.040000000000000091e-01 2.072505000000000042e-01 1.988134999999999764e+01 1.390980000000000132e+02 2.289694999999999709e+03
1.050000000000000100e-01 2.072249999999999925e-01 1.913434999999999775e+01 1.385534999999999854e+02 2.289505000000000109e+03
1.059999999999999970e-01 2.072054999999999869e-01 1.848300000000000054e+01 1.381825000000000045e+02 2.289360000000000127e+03
1.069999999999999979e-01 2.071919999999999873e-01 1.791590000000000060e+01 1.379490000000000123e+02 2.289255000000000109e+03
1.079999999999999988e-01 2.071820000000000050e-01 1.741624999999999801e+01 1.378040000000000020e+02 2.289175000000000182e+03
1.089999999999999997e-01 2.071745000000000114e-01 1.696359999999999957e+01 1.376904999999999859e+02 2.289114999999999782e+03
1.100000000000000006e-01 2.071675000000000044e-01 1.653504999999999825e+01 1.375480000000000018e+02 2.289059999999999945e+03
1.110000000000000014e-01 2.071585000000000232e-01 1.610699999999999932e+01 1.373149999999999977e+02 2.288994999999999891e+03
1.120000000000000023e-01 2.071465000000000112e-01 1.565694999999999837e+01 1.369359999999999786e+02 2.288904999999999745e+03
1.130000000000000032e-01 2.071284999999999932e-01 1.516495000000000104e+01 1.363640000000000043e+02 2.288779999999999745e+03
1.140000000000000041e-01 2.071040000000000103e-01 1.461519999999999975e+01 1.355640000000000214e+02 2.288605000000000018e+03
1.150000000000000050e-01 2.070714999999999917e-01 1.399714999999999954e+01 1.345160000000000196e+02 2.288369999999999891e+03
1.160000000000000059e-01 2.070305000000000062e-01 1.330614999999999881e+01 1.332185000000000059e+02 2.288085000000000036e+03
1.170000000000000068e-01 2.069809999999999983e-01 1.254410000000000025e+01 1.316859999999999786e+02 2.287734999999999673e+03
1.180000000000000077e-01 2.069245000000000112e-01 1.171876500000000121e+01 1.299480000000000075e+02 2.287340000000000146e+03
1.190000000000000085e-01 2.068599999999999883e-01 1.084386999999999901e+01 1.280509999999999877e+02 2.286885000000000218e+03
1.200000000000000094e-01 2.067914999999999892e-01 9.937680000000000291e+00 1.260499999999999972e+02 2.286400000000000091e+03
1.209999999999999964e-01 2.067205000000000015e-01 9.021924999999999528e+00 1.240090000000000003e+02 2.285890000000000327e+03
1.219999999999999973e-01 2.066479999999999984e-01 8.120190000000000907e+00 1.219945000000000022e+02 2.285380000000000109e+03
1.229999999999999982e-01 2.065764999999999962e-01 7.256615000000000038e+00 1.200715000000000003e+02 2.284875000000000000e+03
1.239999999999999991e-01 2.065089999999999981e-01 6.454190000000000538e+00 1.183004999999999995e+02 2.284390000000000327e+03
1.250000000000000000e-01 2.064469999999999916e-01 5.733450000000000379e+00 1.167325000000000017e+02 2.283949999999999818e+03
1.260000000000000009e-01 2.063924999999999788e-01 5.111360000000000348e+00 1.154090000000000060e+02 2.283550000000000182e+03
1.270000000000000018e-01 2.063464999999999883e-01 4.600495000000000445e+00 1.143564999999999969e+02 2.283220000000000255e+03
1.280000000000000027e-01 2.063095000000000068e-01 4.208529999999999660e+00 1.135895000000000010e+02 2.282949999999999818e+03
1.290000000000000036e-01 2.062824999999999798e-01 3.938070000000000181e+00 1.131090000000000089e+02 2.282750000000000000e+03
1.300000000000000044e-01 2.062650000000000039e-01 3.786775000000000446e+00 1.129014999999999986e+02 2.282619999999999891e+03
1.310000000000000053e-01 2.062569999999999959e-01 3.747799999999999798e+00 1.129459999999999980e+02 2.282555000000000291e+03
1.320000000000000062e-01 2.062579999999999969e-01 3.810319999999999929e+00 1.132090000000000032e+02 2.282550000000000182e+03
1.330000000000000071e-01 2.062664999999999915e-01 3.960359999999999658e+00 1.136539999999999964e+02 2.282595000000000255e+03
1.340000000000000080e-01 2.062799999999999911e-01 4.181549999999999656e+00 1.142374999999999972e+02 2.282690000000000055e+03
1.350000000000000089e-01 2.062990000000000101e-01 4.456049999999999400e+00 1.149149999999999920e+02 2.282815000000000055e+03
1.360000000000000098e-01 2.063214999999999910e-01 4.765370000000000772e+00 1.156419999999999959e+02 2.282970000000000255e+03
1.370000000000000107e-01 2.063450000000000006e-01 5.091185000000000294e+00 1.163760000000000048e+02 2.283135000000000218e+03
1.380000000000000115e-01 2.063689999999999969e-01 5.416120000000000267e+00 1.170784999999999911e+02 2.283300000000000182e+03
1.390000000000000124e-01 2.063920000000000199e-01 5.724359999999999893e+00 1.177150000000000034e+02 2.283465000000000146e+03
1.400000000000000133e-01 2.064124999999999988e-01 6.002264999999999517e+00 1.182580000000000098e+02 2.283610000000000127e+03
1.410000000000000142e-01 2.064300000000000024e-01 6.238789999999999836e+00 1.186864999999999952e+02 2.283739999999999782e+03
1.420000000000000151e-01 2.064440000000000164e-01 6.425839999999999996e+00 1.189869999999999948e+02 2.283840000000000146e+03
1.430000000000000160e-01 2.064529999999999976e-01 6.558415000000000106e+00 1.191519999999999868e+02 2.283909999999999854e+03
1.440000000000000169e-01 2.064584999999999892e-01 6.634700000000000486e+00 1.191839999999999975e+02 2.283944999999999709e+03
1.450000000000000178e-01 2.064590000000000036e-01 6.655865000000000364e+00 1.190904999999999916e+02 2.283954999999999927e+03
1.459999999999999909e-01 2.064555000000000140e-01 6.625830000000000553e+00 1.188859999999999957e+02 2.283934999999999945e+03
1.469999999999999918e-01 2.064479999999999926e-01 6.550810000000000244e+00 1.185895000000000010e+02 2.283885000000000218e+03
1.479999999999999927e-01 2.064380000000000104e-01 6.438765000000000072e+00 1.182220000000000084e+02 2.283819999999999709e+03
1.489999999999999936e-01 2.064255000000000118e-01 6.298740000000000450e+00 1.178085000000000093e+02 2.283730000000000018e+03
1.499999999999999944e-01 2.064119999999999844e-01 6.140219999999999345e+00 1.173729999999999905e+02 2.283635000000000218e+03
1.509999999999999953e-01 2.063975000000000115e-01 5.972450000000000259e+00 1.169364999999999952e+02 2.283529999999999745e+03
1.519999999999999962e-01 2.063825000000000243e-01 5.803865000000000052e+00 1.165180000000000007e+02 2.283434999999999945e+03
1.529999999999999971e-01 2.063679999999999959e-01 5.641589999999999883e+00 1.161324999999999932e+02 2.283335000000000036e+03
1.539999999999999980e-01 2.063555000000000250e-01 5.491115000000000634e+00 1.157884999999999991e+02 2.283244999999999891e+03
1.549999999999999989e-01 2.063439999999999996e-01 5.356160000000000032e+00 1.154915000000000020e+02 2.283159999999999854e+03
1.559999999999999998e-01 2.063335000000000030e-01 5.238579999999999792e+00 1.152409999999999997e+02 2.283085000000000036e+03
1.570000000000000007e-01 2.063250000000000084e-01 5.138580000000000148e+00 1.150329999999999870e+02 2.283019999999999982e+03
1.580000000000000016e-01 2.063174999999999870e-01 5.054854999999999876e+00 1.148594999999999970e+02 2.282965000000000146e+03
1.590000000000000024e-01 2.063105000000000078e-01 4.984949999999999548e+00 1.147090000000000032e+02 2.282920000000000073e+03
