# t [s], A [cm^2], U [cm/s], P [cPa], c [cm/s]
1.000000000000000021e-03 4.510969999999999702e-01 5.620699999999999308e-03 1.076880000000000024e+02 1.590434999999999945e+03
2.000000000000000042e-03 4.510889999999999622e-01 -2.726199500000000067e-03 1.076630000000000109e+02 1.590434999999999945e+03
3.000000000000000062e-03 4.511190000000000477e-01 6.587075000000000569e-02 1.077359999999999900e+02 1.590454999999999927e+03
4.000000000000000083e-03 4.511574999999999891e-01 1.611422499999999869e-01 1.078575000000000017e+02 1.590490000000000009e+03
5.000000000000000104e-03 4.511534999999999851e-01 1.669479999999999853e-01 1.078555000000000064e+02 1.590494999999999891e+03
6.000000000000000125e-03 4.511135000000000006e-01 8.585650000000000226e-02 1.076935000000000002e+02 1.590450000000000045e+03
7.000000000000000146e-03 4.510764999999999914e-01 7.022499999999987086e-03 1.074710000000000036e+02 1.590394999999999982e+03
8.000000000000000167e-03 4.510325000000000584e-01 -9.581499999999998352e-02 1.071775000000000091e+02 1.590315000000000055e+03
9.000000000000001055e-03 4.509564999999999824e-01 -2.897950000000000248e-01 1.067270000000000039e+02 1.590195000000000164e+03
1.000000000000000194e-02 4.508434999999999526e-01 -5.865000000000000213e-01 1.060755000000000052e+02 1.590019999999999982e+03
1.099999999999999936e-02 4.506859999999999755e-01 -9.962900000000001199e-01 1.051779999999999973e+02 1.589779999999999973e+03
1.200000000000000025e-02 4.504704999999999959e-01 -1.539740000000000109e+00 1.039721499999999992e+02 1.589445000000000164e+03
1.300000000000000114e-02 4.502005000000000035e-01 -2.191760000000000375e+00 1.024453499999999906e+02 1.589019999999999982e+03
1.400000000000000203e-02 4.499060000000000281e-01 -2.854004999999999903e+00 1.006894000000000062e+02 1.588505000000000109e+03
1.499999999999999944e-02 4.496290000000000564e-01 -3.393390000000000128e+00 9.887049999999999272e+01 1.587960000000000036e+03
1.600000000000000033e-02 4.493989999999999929e-01 -3.704332500000000028e+00 9.715274999999999750e+01 1.587424999999999955e+03
1.700000000000000122e-02 4.492214999999999958e-01 -3.746096050000000233e+00 9.563349999999999795e+01 1.586914999999999964e+03
1.800000000000000211e-02 4.490830000000000100e-01 -3.543502500000000222e+00 9.432110000000000127e+01 1.586454999999999927e+03
1.900000000000000300e-02 4.489559999999999662e-01 -3.163906499999999955e+00 9.315160000000000196e+01 1.586019999999999982e+03
2.000000000000000042e-02 4.488145000000000051e-01 -2.686282500000000351e+00 9.202400000000000091e+01 1.585595000000000027e+03
2.100000000000000130e-02 4.486394999999999689e-01 -2.173997500000000027e+00 9.084069999999999823e+01 1.585154999999999973e+03
2.200000000000000219e-02 4.484270000000000200e-01 -1.658175000000000177e+00 8.954005000000000791e+01 1.584679999999999836e+03
2.299999999999999961e-02 4.481840000000000268e-01 -1.135254999999999903e+00 8.811129999999999995e+01 1.584174999999999955e+03
2.400000000000000050e-02 4.479254999999999765e-01 -5.777399999999999203e-01 8.658955000000000268e+01 1.583639999999999873e+03
2.500000000000000139e-02 4.476670000000000371e-01 4.716999999999993420e-02 8.503485000000000582e+01 1.583095000000000027e+03
2.600000000000000228e-02 4.474199999999999844e-01 7.591450000000001808e-01 8.350520000000000209e+01 1.582550000000000182e+03
2.700000000000000316e-02 4.471859999999999724e-01 1.552629999999999955e+00 8.203360000000000696e+01 1.582014999999999873e+03
2.800000000000000058e-02 4.469589999999999952e-01 2.393710000000000448e+00 8.061544999999999561e+01 1.581490000000000009e+03
2.900000000000000147e-02 4.467244999999999688e-01 3.225404999999999411e+00 7.920824999999999250e+01 1.580974999999999909e+03
3.000000000000000236e-02 4.464650000000000007e-01 3.978940000000000143e+00 7.774154999999998950e+01 1.580449999999999818e+03
3.099999999999999978e-02 4.461654999999999927e-01 4.588239999999999874e+00 7.613535000000000252e+01 1.579880000000000109e+03
3.200000000000000067e-02 4.458154999999999757e-01 5.004179999999999851e+00 7.432115000000000293e+01 1.579269999999999982e+03
3.300000000000000155e-02 4.454135000000000177e-01 5.205580000000000318e+00 7.226224999999999454e+01 1.578590000000000146e+03
3.400000000000000244e-02 4.449684999999999890e-01 5.203344999999999665e+00 6.996625000000000227e+01 1.577855000000000018e+03
3.500000000000000333e-02 4.444980000000000042e-01 5.037330000000000751e+00 6.748730000000000473e+01 1.577059999999999945e+03
3.600000000000000422e-02 4.440235000000000154e-01 4.766799999999999926e+00 6.491745000000000232e+01 1.576240000000000009e+03
3.700000000000000511e-02 4.435675000000000034e-01 4.458249999999999602e+00 6.237109999999999843e+01 1.575420000000000073e+03
3.799999999999999906e-02 4.431514999999999760e-01 4.174305000000000376e+00 5.996760000000000446e+01 1.574630000000000109e+03
3.899999999999999994e-02 4.427920000000000189e-01 3.966029999999999944e+00 5.781595000000000084e+01 1.573909999999999854e+03
4.000000000000000083e-02 4.424985000000000168e-01 3.869060000000000166e+00 5.600399999999999778e+01 1.573275000000000091e+03
4.100000000000000172e-02 4.422774999999999901e-01 3.904160000000000075e+00 5.459385000000000332e+01 1.572759999999999991e+03
4.200000000000000261e-02 4.421309999999999407e-01 4.079826650000000221e+00 5.362120000000000175e+01 1.572375000000000000e+03
4.300000000000000350e-02 4.420574999999999921e-01 4.396740000000000315e+00 5.309964999999999691e+01 1.572130000000000109e+03
4.400000000000000439e-02 4.420544999999999614e-01 4.852280000000000371e+00 5.302660000000000196e+01 1.572025000000000091e+03
4.499999999999999833e-02 4.421199999999999575e-01 5.444234999999999935e+00 5.339000000000000057e+01 1.572055000000000064e+03
4.599999999999999922e-02 4.422524999999999373e-01 6.172950000000000159e+00 5.417405000000000115e+01 1.572230000000000018e+03
4.700000000000000011e-02 4.424494999999999956e-01 7.041595000000000049e+00 5.536294999999999789e+01 1.572529999999999973e+03
4.800000000000000100e-02 4.427105000000000068e-01 8.054795000000000371e+00 5.694225000000000136e+01 1.572970000000000027e+03
4.900000000000000189e-02 4.430339999999999834e-01 9.216224999999999667e+00 5.889740000000000464e+01 1.573529999999999973e+03
5.000000000000000278e-02 4.434175000000000200e-01 1.052599999999999980e+01 6.121159999999999712e+01 1.574214999999999918e+03
5.100000000000000366e-02 4.438575000000000159e-01 1.197867500000000085e+01 6.386315000000000452e+01 1.575005000000000109e+03
5.200000000000000455e-02 4.443484999999999796e-01 1.356226000000000020e+01 6.682314999999999827e+01 1.575909999999999854e+03
5.300000000000000544e-02 4.448830000000000284e-01 1.525833499999999887e+01 7.005504999999999427e+01 1.576910000000000082e+03
5.399999999999999939e-02 4.454519999999999591e-01 1.704321500000000000e+01 7.351539999999999964e+01 1.577990000000000009e+03
5.500000000000000028e-02 4.460475000000000412e-01 1.889000000000000057e+01 7.715560000000000684e+01 1.579139999999999873e+03
5.600000000000000117e-02 4.466605000000000159e-01 2.077084999999999937e+01 8.092494999999999550e+01 1.580345000000000027e+03
5.700000000000000205e-02 4.472829999999999862e-01 2.265895000000000081e+01 8.477404999999998836e+01 1.581585000000000036e+03
5.800000000000000294e-02 4.479084999999999872e-01 2.453045000000000186e+01 8.865755000000000052e+01 1.582849999999999909e+03
5.900000000000000383e-02 4.485299999999999843e-01 2.636589999999999634e+01 9.253784999999999172e+01 1.584130000000000109e+03
6.000000000000000472e-02 4.491454999999999753e-01 2.815040000000000120e+01 9.638429999999999609e+01 1.585410000000000082e+03
6.099999999999999867e-02 4.497514999999999707e-01 2.987389999999999901e+01 1.001767499999999984e+02 1.586684999999999945e+03
6.199999999999999956e-02 4.503480000000000261e-01 3.153085000000000093e+01 1.039038000000000039e+02 1.587940000000000055e+03
6.300000000000000044e-02 4.509355000000000446e-01 3.311905000000000143e+01 1.075623499999999950e+02 1.589190000000000055e+03
6.400000000000000133e-02 4.515149999999999997e-01 3.463909999999999911e+01 1.111551000000000045e+02 1.590420000000000073e+03
6.500000000000000222e-02 4.520874999999999755e-01 3.609329999999999927e+01 1.146905000000000001e+02 1.591635000000000218e+03
6.600000000000000311e-02 4.526559999999999473e-01 3.748510000000000275e+01 1.181784999999999854e+02 1.592839999999999918e+03
6.700000000000000400e-02 4.532209999999999850e-01 3.881799999999999784e+01 1.216320000000000050e+02 1.594029999999999973e+03
6.800000000000000488e-02 4.537855000000000083e-01 4.009530000000000172e+01 1.250610000000000070e+02 1.595220000000000027e+03
6.900000000000000577e-02 4.543490000000000029e-01 4.131929999999999836e+01 1.284759999999999991e+02 1.596405000000000200e+03
7.000000000000000666e-02 4.549134999999999707e-01 4.249115000000000464e+01 1.318810000000000002e+02 1.597585000000000036e+03
7.100000000000000755e-02 4.554774999999999796e-01 4.361020000000000607e+01 1.352785000000000082e+02 1.598759999999999991e+03
7.200000000000000844e-02 4.560405000000000153e-01 4.467435000000000400e+01 1.386655000000000086e+02 1.599940000000000055e+03
7.300000000000000933e-02 4.566000000000000059e-01 4.567960000000000065e+01 1.420324999999999989e+02 1.601115000000000009e+03
7.399999999999999634e-02 4.571539999999999493e-01 4.662059999999999604e+01 1.453685000000000116e+02 1.602275000000000091e+03
7.499999999999999722e-02 4.576989999999999670e-01 4.749074999999999847e+01 1.486555000000000177e+02 1.603424999999999955e+03
7.599999999999999811e-02 4.582320000000000282e-01 4.828300000000000125e+01 1.518740000000000236e+02 1.604559999999999945e+03
7.699999999999999900e-02 4.587490000000000179e-01 4.898990000000000578e+01 1.550035000000000025e+02 1.605659999999999854e+03
7.799999999999999989e-02 4.592470000000000163e-01 4.960444999999999993e+01 1.580215000000000032e+02 1.606735000000000127e+03
7.900000000000000078e-02 4.597225000000000339e-01 5.012040000000000362e+01 1.609080000000000155e+02 1.607769999999999982e+03
8.000000000000000167e-02 4.601724999999999843e-01 5.053270000000000550e+01 1.636424999999999841e+02 1.608755000000000109e+03
8.100000000000000255e-02 4.605949999999999767e-01 5.083764999999999645e+01 1.662090000000000032e+02 1.609684999999999945e+03
8.200000000000000344e-02 4.609874999999999945e-01 5.103314999999999912e+01 1.685955000000000155e+02 1.610559999999999945e+03
8.300000000000000433e-02 4.613494999999999679e-01 5.111870000000000402e+01 1.707914999999999850e+02 1.611375000000000000e+03
8.400000000000000522e-02 4.616795000000000204e-01 5.109544999999999959e+01 1.727909999999999968e+02 1.612125000000000000e+03
8.500000000000000611e-02 4.619779999999999998e-01 5.096614999999999895e+01 1.745935000000000059e+02 1.612809999999999945e+03
8.600000000000000699e-02 4.622459999999999902e-01 5.073520000000000607e+01 1.761995000000000005e+02 1.613424999999999955e+03
8.700000000000000788e-02 4.624835000000000473e-01 5.040829999999999700e+01 1.776150000000000091e+02 1.613974999999999909e+03
8.800000000000000877e-02 4.626915000000000333e-01 4.999269999999999925e+01 1.788489999999999895e+02 1.614465000000000146e+03
8.899999999999999578e-02 4.628740000000000077e-01 4.949675000000000580e+01 1.799119999999999777e+02 1.614894999999999982e+03
8.999999999999999667e-02 4.630319999999999991e-01 4.892980000000000018e+01 1.808185000000000002e+02 1.615264999999999873e+03
9.099999999999999756e-02 4.631674999999999542e-01 4.830214999999999748e+01 1.815835000000000150e+02 1.615590000000000146e+03
9.199999999999999845e-02 4.632840000000000291e-01 4.762460000000000093e+01 1.822245000000000061e+02 1.615865000000000009e+03
9.299999999999999933e-02 4.633839999999999626e-01 4.690820000000000078e+01 1.827595000000000027e+02 1.616099999999999909e+03
9.400000000000000022e-02 4.634710000000000218e-01 4.616394999999999982e+01 1.832055000000000007e+02 1.616299999999999955e+03
9.500000000000000111e-02 4.635469999999999868e-01 4.540234999999999843e+01 1.835809999999999889e+02 1.616469999999999800e+03
9.600000000000000200e-02 4.636149999999999993e-01 4.463304999999999723e+01 1.839014999999999986e+02 1.616610000000000127e+03
9.700000000000000289e-02 4.636764999999999914e-01 4.386454999999999416e+01 1.841825000000000045e+02 1.616740000000000009e+03
9.800000000000000377e-02 4.637335000000000207e-01 4.310379999999999967e+01 1.844354999999999905e+02 1.616849999999999909e+03
9.900000000000000466e-02 4.637875000000000192e-01 4.235620000000000118e+01 1.846694999999999993e+02 1.616945000000000164e+03
1.000000000000000056e-01 4.638384999999999869e-01 4.162510000000000332e+01 1.848909999999999911e+02 1.617039999999999964e+03
1.010000000000000064e-01 4.638880000000000225e-01 4.091219999999999857e+01 1.851034999999999968e+02 1.617119999999999891e+03
1.020000000000000073e-01 4.639345000000000274e-01 4.021729999999999450e+01 1.853054999999999950e+02 1.617204999999999927e+03
1.030000000000000082e-01 4.639769999999999728e-01 3.953875000000000028e+01 1.854950000000000045e+02 1.617275000000000091e+03
1.040000000000000091e-01 4.640159999999999840e-01 3.887355000000000160e+01 1.856670000000000016e+02 1.617340000000000146e+03
1.050000000000000100e-01 4.640489999999999893e-01 3.821764999999999901e+01 1.858135000000000048e+02 1.617394999999999982e+03
1.059999999999999970e-01 4.640745000000000009e-01 3.756640000000000157e+01 1.859254999999999995e+02 1.617434999999999945e+03
1.069999999999999979e-01 4.640914999999999901e-01 3.691479999999999961e+01 1.859945000000000164e+02 1.617465000000000146e+03
1.079999999999999988e-01 4.640980000000000105e-01 3.625780000000000314e+01 1.860120000000000005e+02 1.617480000000000018e+03
1.089999999999999997e-01 4.640935000000000477e-01 3.559069999999999823e+01 1.859689999999999941e+02 1.617474999999999909e+03
1.100000000000000006e-01 4.640775000000000317e-01 3.490930000000000177e+01 1.858575000000000159e+02 1.617444999999999936e+03
1.110000000000000014e-01 4.640474999999999461e-01 3.421014999999999873e+01 1.856734999999999900e+02 1.617394999999999982e+03
1.120000000000000023e-01 4.640045000000000419e-01 3.349080000000000013e+01 1.854110000000000014e+02 1.617315000000000055e+03
1.130000000000000032e-01 4.639480000000000270e-01 3.274985000000000213e+01 1.850704999999999814e+02 1.617215000000000146e+03
1.140000000000000041e-01 4.638784999999999714e-01 3.198724999999999596e+01 1.846519999999999868e+02 1.617090000000000146e+03
1.150000000000000050e-01 4.637970000000000148e-01 3.120400000000000063e+01 1.841585000000000036e+02 1.616934999999999945e+03
1.160000000000000059e-01 4.637040000000000051e-01 3.040240000000000009e+01 1.835960000000000036e+02 1.616759999999999991e+03
1.170000000000000068e-01 4.636014999999999997e-01 2.958610000000000184e+01 1.829724999999999966e+02 1.616559999999999945e+03
1.180000000000000077e-01 4.634909999999999863e-01 2.875959999999999894e+01 1.822975000000000136e+02 1.616345000000000027e+03
1.190000000000000085e-01 4.633749999999999813e-01 2.792844999999999800e+01 1.815824999999999818e+02 1.616110000000000127e+03
1.200000000000000094e-01 4.632550000000000279e-01 2.709895000000000209e+01 1.808414999999999964e+02 1.615869999999999891e+03
1.209999999999999964e-01 4.631345000000000045e-01 2.627789999999999893e+01 1.800865000000000009e+02 1.615625000000000000e+03
1.219999999999999973e-01 4.630140000000000366e-01 2.547240000000000038e+01 1.793324999999999818e+02 1.615369999999999891e+03
1.229999999999999982e-01 4.628975000000000173e-01 2.468945000000000078e+01 1.785944999999999823e+02 1.615119999999999891e+03
1.239999999999999991e-01 4.627864999999999895e-01 2.393589999999999662e+01 1.778840000000000146e+02 1.614875000000000000e+03
1.250000000000000000e-01 4.626824999999999966e-01 2.321804999999999808e+01 1.772144999999999868e+02 1.614644999999999982e+03
1.260000000000000009e-01 4.625879999999999992e-01 2.254159999999999897e+01 1.765970000000000084e+02 1.614425000000000182e+03
1.270000000000000018e-01 4.625035000000000118e-01 2.191104999999999947e+01 1.760405000000000086e+02 1.614224999999999909e+03
1.280000000000000027e-01 4.624304999999999666e-01 2.133004999999999995e+01 1.755509999999999877e+02 1.614039999999999964e+03
1.290000000000000036e-01 4.623694999999999888e-01 2.080095000000000027e+01 1.751345000000000027e+02 1.613880000000000109e+03
1.300000000000000044e-01 4.623200000000000642e-01 2.032495000000000118e+01 1.747914999999999850e+02 1.613744999999999891e+03
1.310000000000000053e-01 4.622825000000000406e-01 1.990200000000000102e+01 1.745229999999999961e+02 1.613634999999999991e+03
1.320000000000000062e-01 4.622560000000000002e-01 1.953075000000000117e+01 1.743259999999999934e+02 1.613545000000000073e+03
1.330000000000000071e-01 4.622405000000000541e-01 1.920899999999999963e+01 1.741965000000000146e+02 1.613480000000000018e+03
1.340000000000000080e-01 4.622335000000000194e-01 1.893349999999999866e+01 1.741285000000000025e+02 1.613430000000000064e+03
1.350000000000000089e-01 4.622344999999999926e-01 1.870029999999999859e+01 1.741134999999999877e+02 1.613409999999999854e+03
1.360000000000000098e-01 4.622420000000000417e-01 1.850505000000000067e+01 1.741440000000000055e+02 1.613400000000000091e+03
1.370000000000000107e-01 4.622549999999999715e-01 1.834290000000000020e+01 1.742110000000000127e+02 1.613404999999999973e+03
1.380000000000000115e-01 4.622715000000000019e-01 1.820919999999999916e+01 1.743054999999999950e+02 1.613414999999999964e+03
1.390000000000000124e-01 4.622910000000000075e-01 1.809904999999999831e+01 1.744199999999999875e+02 1.613440000000000055e+03
1.400000000000000133e-01 4.623110000000000275e-01 1.800820000000000221e+01 1.745459999999999923e+02 1.613469999999999800e+03
1.410000000000000142e-01 4.623315000000000063e-01 1.793244999999999933e+01 1.746764999999999759e+02 1.613505000000000109e+03
1.420000000000000151e-01 4.623515000000000263e-01 1.786820000000000164e+01 1.748075000000000045e+02 1.613545000000000073e+03
1.430000000000000160e-01 4.623705000000000176e-01 1.781240000000000023e+01 1.749329999999999927e+02 1.613574999999999818e+03
1.440000000000000169e-01 4.623885000000000356e-01 1.776254999999999740e+01 1.750514999999999759e+02 1.613610000000000127e+03
1.450000000000000178e-01 4.624044999999999961e-01 1.771655000000000157e+01 1.751594999999999800e+02 1.613644999999999982e+03
1.459999999999999909e-01 4.624189999999999690e-01 1.767304999999999993e+01 1.752580000000000098e+02 1.613675000000000182e+03
1.469999999999999918e-01 4.624320000000000097e-01 1.763084999999999880e+01 1.753460000000000036e+02 1.613700000000000045e+03
1.479999999999999927e-01 4.624435000000000073e-01 1.758944999999999936e+01 1.754245000000000232e+02 1.613730000000000018e+03
1.489999999999999936e-01 4.624540000000000317e-01 1.754844999999999899e+01 1.754964999999999975e+02 1.613750000000000000e+03
1.499999999999999944e-01 4.624639999999999862e-01 1.750784999999999769e+01 1.755620000000000118e+02 1.613775000000000091e+03
1.509999999999999953e-01 4.624734999999999818e-01 1.746775000000000233e+01 1.756250000000000000e+02 1.613795000000000073e+03
1.519999999999999962e-01 4.624834999999999363e-01 1.742855000000000132e+01 1.756864999999999952e+02 1.613820000000000164e+03
1.529999999999999971e-01 4.624935000000000018e-01 1.739065000000000083e+01 1.757495000000000118e+02 1.613835000000000036e+03
1.539999999999999980e-01 4.625044999999999851e-01 1.735444999999999993e+01 1.758149999999999977e+02 1.613865000000000009e+03
1.549999999999999989e-01 4.625159999999999827e-01 1.732045000000000101e+01 1.758849999999999909e+02 1.613884999999999991e+03
1.559999999999999998e-01 4.625295000000000378e-01 1.728909999999999769e+01 1.759625000000000057e+02 1.613909999999999854e+03
1.570000000000000007e-01 4.625434999999999963e-01 1.726084999999999781e+01 1.760464999999999804e+02 1.613940000000000055e+03
1.580000000000000016e-01 4.625589999999999979e-01 1.723584999999999923e+01 1.761385000000000218e+02 1.613970000000000027e+03
1.590000000000000024e-01 4.625765000000000571e-01 1.721424999999999983e+01 1.762384999999999877e+02 1.614005000000000109e+03
