# t [s], A [cm^2], U [cm/s], P [cPa], c [cm/s]
1.000000000000000021e-03 1.198260000000000020e-01 2.430979999999999808e-01 1.031014999999999873e+02 2.002444999999999936e+03
2.000000000000000042e-03 1.198015000000000052e-01 1.733815499999999954e+00 1.000254999999999939e+02 2.002054999999999836e+03
3.000000000000000062e-03 1.197210000000000080e-01 3.610241999999999951e+00 9.579294999999999050e+01 2.000845000000000027e+03
4.000000000000000083e-03 1.196040000000000020e-01 5.723033550000000247e+00 9.097874999999999091e+01 1.999110000000000127e+03
5.000000000000000104e-03 1.194709999999999939e-01 8.010355000000000558e+00 8.639950000000000330e+01 1.997160000000000082e+03
6.000000000000000125e-03 1.193374999999999991e-01 1.034588499999999911e+01 8.247974999999999568e+01 1.995230000000000018e+03
7.000000000000000146e-03 1.192109999999999975e-01 1.254054999999999964e+01 7.915914999999999679e+01 1.993414999999999964e+03
8.000000000000000167e-03 1.190914999999999890e-01 1.446145500000000084e+01 7.619454999999999245e+01 1.991735000000000127e+03
9.000000000000001055e-03 1.189820000000000044e-01 1.609949999999999903e+01 7.352519999999999811e+01 1.990235000000000127e+03
1.000000000000000194e-02 1.188865000000000061e-01 1.749155000000000015e+01 7.122769999999999868e+01 1.988925000000000182e+03
1.099999999999999936e-02 1.188049999999999939e-01 1.865995000000000203e+01 6.933360000000000412e+01 1.987820000000000164e+03
1.200000000000000025e-02 1.187374999999999958e-01 1.961995000000000289e+01 6.781600000000000250e+01 1.986914999999999964e+03
1.300000000000000114e-02 1.186824999999999963e-01 2.038219999999999743e+01 6.661820000000000164e+01 1.986195000000000164e+03
1.400000000000000203e-02 1.186375000000000068e-01 2.094689999999999941e+01 6.564365000000000805e+01 1.985605000000000018e+03
1.499999999999999944e-02 1.186000000000000110e-01 2.132574999999999932e+01 6.479380000000000450e+01 1.985134999999999991e+03
1.600000000000000033e-02 1.185694999999999943e-01 2.157695000000000007e+01 6.407309999999999661e+01 1.984744999999999891e+03
1.700000000000000122e-02 1.185469999999999996e-01 2.181064999999999898e+01 6.365160000000000196e+01 1.984474999999999909e+03
1.800000000000000211e-02 1.185380000000000045e-01 2.214885000000000304e+01 6.380015000000000214e+01 1.984375000000000000e+03
1.900000000000000300e-02 1.185480000000000006e-01 2.266805000000000092e+01 6.473259999999999081e+01 1.984510000000000218e+03
2.000000000000000042e-02 1.185765000000000013e-01 2.336185000000000045e+01 6.646325000000000216e+01 1.984904999999999973e+03
2.100000000000000130e-02 1.186220000000000052e-01 2.414254999999999995e+01 6.876144999999999641e+01 1.985519999999999982e+03
2.200000000000000219e-02 1.186764999999999903e-01 2.487695000000000078e+01 7.121904999999999575e+01 1.986269999999999982e+03
2.299999999999999961e-02 1.187319999999999903e-01 2.543509999999999849e+01 7.338654999999999973e+01 1.987039999999999964e+03
2.400000000000000050e-02 1.187794999999999962e-01 2.573174999999999812e+01 7.491365000000000407e+01 1.987710000000000036e+03
2.500000000000000139e-02 1.188130000000000019e-01 2.574750000000000227e+01 7.564254999999999995e+01 1.988200000000000045e+03
2.600000000000000228e-02 1.188315000000000066e-01 2.552514999999999645e+01 7.562800000000000011e+01 1.988480000000000018e+03
2.700000000000000316e-02 1.188355000000000106e-01 2.514665000000000106e+01 7.508740000000000236e+01 1.988565000000000055e+03
2.800000000000000058e-02 1.188305000000000056e-01 2.470170000000000243e+01 7.430764999999999532e+01 1.988514999999999873e+03
2.900000000000000147e-02 1.188209999999999961e-01 2.425894999999999868e+01 7.354564999999999486e+01 1.988394999999999982e+03
3.000000000000000236e-02 1.188109999999999999e-01 2.384939999999999927e+01 7.295504999999999995e+01 1.988259999999999991e+03
3.099999999999999978e-02 1.188025000000000053e-01 2.346415000000000006e+01 7.255875000000000341e+01 1.988144999999999982e+03
3.200000000000000067e-02 1.187949999999999978e-01 2.306595000000000084e+01 7.226675000000000182e+01 1.988045000000000073e+03
3.300000000000000155e-02 1.187875000000000042e-01 2.260775000000000290e+01 7.192759999999999820e+01 1.987940000000000055e+03
3.400000000000000244e-02 1.187759999999999927e-01 2.205304999999999893e+01 7.139304999999998813e+01 1.987789999999999964e+03
3.500000000000000333e-02 1.187590000000000034e-01 2.139240000000000208e+01 7.057724999999999227e+01 1.987565000000000055e+03
3.600000000000000422e-02 1.187360000000000082e-01 2.065080000000000027e+01 6.949410000000000309e+01 1.987264999999999873e+03
3.700000000000000511e-02 1.187084999999999946e-01 1.988510000000000133e+01 6.826290000000000191e+01 1.986890000000000100e+03
3.799999999999999906e-02 1.186795000000000072e-01 1.917170000000000130e+01 6.708180000000000121e+01 1.986500000000000000e+03
3.899999999999999994e-02 1.186535000000000090e-01 1.858885000000000076e+01 6.617754999999999654e+01 1.986144999999999982e+03
4.000000000000000083e-02 1.186349999999999905e-01 1.819760000000000133e+01 6.574729999999999563e+01 1.985885000000000218e+03
4.100000000000000172e-02 1.186284999999999978e-01 1.802864999999999895e+01 6.590919999999999845e+01 1.985779999999999973e+03
4.200000000000000261e-02 1.186350000000000043e-01 1.807564999999999955e+01 6.667384999999998740e+01 1.985845000000000027e+03
4.300000000000000350e-02 1.186544999999999961e-01 1.829800000000000182e+01 6.794325000000000614e+01 1.986090000000000146e+03
4.400000000000000439e-02 1.186840000000000117e-01 1.862964999999999804e+01 6.953239999999999554e+01 1.986480000000000018e+03
4.499999999999999833e-02 1.187195000000000056e-01 1.899164999999999992e+01 7.120695000000000618e+01 1.986960000000000036e+03
4.599999999999999922e-02 1.187570000000000014e-01 1.930574999999999974e+01 7.272624999999999318e+01 1.987465000000000146e+03
4.700000000000000011e-02 1.187900000000000067e-01 1.950500000000000256e+01 7.388134999999999764e+01 1.987920000000000073e+03
4.800000000000000100e-02 1.188150000000000039e-01 1.954165000000000063e+01 7.452309999999999945e+01 1.988264999999999873e+03
4.900000000000000189e-02 1.188285000000000036e-01 1.938964999999999961e+01 7.457445000000001301e+01 1.988454999999999927e+03
5.000000000000000278e-02 1.188280000000000031e-01 1.904390000000000072e+01 7.402960000000000207e+01 1.988470000000000027e+03
5.100000000000000366e-02 1.188150000000000039e-01 1.851604999999999990e+01 7.294095000000000084e+01 1.988295000000000073e+03
5.200000000000000455e-02 1.187885000000000052e-01 1.782920000000000016e+01 7.140010000000000900e+01 1.987954999999999927e+03
5.300000000000000544e-02 1.187519999999999964e-01 1.701234999999999786e+01 6.951689999999999259e+01 1.987460000000000036e+03
5.399999999999999939e-02 1.187065000000000065e-01 1.609619999999999962e+01 6.740224999999999511e+01 1.986844999999999800e+03
5.500000000000000028e-02 1.186544999999999961e-01 1.511045000000000016e+01 6.515659999999999741e+01 1.986144999999999982e+03
5.600000000000000117e-02 1.185984999999999956e-01 1.408295000000000030e+01 6.286480000000000246e+01 1.985384999999999991e+03
5.700000000000000205e-02 1.185404999999999931e-01 1.304035500000000170e+01 6.059725000000000250e+01 1.984590000000000146e+03
5.800000000000000294e-02 1.184820000000000040e-01 1.200929499999999983e+01 5.841474999999999795e+01 1.983789999999999964e+03
5.900000000000000383e-02 1.184250000000000025e-01 1.101766500000000093e+01 5.637460000000000093e+01 1.983009999999999991e+03
6.000000000000000472e-02 1.183704999999999896e-01 1.009557500000000019e+01 5.453589999999999804e+01 1.982269999999999982e+03
6.099999999999999867e-02 1.183214999999999961e-01 9.275589999999999336e+00 5.296304999999999552e+01 1.981595000000000027e+03
6.199999999999999956e-02 1.182794999999999958e-01 8.591675000000000395e+00 5.172584999999999411e+01 1.981005000000000109e+03
6.300000000000000044e-02 1.182455000000000034e-01 8.077870000000000772e+00 5.089679999999999893e+01 1.980535000000000082e+03
6.400000000000000133e-02 1.182225000000000081e-01 7.766135000000000232e+00 5.054650000000000176e+01 1.980200000000000045e+03
6.500000000000000222e-02 1.182114999999999971e-01 7.684060000000000556e+00 5.073725000000000307e+01 1.980034999999999854e+03
6.600000000000000311e-02 1.182145000000000001e-01 7.852845000000000297e+00 5.151744999999999663e+01 1.980065000000000055e+03
6.700000000000000400e-02 1.182330000000000048e-01 8.285660000000000025e+00 5.291649999999999920e+01 1.980295000000000073e+03
6.800000000000000488e-02 1.182674999999999976e-01 8.986745000000000871e+00 5.494174999999999898e+01 1.980740000000000009e+03
6.900000000000000577e-02 1.183180000000000065e-01 9.951190000000000424e+00 5.757760000000000389e+01 1.981404999999999973e+03
7.000000000000000666e-02 1.183845000000000036e-01 1.116544499999999829e+01 6.078679999999999950e+01 1.982289999999999964e+03
7.100000000000000755e-02 1.184660000000000019e-01 1.260836499999999916e+01 6.451309999999999434e+01 1.983389999999999873e+03
7.200000000000000844e-02 1.185609999999999997e-01 1.425260000000000105e+01 6.868585000000000207e+01 1.984670000000000073e+03
7.300000000000000933e-02 1.186679999999999957e-01 1.606640000000000157e+01 7.322469999999999857e+01 1.986125000000000000e+03
7.399999999999999634e-02 1.187854999999999883e-01 1.801559999999999917e+01 7.804500000000000171e+01 1.987724999999999909e+03
7.499999999999999722e-02 1.189115000000000033e-01 2.006524999999999892e+01 8.306289999999999907e+01 1.989440000000000055e+03
7.599999999999999811e-02 1.190430000000000099e-01 2.218130000000000024e+01 8.819989999999999952e+01 1.991244999999999891e+03
7.699999999999999900e-02 1.191789999999999933e-01 2.433259999999999934e+01 9.338679999999999382e+01 1.993115000000000009e+03
7.799999999999999989e-02 1.193170000000000064e-01 2.649164999999999992e+01 9.856745000000000800e+01 1.995029999999999973e+03
7.900000000000000078e-02 1.194564999999999932e-01 2.863575000000000159e+01 1.036986500000000007e+02 1.996964999999999918e+03
8.000000000000000167e-02 1.195950000000000069e-01 3.074755000000000393e+01 1.087539500000000032e+02 1.998894999999999982e+03
8.100000000000000255e-02 1.197330000000000061e-01 3.281499999999999773e+01 1.137189999999999941e+02 2.000825000000000045e+03
8.200000000000000344e-02 1.198700000000000043e-01 3.483084999999999809e+01 1.185949999999999989e+02 2.002740000000000009e+03
8.300000000000000433e-02 1.200045000000000001e-01 3.679214999999999947e+01 1.233905000000000030e+02 2.004634999999999991e+03
8.400000000000000522e-02 1.201385000000000092e-01 3.869930000000000092e+01 1.281229999999999905e+02 2.006519999999999982e+03
8.500000000000000611e-02 1.202709999999999890e-01 4.055454999999999899e+01 1.328104999999999905e+02 2.008389999999999873e+03
8.600000000000000699e-02 1.204029999999999961e-01 4.236129999999999995e+01 1.374735000000000014e+02 2.010255000000000109e+03
8.700000000000000788e-02 1.205340000000000023e-01 4.412270000000000181e+01 1.421265000000000214e+02 2.012115000000000009e+03
8.800000000000000877e-02 1.206645000000000079e-01 4.584120000000000061e+01 1.467805000000000177e+02 2.013970000000000027e+03
8.899999999999999578e-02 1.207955000000000001e-01 4.751749999999999829e+01 1.514370000000000118e+02 2.015835000000000036e+03
8.999999999999999667e-02 1.209264999999999923e-01 4.915050000000000097e+01 1.560925000000000011e+02 2.017694999999999936e+03
9.099999999999999756e-02 1.210574999999999984e-01 5.073699999999999477e+01 1.607339999999999804e+02 2.019559999999999945e+03
9.199999999999999845e-02 1.211875000000000036e-01 5.227174999999999727e+01 1.653425000000000011e+02 2.021414999999999964e+03
9.299999999999999933e-02 1.213160000000000072e-01 5.374784999999999968e+01 1.698924999999999841e+02 2.023264999999999873e+03
9.400000000000000022e-02 1.214435000000000098e-01 5.515675000000000239e+01 1.743555000000000064e+02 2.025090000000000146e+03
9.500000000000000111e-02 1.215679999999999955e-01 5.648899999999999721e+01 1.786995000000000005e+02 2.026884999999999991e+03
9.600000000000000200e-02 1.216899999999999926e-01 5.773454999999999870e+01 1.828925000000000125e+02 2.028639999999999873e+03
9.700000000000000289e-02 1.218075000000000130e-01 5.888300000000000267e+01 1.869019999999999868e+02 2.030335000000000036e+03
9.800000000000000377e-02 1.219200000000000006e-01 5.992430000000000234e+01 1.906974999999999909e+02 2.031969999999999800e+03
9.900000000000000466e-02 1.220275000000000110e-01 6.084909999999999997e+01 1.942510000000000048e+02 2.033525000000000091e+03
1.000000000000000056e-01 1.221279999999999866e-01 6.164894999999999925e+01 1.975369999999999777e+02 2.034990000000000009e+03
1.010000000000000064e-01 1.222219999999999973e-01 6.231690000000000396e+01 2.005349999999999966e+02 2.036355000000000018e+03
1.020000000000000073e-01 1.223080000000000001e-01 6.284759999999999991e+01 2.032295000000000016e+02 2.037619999999999891e+03
1.030000000000000082e-01 1.223859999999999948e-01 6.323794999999999789e+01 2.056094999999999970e+02 2.038764999999999873e+03
1.040000000000000091e-01 1.224564999999999959e-01 6.348709999999999809e+01 2.076705000000000041e+02 2.039789999999999964e+03
1.050000000000000100e-01 1.225175000000000014e-01 6.359644999999999726e+01 2.094144999999999754e+02 2.040704999999999927e+03
1.059999999999999970e-01 1.225709999999999855e-01 6.357034999999999769e+01 2.108489999999999895e+02 2.041490000000000009e+03
1.069999999999999979e-01 1.226160000000000028e-01 6.341544999999999277e+01 2.119884999999999877e+02 2.042160000000000082e+03
1.079999999999999988e-01 1.226529999999999981e-01 6.314079999999999870e+01 2.128519999999999754e+02 2.042705000000000155e+03
1.089999999999999997e-01 1.226819999999999855e-01 6.275764999999999816e+01 2.134650000000000034e+02 2.043150000000000091e+03
1.100000000000000006e-01 1.227050000000000085e-01 6.227884999999999849e+01 2.138564999999999827e+02 2.043494999999999891e+03
1.110000000000000014e-01 1.227215000000000111e-01 6.171845000000000425e+01 2.140564999999999998e+02 2.043750000000000000e+03
1.120000000000000023e-01 1.227330000000000088e-01 6.109109999999999729e+01 2.140974999999999966e+02 2.043924999999999955e+03
1.130000000000000032e-01 1.227395000000000014e-01 6.041155000000000541e+01 2.140124999999999886e+02 2.044035000000000082e+03
1.140000000000000041e-01 1.227419999999999900e-01 5.969409999999999883e+01 2.138315000000000055e+02 2.044079999999999927e+03
1.150000000000000050e-01 1.227415000000000034e-01 5.895210000000000150e+01 2.135824999999999818e+02 2.044085000000000036e+03
1.160000000000000059e-01 1.227395000000000014e-01 5.819750000000000512e+01 2.132889999999999873e+02 2.044049999999999955e+03
1.170000000000000068e-01 1.227350000000000108e-01 5.744035000000000224e+01 2.129714999999999918e+02 2.043994999999999891e+03
1.180000000000000077e-01 1.227294999999999914e-01 5.668894999999999840e+01 2.126449999999999818e+02 2.043914999999999964e+03
1.190000000000000085e-01 1.227229999999999988e-01 5.594944999999999879e+01 2.123185000000000002e+02 2.043829999999999927e+03
1.200000000000000094e-01 1.227165000000000061e-01 5.522575000000000500e+01 2.119975000000000023e+02 2.043730000000000018e+03
1.209999999999999964e-01 1.227094999999999991e-01 5.451970000000000027e+01 2.116825000000000045e+02 2.043625000000000000e+03
1.219999999999999973e-01 1.227014999999999911e-01 5.383124999999999716e+01 2.113695000000000164e+02 2.043519999999999982e+03
1.229999999999999982e-01 1.226944999999999980e-01 5.315829999999999700e+01 2.110500000000000114e+02 2.043405000000000200e+03
1.239999999999999991e-01 1.226860000000000034e-01 5.249745000000000061e+01 2.107144999999999868e+02 2.043284999999999854e+03
1.250000000000000000e-01 1.226770000000000083e-01 5.184405000000000285e+01 2.103489999999999895e+02 2.043155000000000200e+03
1.260000000000000009e-01 1.226674999999999988e-01 5.119245000000000090e+01 2.099395000000000095e+02 2.043010000000000218e+03
1.270000000000000018e-01 1.226565000000000016e-01 5.053659999999999997e+01 2.094720000000000084e+02 2.042844999999999800e+03
1.280000000000000027e-01 1.226435000000000025e-01 4.987024999999999864e+01 2.089310000000000116e+02 2.042654999999999745e+03
1.290000000000000036e-01 1.226285000000000014e-01 4.918744999999999834e+01 2.083034999999999854e+02 2.042444999999999936e+03
1.300000000000000044e-01 1.226119999999999988e-01 4.848264999999999958e+01 2.075780000000000030e+02 2.042194999999999936e+03
1.310000000000000053e-01 1.225920000000000065e-01 4.775144999999999840e+01 2.067459999999999809e+02 2.041914999999999964e+03
1.320000000000000062e-01 1.225699999999999984e-01 4.699040000000000106e+01 2.058020000000000209e+02 2.041590000000000146e+03
1.330000000000000071e-01 1.225445000000000007e-01 4.619740000000000180e+01 2.047434999999999832e+02 2.041220000000000027e+03
1.340000000000000080e-01 1.225165000000000004e-01 4.537205000000000155e+01 2.035715000000000146e+02 2.040815000000000055e+03
1.350000000000000089e-01 1.224849999999999967e-01 4.451555000000000462e+01 2.022930000000000064e+02 2.040365000000000009e+03
1.360000000000000098e-01 1.224515000000000048e-01 4.363049999999999784e+01 2.009164999999999850e+02 2.039875000000000000e+03
1.370000000000000107e-01 1.224149999999999960e-01 4.272129999999999939e+01 1.994549999999999841e+02 2.039355000000000018e+03
1.380000000000000115e-01 1.223759999999999987e-01 4.179375000000000284e+01 1.979254999999999995e+02 2.038795000000000073e+03
1.390000000000000124e-01 1.223354999999999859e-01 4.085490000000000066e+01 1.963460000000000036e+02 2.038210000000000036e+03
1.400000000000000133e-01 1.222934999999999994e-01 3.991280000000000427e+01 1.947384999999999877e+02 2.037605000000000018e+03
1.410000000000000142e-01 1.222505000000000119e-01 3.897605000000000075e+01 1.931250000000000000e+02 2.036990000000000009e+03
1.420000000000000151e-01 1.222074999999999967e-01 3.805384999999999707e+01 1.915275000000000034e+02 2.036365000000000009e+03
1.430000000000000160e-01 1.221644999999999953e-01 3.715525000000000233e+01 1.899694999999999823e+02 2.035744999999999891e+03
1.440000000000000169e-01 1.221230000000000093e-01 3.628889999999999816e+01 1.884710000000000036e+02 2.035139999999999873e+03
1.450000000000000178e-01 1.220819999999999961e-01 3.546289999999999765e+01 1.870515000000000043e+02 2.034554999999999836e+03
1.459999999999999909e-01 1.220434999999999992e-01 3.468404999999999916e+01 1.857270000000000039e+02 2.033990000000000009e+03
1.469999999999999918e-01 1.220070000000000043e-01 3.395810000000000173e+01 1.845099999999999909e+02 2.033460000000000036e+03
1.479999999999999927e-01 1.219729999999999981e-01 3.328940000000000055e+01 1.834095000000000084e+02 2.032965000000000146e+03
1.489999999999999936e-01 1.219425000000000092e-01 3.268064999999999998e+01 1.824309999999999832e+02 2.032509999999999991e+03
1.499999999999999944e-01 1.219139999999999946e-01 3.213304999999999723e+01 1.815755000000000052e+02 2.032105000000000018e+03
1.509999999999999953e-01 1.218895000000000117e-01 3.164625000000000199e+01 1.808420000000000130e+02 2.031740000000000009e+03
1.519999999999999962e-01 1.218674999999999897e-01 3.121849999999999881e+01 1.802235000000000014e+02 2.031425000000000182e+03
1.529999999999999971e-01 1.218484999999999985e-01 3.084694999999999965e+01 1.797139999999999986e+02 2.031144999999999982e+03
1.539999999999999980e-01 1.218324999999999964e-01 3.052770000000000294e+01 1.793029999999999973e+02 2.030904999999999973e+03
1.549999999999999989e-01 1.218194999999999972e-01 3.025604999999999833e+01 1.789784999999999968e+02 2.030704999999999927e+03
1.559999999999999998e-01 1.218085000000000140e-01 3.002689999999999770e+01 1.787300000000000182e+02 2.030545000000000073e+03
1.570000000000000007e-01 1.217999999999999916e-01 2.983480000000000132e+01 1.785444999999999993e+02 2.030410000000000082e+03
1.580000000000000016e-01 1.217924999999999980e-01 2.967414999999999736e+01 1.784100000000000250e+02 2.030304999999999836e+03
1.590000000000000024e-01 1.217870000000000064e-01 2.953974999999999795e+01 1.783165000000000191e+02 2.030219999999999800e+03
