# t [s], A [cm^2], U [cm/s], P [cPa], c [cm/s]
1.000000000000000021e-03 7.356099999999999861e-01 6.811749999999998362e-03 1.047229999999999990e+02 1.673735000000000127e+03
2.000000000000000042e-03 7.355960000000000276e-01 -4.216575000000000184e-03 1.046889999999999930e+02 1.673724999999999909e+03
3.000000000000000062e-03 7.356594999999999107e-01 9.621250000000000635e-02 1.048015000000000043e+02 1.673755000000000109e+03
4.000000000000000083e-03 7.357154999999999667e-01 1.987050449999999968e-01 1.049290000000000020e+02 1.673779999999999973e+03
5.000000000000000104e-03 7.356749999999999678e-01 1.646953499999999904e-01 1.048460000000000036e+02 1.673764999999999873e+03
6.000000000000000125e-03 7.355895000000000072e-01 5.472099999999996411e-02 1.045840000000000032e+02 1.673710000000000036e+03
7.000000000000000146e-03 7.355190000000000339e-01 -3.948950000000001070e-02 1.042745000000000033e+02 1.673639999999999873e+03
8.000000000000000167e-03 7.354039999999999466e-01 -2.201999999999999513e-01 1.038114999999999952e+02 1.673534999999999854e+03
9.000000000000001055e-03 7.352144999999999930e-01 -5.397850000000000703e-01 1.030995000000000061e+02 1.673375000000000000e+03
1.000000000000000194e-02 7.349520000000000497e-01 -9.917949999999999822e-01 1.021041500000000042e+02 1.673155000000000200e+03
1.099999999999999936e-02 7.345895000000000064e-01 -1.604944999999999844e+00 1.007439500000000123e+02 1.672849999999999909e+03
1.200000000000000025e-02 7.341130000000000155e-01 -2.380054999999999588e+00 9.896280000000000143e+01 1.672445000000000164e+03
1.300000000000000114e-02 7.335760000000000058e-01 -3.207190000000000207e+00 9.685469999999999402e+01 1.671954999999999927e+03
1.400000000000000203e-02 7.330710000000000282e-01 -3.898295499999999691e+00 9.466069999999999141e+01 1.671424999999999955e+03
1.499999999999999944e-02 7.326724999999999488e-01 -4.291637750000000473e+00 9.263764999999999361e+01 1.670909999999999854e+03
1.600000000000000033e-02 7.323965000000000058e-01 -4.324472000000000094e+00 9.093725000000000591e+01 1.670449999999999818e+03
1.700000000000000122e-02 7.322060000000000235e-01 -4.038954999999999629e+00 8.956039999999998713e+01 1.670045000000000073e+03
1.800000000000000211e-02 7.320360000000000200e-01 -3.543670000000000098e+00 8.838665000000000305e+01 1.669690000000000055e+03
1.900000000000000300e-02 7.318225000000000424e-01 -2.960836000000000023e+00 8.724154999999998950e+01 1.669335000000000036e+03
2.000000000000000042e-02 7.315290000000000958e-01 -2.380094000000000154e+00 8.597110000000000696e+01 1.668960000000000036e+03
2.100000000000000130e-02 7.311509999999999954e-01 -1.832529999999999770e+00 8.449739999999999895e+01 1.668539999999999964e+03
2.200000000000000219e-02 7.307170000000000609e-01 -1.292545000000000055e+00 8.283664999999999168e+01 1.668079999999999927e+03
2.299999999999999961e-02 7.302705000000000446e-01 -7.044749999999997403e-01 8.107560000000000855e+01 1.667590000000000146e+03
2.400000000000000050e-02 7.298454999999999249e-01 -1.919499999999985107e-02 7.932094999999999629e+01 1.667095000000000027e+03
2.500000000000000139e-02 7.294575000000000919e-01 7.762350000000002304e-01 7.764875000000000682e+01 1.666619999999999891e+03
2.600000000000000228e-02 7.290944999999999787e-01 1.645750000000000046e+00 7.607030000000000314e+01 1.666160000000000082e+03
2.700000000000000316e-02 7.287239999999999274e-01 2.508929999999999882e+00 7.452420000000000755e+01 1.665710000000000036e+03
2.800000000000000058e-02 7.283009999999999762e-01 3.259129999999999860e+00 7.289135000000000275e+01 1.665244999999999891e+03
2.900000000000000147e-02 7.277824999999999989e-01 3.789165000000000560e+00 7.102809999999999491e+01 1.664730000000000018e+03
3.000000000000000236e-02 7.271400000000000086e-01 4.018525000000000347e+00 6.880795000000000528e+01 1.664144999999999982e+03
3.099999999999999978e-02 7.263690000000000424e-01 3.914799999999999613e+00 6.616219999999999857e+01 1.663469999999999800e+03
3.200000000000000067e-02 7.254935000000000134e-01 3.502109999999999612e+00 6.310509999999999309e+01 1.662700000000000045e+03
3.300000000000000155e-02 7.245559999999999778e-01 2.853880000000000194e+00 5.973629999999999995e+01 1.661860000000000127e+03
3.400000000000000244e-02 7.236150000000000082e-01 2.073160000000000558e+00 5.622025000000000006e+01 1.660974999999999909e+03
3.500000000000000333e-02 7.227255000000000207e-01 1.269284999999999997e+00 5.275300000000000011e+01 1.660085000000000036e+03
3.600000000000000422e-02 7.219329999999999359e-01 5.382000000000006779e-01 4.952774999999999750e+01 1.659250000000000000e+03
3.700000000000000511e-02 7.212699999999999667e-01 -4.939000000000071111e-02 4.670759999999999934e+01 1.658494999999999891e+03
3.799999999999999906e-02 7.207540000000000058e-01 -4.513199999999999434e-01 4.440959999999999752e+01 1.657849999999999909e+03
3.899999999999999994e-02 7.203884999999999872e-01 -6.508750000000000924e-01 4.270020000000000238e+01 1.657345000000000027e+03
4.000000000000000083e-02 7.201684999999999892e-01 -6.494999999999999662e-01 4.160009999999999764e+01 1.656990000000000009e+03
4.100000000000000172e-02 7.200845000000000162e-01 -4.579619999999999802e-01 4.109595000000000198e+01 1.656784999999999854e+03
4.200000000000000261e-02 7.201260000000000439e-01 -8.821700000000000375e-02 4.115394999999999470e+01 1.656719999999999800e+03
4.300000000000000350e-02 7.202844999999999942e-01 4.520799999999999264e-01 4.173329999999999984e+01 1.656800000000000182e+03
4.400000000000000439e-02 7.205529999999999990e-01 1.161364999999999759e+00 4.279545000000000243e+01 1.657000000000000000e+03
4.499999999999999833e-02 7.209284999999999721e-01 2.042329999999999757e+00 4.430720000000000169e+01 1.657329999999999927e+03
4.599999999999999922e-02 7.214059999999999917e-01 3.097654999999999603e+00 4.623949999999999960e+01 1.657769999999999982e+03
4.700000000000000011e-02 7.219789999999999264e-01 4.325109999999999566e+00 4.856224999999999881e+01 1.658315000000000055e+03
4.800000000000000100e-02 7.226394999999999902e-01 5.713744999999999408e+00 5.123890000000000100e+01 1.658954999999999927e+03
4.900000000000000189e-02 7.233724999999999739e-01 7.242209500000000411e+00 5.422245000000000203e+01 1.659684999999999945e+03
5.000000000000000278e-02 7.241615000000000135e-01 8.879290000000001015e+00 5.745420000000000016e+01 1.660480000000000018e+03
5.100000000000000366e-02 7.249870000000000481e-01 1.058664500000000075e+01 6.086540000000000106e+01 1.661335000000000036e+03
5.200000000000000455e-02 7.258295000000000163e-01 1.232250000000000156e+01 6.438155000000000427e+01 1.662224999999999909e+03
5.300000000000000544e-02 7.266694999999999682e-01 1.404566999999999943e+01 6.792820000000000391e+01 1.663139999999999873e+03
5.399999999999999939e-02 7.274920000000000275e-01 1.571936499999999981e+01 7.143649999999999523e+01 1.664050000000000182e+03
5.500000000000000028e-02 7.282845000000000013e-01 1.731369999999999720e+01 7.484870000000000800e+01 1.664954999999999927e+03
5.600000000000000117e-02 7.290395000000000625e-01 1.880724999999999980e+01 7.812149999999999750e+01 1.665829999999999927e+03
5.700000000000000205e-02 7.297534999999999439e-01 2.018704999999999927e+01 8.122769999999999868e+01 1.666670000000000073e+03
5.800000000000000294e-02 7.304260000000000197e-01 2.144810000000000016e+01 8.415609999999999502e+01 1.667474999999999909e+03
5.900000000000000383e-02 7.310605000000000020e-01 2.259185000000000088e+01 8.690979999999998995e+01 1.668240000000000009e+03
6.000000000000000472e-02 7.316624999999999934e-01 2.362474999999999881e+01 8.950325000000000841e+01 1.668965000000000146e+03
6.099999999999999867e-02 7.322385000000000144e-01 2.455669999999999931e+01 9.195974999999999966e+01 1.669650000000000091e+03
6.199999999999999956e-02 7.327954999999999330e-01 2.539995000000000047e+01 9.430780000000000030e+01 1.670315000000000055e+03
6.300000000000000044e-02 7.333410000000000206e-01 2.616774999999999807e+01 9.657920000000000016e+01 1.670954999999999927e+03
6.400000000000000133e-02 7.338815000000000754e-01 2.687320000000000064e+01 9.880455000000000609e+01 1.671579999999999927e+03
6.500000000000000222e-02 7.344230000000000480e-01 2.752859999999999729e+01 1.010109500000000082e+02 1.672195000000000164e+03
6.600000000000000311e-02 7.349704999999999711e-01 2.814410000000000167e+01 1.032225499999999982e+02 1.672815000000000055e+03
6.700000000000000400e-02 7.355264999999999720e-01 2.872729999999999961e+01 1.054540000000000077e+02 1.673434999999999945e+03
6.800000000000000488e-02 7.360900000000000221e-01 2.928209999999999980e+01 1.077125000000000057e+02 1.674059999999999945e+03
6.900000000000000577e-02 7.366604999999999404e-01 2.980879999999999797e+01 1.099954999999999927e+02 1.674690000000000055e+03
7.000000000000000666e-02 7.372330000000000272e-01 3.030400000000000205e+01 1.122909999999999968e+02 1.675320000000000164e+03
7.100000000000000755e-02 7.378014999999999990e-01 3.076120000000000232e+01 1.145805000000000007e+02 1.675949999999999818e+03
7.200000000000000844e-02 7.383595000000000574e-01 3.117139999999999844e+01 1.168370000000000033e+02 1.676569999999999936e+03
7.300000000000000933e-02 7.388989999999999725e-01 3.152434999999999832e+01 1.190300000000000011e+02 1.677174999999999955e+03
7.399999999999999634e-02 7.394110000000000404e-01 3.180934999999999846e+01 1.211270000000000095e+02 1.677759999999999991e+03
7.499999999999999722e-02 7.398900000000000476e-01 3.201639999999999731e+01 1.230964999999999918e+02 1.678315000000000055e+03
7.599999999999999811e-02 7.403280000000000971e-01 3.213669999999999760e+01 1.249099999999999966e+02 1.678829999999999927e+03
7.699999999999999900e-02 7.407205000000000039e-01 3.216344999999999743e+01 1.265420000000000016e+02 1.679299999999999955e+03
7.799999999999999989e-02 7.410634999999999861e-01 3.209220000000000539e+01 1.279740000000000038e+02 1.679730000000000018e+03
7.900000000000000078e-02 7.413540000000000685e-01 3.192099999999999937e+01 1.291929999999999836e+02 1.680089999999999918e+03
8.000000000000000167e-02 7.415920000000000289e-01 3.165044999999999931e+01 1.301924999999999955e+02 1.680405000000000200e+03
8.100000000000000255e-02 7.417780000000000484e-01 3.128374999999999773e+01 1.309724999999999966e+02 1.680655000000000200e+03
8.200000000000000344e-02 7.419150000000001022e-01 3.082639999999999958e+01 1.315399999999999920e+02 1.680849999999999909e+03
8.300000000000000433e-02 7.420044999999999558e-01 3.028629999999999711e+01 1.319070000000000107e+02 1.680990000000000009e+03
8.400000000000000522e-02 7.420515000000000860e-01 2.967324999999999946e+01 1.320894999999999868e+02 1.681079999999999927e+03
8.500000000000000611e-02 7.420619999999999994e-01 2.899879999999999924e+01 1.321090000000000089e+02 1.681125000000000000e+03
8.600000000000000699e-02 7.420415000000000205e-01 2.827570000000000050e+01 1.319894999999999925e+02 1.681125000000000000e+03
8.700000000000000788e-02 7.419959999999999889e-01 2.751764999999999972e+01 1.317570000000000050e+02 1.681095000000000027e+03
8.800000000000000877e-02 7.419324999999999948e-01 2.673850000000000193e+01 1.314385000000000048e+02 1.681039999999999964e+03
8.899999999999999578e-02 7.418569999999999887e-01 2.595190000000000197e+01 1.310614999999999952e+02 1.680960000000000036e+03
8.999999999999999667e-02 7.417750000000000732e-01 2.517070000000000007e+01 1.306504999999999939e+02 1.680865000000000009e+03
9.099999999999999756e-02 7.416910000000001002e-01 2.440625000000000000e+01 1.302280000000000086e+02 1.680769999999999982e+03
9.199999999999999845e-02 7.416110000000000202e-01 2.366795000000000115e+01 1.298149999999999977e+02 1.680664999999999964e+03
9.299999999999999933e-02 7.415365000000000428e-01 2.296294999999999931e+01 1.294254999999999995e+02 1.680565000000000055e+03
9.400000000000000022e-02 7.414704999999999213e-01 2.229589999999999961e+01 1.290709999999999980e+02 1.680470000000000027e+03
9.500000000000000111e-02 7.414130000000000997e-01 2.166870000000000118e+01 1.287560000000000002e+02 1.680380000000000109e+03
9.600000000000000200e-02 7.413629999999999942e-01 2.108075000000000188e+01 1.284809999999999945e+02 1.680299999999999955e+03
9.700000000000000289e-02 7.413195000000000201e-01 2.052909999999999968e+01 1.282425000000000068e+02 1.680230000000000018e+03
9.800000000000000377e-02 7.412805000000000089e-01 2.000870000000000104e+01 1.280314999999999941e+02 1.680164999999999964e+03
9.900000000000000466e-02 7.412425000000000264e-01 1.951304999999999978e+01 1.278369999999999891e+02 1.680105000000000018e+03
1.000000000000000056e-01 7.412015000000000686e-01 1.903419999999999845e+01 1.276444999999999936e+02 1.680045000000000073e+03
1.010000000000000064e-01 7.411544999999999384e-01 1.856385000000000218e+01 1.274389999999999930e+02 1.679985000000000127e+03
1.020000000000000073e-01 7.410980000000000345e-01 1.809329999999999927e+01 1.272050000000000125e+02 1.679920000000000073e+03
1.030000000000000082e-01 7.410274999999999501e-01 1.761424999999999841e+01 1.269265000000000043e+02 1.679845000000000027e+03
1.040000000000000091e-01 7.409405000000000019e-01 1.711909999999999954e+01 1.265900000000000034e+02 1.679755000000000109e+03
1.050000000000000100e-01 7.408350000000000213e-01 1.660150000000000148e+01 1.261839999999999975e+02 1.679650000000000091e+03
1.059999999999999970e-01 7.407090000000000618e-01 1.605644999999999811e+01 1.256995000000000005e+02 1.679525000000000091e+03
1.069999999999999979e-01 7.405619999999999425e-01 1.548104999999999976e+01 1.251315000000000026e+02 1.679380000000000109e+03
1.079999999999999988e-01 7.403934999999999267e-01 1.487429999999999986e+01 1.244795000000000016e+02 1.679214999999999918e+03
1.089999999999999997e-01 7.402064999999999895e-01 1.423754500000000078e+01 1.237464999999999975e+02 1.679029999999999973e+03
1.100000000000000006e-01 7.400025000000000075e-01 1.357413999999999987e+01 1.229395000000000095e+02 1.678825000000000045e+03
1.110000000000000014e-01 7.397845000000000670e-01 1.288963000000000036e+01 1.220699999999999932e+02 1.678599999999999909e+03
1.120000000000000023e-01 7.395575000000000898e-01 1.219143499999999847e+01 1.211535000000000082e+02 1.678360000000000127e+03
1.130000000000000032e-01 7.393250000000000099e-01 1.148834499999999892e+01 1.202079999999999984e+02 1.678115000000000009e+03
1.140000000000000041e-01 7.390930000000000000e-01 1.079026499999999977e+01 1.192524999999999977e+02 1.677864999999999782e+03
1.150000000000000050e-01 7.388664999999999816e-01 1.010779499999999942e+01 1.183094999999999999e+02 1.677615000000000009e+03
1.160000000000000059e-01 7.386504999999999876e-01 9.451499999999999346e+00 1.173990000000000009e+02 1.677369999999999891e+03
1.170000000000000068e-01 7.384500000000000508e-01 8.831540000000000390e+00 1.165430000000000064e+02 1.677134999999999991e+03
1.180000000000000077e-01 7.382690000000000641e-01 8.257274999999999920e+00 1.157590000000000003e+02 1.676920000000000073e+03
1.190000000000000085e-01 7.381115000000000315e-01 7.736709999999999532e+00 1.150639999999999930e+02 1.676719999999999800e+03
1.200000000000000094e-01 7.379789999999999406e-01 7.276085000000000136e+00 1.144694999999999965e+02 1.676554999999999836e+03
1.209999999999999964e-01 7.378744999999999887e-01 6.879870000000000374e+00 1.139855000000000018e+02 1.676404999999999973e+03
1.219999999999999973e-01 7.377974999999999950e-01 6.550414999999999210e+00 1.136159999999999997e+02 1.676289999999999964e+03
1.229999999999999982e-01 7.377480000000000704e-01 6.287995000000000445e+00 1.133615000000000066e+02 1.676200000000000045e+03
1.239999999999999991e-01 7.377249999999999641e-01 6.090875000000000483e+00 1.132189999999999941e+02 1.676139999999999873e+03
1.250000000000000000e-01 7.377255000000000340e-01 5.955500000000000682e+00 1.131804999999999950e+02 1.676110000000000127e+03
1.260000000000000009e-01 7.377475000000000005e-01 5.876730000000000231e+00 1.132360000000000042e+02 1.676105000000000018e+03
1.270000000000000018e-01 7.377865000000000117e-01 5.848205000000000098e+00 1.133725000000000023e+02 1.676125000000000000e+03
1.280000000000000027e-01 7.378405000000000102e-01 5.862635000000000041e+00 1.135759999999999934e+02 1.676160000000000082e+03
1.290000000000000036e-01 7.379040000000000044e-01 5.912219999999999587e+00 1.138305000000000007e+02 1.676210000000000036e+03
1.300000000000000044e-01 7.379750000000000476e-01 5.988965000000000316e+00 1.141219999999999999e+02 1.676275000000000091e+03
1.310000000000000053e-01 7.380484999999999962e-01 6.085010000000000474e+00 1.144334999999999951e+02 1.676345000000000027e+03
1.320000000000000062e-01 7.381229999999999736e-01 6.192890000000000228e+00 1.147524999999999977e+02 1.676420000000000073e+03
1.330000000000000071e-01 7.381945000000000867e-01 6.305785000000000196e+00 1.150670000000000073e+02 1.676494999999999891e+03
1.340000000000000080e-01 7.382615000000000149e-01 6.417645000000000266e+00 1.153659999999999997e+02 1.676574999999999818e+03
1.350000000000000089e-01 7.383220000000000338e-01 6.523360000000000269e+00 1.156419999999999959e+02 1.676639999999999873e+03
1.360000000000000098e-01 7.383754999999999624e-01 6.618774999999999409e+00 1.158884999999999934e+02 1.676704999999999927e+03
1.370000000000000107e-01 7.384205000000000352e-01 6.700750000000000206e+00 1.161015000000000015e+02 1.676769999999999982e+03
1.380000000000000115e-01 7.384574999999999889e-01 6.767149999999999999e+00 1.162800000000000011e+02 1.676820000000000164e+03
1.390000000000000124e-01 7.384865000000000457e-01 6.816794999999999938e+00 1.164230000000000018e+02 1.676855000000000018e+03
1.400000000000000133e-01 7.385074999999999834e-01 6.849400000000000155e+00 1.165324999999999989e+02 1.676889999999999873e+03
1.410000000000000142e-01 7.385219999999999008e-01 6.865504999999999747e+00 1.166115000000000066e+02 1.676920000000000073e+03
1.420000000000000151e-01 7.385310000000000485e-01 6.866329999999999600e+00 1.166634999999999991e+02 1.676940000000000055e+03
1.430000000000000160e-01 7.385355000000000114e-01 6.853709999999999525e+00 1.166945000000000050e+02 1.676950000000000045e+03
1.440000000000000169e-01 7.385375000000000689e-01 6.829905000000000115e+00 1.167085000000000008e+02 1.676960000000000036e+03
1.450000000000000178e-01 7.385369999999999990e-01 6.797449999999999548e+00 1.167115000000000009e+02 1.676965000000000146e+03
1.459999999999999909e-01 7.385364999999999291e-01 6.759045000000000414e+00 1.167094999999999914e+02 1.676970000000000027e+03
1.469999999999999918e-01 7.385369999999999990e-01 6.717349999999999710e+00 1.167069999999999936e+02 1.676970000000000027e+03
1.479999999999999927e-01 7.385390000000000565e-01 6.674859999999999793e+00 1.167085000000000008e+02 1.676974999999999909e+03
1.489999999999999936e-01 7.385435000000000194e-01 6.633770000000000167e+00 1.167179999999999893e+02 1.676980000000000018e+03
1.499999999999999944e-01 7.385509999999999575e-01 6.595880000000000187e+00 1.167375000000000114e+02 1.676985000000000127e+03
1.509999999999999953e-01 7.385615000000000929e-01 6.562504999999999811e+00 1.167694999999999936e+02 1.676994999999999891e+03
1.519999999999999962e-01 7.385749999999999815e-01 6.534454999999999458e+00 1.168129999999999882e+02 1.677005000000000109e+03
1.529999999999999971e-01 7.385919999999999153e-01 6.512014999999999887e+00 1.168694999999999879e+02 1.677019999999999982e+03
1.539999999999999980e-01 7.386110000000000175e-01 6.494995000000000296e+00 1.169344999999999999e+02 1.677039999999999964e+03
1.549999999999999989e-01 7.386310000000000375e-01 6.482810000000000628e+00 1.170080000000000098e+02 1.677054999999999836e+03
1.559999999999999998e-01 7.386520000000000863e-01 6.474544999999999995e+00 1.170859999999999985e+02 1.677079999999999927e+03
1.570000000000000007e-01 7.386725000000000652e-01 6.469095000000000262e+00 1.171645000000000039e+02 1.677099999999999909e+03
1.580000000000000016e-01 7.386924999999999741e-01 6.465265000000000484e+00 1.172404999999999973e+02 1.677119999999999891e+03
1.590000000000000024e-01 7.387099999999999778e-01 6.461885000000000545e+00 1.173105000000000047e+02 1.677139999999999873e+03
