# t [s], A [cm^2], U [cm/s], P [cPa], c [cm/s]
1.000000000000000021e-03 6.870150000000000423e-01 4.046199999999999797e-03 9.753405000000000769e+01 1.659724999999999909e+03
2.000000000000000042e-03 6.870080000000000631e-01 5.611850000000000692e-03 9.751050000000000750e+01 1.659714999999999918e+03
3.000000000000000062e-03 6.870810000000000528e-01 1.315805999999999920e-01 9.764979999999999905e+01 1.659750000000000000e+03
4.000000000000000083e-03 6.871194999999999942e-01 2.122013000000000094e-01 9.775000000000000000e+01 1.659775000000000091e+03
5.000000000000000104e-03 6.870680000000000121e-01 1.467199999999999893e-01 9.761834999999999241e+01 1.659744999999999891e+03
6.000000000000000125e-03 6.869925000000000059e-01 3.308949999999999392e-02 9.733320000000000505e+01 1.659684999999999945e+03
7.000000000000000146e-03 6.869119999999999671e-01 -1.014840000000000186e-01 9.694785000000000252e+01 1.659599999999999909e+03
8.000000000000000167e-03 6.867665000000000575e-01 -3.600250000000000394e-01 9.633424999999999727e+01 1.659465000000000146e+03
9.000000000000001055e-03 6.865415000000000267e-01 -7.715950000000000308e-01 9.541055000000000064e+01 1.659255000000000109e+03
1.000000000000000194e-02 6.862254999999999328e-01 -1.342449999999999921e+00 9.412030000000000030e+01 1.658965000000000146e+03
1.099999999999999936e-02 6.857959999999999612e-01 -2.094700000000000450e+00 9.238535000000000252e+01 1.658565000000000055e+03
1.200000000000000025e-02 6.852654999999999719e-01 -2.983670000000000044e+00 9.020990000000000464e+01 1.658050000000000182e+03
1.300000000000000114e-02 6.847035000000000204e-01 -3.856360000000000010e+00 8.776644999999999186e+01 1.657460000000000036e+03
1.400000000000000203e-02 6.841999999999999194e-01 -4.519125499999999462e+00 8.533854999999999791e+01 1.656849999999999909e+03
1.499999999999999944e-02 6.838109999999999467e-01 -4.836708999999999925e+00 8.318334999999999013e+01 1.656269999999999982e+03
1.600000000000000033e-02 6.835409999999999542e-01 -4.781755000000000422e+00 8.142785000000000650e+01 1.655769999999999982e+03
1.700000000000000122e-02 6.833464999999999678e-01 -4.424019999999999619e+00 8.004525000000001000e+01 1.655335000000000036e+03
1.800000000000000211e-02 6.831685000000000674e-01 -3.885374999999999801e+00 7.889475000000000193e+01 1.654954999999999927e+03
1.900000000000000300e-02 6.829525000000000734e-01 -3.287053999999999920e+00 7.779300000000000637e+01 1.654589999999999918e+03
2.000000000000000042e-02 6.826710000000000278e-01 -2.707770900000000314e+00 7.658844999999999459e+01 1.654210000000000036e+03
2.100000000000000130e-02 6.823250000000000703e-01 -2.166195000000000093e+00 7.521000000000000796e+01 1.653789999999999964e+03
2.200000000000000219e-02 6.819399999999999906e-01 -1.632560000000000011e+00 7.367349999999999000e+01 1.653344999999999800e+03
2.299999999999999961e-02 6.815470000000000139e-01 -1.060580000000000078e+00 7.204959999999999809e+01 1.652875000000000000e+03
2.400000000000000050e-02 6.811659999999999382e-01 -4.220850000000000435e-01 7.041275000000000261e+01 1.652394999999999982e+03
2.500000000000000139e-02 6.807980000000000143e-01 2.707850000000000534e-01 6.879734999999999445e+01 1.651924999999999955e+03
2.600000000000000228e-02 6.804230000000000000e-01 9.614899999999999558e-01 6.717515000000000214e+01 1.651440000000000055e+03
2.700000000000000316e-02 6.800064999999999582e-01 1.561074999999999990e+00 6.545770000000000266e+01 1.650934999999999945e+03
2.800000000000000058e-02 6.795120000000000049e-01 1.970394999999999897e+00 6.352025000000000432e+01 1.650389999999999873e+03
2.900000000000000147e-02 6.789080000000000670e-01 2.105760000000000076e+00 6.123820000000000618e+01 1.649764999999999873e+03
3.000000000000000236e-02 6.781829999999999803e-01 1.921299999999999564e+00 5.852639999999999532e+01 1.649045000000000073e+03
3.099999999999999978e-02 6.773469999999999214e-01 1.421534999999999993e+00 5.536955000000000382e+01 1.648224999999999909e+03
3.200000000000000067e-02 6.764310000000000045e-01 6.609650000000000247e-01 5.183480000000000132e+01 1.647315000000000055e+03
3.300000000000000155e-02 6.754820000000000269e-01 -2.688500000000004775e-01 4.806300000000000239e+01 1.646339999999999918e+03
3.400000000000000244e-02 6.745524999999999993e-01 -1.259100000000000108e+00 4.424419999999999931e+01 1.645344999999999800e+03
3.500000000000000333e-02 6.736925000000000274e-01 -2.203514999999999890e+00 4.058539999999999992e+01 1.644365000000000009e+03
3.600000000000000422e-02 6.729410000000000114e-01 -3.013394999999999602e+00 3.728005000000000280e+01 1.643465000000000146e+03
3.700000000000000511e-02 6.723265000000000491e-01 -3.625500000000000167e+00 3.448539999999999850e+01 1.642664999999999964e+03
3.799999999999999906e-02 6.718644999999999756e-01 -4.003039999999999488e+00 3.231025000000000347e+01 1.642019999999999982e+03
3.899999999999999994e-02 6.715594999999999759e-01 -4.131484000000000378e+00 3.081304999999999694e+01 1.641529999999999973e+03
4.000000000000000083e-02 6.714074999999999349e-01 -4.011884999999999479e+00 3.000775000000000148e+01 1.641215000000000146e+03
4.100000000000000172e-02 6.714014999999999844e-01 -3.653414999999999857e+00 2.987535000000000096e+01 1.641075000000000045e+03
4.200000000000000261e-02 6.715309999999999890e-01 -3.067649999999999988e+00 3.037584999999999980e+01 1.641105000000000018e+03
4.300000000000000350e-02 6.717874999999999819e-01 -2.265444999999999709e+00 3.145920000000000272e+01 1.641289999999999964e+03
4.400000000000000439e-02 6.721584999999999921e-01 -1.256864999999999899e+00 3.307150000000000034e+01 1.641625000000000000e+03
4.499999999999999833e-02 6.726350000000000939e-01 -5.325500000000005230e-02 3.515789999999999793e+01 1.642090000000000146e+03
4.599999999999999922e-02 6.732054999999999012e-01 1.329804999999999904e+00 3.766114999999999924e+01 1.642679999999999836e+03
4.700000000000000011e-02 6.738554999999999406e-01 2.869934999999999903e+00 4.051954999999999529e+01 1.643365000000000009e+03
4.800000000000000100e-02 6.745680000000000565e-01 4.536904999999999966e+00 4.366485000000000127e+01 1.644139999999999873e+03
4.900000000000000189e-02 6.753255000000000230e-01 6.293365000000000542e+00 4.702199999999999847e+01 1.644990000000000009e+03
5.000000000000000278e-02 6.761079999999999313e-01 8.096935000000000215e+00 5.051115000000000066e+01 1.645884999999999991e+03
5.100000000000000366e-02 6.768959999999999422e-01 9.903669999999999973e+00 5.405109999999999815e+01 1.646804999999999836e+03
5.200000000000000455e-02 6.776725000000000110e-01 1.167160499999999956e+01 5.756465000000000032e+01 1.647739999999999782e+03
5.300000000000000544e-02 6.784219999999999695e-01 1.336388999999999960e+01 6.098314999999999486e+01 1.648659999999999854e+03
5.399999999999999939e-02 6.791340000000000154e-01 1.495120500000000163e+01 6.425149999999999295e+01 1.649555000000000064e+03
5.500000000000000028e-02 6.798025000000000873e-01 1.641329999999999956e+01 6.733074999999999477e+01 1.650414999999999964e+03
5.600000000000000117e-02 6.804240000000000288e-01 1.773890000000000100e+01 7.019979999999999620e+01 1.651224999999999909e+03
5.700000000000000205e-02 6.810009999999999675e-01 1.892544999999999789e+01 7.285505000000000564e+01 1.651985000000000127e+03
5.800000000000000294e-02 6.815370000000000594e-01 1.997785000000000011e+01 7.530834999999999013e+01 1.652699999999999818e+03
5.900000000000000383e-02 6.820395000000000207e-01 2.090670000000000073e+01 7.758445000000000391e+01 1.653375000000000000e+03
6.000000000000000472e-02 6.825164999999999704e-01 2.172695000000000221e+01 7.971750000000000114e+01 1.654005000000000109e+03
6.099999999999999867e-02 6.829769999999999452e-01 2.245624999999999716e+01 8.174760000000000559e+01 1.654615000000000009e+03
6.199999999999999956e-02 6.834305000000000518e-01 2.311329999999999885e+01 8.371694999999999709e+01 1.655195000000000164e+03
6.300000000000000044e-02 6.838859999999999939e-01 2.371699999999999875e+01 8.566694999999999993e+01 1.655775000000000091e+03
6.400000000000000133e-02 6.843509999999999316e-01 2.428460000000000107e+01 8.763464999999999350e+01 1.656349999999999909e+03
6.500000000000000222e-02 6.848315000000000374e-01 2.483099999999999952e+01 8.965049999999999386e+01 1.656929999999999836e+03
6.600000000000000311e-02 6.853305000000000646e-01 2.536744999999999806e+01 9.173580000000001178e+01 1.657530000000000200e+03
6.700000000000000400e-02 6.858500000000000707e-01 2.590104999999999791e+01 9.390164999999998940e+01 1.658144999999999982e+03
6.800000000000000488e-02 6.863875000000000393e-01 2.643404999999999916e+01 9.614744999999999209e+01 1.658775000000000091e+03
6.900000000000000577e-02 6.869404999999999539e-01 2.696409999999999840e+01 9.846164999999999168e+01 1.659430000000000064e+03
7.000000000000000666e-02 6.875020000000000575e-01 2.748450000000000060e+01 1.008220000000000027e+02 1.660089999999999918e+03
7.100000000000000755e-02 6.880640000000000089e-01 2.798479999999999990e+01 1.031984999999999957e+02 1.660764999999999873e+03
7.200000000000000844e-02 6.886179999999999524e-01 2.845204999999999984e+01 1.055534999999999997e+02 1.661429999999999836e+03
7.300000000000000933e-02 6.891549999999999621e-01 2.887174999999999869e+01 1.078464999999999918e+02 1.662079999999999927e+03
7.399999999999999634e-02 6.896649999999999725e-01 2.922914999999999708e+01 1.100360000000000014e+02 1.662710000000000036e+03
7.499999999999999722e-02 6.901390000000000580e-01 2.951030000000000086e+01 1.120825000000000102e+02 1.663305000000000064e+03
7.599999999999999811e-02 6.905699999999999061e-01 2.970289999999999964e+01 1.139505000000000052e+02 1.663860000000000127e+03
7.699999999999999900e-02 6.909520000000000106e-01 2.979720000000000013e+01 1.156105000000000018e+02 1.664355000000000018e+03
7.799999999999999989e-02 6.912810000000000343e-01 2.978644999999999854e+01 1.170405000000000086e+02 1.664800000000000182e+03
7.900000000000000078e-02 6.915534999999999322e-01 2.966740000000000066e+01 1.182274999999999920e+02 1.665174999999999955e+03
8.000000000000000167e-02 6.917705000000000659e-01 2.944030000000000058e+01 1.191659999999999968e+02 1.665489999999999782e+03
8.100000000000000255e-02 6.919330000000000203e-01 2.910869999999999891e+01 1.198610000000000042e+02 1.665730000000000018e+03
8.200000000000000344e-02 6.920435000000000336e-01 2.867969999999999686e+01 1.203234999999999957e+02 1.665914999999999964e+03
8.300000000000000433e-02 6.921070000000000277e-01 2.816319999999999979e+01 1.205720000000000027e+02 1.666039999999999964e+03
8.400000000000000522e-02 6.921295000000000641e-01 2.757150000000000034e+01 1.206310000000000002e+02 1.666105000000000018e+03
8.500000000000000611e-02 6.921180000000000110e-01 2.691900000000000048e+01 1.205305000000000035e+02 1.666125000000000000e+03
8.600000000000000699e-02 6.920794999999999586e-01 2.622129999999999939e+01 1.203019999999999925e+02 1.666105000000000018e+03
8.700000000000000788e-02 6.920204999999999274e-01 2.549439999999999884e+01 1.199784999999999968e+02 1.666054999999999836e+03
8.800000000000000877e-02 6.919500000000000650e-01 2.475450000000000017e+01 1.195929999999999893e+02 1.665980000000000018e+03
8.899999999999999578e-02 6.918739999999999890e-01 2.401660000000000039e+01 1.191784999999999997e+02 1.665884999999999991e+03
8.999999999999999667e-02 6.917979999999999130e-01 2.329445000000000121e+01 1.187620000000000005e+02 1.665789999999999964e+03
9.099999999999999756e-02 6.917280000000000095e-01 2.259959999999999880e+01 1.183689999999999998e+02 1.665690000000000055e+03
9.199999999999999845e-02 6.916674999999999907e-01 2.194109999999999872e+01 1.180174999999999983e+02 1.665599999999999909e+03
9.299999999999999933e-02 6.916189999999999838e-01 2.132504999999999740e+01 1.177214999999999918e+02 1.665519999999999982e+03
9.400000000000000022e-02 6.915835000000000177e-01 2.075459999999999994e+01 1.174885000000000019e+02 1.665454999999999927e+03
9.500000000000000111e-02 6.915605000000000224e-01 2.022990000000000066e+01 1.173185000000000002e+02 1.665400000000000091e+03
9.600000000000000200e-02 6.915489999999999693e-01 1.974824999999999875e+01 1.172079999999999984e+02 1.665355000000000018e+03
9.700000000000000289e-02 6.915459999999999940e-01 1.930440000000000111e+01 1.171454999999999984e+02 1.665329999999999927e+03
9.800000000000000377e-02 6.915480000000000516e-01 1.889114999999999966e+01 1.171189999999999998e+02 1.665315000000000055e+03
9.900000000000000466e-02 6.915514999999999857e-01 1.849950000000000117e+01 1.171094999999999970e+02 1.665299999999999955e+03
1.000000000000000056e-01 6.915519999999999445e-01 1.811979999999999791e+01 1.170979999999999990e+02 1.665284999999999854e+03
1.010000000000000064e-01 6.915445000000000064e-01 1.774169999999999803e+01 1.170649999999999977e+02 1.665269999999999982e+03
1.020000000000000073e-01 6.915249999999999453e-01 1.735515000000000185e+01 1.169904999999999973e+02 1.665250000000000000e+03
1.030000000000000082e-01 6.914895000000000902e-01 1.695100000000000051e+01 1.168569999999999993e+02 1.665210000000000036e+03
1.040000000000000091e-01 6.914354999999999807e-01 1.652124999999999844e+01 1.166479999999999961e+02 1.665155000000000200e+03
1.050000000000000100e-01 6.913605000000000445e-01 1.605969999999999942e+01 1.163524999999999920e+02 1.665079999999999927e+03
1.059999999999999970e-01 6.912629999999999608e-01 1.556220000000000070e+01 1.159634999999999962e+02 1.664985000000000127e+03
1.069999999999999979e-01 6.911430000000000629e-01 1.502700000000000102e+01 1.154770000000000039e+02 1.664855000000000018e+03
1.079999999999999988e-01 6.910024999999999640e-01 1.445475000000000065e+01 1.148960000000000008e+02 1.664710000000000036e+03
1.089999999999999997e-01 6.908419999999999561e-01 1.384857000000000049e+01 1.142274999999999920e+02 1.664539999999999964e+03
1.100000000000000006e-01 6.906660000000000021e-01 1.321393499999999932e+01 1.134834999999999923e+02 1.664349999999999909e+03
1.110000000000000014e-01 6.904770000000000074e-01 1.255831000000000053e+01 1.126790000000000020e+02 1.664139999999999873e+03
1.120000000000000023e-01 6.902809999999999224e-01 1.189104999999999990e+01 1.118340000000000032e+02 1.663914999999999964e+03
1.130000000000000032e-01 6.900824999999999321e-01 1.122253500000000059e+01 1.109699999999999989e+02 1.663684999999999945e+03
1.140000000000000041e-01 6.898874999999999869e-01 1.056420499999999940e+01 1.101090000000000089e+02 1.663454999999999927e+03
1.150000000000000050e-01 6.896999999999999797e-01 9.927505000000000024e+00 1.092764999999999986e+02 1.663224999999999909e+03
1.160000000000000059e-01 6.895264999999999311e-01 9.323650000000000659e+00 1.084939999999999998e+02 1.663010000000000218e+03
1.170000000000000068e-01 6.893700000000000383e-01 8.762874999999999304e+00 1.077820000000000107e+02 1.662804999999999836e+03
1.180000000000000077e-01 6.892355000000000009e-01 8.254109999999998948e+00 1.071589999999999918e+02 1.662619999999999891e+03
1.190000000000000085e-01 6.891255000000000575e-01 7.804619999999999891e+00 1.066389999999999958e+02 1.662465000000000146e+03
1.200000000000000094e-01 6.890419999999999323e-01 7.419465000000000643e+00 1.062325000000000017e+02 1.662340000000000146e+03
1.209999999999999964e-01 6.889849999999999586e-01 7.101544999999999774e+00 1.059445000000000050e+02 1.662235000000000127e+03
1.219999999999999973e-01 6.889549999999999841e-01 6.851469999999999949e+00 1.057760000000000105e+02 1.662164999999999964e+03
1.229999999999999982e-01 6.889509999999999801e-01 6.667609999999999815e+00 1.057229999999999990e+02 1.662130000000000109e+03
1.239999999999999991e-01 6.889705000000000412e-01 6.546324999999999505e+00 1.057780000000000058e+02 1.662119999999999891e+03
1.250000000000000000e-01 6.890100000000000113e-01 6.482194999999999929e+00 1.059300000000000068e+02 1.662139999999999873e+03
1.260000000000000009e-01 6.890680000000000138e-01 6.468374999999999986e+00 1.061640000000000015e+02 1.662179999999999836e+03
1.270000000000000018e-01 6.891384999999999872e-01 6.496959999999999624e+00 1.064639999999999986e+02 1.662240000000000009e+03
1.280000000000000027e-01 6.892184999999999562e-01 6.559409999999999741e+00 1.068144999999999953e+02 1.662319999999999936e+03
1.290000000000000036e-01 6.893044999999999867e-01 6.646914999999999907e+00 1.071959999999999980e+02 1.662409999999999854e+03
1.300000000000000044e-01 6.893925000000000747e-01 6.750759999999999650e+00 1.075930000000000035e+02 1.662505000000000109e+03
1.310000000000000053e-01 6.894795000000000229e-01 6.862664999999999793e+00 1.079899999999999949e+02 1.662599999999999909e+03
1.320000000000000062e-01 6.895620000000000083e-01 6.975064999999999849e+00 1.083730000000000047e+02 1.662699999999999818e+03
1.330000000000000071e-01 6.896385000000000431e-01 7.081294999999999895e+00 1.087305000000000064e+02 1.662795000000000073e+03
1.340000000000000080e-01 6.897070000000000700e-01 7.175794999999999924e+00 1.090534999999999997e+02 1.662880000000000109e+03
1.350000000000000089e-01 6.897655000000000314e-01 7.254179999999999851e+00 1.093354999999999961e+02 1.662965000000000146e+03
1.360000000000000098e-01 6.898139999999999272e-01 7.313315000000000232e+00 1.095725000000000051e+02 1.663029999999999973e+03
1.370000000000000107e-01 6.898524999999999796e-01 7.351295000000000357e+00 1.097630000000000052e+02 1.663090000000000146e+03
1.380000000000000115e-01 6.898805000000000076e-01 7.367390000000000327e+00 1.099085000000000036e+02 1.663134999999999991e+03
1.390000000000000124e-01 6.898999999999999577e-01 7.361984999999999779e+00 1.100109999999999957e+02 1.663170000000000073e+03
1.400000000000000133e-01 6.899115000000000109e-01 7.336420000000000385e+00 1.100755000000000052e+02 1.663195000000000164e+03
1.410000000000000142e-01 6.899170000000000025e-01 7.292875000000000441e+00 1.101080000000000041e+02 1.663215000000000146e+03
1.420000000000000151e-01 6.899174999999999613e-01 7.234185000000000088e+00 1.101150000000000091e+02 1.663224999999999909e+03
1.430000000000000160e-01 6.899140000000000272e-01 7.163629999999999498e+00 1.101034999999999968e+02 1.663224999999999909e+03
1.440000000000000169e-01 6.899100000000000232e-01 7.084779999999999411e+00 1.100810000000000031e+02 1.663224999999999909e+03
1.450000000000000178e-01 6.899055000000000604e-01 7.001265000000000072e+00 1.100554999999999950e+02 1.663224999999999909e+03
1.459999999999999909e-01 6.899025000000000851e-01 6.916594999999999160e+00 1.100324999999999989e+02 1.663224999999999909e+03
1.469999999999999918e-01 6.899020000000000152e-01 6.834004999999999441e+00 1.100184999999999889e+02 1.663224999999999909e+03
1.479999999999999927e-01 6.899055000000000604e-01 6.756275000000000475e+00 1.100174999999999983e+02 1.663224999999999909e+03
1.489999999999999936e-01 6.899124999999999286e-01 6.685639999999999361e+00 1.100324999999999989e+02 1.663230000000000018e+03
1.499999999999999944e-01 6.899239999999999817e-01 6.623699999999999477e+00 1.100660000000000025e+02 1.663240000000000009e+03
1.509999999999999953e-01 6.899395000000000389e-01 6.571384999999999366e+00 1.101175000000000068e+02 1.663255000000000109e+03
1.519999999999999962e-01 6.899589999999999890e-01 6.528970000000000162e+00 1.101870000000000118e+02 1.663275000000000091e+03
1.529999999999999971e-01 6.899819999999999842e-01 6.496105000000000018e+00 1.102715000000000032e+02 1.663295000000000073e+03
1.539999999999999980e-01 6.900074999999999958e-01 6.471915000000000084e+00 1.103684999999999974e+02 1.663319999999999936e+03
1.549999999999999989e-01 6.900340000000000362e-01 6.455064999999999387e+00 1.104735000000000014e+02 1.663344999999999800e+03
1.559999999999999998e-01 6.900610000000000355e-01 6.443950000000000067e+00 1.105819999999999936e+02 1.663375000000000000e+03
1.570000000000000007e-01 6.900874999999999648e-01 6.436754999999999782e+00 1.106895000000000095e+02 1.663405000000000200e+03
1.580000000000000016e-01 6.901114999999999888e-01 6.431639999999999802e+00 1.107909999999999968e+02 1.663434999999999945e+03
1.590000000000000024e-01 6.901334999999999553e-01 6.426840000000000330e+00 1.108840000000000003e+02 1.663454999999999927e+03
