# t [s], A [cm^2], U [cm/s], P [cPa], c [cm/s]
1.000000000000000021e-03 1.454190000000000205e-01 4.823649999999999882e-01 9.667034999999999911e+01 1.778050000000000182e+03
2.000000000000000042e-03 1.453814999999999968e-01 2.263066999999999940e+00 9.321010000000001128e+01 1.777650000000000091e+03
3.000000000000000062e-03 1.452640000000000042e-01 4.364067999999999614e+00 8.879845000000000255e+01 1.776445000000000164e+03
4.000000000000000083e-03 1.450970000000000037e-01 6.663241500000000705e+00 8.419625000000000625e+01 1.774750000000000000e+03
5.000000000000000104e-03 1.449104999999999976e-01 9.093524999999999636e+00 8.017205000000001291e+01 1.772889999999999873e+03
6.000000000000000125e-03 1.447264999999999802e-01 1.149859000000000009e+01 7.694280000000000541e+01 1.771065000000000055e+03
7.000000000000000146e-03 1.445514999999999994e-01 1.369385500000000100e+01 7.428055000000000518e+01 1.769349999999999909e+03
8.000000000000000167e-03 1.443885000000000030e-01 1.559154999999999980e+01 7.193134999999999479e+01 1.767775000000000091e+03
9.000000000000001055e-03 1.442404999999999937e-01 1.721365000000000123e+01 6.986589999999999634e+01 1.766369999999999891e+03
1.000000000000000194e-02 1.441109999999999891e-01 1.859750000000000014e+01 6.813705000000000211e+01 1.765154999999999973e+03
1.099999999999999936e-02 1.440004999999999757e-01 1.975690000000000168e+01 6.672615000000000407e+01 1.764125000000000000e+03
1.200000000000000025e-02 1.439064999999999928e-01 2.070420000000000016e+01 6.557845000000000368e+01 1.763259999999999991e+03
1.300000000000000114e-02 1.438294999999999990e-01 2.145655000000000001e+01 6.464849999999999852e+01 1.762554999999999836e+03
1.400000000000000203e-02 1.437649999999999761e-01 2.202619999999999933e+01 6.388315000000000055e+01 1.761980000000000018e+03
1.499999999999999944e-02 1.437124999999999930e-01 2.243250000000000099e+01 6.323114999999999952e+01 1.761514999999999873e+03
1.600000000000000033e-02 1.436684999999999768e-01 2.272970000000000113e+01 6.271420000000000528e+01 1.761134999999999991e+03
1.700000000000000122e-02 1.436370000000000147e-01 2.301494999999999891e+01 6.247970000000000113e+01 1.760869999999999891e+03
1.800000000000000211e-02 1.436224999999999863e-01 2.339799999999999969e+01 6.275554999999999950e+01 1.760755000000000109e+03
1.900000000000000300e-02 1.436310000000000087e-01 2.395110000000000028e+01 6.372480000000000189e+01 1.760849999999999909e+03
2.000000000000000042e-02 1.436655000000000015e-01 2.467139999999999844e+01 6.540055000000000973e+01 1.761179999999999836e+03
2.100000000000000130e-02 1.437235000000000040e-01 2.547704999999999842e+01 6.757880000000000109e+01 1.761734999999999900e+03
2.200000000000000219e-02 1.437970000000000081e-01 2.623505000000000109e+01 6.988654999999999973e+01 1.762424999999999955e+03
2.299999999999999961e-02 1.438745000000000163e-01 2.680559999999999832e+01 7.189629999999999654e+01 1.763159999999999854e+03
2.400000000000000050e-02 1.439429999999999876e-01 2.708464999999999989e+01 7.325454999999999472e+01 1.763820000000000164e+03
2.500000000000000139e-02 1.439924999999999955e-01 2.703069999999999951e+01 7.377689999999999770e+01 1.764305000000000064e+03
2.600000000000000228e-02 1.440184999999999937e-01 2.666959999999999908e+01 7.348290000000000077e+01 1.764575000000000045e+03
2.700000000000000316e-02 1.440204999999999957e-01 2.607914999999999850e+01 7.256614999999999327e+01 1.764619999999999891e+03
2.800000000000000058e-02 1.440044999999999797e-01 2.536064999999999969e+01 7.131784999999999286e+01 1.764490000000000009e+03
2.900000000000000147e-02 1.439765000000000073e-01 2.460934999999999917e+01 7.003385000000000105e+01 1.764244999999999891e+03
3.000000000000000236e-02 1.439449999999999896e-01 2.389175000000000182e+01 6.893629999999998859e+01 1.763965000000000146e+03
3.099999999999999978e-02 1.439154999999999740e-01 2.323615000000000208e+01 6.813130000000001019e+01 1.763690000000000055e+03
3.200000000000000067e-02 1.438919999999999921e-01 2.263584999999999781e+01 6.760740000000001260e+01 1.763470000000000027e+03
3.300000000000000155e-02 1.438730000000000009e-01 2.206154999999999688e+01 6.726760000000000161e+01 1.763295000000000073e+03
3.400000000000000244e-02 1.438574999999999993e-01 2.147814999999999941e+01 6.697884999999999422e+01 1.763150000000000091e+03
3.500000000000000333e-02 1.438419999999999976e-01 2.085979999999999990e+01 6.662315000000000964e+01 1.763010000000000218e+03
3.600000000000000422e-02 1.438245000000000218e-01 2.020129999999999981e+01 6.613705000000000211e+01 1.762845000000000027e+03
3.700000000000000511e-02 1.438039999999999874e-01 1.952199999999999847e+01 6.553100000000000591e+01 1.762655000000000200e+03
3.799999999999999906e-02 1.437805000000000055e-01 1.886254999999999882e+01 6.488649999999999807e+01 1.762440000000000055e+03
3.899999999999999994e-02 1.437574999999999825e-01 1.827580000000000027e+01 6.433355000000000246e+01 1.762224999999999909e+03
4.000000000000000083e-02 1.437384999999999913e-01 1.781449999999999889e+01 6.401590000000000202e+01 1.762050000000000182e+03
4.100000000000000172e-02 1.437285000000000090e-01 1.751834999999999809e+01 6.405244999999999322e+01 1.761950000000000045e+03
4.200000000000000261e-02 1.437299999999999967e-01 1.740419999999999945e+01 6.450589999999999691e+01 1.761954999999999927e+03
4.300000000000000350e-02 1.437450000000000117e-01 1.746105000000000018e+01 6.536410000000000764e+01 1.762085000000000036e+03
4.400000000000000439e-02 1.437729999999999841e-01 1.765055000000000263e+01 6.653804999999999836e+01 1.762335000000000036e+03
4.499999999999999833e-02 1.438114999999999810e-01 1.791250000000000142e+01 6.787579999999999814e+01 1.762690000000000055e+03
4.599999999999999922e-02 1.438559999999999839e-01 1.817370000000000019e+01 6.918659999999999854e+01 1.763094999999999800e+03
4.700000000000000011e-02 1.439000000000000001e-01 1.835829999999999984e+01 7.027070000000000505e+01 1.763500000000000000e+03
4.800000000000000100e-02 1.439374999999999960e-01 1.839699999999999847e+01 7.094804999999999495e+01 1.763845000000000027e+03
4.900000000000000189e-02 1.439614999999999922e-01 1.823525000000000063e+01 7.108074999999999477e+01 1.764075000000000045e+03
5.000000000000000278e-02 1.439679999999999849e-01 1.783724999999999739e+01 7.058695000000000164e+01 1.764144999999999982e+03
5.100000000000000366e-02 1.439535000000000120e-01 1.718825000000000003e+01 6.944489999999998986e+01 1.764014999999999873e+03
5.200000000000000455e-02 1.439169999999999894e-01 1.629305000000000092e+01 6.768854999999999222e+01 1.763680000000000064e+03
5.300000000000000544e-02 1.438579999999999859e-01 1.517339999999999911e+01 6.539664999999999395e+01 1.763134999999999991e+03
5.399999999999999939e-02 1.437789999999999901e-01 1.386390000000000100e+01 6.267904999999999660e+01 1.762409999999999854e+03
5.500000000000000028e-02 1.436824999999999908e-01 1.240783500000000039e+01 5.966230000000000189e+01 1.761514999999999873e+03
5.600000000000000117e-02 1.435730000000000062e-01 1.085356999999999950e+01 5.647759999999999536e+01 1.760505000000000109e+03
5.700000000000000205e-02 1.434549999999999992e-01 9.251364999999999839e+00 5.325155000000000172e+01 1.759400000000000091e+03
5.800000000000000294e-02 1.433320000000000149e-01 7.651644999999999364e+00 5.010125000000000028e+01 1.758259999999999991e+03
5.900000000000000383e-02 1.432089999999999752e-01 6.103545000000000442e+00 4.713185000000000002e+01 1.757110000000000127e+03
6.000000000000000472e-02 1.430899999999999950e-01 4.654086000000000389e+00 4.443649999999999523e+01 1.756000000000000000e+03
6.099999999999999867e-02 1.429785000000000084e-01 3.347748000000000168e+00 4.209779999999999944e+01 1.754960000000000036e+03
6.199999999999999956e-02 1.428785000000000194e-01 2.225888000000000311e+00 4.018824999999999648e+01 1.754019999999999982e+03
6.300000000000000044e-02 1.427930000000000033e-01 1.325990000000000002e+00 3.877150000000000318e+01 1.753215000000000146e+03
6.400000000000000133e-02 1.427255000000000051e-01 6.806999999999999718e-01 3.790109999999999957e+01 1.752569999999999936e+03
6.500000000000000222e-02 1.426769999999999983e-01 3.166174999999999962e-01 3.761934999999999718e+01 1.752115000000000009e+03
6.600000000000000311e-02 1.426514999999999866e-01 2.530195000000000083e-01 3.795454999999999757e+01 1.751849999999999909e+03
6.700000000000000400e-02 1.426485000000000114e-01 5.006909999999999972e-01 3.891880000000000450e+01 1.751809999999999945e+03
6.800000000000000488e-02 1.426709999999999923e-01 1.061036799999999891e+00 4.050574999999999903e+01 1.751990000000000009e+03
6.900000000000000577e-02 1.427169999999999828e-01 1.925663499999999972e+00 4.268930000000000291e+01 1.752404999999999973e+03
7.000000000000000666e-02 1.427869999999999973e-01 3.076563000000000159e+00 4.542395000000000493e+01 1.753034999999999854e+03
7.100000000000000755e-02 1.428800000000000070e-01 4.486914999999999765e+00 4.864645000000000152e+01 1.753880000000000109e+03
7.200000000000000844e-02 1.429934999999999956e-01 6.122419999999999973e+00 5.227864999999999895e+01 1.754914999999999964e+03
7.300000000000000933e-02 1.431250000000000022e-01 7.943125000000000213e+00 5.623250000000000171e+01 1.756119999999999891e+03
7.399999999999999634e-02 1.432714999999999961e-01 9.905419999999999447e+00 6.041410000000000480e+01 1.757470000000000027e+03
7.499999999999999722e-02 1.434290000000000009e-01 1.196409999999999840e+01 6.472934999999999661e+01 1.758934999999999945e+03
7.599999999999999811e-02 1.435950000000000004e-01 1.407452500000000128e+01 6.908830000000000382e+01 1.760480000000000018e+03
7.699999999999999900e-02 1.437660000000000049e-01 1.619415000000000049e+01 7.340925000000000011e+01 1.762075000000000045e+03
7.799999999999999989e-02 1.439384999999999970e-01 1.828419999999999845e+01 7.762145000000001005e+01 1.763695000000000164e+03
7.900000000000000078e-02 1.441089999999999871e-01 2.031060000000000088e+01 8.166759999999999309e+01 1.765299999999999955e+03
8.000000000000000167e-02 1.442760000000000153e-01 2.224504999999999910e+01 8.550425000000001319e+01 1.766880000000000109e+03
8.100000000000000255e-02 1.444374999999999964e-01 2.406555000000000177e+01 8.910285000000000366e+01 1.768414999999999964e+03
8.200000000000000344e-02 1.445914999999999839e-01 2.575649999999999906e+01 9.244915000000000305e+01 1.769880000000000109e+03
8.300000000000000433e-02 1.447375000000000189e-01 2.730914999999999893e+01 9.554245000000000232e+01 1.771275000000000091e+03
8.400000000000000522e-02 1.448750000000000038e-01 2.872115000000000151e+01 9.839509999999999934e+01 1.772590000000000146e+03
8.500000000000000611e-02 1.450040000000000218e-01 2.999634999999999962e+01 1.010300500000000028e+02 1.773829999999999927e+03
8.600000000000000699e-02 1.451244999999999896e-01 3.114400000000000190e+01 1.034791500000000042e+02 1.774994999999999891e+03
8.700000000000000788e-02 1.452384999999999926e-01 3.217795000000000272e+01 1.057830000000000013e+02 1.776095000000000027e+03
8.800000000000000877e-02 1.453460000000000030e-01 3.311574999999999847e+01 1.079860000000000042e+02 1.777140000000000100e+03
8.899999999999999578e-02 1.454489999999999950e-01 3.397715000000000174e+01 1.101330000000000098e+02 1.778139999999999873e+03
8.999999999999999667e-02 1.455500000000000127e-01 3.478280000000000172e+01 1.122694999999999936e+02 1.779115000000000009e+03
9.099999999999999756e-02 1.456485000000000141e-01 3.555320000000000391e+01 1.144375000000000000e+02 1.780079999999999927e+03
9.199999999999999845e-02 1.457485000000000031e-01 3.630720000000000169e+01 1.166735000000000042e+02 1.781045000000000073e+03
9.299999999999999933e-02 1.458494999999999930e-01 3.706055000000000632e+01 1.190030000000000001e+02 1.782019999999999982e+03
9.400000000000000022e-02 1.459525000000000128e-01 3.782574999999999932e+01 1.214429999999999978e+02 1.783025000000000091e+03
9.500000000000000111e-02 1.460600000000000231e-01 3.861055000000000348e+01 1.240010000000000048e+02 1.784059999999999945e+03
9.600000000000000200e-02 1.461704999999999810e-01 3.941819999999999879e+01 1.266714999999999947e+02 1.785130000000000109e+03
9.700000000000000289e-02 1.462855000000000127e-01 4.024699999999999989e+01 1.294395000000000095e+02 1.786244999999999891e+03
9.800000000000000377e-02 1.464030000000000054e-01 4.109060000000000201e+01 1.322779999999999916e+02 1.787384999999999991e+03
9.900000000000000466e-02 1.465235000000000010e-01 4.193869999999999720e+01 1.351544999999999845e+02 1.788549999999999955e+03
1.000000000000000056e-01 1.466449999999999976e-01 4.277760000000000673e+01 1.380289999999999964e+02 1.789735000000000127e+03
1.010000000000000064e-01 1.467674999999999952e-01 4.359085000000000321e+01 1.408575000000000159e+02 1.790914999999999964e+03
1.020000000000000073e-01 1.468879999999999908e-01 4.436075000000000301e+01 1.435939999999999941e+02 1.792085000000000036e+03
1.030000000000000082e-01 1.470055000000000112e-01 4.506869999999999976e+01 1.461959999999999980e+02 1.793230000000000018e+03
1.040000000000000091e-01 1.471180000000000265e-01 4.569665000000000532e+01 1.486189999999999998e+02 1.794329999999999927e+03
1.050000000000000100e-01 1.472245000000000081e-01 4.622759999999999536e+01 1.508269999999999982e+02 1.795375000000000000e+03
1.059999999999999970e-01 1.473229999999999817e-01 4.664659999999999940e+01 1.527880000000000109e+02 1.796339999999999918e+03
1.069999999999999979e-01 1.474130000000000162e-01 4.694124999999999659e+01 1.544770000000000039e+02 1.797224999999999909e+03
1.079999999999999988e-01 1.474920000000000120e-01 4.710199999999999676e+01 1.558770000000000095e+02 1.798005000000000109e+03
1.089999999999999997e-01 1.475604999999999833e-01 4.712284999999999968e+01 1.569784999999999968e+02 1.798684999999999945e+03
1.100000000000000006e-01 1.476179999999999992e-01 4.700145000000000550e+01 1.577794999999999845e+02 1.799255000000000109e+03
1.110000000000000014e-01 1.476629999999999887e-01 4.673869999999999436e+01 1.582869999999999777e+02 1.799704999999999927e+03
1.120000000000000023e-01 1.476965000000000083e-01 4.633934999999999604e+01 1.585124999999999886e+02 1.800049999999999955e+03
1.130000000000000032e-01 1.477185000000000026e-01 4.581119999999999948e+01 1.584764999999999873e+02 1.800275000000000091e+03
1.140000000000000041e-01 1.477300000000000002e-01 4.516504999999999370e+01 1.582035000000000196e+02 1.800400000000000091e+03
1.150000000000000050e-01 1.477315000000000156e-01 4.441425000000000267e+01 1.577220000000000084e+02 1.800430000000000064e+03
1.160000000000000059e-01 1.477235000000000076e-01 4.357410000000000139e+01 1.570645000000000095e+02 1.800365000000000009e+03
1.170000000000000068e-01 1.477080000000000060e-01 4.266150000000000375e+01 1.562655000000000030e+02 1.800220000000000027e+03
1.180000000000000077e-01 1.476854999999999973e-01 4.169395000000000095e+01 1.553594999999999970e+02 1.800009999999999991e+03
1.190000000000000085e-01 1.476574999999999971e-01 4.068959999999999866e+01 1.543820000000000050e+02 1.799744999999999891e+03
1.200000000000000094e-01 1.476259999999999795e-01 3.966599999999999682e+01 1.533664999999999736e+02 1.799440000000000055e+03
1.209999999999999964e-01 1.475914999999999866e-01 3.863989999999999725e+01 1.523424999999999727e+02 1.799110000000000127e+03
1.219999999999999973e-01 1.475544999999999773e-01 3.762659999999999627e+01 1.513385000000000105e+02 1.798755000000000109e+03
1.229999999999999982e-01 1.475180000000000102e-01 3.663965000000000316e+01 1.503774999999999977e+02 1.798400000000000091e+03
1.239999999999999991e-01 1.474810000000000010e-01 3.569034999999999513e+01 1.494770000000000039e+02 1.798045000000000073e+03
1.250000000000000000e-01 1.474460000000000215e-01 3.478759999999999764e+01 1.486510000000000105e+02 1.797700000000000045e+03
1.260000000000000009e-01 1.474130000000000162e-01 3.393764999999999787e+01 1.479075000000000273e+02 1.797375000000000000e+03
1.270000000000000018e-01 1.473820000000000130e-01 3.314395000000000380e+01 1.472490000000000236e+02 1.797070000000000164e+03
1.280000000000000027e-01 1.473539999999999850e-01 3.240744999999999720e+01 1.466719999999999970e+02 1.796789999999999964e+03
1.290000000000000036e-01 1.473280000000000145e-01 3.172650000000000148e+01 1.461705000000000041e+02 1.796534999999999854e+03
1.300000000000000044e-01 1.473049999999999915e-01 3.109724999999999895e+01 1.457319999999999993e+02 1.796304999999999836e+03
1.310000000000000053e-01 1.472839999999999983e-01 3.051365000000000194e+01 1.453419999999999845e+02 1.796095000000000027e+03
1.320000000000000062e-01 1.472654999999999936e-01 2.996809999999999974e+01 1.449834999999999923e+02 1.795904999999999973e+03
1.330000000000000071e-01 1.472475000000000034e-01 2.945190000000000197e+01 1.446354999999999791e+02 1.795724999999999909e+03
1.340000000000000080e-01 1.472304999999999864e-01 2.895524999999999949e+01 1.442789999999999964e+02 1.795554999999999836e+03
1.350000000000000089e-01 1.472134999999999971e-01 2.846819999999999951e+01 1.438935000000000173e+02 1.795380000000000109e+03
1.360000000000000098e-01 1.471949999999999925e-01 2.798060000000000258e+01 1.434590000000000032e+02 1.795199999999999818e+03
1.370000000000000107e-01 1.471755000000000146e-01 2.748300000000000054e+01 1.429575000000000102e+02 1.795005000000000109e+03
1.380000000000000115e-01 1.471534999999999926e-01 2.696675000000000111e+01 1.423750000000000000e+02 1.794789999999999964e+03
1.390000000000000124e-01 1.471290000000000098e-01 2.642445000000000022e+01 1.416979999999999791e+02 1.794545000000000073e+03
1.400000000000000133e-01 1.471004999999999951e-01 2.585020000000000095e+01 1.409175000000000182e+02 1.794275000000000091e+03
1.410000000000000142e-01 1.470690000000000053e-01 2.523979999999999890e+01 1.400300000000000011e+02 1.793965000000000146e+03
1.420000000000000151e-01 1.470329999999999970e-01 2.459114999999999895e+01 1.390335000000000036e+02 1.793615000000000009e+03
1.430000000000000160e-01 1.469934999999999992e-01 2.390409999999999968e+01 1.379314999999999998e+02 1.793230000000000018e+03
1.440000000000000169e-01 1.469489999999999963e-01 2.318064999999999998e+01 1.367330000000000041e+02 1.792804999999999836e+03
1.450000000000000178e-01 1.469014999999999904e-01 2.242459999999999809e+01 1.354495000000000005e+02 1.792340000000000146e+03
1.459999999999999909e-01 1.468499999999999805e-01 2.164189999999999969e+01 1.340955000000000155e+02 1.791845000000000027e+03
1.469999999999999918e-01 1.467960000000000098e-01 2.083980000000000032e+01 1.326899999999999977e+02 1.791320000000000164e+03
1.479999999999999927e-01 1.467390000000000083e-01 2.002714999999999890e+01 1.312529999999999859e+02 1.790775000000000091e+03
1.489999999999999936e-01 1.466814999999999924e-01 1.921369999999999933e+01 1.298069999999999879e+02 1.790210000000000036e+03
1.499999999999999944e-01 1.466224999999999890e-01 1.840990000000000038e+01 1.283750000000000000e+02 1.789644999999999982e+03
1.509999999999999953e-01 1.465635000000000132e-01 1.762634999999999863e+01 1.269795000000000016e+02 1.789069999999999936e+03
1.519999999999999962e-01 1.465055000000000107e-01 1.687355000000000160e+01 1.256424999999999983e+02 1.788509999999999991e+03
1.529999999999999971e-01 1.464484999999999815e-01 1.616155000000000186e+01 1.243850000000000051e+02 1.787965000000000146e+03
1.539999999999999980e-01 1.463949999999999974e-01 1.549950000000000117e+01 1.232235000000000014e+02 1.787440000000000055e+03
1.549999999999999989e-01 1.463440000000000019e-01 1.489525000000000077e+01 1.221740000000000066e+02 1.786949999999999818e+03
1.559999999999999998e-01 1.462979999999999836e-01 1.435529999999999973e+01 1.212479999999999905e+02 1.786494999999999891e+03
1.570000000000000007e-01 1.462554999999999827e-01 1.388439999999999941e+01 1.204540000000000077e+02 1.786079999999999927e+03
1.580000000000000016e-01 1.462184999999999735e-01 1.348569999999999958e+01 1.197949999999999875e+02 1.785715000000000146e+03
1.590000000000000024e-01 1.461859999999999826e-01 1.316025000000000134e+01 1.192719999999999914e+02 1.785400000000000091e+03
