# t [s], A [cm^2], U [cm/s], P [cPa], c [cm/s]
1.000000000000000021e-03 5.474179999999999602e-01 2.356850000000000611e-03 1.023130000000000024e+02 1.412170000000000073e+03
2.000000000000000042e-03 5.474114999999999398e-01 2.664220000000000563e-03 1.022959999999999923e+02 1.412164999999999964e+03
3.000000000000000062e-03 5.474630000000000329e-01 9.399374999999998703e-02 1.023770000000000095e+02 1.412190000000000055e+03
4.000000000000000083e-03 5.475109999999999699e-01 1.807218549999999868e-01 1.024770000000000039e+02 1.412224999999999909e+03
5.000000000000000104e-03 5.474965000000000526e-01 1.611112999999999851e-01 1.024454999999999956e+02 1.412224999999999909e+03
6.000000000000000125e-03 5.474440000000000417e-01 6.973250000000000282e-02 1.022770000000000010e+02 1.412180000000000064e+03
7.000000000000000146e-03 5.473885000000000556e-01 -3.348000000000000975e-02 1.020269999999999868e+02 1.412119999999999891e+03
8.000000000000000167e-03 5.473069999999999879e-01 -1.892499999999999183e-01 1.016620000000000061e+02 1.412019999999999982e+03
9.000000000000001055e-03 5.471694999999999753e-01 -4.542299999999999116e-01 1.011034999999999968e+02 1.411869999999999891e+03
1.000000000000000194e-02 5.469705000000000261e-01 -8.314799999999999969e-01 1.003112500000000011e+02 1.411650000000000091e+03
1.099999999999999936e-02 5.467044999999999266e-01 -1.318825000000000136e+00 9.925575000000000614e+01 1.411349999999999909e+03
1.200000000000000025e-02 5.463565000000000227e-01 -1.925464999999999982e+00 9.789574999999999250e+01 1.410954999999999927e+03
1.300000000000000114e-02 5.459275000000000100e-01 -2.630959999999999965e+00 9.622034999999999627e+01 1.410454999999999927e+03
1.400000000000000203e-02 5.454485000000000028e-01 -3.353024999999999700e+00 9.429769999999999186e+01 1.409869999999999891e+03
1.499999999999999944e-02 5.449729999999999297e-01 -3.965100000000000069e+00 9.227424999999999500e+01 1.409230000000000018e+03
1.600000000000000033e-02 5.445519999999999250e-01 -4.346660499999999594e+00 9.032389999999999475e+01 1.408589999999999918e+03
1.700000000000000122e-02 5.442135000000000167e-01 -4.427119999999999500e+00 8.858609999999998763e+01 1.407980000000000018e+03
1.800000000000000211e-02 5.439555000000000362e-01 -4.202311250000000165e+00 8.712720000000000198e+01 1.407429999999999836e+03
1.900000000000000300e-02 5.437535000000000007e-01 -3.725578500000000126e+00 8.593180000000000973e+01 1.406944999999999936e+03
2.000000000000000042e-02 5.435699999999999976e-01 -3.083949800000000074e+00 8.492029999999999745e+01 1.406509999999999991e+03
2.100000000000000130e-02 5.433689999999999909e-01 -2.369587000000000110e+00 8.398035000000000139e+01 1.406094999999999800e+03
2.200000000000000219e-02 5.431239999999999402e-01 -1.654770000000000074e+00 8.300339999999999918e+01 1.405679999999999836e+03
2.299999999999999961e-02 5.428270000000000595e-01 -9.771799999999999375e-01 8.191434999999999889e+01 1.405240000000000009e+03
2.400000000000000050e-02 5.424830000000000485e-01 -3.391999999999999460e-01 8.068510000000000559e+01 1.404759999999999991e+03
2.500000000000000139e-02 5.421080000000000343e-01 2.801750000000002849e-01 7.933060000000000400e+01 1.404250000000000000e+03
2.600000000000000228e-02 5.417199999999999793e-01 9.071749999999996206e-01 7.789070000000000960e+01 1.403710000000000036e+03
2.700000000000000316e-02 5.413295000000000190e-01 1.556384999999999685e+00 7.640729999999999222e+01 1.403154999999999973e+03
2.800000000000000058e-02 5.409395000000000175e-01 2.220405000000000406e+00 7.490520000000000778e+01 1.402595000000000027e+03
2.900000000000000147e-02 5.405415000000000081e-01 2.867704999999999949e+00 7.338100000000000023e+01 1.402014999999999873e+03
3.000000000000000236e-02 5.401209999999999622e-01 3.447735000000000216e+00 7.180244999999999322e+01 1.401420000000000073e+03
3.099999999999999978e-02 5.396579999999999711e-01 3.900794999999999568e+00 7.011525000000000318e+01 1.400795000000000073e+03
3.200000000000000067e-02 5.391350000000000309e-01 4.170325000000000060e+00 6.825674999999999670e+01 1.400125000000000000e+03
3.300000000000000155e-02 5.385379999999999612e-01 4.214660000000000295e+00 6.617190000000000794e+01 1.399394999999999982e+03
3.400000000000000244e-02 5.378654999999999964e-01 4.015795000000000670e+00 6.382885000000000275e+01 1.398585000000000036e+03
3.500000000000000333e-02 5.371254999999999225e-01 3.584020000000000206e+00 6.123000000000000398e+01 1.397704999999999927e+03
3.600000000000000422e-02 5.363354999999999650e-01 2.956789999999999807e+00 5.841665000000000418e+01 1.396764999999999873e+03
3.700000000000000511e-02 5.355235000000000412e-01 2.193145000000000344e+00 5.546645000000000181e+01 1.395775000000000091e+03
3.799999999999999906e-02 5.347195000000000142e-01 1.365194999999999936e+00 5.248484999999999445e+01 1.394764999999999873e+03
3.899999999999999994e-02 5.339574999999999738e-01 5.485350000000002169e-01 4.959255000000000280e+01 1.393775000000000091e+03
4.000000000000000083e-02 5.332669999999999355e-01 -1.861449999999997829e-01 4.691254999999999598e+01 1.392835000000000036e+03
4.100000000000000172e-02 5.326735000000000220e-01 -7.791449999999997544e-01 4.455774999999999864e+01 1.391985000000000127e+03
4.200000000000000261e-02 5.321964999999999613e-01 -1.185249999999999915e+00 4.262215000000000487e+01 1.391250000000000000e+03
4.300000000000000350e-02 5.318469999999999587e-01 -1.374554999999999971e+00 4.117475000000000307e+01 1.390659999999999854e+03
4.400000000000000439e-02 5.316324999999999523e-01 -1.331174999999999997e+00 4.025795000000000101e+01 1.390235000000000127e+03
4.499999999999999833e-02 5.315529999999999422e-01 -1.050714000000000148e+00 3.988849999999999341e+01 1.389985000000000127e+03
4.599999999999999922e-02 5.316049999999999942e-01 -5.371603999999999823e-01 4.006139999999999901e+01 1.389914999999999964e+03
4.700000000000000011e-02 5.317815000000000181e-01 1.999800000000000466e-01 4.075440000000000396e+01 1.390019999999999982e+03
4.800000000000000100e-02 5.320745000000000058e-01 1.147839999999999971e+00 4.193299999999999983e+01 1.390289999999999964e+03
4.900000000000000189e-02 5.324740000000000029e-01 2.291324999999999612e+00 4.355480000000000018e+01 1.390715000000000146e+03
5.000000000000000278e-02 5.329690000000000261e-01 3.613339999999999996e+00 4.557219999999999516e+01 1.391285000000000082e+03
5.100000000000000366e-02 5.335469999999999935e-01 5.094459999999999766e+00 4.793469999999999942e+01 1.391985000000000127e+03
5.200000000000000455e-02 5.341964999999999630e-01 6.712150000000000283e+00 5.058929999999999438e+01 1.392795000000000073e+03
5.300000000000000544e-02 5.349034999999999762e-01 8.440654000000000323e+00 5.348099999999999454e+01 1.393710000000000036e+03
5.399999999999999939e-02 5.356540000000000745e-01 1.025075000000000003e+01 5.655315000000000225e+01 1.394690000000000055e+03
5.500000000000000028e-02 5.364335000000000075e-01 1.211046499999999959e+01 5.974790000000000134e+01 1.395730000000000018e+03
5.600000000000000117e-02 5.372265000000000512e-01 1.398642000000000074e+01 6.300780000000000314e+01 1.396815000000000055e+03
5.700000000000000205e-02 5.380205000000000126e-01 1.584521499999999961e+01 6.627705000000000268e+01 1.397914999999999964e+03
5.800000000000000294e-02 5.388020000000000032e-01 1.765522999999999954e+01 6.950390000000000157e+01 1.399025000000000091e+03
5.900000000000000383e-02 5.395594999999999697e-01 1.938824999999999932e+01 7.264244999999999663e+01 1.400119999999999891e+03
6.000000000000000472e-02 5.402854999999999741e-01 2.102084999999999937e+01 7.565505000000000280e+01 1.401184999999999945e+03
6.099999999999999867e-02 5.409739999999999549e-01 2.253525000000000134e+01 7.851340000000000430e+01 1.402210000000000036e+03
6.199999999999999956e-02 5.416214999999999780e-01 2.392000000000000171e+01 8.119939999999999714e+01 1.403199999999999818e+03
6.300000000000000044e-02 5.422270000000000145e-01 2.516980000000000217e+01 8.370600000000000307e+01 1.404125000000000000e+03
6.400000000000000133e-02 5.427925000000000111e-01 2.628504999999999825e+01 8.603594999999999970e+01 1.405009999999999991e+03
6.500000000000000222e-02 5.433230000000000004e-01 2.727134999999999820e+01 8.820115000000001260e+01 1.405835000000000036e+03
6.600000000000000311e-02 5.438214999999999577e-01 2.813839999999999719e+01 9.022090000000000032e+01 1.406625000000000000e+03
6.700000000000000400e-02 5.442960000000000020e-01 2.889900000000000091e+01 9.212024999999999864e+01 1.407360000000000127e+03
6.800000000000000488e-02 5.447535000000000016e-01 2.956815000000000282e+01 9.392779999999999063e+01 1.408074999999999818e+03
6.900000000000000577e-02 5.452000000000000179e-01 3.016215000000000046e+01 9.567414999999999736e+01 1.408759999999999991e+03
7.000000000000000666e-02 5.456440000000000179e-01 3.069770000000000110e+01 9.738984999999999559e+01 1.409425000000000182e+03
7.100000000000000755e-02 5.460914999999999520e-01 3.119109999999999872e+01 9.910394999999999754e+01 1.410085000000000036e+03
7.200000000000000844e-02 5.465484999999999927e-01 3.165780000000000172e+01 1.008419999999999987e+02 1.410755000000000109e+03
7.300000000000000933e-02 5.470194999999999919e-01 3.211140000000000327e+01 1.026269999999999953e+02 1.411429999999999836e+03
7.399999999999999634e-02 5.475084999999999535e-01 3.256345000000000312e+01 1.044739999999999895e+02 1.412125000000000000e+03
7.499999999999999722e-02 5.480174999999999352e-01 3.302264999999999873e+01 1.063960000000000008e+02 1.412835000000000036e+03
7.599999999999999811e-02 5.485459999999999781e-01 3.349450000000000216e+01 1.083965000000000032e+02 1.413575000000000045e+03
7.699999999999999900e-02 5.490939999999999710e-01 3.398094999999999999e+01 1.104724999999999966e+02 1.414335000000000036e+03
7.799999999999999989e-02 5.496579999999999799e-01 3.448035000000000139e+01 1.126159999999999997e+02 1.415115000000000009e+03
7.900000000000000078e-02 5.502335000000000420e-01 3.498765000000000214e+01 1.148110000000000070e+02 1.415910000000000082e+03
8.000000000000000167e-02 5.508150000000000546e-01 3.549429999999999552e+01 1.170354999999999990e+02 1.416720000000000027e+03
8.100000000000000255e-02 5.513954999999999274e-01 3.598930000000000007e+01 1.192644999999999982e+02 1.417534999999999854e+03
8.200000000000000344e-02 5.519665000000000266e-01 3.645935000000000059e+01 1.214660000000000082e+02 1.418345000000000027e+03
8.300000000000000433e-02 5.525204999999999700e-01 3.689005000000000223e+01 1.236094999999999970e+02 1.419144999999999982e+03
8.400000000000000522e-02 5.530494999999999717e-01 3.726654999999999518e+01 1.256620000000000061e+02 1.419909999999999854e+03
8.500000000000000611e-02 5.535459999999999825e-01 3.757439999999999714e+01 1.275914999999999964e+02 1.420639999999999873e+03
8.600000000000000699e-02 5.540019999999999945e-01 3.780030000000000001e+01 1.293700000000000045e+02 1.421319999999999936e+03
8.700000000000000788e-02 5.544130000000000447e-01 3.793295000000000528e+01 1.309710000000000036e+02 1.421950000000000045e+03
8.800000000000000877e-02 5.547739999999999894e-01 3.796334999999999837e+01 1.323754999999999882e+02 1.422514999999999873e+03
8.899999999999999578e-02 5.550815000000000055e-01 3.788540000000000418e+01 1.335679999999999836e+02 1.423009999999999991e+03
8.999999999999999667e-02 5.553334999999999244e-01 3.769590000000000174e+01 1.345409999999999968e+02 1.423429999999999836e+03
9.099999999999999756e-02 5.555309999999999970e-01 3.739489999999999981e+01 1.352915000000000134e+02 1.423775000000000091e+03
9.199999999999999845e-02 5.556754999999999889e-01 3.698534999999999684e+01 1.358245000000000005e+02 1.424045000000000073e+03
9.299999999999999933e-02 5.557684999999999986e-01 3.647315000000000396e+01 1.361494999999999891e+02 1.424240000000000009e+03
9.400000000000000022e-02 5.558144999999999891e-01 3.586674999999999613e+01 1.362805000000000177e+02 1.424365000000000009e+03
9.500000000000000111e-02 5.558184999999999931e-01 3.517669999999999675e+01 1.362384999999999877e+02 1.424420000000000073e+03
9.600000000000000200e-02 5.557864999999999611e-01 3.441550000000000153e+01 1.360450000000000159e+02 1.424424999999999955e+03
9.700000000000000289e-02 5.557235000000000369e-01 3.359685000000000343e+01 1.357259999999999991e+02 1.424375000000000000e+03
9.800000000000000377e-02 5.556364999999999776e-01 3.273534999999999684e+01 1.353064999999999998e+02 1.424284999999999854e+03
9.900000000000000466e-02 5.555330000000000545e-01 3.184590000000000032e+01 1.348154999999999859e+02 1.424154999999999973e+03
1.000000000000000056e-01 5.554185000000000372e-01 3.094324999999999903e+01 1.342779999999999916e+02 1.424009999999999991e+03
1.010000000000000064e-01 5.552984999999999172e-01 3.004139999999999588e+01 1.337195000000000107e+02 1.423845000000000027e+03
1.020000000000000073e-01 5.551794999999999369e-01 2.915344999999999942e+01 1.331634999999999991e+02 1.423670000000000073e+03
1.030000000000000082e-01 5.550654999999999895e-01 2.829090000000000060e+01 1.326295000000000073e+02 1.423500000000000000e+03
1.040000000000000091e-01 5.549604999999999677e-01 2.746340000000000003e+01 1.321349999999999909e+02 1.423335000000000036e+03
1.050000000000000100e-01 5.548679999999999168e-01 2.667849999999999966e+01 1.316914999999999907e+02 1.423174999999999955e+03
1.059999999999999970e-01 5.547895000000000465e-01 2.594150000000000134e+01 1.313089999999999975e+02 1.423034999999999854e+03
1.069999999999999979e-01 5.547254999999999825e-01 2.525520000000000209e+01 1.309920000000000186e+02 1.422914999999999964e+03
1.079999999999999988e-01 5.546765000000000168e-01 2.462024999999999864e+01 1.307409999999999854e+02 1.422809999999999945e+03
1.089999999999999997e-01 5.546404999999999808e-01 2.403474999999999895e+01 1.305519999999999925e+02 1.422724999999999909e+03
1.100000000000000006e-01 5.546170000000000266e-01 2.349499999999999744e+01 1.304180000000000064e+02 1.422659999999999854e+03
1.110000000000000014e-01 5.546024999999999983e-01 2.299540000000000006e+01 1.303294999999999959e+02 1.422610000000000127e+03
1.120000000000000023e-01 5.545940000000000314e-01 2.252870000000000061e+01 1.302729999999999961e+02 1.422570000000000164e+03
1.130000000000000032e-01 5.545875000000000110e-01 2.208695000000000164e+01 1.302355000000000018e+02 1.422539999999999964e+03
1.140000000000000041e-01 5.545805000000000318e-01 2.166110000000000113e+01 1.302010000000000218e+02 1.422515000000000100e+03
1.150000000000000050e-01 5.545674999999999910e-01 2.124220000000000041e+01 1.301539999999999964e+02 1.422485000000000127e+03
1.160000000000000059e-01 5.545465000000000533e-01 2.082115000000000293e+01 1.300784999999999911e+02 1.422445000000000164e+03
1.170000000000000068e-01 5.545134999999999925e-01 2.038940000000000197e+01 1.299615000000000009e+02 1.422404999999999973e+03
1.180000000000000077e-01 5.544655000000000555e-01 1.993950000000000244e+01 1.297905000000000086e+02 1.422340000000000146e+03
1.190000000000000085e-01 5.544005000000000738e-01 1.946494999999999820e+01 1.295540000000000020e+02 1.422260000000000218e+03
1.200000000000000094e-01 5.543164999999999898e-01 1.896075000000000088e+01 1.292450000000000045e+02 1.422154999999999973e+03
1.209999999999999964e-01 5.542129999999999557e-01 1.842340000000000089e+01 1.288589999999999804e+02 1.422029999999999973e+03
1.219999999999999973e-01 5.540899999999999714e-01 1.785140000000000171e+01 1.283935000000000173e+02 1.421875000000000000e+03
1.229999999999999982e-01 5.539475000000000371e-01 1.724484999999999957e+01 1.278504999999999967e+02 1.421695000000000164e+03
1.239999999999999991e-01 5.537874999999999881e-01 1.660560000000000258e+01 1.272344999999999970e+02 1.421489999999999782e+03
1.250000000000000000e-01 5.536110000000000753e-01 1.593740000000000023e+01 1.265519999999999925e+02 1.421259999999999991e+03
1.260000000000000009e-01 5.534224999999999284e-01 1.524544999999999817e+01 1.258140000000000072e+02 1.421014999999999873e+03
1.270000000000000018e-01 5.532239999999999380e-01 1.453650000000000020e+01 1.250324999999999989e+02 1.420755000000000109e+03
1.280000000000000027e-01 5.530194999999999972e-01 1.381822000000000017e+01 1.242214999999999918e+02 1.420474999999999909e+03
1.290000000000000036e-01 5.528119999999999701e-01 1.309931000000000090e+01 1.233960000000000008e+02 1.420190000000000055e+03
1.300000000000000044e-01 5.526065000000000005e-01 1.238912999999999975e+01 1.225730000000000075e+02 1.419900000000000091e+03
1.310000000000000053e-01 5.524074999999999402e-01 1.169700500000000076e+01 1.217680000000000007e+02 1.419614999999999782e+03
1.320000000000000062e-01 5.522175000000000278e-01 1.103233999999999959e+01 1.209975000000000023e+02 1.419340000000000146e+03
1.330000000000000071e-01 5.520410000000000039e-01 1.040404999999999980e+01 1.202759999999999962e+02 1.419075000000000045e+03
1.340000000000000080e-01 5.518809999999999549e-01 9.820195000000000007e+00 1.196179999999999950e+02 1.418829999999999927e+03
1.350000000000000089e-01 5.517404999999999671e-01 9.287805000000000533e+00 1.190345000000000084e+02 1.418605000000000018e+03
1.360000000000000098e-01 5.516204999999999581e-01 8.812599999999999767e+00 1.185344999999999942e+02 1.418405000000000200e+03
1.370000000000000107e-01 5.515240000000000142e-01 8.398755000000001303e+00 1.181250000000000000e+02 1.418235000000000127e+03
1.380000000000000115e-01 5.514505000000000656e-01 8.048795000000000144e+00 1.178089999999999975e+02 1.418099999999999909e+03
1.390000000000000124e-01 5.514004999999999601e-01 7.763724999999999987e+00 1.175885000000000105e+02 1.417990000000000009e+03
1.400000000000000133e-01 5.513734999999999609e-01 7.542719999999999203e+00 1.174604999999999961e+02 1.417914999999999964e+03
1.410000000000000142e-01 5.513675000000000104e-01 7.383454999999999657e+00 1.174215000000000089e+02 1.417869999999999891e+03
1.420000000000000151e-01 5.513810000000000100e-01 7.282135000000000247e+00 1.174639999999999986e+02 1.417855000000000018e+03
1.430000000000000160e-01 5.514114999999999434e-01 7.233724999999999739e+00 1.175784999999999911e+02 1.417865000000000009e+03
1.440000000000000169e-01 5.514565000000000161e-01 7.232149999999999856e+00 1.177549999999999955e+02 1.417894999999999982e+03
1.450000000000000178e-01 5.515129999999999200e-01 7.270524999999999238e+00 1.179819999999999993e+02 1.417945000000000164e+03
1.459999999999999909e-01 5.515775000000000539e-01 7.341474999999999973e+00 1.182460000000000093e+02 1.418014999999999873e+03
1.469999999999999918e-01 5.516475000000000684e-01 7.437339999999999840e+00 1.185354999999999990e+02 1.418094999999999800e+03
1.479999999999999927e-01 5.517195000000000293e-01 7.550464999999999982e+00 1.188370000000000033e+02 1.418184999999999945e+03
1.489999999999999936e-01 5.517910000000000315e-01 7.673415000000000319e+00 1.191389999999999958e+02 1.418275000000000091e+03
1.499999999999999944e-01 5.518589999999999884e-01 7.799210000000000420e+00 1.194314999999999998e+02 1.418369999999999891e+03
1.509999999999999953e-01 5.519220000000000237e-01 7.921514999999999418e+00 1.197040000000000077e+02 1.418460000000000036e+03
1.519999999999999962e-01 5.519779999999999687e-01 8.034739999999999327e+00 1.199495000000000005e+02 1.418539999999999964e+03
1.529999999999999971e-01 5.520249999999999879e-01 8.134219999999999118e+00 1.201610000000000014e+02 1.418615000000000009e+03
1.539999999999999980e-01 5.520629999999999704e-01 8.216234999999999289e+00 1.203340000000000032e+02 1.418680000000000064e+03
1.549999999999999989e-01 5.520905000000000395e-01 8.278069999999999595e+00 1.204659999999999940e+02 1.418730000000000018e+03
1.559999999999999998e-01 5.521085000000000020e-01 8.318025000000000446e+00 1.205559999999999974e+02 1.418769999999999982e+03
1.570000000000000007e-01 5.521165000000000100e-01 8.335364999999999469e+00 1.206045000000000016e+02 1.418795000000000073e+03
1.580000000000000016e-01 5.521150000000000224e-01 8.330255000000001075e+00 1.206140000000000043e+02 1.418809999999999945e+03
1.590000000000000024e-01 5.521055000000000268e-01 8.303710000000000591e+00 1.205865000000000009e+02 1.418809999999999945e+03
