# t [s], A [cm^2], U [cm/s], P [cPa], c [cm/s]
1.000000000000000021e-03 2.083865000000000023e-01 3.233319500000000346e-01 9.986860000000000070e+01 2.142994999999999891e+03
2.000000000000000042e-03 2.083174999999999888e-01 1.957664000000000071e+00 9.623680000000000234e+01 2.142475000000000364e+03
3.000000000000000062e-03 2.081439999999999957e-01 3.999622000000000011e+00 9.107280000000000086e+01 2.141234999999999673e+03
4.000000000000000083e-03 2.079150000000000165e-01 6.318755000000000344e+00 8.551805000000000234e+01 2.139630000000000109e+03
5.000000000000000104e-03 2.076775000000000149e-01 8.811825000000000685e+00 8.065860000000000696e+01 2.137980000000000018e+03
6.000000000000000125e-03 2.074555000000000149e-01 1.122556999999999938e+01 7.673265000000000668e+01 2.136460000000000036e+03
7.000000000000000146e-03 2.072510000000000185e-01 1.329302000000000206e+01 7.333469999999999800e+01 2.135079999999999927e+03
8.000000000000000167e-03 2.070670000000000011e-01 1.497005000000000052e+01 7.028010000000000446e+01 2.133875000000000000e+03
9.000000000000001055e-03 2.069114999999999982e-01 1.632710000000000150e+01 6.772159999999999513e+01 2.132860000000000127e+03
1.000000000000000194e-02 2.067849999999999966e-01 1.740019999999999811e+01 6.571320000000000050e+01 2.132050000000000182e+03
1.099999999999999936e-02 2.066864999999999952e-01 1.822005000000000052e+01 6.420900000000000318e+01 2.131430000000000291e+03
1.200000000000000025e-02 2.066125000000000045e-01 1.881475000000000009e+01 6.313984999999999559e+01 2.130969999999999800e+03
1.300000000000000114e-02 2.065575000000000050e-01 1.918475000000000108e+01 6.234815000000000396e+01 2.130635000000000218e+03
1.400000000000000203e-02 2.065144999999999897e-01 1.935875000000000057e+01 6.168840000000000146e+01 2.130380000000000109e+03
1.499999999999999944e-02 2.064845000000000153e-01 1.947005000000000052e+01 6.128804999999999836e+01 2.130210000000000036e+03
1.600000000000000033e-02 2.064805000000000113e-01 1.973154999999999859e+01 6.159919999999999618e+01 2.130199999999999818e+03
1.700000000000000122e-02 2.065175000000000205e-01 2.031074999999999875e+01 6.310205000000000553e+01 2.130439999999999600e+03
1.800000000000000211e-02 2.066014999999999935e-01 2.121405000000000030e+01 6.590600000000000591e+01 2.130985000000000127e+03
1.900000000000000300e-02 2.067235000000000045e-01 2.226624999999999943e+01 6.956475000000000364e+01 2.131774999999999636e+03
2.000000000000000042e-02 2.068590000000000151e-01 2.318805000000000049e+01 7.321600000000000819e+01 2.132664999999999964e+03
2.100000000000000130e-02 2.069774999999999809e-01 2.371905000000000285e+01 7.593484999999999729e+01 2.133465000000000146e+03
2.200000000000000219e-02 2.070545000000000024e-01 2.372180000000000177e+01 7.710515000000000896e+01 2.134005000000000109e+03
2.299999999999999961e-02 2.070790000000000131e-01 2.322505000000000308e+01 7.663769999999999527e+01 2.134199999999999818e+03
2.400000000000000050e-02 2.070555000000000034e-01 2.239375000000000071e+01 7.495300000000000296e+01 2.134079999999999927e+03
2.500000000000000139e-02 2.070020000000000193e-01 2.144814999999999827e+01 7.276015000000001010e+01 2.133744999999999891e+03
2.600000000000000228e-02 2.069400000000000128e-01 2.057249999999999801e+01 7.075005000000000166e+01 2.133345000000000255e+03
2.700000000000000316e-02 2.068860000000000143e-01 1.985415000000000063e+01 6.934364999999999668e+01 2.132985000000000127e+03
2.800000000000000058e-02 2.068480000000000041e-01 1.927114999999999867e+01 6.858719999999999573e+01 2.132724999999999909e+03
2.900000000000000147e-02 2.068225000000000202e-01 1.872344999999999970e+01 6.820730000000000359e+01 2.132555000000000291e+03
3.000000000000000236e-02 2.068000000000000116e-01 1.808939999999999770e+01 6.777729999999999677e+01 2.132400000000000091e+03
3.099999999999999978e-02 2.067680000000000073e-01 1.728385000000000105e+01 6.691944999999999766e+01 2.132194999999999709e+03
3.200000000000000067e-02 2.067184999999999995e-01 1.630030000000000001e+01 6.547230000000000416e+01 2.131880000000000109e+03
3.300000000000000155e-02 2.066525000000000167e-01 1.522224999999999895e+01 6.356974999999999909e+01 2.131454999999999927e+03
3.400000000000000244e-02 2.065790000000000126e-01 1.420204999999999984e+01 6.160844999999999771e+01 2.130980000000000018e+03
3.500000000000000333e-02 2.065144999999999897e-01 1.341280000000000072e+01 6.011599999999999966e+01 2.130550000000000182e+03
3.600000000000000422e-02 2.064750000000000196e-01 1.299394999999999989e+01 5.957285000000000252e+01 2.130274999999999636e+03
3.700000000000000511e-02 2.064745000000000053e-01 1.300779999999999959e+01 6.025239999999999441e+01 2.130244999999999891e+03
3.799999999999999906e-02 2.065164999999999917e-01 1.342160000000000153e+01 6.213289999999999935e+01 2.130489999999999782e+03
3.899999999999999994e-02 2.065954999999999875e-01 1.411655000000000015e+01 6.490094999999999459e+01 2.130989999999999782e+03
4.000000000000000083e-02 2.066985000000000072e-01 1.491785000000000139e+01 6.803389999999998849e+01 2.131650000000000091e+03
4.100000000000000172e-02 2.068065000000000042e-01 1.563380000000000081e+01 7.092615000000000691e+01 2.132355000000000018e+03
4.200000000000000261e-02 2.068989999999999996e-01 1.609284999999999854e+01 7.301955000000000950e+01 2.132965000000000146e+03
4.300000000000000350e-02 2.069590000000000041e-01 1.617079999999999984e+01 7.390614999999999668e+01 2.133375000000000000e+03
4.400000000000000439e-02 2.069735000000000047e-01 1.580424999999999969e+01 7.338374999999999204e+01 2.133489999999999782e+03
4.499999999999999833e-02 2.069374999999999964e-01 1.498975000000000080e+01 7.146070000000000277e+01 2.133279999999999745e+03
4.599999999999999922e-02 2.068530000000000091e-01 1.377274999999999849e+01 6.831765000000000043e+01 2.132750000000000000e+03
4.700000000000000011e-02 2.067259999999999931e-01 1.222971500000000056e+01 6.424420000000000641e+01 2.131934999999999945e+03
4.800000000000000100e-02 2.065664999999999862e-01 1.045126499999999936e+01 5.957040000000000646e+01 2.130899999999999636e+03
4.900000000000000189e-02 2.063860000000000139e-01 8.527809999999998780e+00 5.461055000000000348e+01 2.129720000000000255e+03
5.000000000000000278e-02 2.061939999999999884e-01 6.542309999999999626e+00 4.962940000000000396e+01 2.128460000000000036e+03
5.100000000000000366e-02 2.059995000000000021e-01 4.567631900000000300e+00 4.483214999999999861e+01 2.127189999999999600e+03
5.200000000000000455e-02 2.058110000000000217e-01 2.668905000000000083e+00 4.037330000000000041e+01 2.125944999999999709e+03
5.300000000000000544e-02 2.056344999999999978e-01 9.068299999999998029e-01 3.637434999999999974e+01 2.124779999999999745e+03
5.399999999999999939e-02 2.054754999999999776e-01 -6.593000000000002192e-01 3.294275000000000375e+01 2.123725000000000364e+03
5.500000000000000028e-02 2.053384999999999794e-01 -1.970533500000000160e+00 3.018469999999999942e+01 2.122809999999999945e+03
5.600000000000000117e-02 2.052289999999999948e-01 -2.969836500000000434e+00 2.820809999999999818e+01 2.122074999999999818e+03
5.700000000000000205e-02 2.051514999999999866e-01 -3.605754999999999821e+00 2.711710000000000065e+01 2.121545000000000073e+03
5.800000000000000294e-02 2.051100000000000145e-01 -3.837299999999999933e+00 2.699915000000000020e+01 2.121244999999999891e+03
5.900000000000000383e-02 2.051074999999999982e-01 -3.638785000000000380e+00 2.791039999999999921e+01 2.121204999999999927e+03
6.000000000000000472e-02 2.051469999999999960e-01 -3.003350000000000186e+00 2.986359999999999815e+01 2.121430000000000291e+03
6.099999999999999867e-02 2.052269999999999928e-01 -1.944451000000000152e+00 3.282065000000000055e+01 2.121930000000000291e+03
6.199999999999999956e-02 2.053464999999999874e-01 -4.950350000000001138e-01 3.669335000000000235e+01 2.122680000000000291e+03
6.300000000000000044e-02 2.055015000000000036e-01 1.295244999999999758e+00 4.134980000000000189e+01 2.123675000000000182e+03
6.400000000000000133e-02 2.056870000000000087e-01 3.364046000000000092e+00 4.662624999999999886e+01 2.124869999999999891e+03
6.500000000000000222e-02 2.058969999999999967e-01 5.640864999999999796e+00 5.234059999999999491e+01 2.126230000000000018e+03
6.600000000000000311e-02 2.061240000000000017e-01 8.051555000000000462e+00 5.830575000000000330e+01 2.127710000000000036e+03
6.700000000000000400e-02 2.063614999999999755e-01 1.052213000000000065e+01 6.434095000000000653e+01 2.129269999999999982e+03
6.800000000000000488e-02 2.066020000000000079e-01 1.298229500000000058e+01 7.028139999999999077e+01 2.130859999999999673e+03
6.900000000000000577e-02 2.068404999999999827e-01 1.536854999999999905e+01 7.598499999999999943e+01 2.132434999999999945e+03
7.000000000000000666e-02 2.070704999999999907e-01 1.762695000000000078e+01 8.133865000000000123e+01 2.133965000000000146e+03
7.100000000000000755e-02 2.072875000000000134e-01 1.971544999999999703e+01 8.626234999999999786e+01 2.135414999999999964e+03
7.200000000000000844e-02 2.074890000000000068e-01 2.160579999999999856e+01 9.071285000000000309e+01 2.136769999999999982e+03
7.300000000000000933e-02 2.076740000000000252e-01 2.328434999999999988e+01 9.468444999999999823e+01 2.138010000000000218e+03
7.399999999999999634e-02 2.078409999999999980e-01 2.475244999999999962e+01 9.820810000000000173e+01 2.139140000000000327e+03
7.499999999999999722e-02 2.079920000000000102e-01 2.602459999999999951e+01 1.013455500000000029e+02 2.140164999999999964e+03
7.599999999999999811e-02 2.081294999999999951e-01 2.712664999999999793e+01 1.041853000000000122e+02 2.141094999999999800e+03
7.699999999999999900e-02 2.082559999999999967e-01 2.809195000000000064e+01 1.068280000000000030e+02 2.141960000000000036e+03
7.799999999999999989e-02 2.083760000000000057e-01 2.895799999999999841e+01 1.093805000000000121e+02 2.142775000000000091e+03
7.900000000000000078e-02 2.084924999999999973e-01 2.976259999999999906e+01 1.119424999999999955e+02 2.143569999999999709e+03
8.000000000000000167e-02 2.086105000000000043e-01 3.053985000000000127e+01 1.145980000000000132e+02 2.144364999999999782e+03
8.100000000000000255e-02 2.087309999999999999e-01 3.131795000000000329e+01 1.174089999999999918e+02 2.145180000000000291e+03
8.200000000000000344e-02 2.088570000000000149e-01 3.211664999999999992e+01 1.204089999999999918e+02 2.146029999999999745e+03
8.300000000000000433e-02 2.089900000000000091e-01 3.294639999999999702e+01 1.236055000000000064e+02 2.146920000000000073e+03
8.400000000000000522e-02 2.091294999999999960e-01 3.380794999999999817e+01 1.269750000000000085e+02 2.147859999999999673e+03
8.500000000000000611e-02 2.092745000000000022e-01 3.469304999999999950e+01 1.304745000000000061e+02 2.148835000000000036e+03
8.600000000000000699e-02 2.094229999999999980e-01 3.558585000000000065e+01 1.340389999999999873e+02 2.149829999999999927e+03
8.700000000000000788e-02 2.095735000000000237e-01 3.646434999999999604e+01 1.375929999999999893e+02 2.150845000000000255e+03
8.800000000000000877e-02 2.097220000000000195e-01 3.730245000000000033e+01 1.410509999999999877e+02 2.151845000000000255e+03
8.899999999999999578e-02 2.098659999999999970e-01 3.807189999999999941e+01 1.443310000000000173e+02 2.152815000000000055e+03
8.999999999999999667e-02 2.100020000000000220e-01 3.874474999999999625e+01 1.473505000000000109e+02 2.153735000000000127e+03
9.099999999999999756e-02 2.101270000000000082e-01 3.929465000000000430e+01 1.500409999999999968e+02 2.154585000000000036e+03
9.199999999999999845e-02 2.102384999999999948e-01 3.969870000000000232e+01 1.523430000000000177e+02 2.155345000000000255e+03
9.299999999999999933e-02 2.103344999999999798e-01 3.993900000000000006e+01 1.542144999999999868e+02 2.156005000000000109e+03
9.400000000000000022e-02 2.104130000000000167e-01 4.000350000000000250e+01 1.556304999999999836e+02 2.156545000000000073e+03
9.500000000000000111e-02 2.104735000000000078e-01 3.988640000000000185e+01 1.565810000000000173e+02 2.156965000000000146e+03
9.600000000000000200e-02 2.105154999999999943e-01 3.958894999999999698e+01 1.570780000000000030e+02 2.157260000000000218e+03
9.700000000000000289e-02 2.105390000000000039e-01 3.911880000000000024e+01 1.571454999999999984e+02 2.157440000000000055e+03
9.800000000000000377e-02 2.105464999999999975e-01 3.848964999999999748e+01 1.568240000000000123e+02 2.157494999999999891e+03
9.900000000000000466e-02 2.105374999999999885e-01 3.772050000000000125e+01 1.561649999999999920e+02 2.157449999999999818e+03
1.000000000000000056e-01 2.105155000000000221e-01 3.683429999999999893e+01 1.552284999999999968e+02 2.157315000000000055e+03
1.010000000000000064e-01 2.104825000000000168e-01 3.585689999999999600e+01 1.540785000000000196e+02 2.157100000000000364e+03
1.020000000000000073e-01 2.104405000000000026e-01 3.481580000000000297e+01 1.527814999999999941e+02 2.156829999999999927e+03
1.030000000000000082e-01 2.103929999999999967e-01 3.373845000000000027e+01 1.514030000000000200e+02 2.156514999999999873e+03
1.040000000000000091e-01 2.103410000000000002e-01 3.265149999999999864e+01 1.500029999999999859e+02 2.156170000000000073e+03
1.050000000000000100e-01 2.102880000000000027e-01 3.157954999999999757e+01 1.486349999999999909e+02 2.155810000000000400e+03
1.059999999999999970e-01 2.102360000000000062e-01 3.054415000000000191e+01 1.473460000000000036e+02 2.155460000000000036e+03
1.069999999999999979e-01 2.101864999999999983e-01 2.956305000000000049e+01 1.461700000000000159e+02 2.155125000000000000e+03
1.079999999999999988e-01 2.101405000000000078e-01 2.864959999999999951e+01 1.451334999999999980e+02 2.154815000000000055e+03
1.089999999999999997e-01 2.100994999999999946e-01 2.781255000000000166e+01 1.442495000000000118e+02 2.154529999999999745e+03
1.100000000000000006e-01 2.100639999999999730e-01 2.705550000000000210e+01 1.435204999999999984e+02 2.154289999999999964e+03
1.110000000000000014e-01 2.100339999999999985e-01 2.637720000000000198e+01 1.429360000000000070e+02 2.154079999999999927e+03
1.120000000000000023e-01 2.100090000000000012e-01 2.577149999999999963e+01 1.424764999999999873e+02 2.153904999999999745e+03
1.130000000000000032e-01 2.099884999999999946e-01 2.522820000000000107e+01 1.421120000000000232e+02 2.153764999999999873e+03
1.140000000000000041e-01 2.099714999999999776e-01 2.473344999999999771e+01 1.418060000000000116e+02 2.153640000000000327e+03
1.150000000000000050e-01 2.099560000000000037e-01 2.427084999999999937e+01 1.415165000000000077e+02 2.153529999999999745e+03
1.160000000000000059e-01 2.099409999999999887e-01 2.382235000000000014e+01 1.411970000000000027e+02 2.153425000000000182e+03
1.170000000000000068e-01 2.099239999999999995e-01 2.336950000000000216e+01 1.408034999999999854e+02 2.153304999999999836e+03
1.180000000000000077e-01 2.099039999999999795e-01 2.289450000000000074e+01 1.402940000000000111e+02 2.153175000000000182e+03
1.190000000000000085e-01 2.098794999999999966e-01 2.238150000000000261e+01 1.396320000000000050e+02 2.153005000000000109e+03
1.200000000000000094e-01 2.098490000000000077e-01 2.181729999999999947e+01 1.387899999999999920e+02 2.152800000000000182e+03
1.209999999999999964e-01 2.098109999999999975e-01 2.119245000000000090e+01 1.377495000000000118e+02 2.152545000000000073e+03
1.219999999999999973e-01 2.097650000000000070e-01 2.050195000000000078e+01 1.365029999999999859e+02 2.152244999999999891e+03
1.229999999999999982e-01 2.097114999999999951e-01 1.974514999999999887e+01 1.350564999999999998e+02 2.151885000000000218e+03
1.239999999999999991e-01 2.096505000000000174e-01 1.892629999999999768e+01 1.334275000000000091e+02 2.151480000000000018e+03
1.250000000000000000e-01 2.095825000000000049e-01 1.805400000000000205e+01 1.316419999999999959e+02 2.151029999999999745e+03
1.260000000000000009e-01 2.095084999999999864e-01 1.714095000000000013e+01 1.297390000000000043e+02 2.150534999999999854e+03
1.270000000000000018e-01 2.094300000000000050e-01 1.620319999999999894e+01 1.277614999999999839e+02 2.150010000000000218e+03
1.280000000000000027e-01 2.093495000000000217e-01 1.525880000000000081e+01 1.257605000000000075e+02 2.149470000000000255e+03
1.290000000000000036e-01 2.092680000000000096e-01 1.432744999999999891e+01 1.237849999999999966e+02 2.148925000000000182e+03
1.300000000000000044e-01 2.091874999999999984e-01 1.342889999999999873e+01 1.218864999999999981e+02 2.148385000000000218e+03
1.310000000000000053e-01 2.091105000000000047e-01 1.258205000000000062e+01 1.201119999999999948e+02 2.147859999999999673e+03
1.320000000000000062e-01 2.090380000000000016e-01 1.180408999999999864e+01 1.185014999999999930e+02 2.147375000000000000e+03
1.330000000000000071e-01 2.089719999999999911e-01 1.110954500000000067e+01 1.170889999999999986e+02 2.146930000000000291e+03
1.340000000000000080e-01 2.089135000000000020e-01 1.050964500000000079e+01 1.158990000000000009e+02 2.146534999999999854e+03
1.350000000000000089e-01 2.088645000000000085e-01 1.001201000000000008e+01 1.149459999999999980e+02 2.146194999999999709e+03
1.360000000000000098e-01 2.088244999999999962e-01 9.620490000000000208e+00 1.142349999999999994e+02 2.145925000000000182e+03
1.370000000000000107e-01 2.087940000000000074e-01 9.334915000000000518e+00 1.137620000000000005e+02 2.145710000000000036e+03
1.380000000000000115e-01 2.087729999999999864e-01 9.151675000000000892e+00 1.135140000000000100e+02 2.145555000000000291e+03
1.390000000000000124e-01 2.087605000000000155e-01 9.063884999999999081e+00 1.134710000000000036e+02 2.145470000000000255e+03
1.400000000000000133e-01 2.087559999999999971e-01 9.061824999999998909e+00 1.136069999999999993e+02 2.145435000000000400e+03
1.410000000000000142e-01 2.087590000000000001e-01 9.133694999999999453e+00 1.138915000000000077e+02 2.145440000000000055e+03
1.420000000000000151e-01 2.087680000000000091e-01 9.266110000000001179e+00 1.142924999999999898e+02 2.145489999999999782e+03
1.430000000000000160e-01 2.087815000000000087e-01 9.444804999999998785e+00 1.147760000000000105e+02 2.145574999999999818e+03
1.440000000000000169e-01 2.087979999999999836e-01 9.655194999999999084e+00 1.153079999999999927e+02 2.145684999999999945e+03
1.450000000000000178e-01 2.088174999999999892e-01 9.882984999999999687e+00 1.158575000000000017e+02 2.145805000000000291e+03
1.459999999999999909e-01 2.088369999999999949e-01 1.011469500000000110e+01 1.163949999999999960e+02 2.145940000000000055e+03
1.469999999999999918e-01 2.088565000000000005e-01 1.033804999999999907e+01 1.168954999999999984e+02 2.146070000000000164e+03
1.479999999999999927e-01 2.088754999999999917e-01 1.054245000000000054e+01 1.173370000000000033e+02 2.146194999999999709e+03
1.489999999999999936e-01 2.088919999999999944e-01 1.071934999999999860e+01 1.177044999999999959e+02 2.146305000000000291e+03
1.499999999999999944e-01 2.089054999999999940e-01 1.086209999999999987e+01 1.179860000000000042e+02 2.146400000000000091e+03
1.509999999999999953e-01 2.089159999999999906e-01 1.096664999999999957e+01 1.181760000000000019e+02 2.146469999999999800e+03
1.519999999999999962e-01 2.089234999999999842e-01 1.103095000000000070e+01 1.182745000000000033e+02 2.146524999999999636e+03
1.529999999999999971e-01 2.089270000000000016e-01 1.105539999999999878e+01 1.182845000000000084e+02 2.146550000000000182e+03
1.539999999999999980e-01 2.089274999999999882e-01 1.104234999999999900e+01 1.182160000000000082e+02 2.146559999999999945e+03
1.549999999999999989e-01 2.089254999999999862e-01 1.099585000000000079e+01 1.180810000000000031e+02 2.146550000000000182e+03
1.559999999999999998e-01 2.089205000000000090e-01 1.092149999999999999e+01 1.178944999999999936e+02 2.146514999999999873e+03
1.570000000000000007e-01 2.089134999999999742e-01 1.082585000000000086e+01 1.176730000000000018e+02 2.146470000000000255e+03
1.580000000000000016e-01 2.089060000000000084e-01 1.071589499999999973e+01 1.174344999999999999e+02 2.146420000000000073e+03
1.590000000000000024e-01 2.088969999999999994e-01 1.059870499999999893e+01 1.171945000000000050e+02 2.146364999999999782e+03
