# t [s], A [cm^2], U [cm/s], P [cPa], c [cm/s]
1.000000000000000021e-03 5.497190000000000687e-01 5.485699999999996135e-03 1.046510000000000105e+02 1.571795000000000073e+03
2.000000000000000042e-03 5.497090000000000032e-01 -3.323626000000000098e-03 1.046255000000000024e+02 1.571789999999999964e+03
3.000000000000000062e-03 5.497449999999999282e-01 6.466754999999999032e-02 1.046959999999999980e+02 1.571809999999999945e+03
4.000000000000000083e-03 5.497929999999999762e-01 1.617921999999999971e-01 1.048170000000000073e+02 1.571840000000000146e+03
5.000000000000000104e-03 5.497890000000000832e-01 1.700280000000000125e-01 1.048165000000000049e+02 1.571845000000000027e+03
6.000000000000000125e-03 5.497374999999999901e-01 8.825650000000001549e-02 1.046539999999999964e+02 1.571809999999999945e+03
7.000000000000000146e-03 5.496910000000000407e-01 8.639000000000007784e-03 1.044319999999999879e+02 1.571750000000000000e+03
8.000000000000000167e-03 5.496370000000000422e-01 -9.290800000000004610e-02 1.041424999999999983e+02 1.571680000000000064e+03
9.000000000000001055e-03 5.495425000000000448e-01 -2.873550000000000271e-01 1.036984999999999957e+02 1.571575000000000045e+03
1.000000000000000194e-02 5.494019999999999460e-01 -5.865599999999999703e-01 1.030554999999999950e+02 1.571420000000000073e+03
1.099999999999999936e-02 5.492080000000000295e-01 -9.977400000000000713e-01 1.021736999999999966e+02 1.571204999999999927e+03
1.200000000000000025e-02 5.489444999999999464e-01 -1.541349999999999998e+00 1.009919000000000011e+02 1.570909999999999854e+03
1.300000000000000114e-02 5.486124999999999474e-01 -2.196954999999999991e+00 9.949314999999999998e+01 1.570535000000000082e+03
1.400000000000000203e-02 5.482474999999999987e-01 -2.871294999999999931e+00 9.776044999999999163e+01 1.570085000000000036e+03
1.499999999999999944e-02 5.479005000000000125e-01 -3.432014999999999816e+00 9.595459999999999923e+01 1.569599999999999909e+03
1.600000000000000033e-02 5.476105000000000000e-01 -3.769367500000000426e+00 9.424060000000000059e+01 1.569115000000000009e+03
1.700000000000000122e-02 5.473870000000000680e-01 -3.836161799999999733e+00 9.272185000000000343e+01 1.568664999999999964e+03
1.800000000000000211e-02 5.472144999999999371e-01 -3.651585499999999929e+00 9.141495000000000459e+01 1.568250000000000000e+03
1.900000000000000300e-02 5.470610000000000195e-01 -3.280287000000000397e+00 9.026175000000000637e+01 1.567869999999999891e+03
2.000000000000000042e-02 5.468929999999999625e-01 -2.802273025000000306e+00 8.916329999999999245e+01 1.567500000000000000e+03
2.100000000000000130e-02 5.466854999999999354e-01 -2.285085000000000033e+00 8.801935000000000286e+01 1.567115000000000009e+03
2.200000000000000219e-02 5.464305000000000412e-01 -1.765330000000000066e+00 8.676230000000001041e+01 1.566704999999999927e+03
2.299999999999999961e-02 5.461350000000000371e-01 -1.243900000000000228e+00 8.537495000000001255e+01 1.566264999999999873e+03
2.400000000000000050e-02 5.458169999999999966e-01 -6.951749999999998764e-01 8.388779999999999859e+01 1.565800000000000182e+03
2.500000000000000139e-02 5.454980000000000384e-01 -8.538500000000004420e-02 8.235974999999999113e+01 1.565319999999999936e+03
2.600000000000000228e-02 5.451920000000000099e-01 6.079399999999997029e-01 8.085084999999999411e+01 1.564835000000000036e+03
2.700000000000000316e-02 5.449040000000000550e-01 1.382454999999999989e+00 7.939795000000000869e+01 1.564364999999999782e+03
2.800000000000000058e-02 5.446254999999999846e-01 2.206700000000000106e+00 7.800050000000000239e+01 1.563904999999999973e+03
2.900000000000000147e-02 5.443394999999999762e-01 3.024580000000000268e+00 7.661899999999999977e+01 1.563454999999999927e+03
3.000000000000000236e-02 5.440244999999999109e-01 3.766454999999999664e+00 7.518410000000000082e+01 1.562985000000000127e+03
3.099999999999999978e-02 5.436600000000000321e-01 4.363809999999999967e+00 7.361439999999998918e+01 1.562500000000000000e+03
3.200000000000000067e-02 5.432319999999999371e-01 4.764279999999999404e+00 7.183834999999999127e+01 1.561960000000000036e+03
3.300000000000000155e-02 5.427385000000000126e-01 4.943340000000000956e+00 6.981465000000000032e+01 1.561365000000000009e+03
3.400000000000000244e-02 5.421884999999999621e-01 4.909780000000000477e+00 6.754694999999999538e+01 1.560710000000000036e+03
3.500000000000000333e-02 5.416035000000000155e-01 4.703065000000000495e+00 6.508655000000000257e+01 1.560005000000000109e+03
3.600000000000000422e-02 5.410125000000000073e-01 4.384199999999999875e+00 6.252534999999999599e+01 1.559275000000000091e+03
3.700000000000000511e-02 5.404434999999999656e-01 4.023349999999999760e+00 5.998040000000000305e+01 1.558545000000000073e+03
3.799999999999999906e-02 5.399245000000000294e-01 3.687619999999999454e+00 5.757564999999999600e+01 1.557835000000000036e+03
3.899999999999999994e-02 5.394775000000000542e-01 3.432904999999999873e+00 5.542600000000000193e+01 1.557190000000000055e+03
4.000000000000000083e-02 5.391174999999999162e-01 3.299030000000000129e+00 5.362559999999999860e+01 1.556630000000000109e+03
4.100000000000000172e-02 5.388515000000000388e-01 3.309980000000000366e+00 5.224179999999999779e+01 1.556179999999999836e+03
4.200000000000000261e-02 5.386824999999999530e-01 3.476274999999999782e+00 5.131475000000000364e+01 1.555845000000000027e+03
4.300000000000000350e-02 5.386094999999999633e-01 3.799419999999999575e+00 5.086055000000000348e+01 1.555644999999999982e+03
4.400000000000000439e-02 5.386294999999999833e-01 4.276690000000000325e+00 5.087770000000000437e+01 1.555570000000000164e+03
4.499999999999999833e-02 5.387389999999999679e-01 4.905139999999999390e+00 5.135385000000000133e+01 1.555634999999999991e+03
4.599999999999999922e-02 5.389350000000000529e-01 5.684174999999999756e+00 5.227224999999999966e+01 1.555829999999999927e+03
4.700000000000000011e-02 5.392154999999999587e-01 6.616070000000000562e+00 5.361549999999999727e+01 1.556144999999999982e+03
4.800000000000000100e-02 5.395790000000000308e-01 7.704655000000000697e+00 5.536755000000000138e+01 1.556590000000000146e+03
4.900000000000000189e-02 5.400239999999999485e-01 8.953129999999999811e+00 5.751234999999999786e+01 1.557139999999999873e+03
5.000000000000000278e-02 5.405465000000000408e-01 1.036107499999999959e+01 6.003175000000000239e+01 1.557815000000000055e+03
5.100000000000000366e-02 5.411424999999999708e-01 1.192220500000000172e+01 6.290234999999999843e+01 1.558590000000000146e+03
5.200000000000000455e-02 5.418034999999999934e-01 1.362340999999999980e+01 6.609350000000000591e+01 1.559465000000000146e+03
5.300000000000000544e-02 5.425210000000000310e-01 1.544439500000000010e+01 6.956624999999999659e+01 1.560434999999999945e+03
5.399999999999999939e-02 5.432835000000000303e-01 1.735904500000000183e+01 7.327375000000000682e+01 1.561470000000000027e+03
5.500000000000000028e-02 5.440780000000000616e-01 1.933726000000000056e+01 7.716310000000000002e+01 1.562575000000000045e+03
5.600000000000000117e-02 5.448935000000000306e-01 2.134740000000000038e+01 8.117849999999999966e+01 1.563730000000000018e+03
5.700000000000000205e-02 5.457184999999999953e-01 2.335849999999999937e+01 8.526464999999998895e+01 1.564910000000000082e+03
5.800000000000000294e-02 5.465419999999999723e-01 2.534244999999999948e+01 8.936889999999999645e+01 1.566110000000000127e+03
5.900000000000000383e-02 5.473565000000000236e-01 2.727509999999999835e+01 9.344700000000000273e+01 1.567324999999999818e+03
6.000000000000000472e-02 5.481555000000000177e-01 2.913750000000000284e+01 9.746145000000001346e+01 1.568525000000000091e+03
6.099999999999999867e-02 5.489355000000000206e-01 3.091585000000000250e+01 1.013851500000000101e+02 1.569704999999999927e+03
6.199999999999999956e-02 5.496940000000000159e-01 3.260115000000000407e+01 1.051996499999999912e+02 1.570869999999999891e+03
6.300000000000000044e-02 5.504304999999999337e-01 3.418854999999999933e+01 1.088974000000000046e+02 1.572005000000000109e+03
6.400000000000000133e-02 5.511460000000000248e-01 3.567705000000000126e+01 1.124759500000000116e+02 1.573115000000000009e+03
6.500000000000000222e-02 5.518425000000000136e-01 3.706780000000000541e+01 1.159415000000000049e+02 1.574190000000000055e+03
6.600000000000000311e-02 5.525214999999999987e-01 3.836419999999999675e+01 1.193025000000000091e+02 1.575244999999999891e+03
6.700000000000000400e-02 5.531854999999999967e-01 3.957050000000000267e+01 1.225720000000000027e+02 1.576269999999999982e+03
6.800000000000000488e-02 5.538374999999999826e-01 4.069155000000000655e+01 1.257625000000000028e+02 1.577269999999999982e+03
6.900000000000000577e-02 5.544795000000000140e-01 4.173205000000000098e+01 1.288854999999999791e+02 1.578255000000000109e+03
7.000000000000000666e-02 5.551129999999999676e-01 4.269604999999999961e+01 1.319524999999999864e+02 1.579219999999999800e+03
7.100000000000000755e-02 5.557379999999999542e-01 4.358639999999999759e+01 1.349695000000000107e+02 1.580170000000000073e+03
7.200000000000000844e-02 5.563555000000000028e-01 4.440449999999999875e+01 1.379395000000000095e+02 1.581110000000000127e+03
7.300000000000000933e-02 5.569640000000000146e-01 4.515005000000000024e+01 1.408605000000000018e+02 1.582029999999999973e+03
7.399999999999999634e-02 5.575609999999999733e-01 4.582124999999999915e+01 1.437259999999999991e+02 1.582940000000000055e+03
7.499999999999999722e-02 5.581439999999999735e-01 4.641469999999999629e+01 1.465249999999999773e+02 1.583825000000000045e+03
7.599999999999999811e-02 5.587100000000000399e-01 4.692600000000000193e+01 1.492425000000000068e+02 1.584690000000000055e+03
7.699999999999999900e-02 5.592540000000000289e-01 4.734999999999999432e+01 1.518615000000000066e+02 1.585529999999999973e+03
7.799999999999999989e-02 5.597735000000000349e-01 4.768160000000000309e+01 1.543634999999999877e+02 1.586329999999999927e+03
7.900000000000000078e-02 5.602635000000000254e-01 4.791604999999999848e+01 1.567289999999999850e+02 1.587095000000000027e+03
8.000000000000000167e-02 5.607214999999999838e-01 4.804945000000000022e+01 1.589410000000000025e+02 1.587819999999999936e+03
8.100000000000000255e-02 5.611435000000000173e-01 4.807894999999999897e+01 1.609830000000000041e+02 1.588490000000000009e+03
8.200000000000000344e-02 5.615280000000000271e-01 4.800325000000000131e+01 1.628425000000000011e+02 1.589110000000000127e+03
8.300000000000000433e-02 5.618735000000000257e-01 4.782250000000000512e+01 1.645105000000000075e+02 1.589674999999999955e+03
8.400000000000000522e-02 5.621789999999999843e-01 4.753855000000000075e+01 1.659805000000000064e+02 1.590180000000000064e+03
8.500000000000000611e-02 5.624439999999999440e-01 4.715455000000000041e+01 1.672515000000000214e+02 1.590619999999999891e+03
8.600000000000000699e-02 5.626694999999999336e-01 4.667549999999999955e+01 1.683255000000000052e+02 1.591005000000000109e+03
8.700000000000000788e-02 5.628575000000000106e-01 4.610755000000000337e+01 1.692069999999999936e+02 1.591335000000000036e+03
8.800000000000000877e-02 5.630085000000000228e-01 4.545824999999999960e+01 1.699064999999999941e+02 1.591605000000000018e+03
8.899999999999999578e-02 5.631264999999999743e-01 4.473629999999999995e+01 1.704340000000000259e+02 1.591819999999999936e+03
8.999999999999999667e-02 5.632135000000000336e-01 4.395139999999999958e+01 1.708054999999999950e+02 1.591990000000000009e+03
9.099999999999999756e-02 5.632729999999999126e-01 4.311395000000000266e+01 1.710360000000000014e+02 1.592105000000000018e+03
9.199999999999999845e-02 5.633084999999999898e-01 4.223499999999999943e+01 1.711440000000000055e+02 1.592184999999999945e+03
9.299999999999999933e-02 5.633245000000000058e-01 4.132580000000000098e+01 1.711480000000000246e+02 1.592224999999999909e+03
9.400000000000000022e-02 5.633234999999999770e-01 4.039759999999999707e+01 1.710665000000000191e+02 1.592234999999999900e+03
9.500000000000000111e-02 5.633105000000000473e-01 3.946115000000000350e+01 1.709189999999999827e+02 1.592224999999999909e+03
9.600000000000000200e-02 5.632880000000000109e-01 3.852644999999999698e+01 1.707230000000000132e+02 1.592190000000000055e+03
9.700000000000000289e-02 5.632595000000000240e-01 3.760244999999999749e+01 1.704950000000000045e+02 1.592134999999999991e+03
9.800000000000000377e-02 5.632274999999999920e-01 3.669660000000000366e+01 1.702484999999999786e+02 1.592079999999999927e+03
9.900000000000000466e-02 5.631939999999999724e-01 3.581475000000000364e+01 1.699950000000000045e+02 1.592014999999999873e+03
1.000000000000000056e-01 5.631595000000000351e-01 3.496094999999999686e+01 1.697425000000000068e+02 1.591940000000000055e+03
1.010000000000000064e-01 5.631254999999999455e-01 3.413725000000000165e+01 1.694964999999999975e+02 1.591875000000000000e+03
1.020000000000000073e-01 5.630924999999999958e-01 3.334409999999999741e+01 1.692590000000000146e+02 1.591800000000000182e+03
1.030000000000000082e-01 5.630589999999999762e-01 3.258004999999999995e+01 1.690294999999999845e+02 1.591730000000000018e+03
1.040000000000000091e-01 5.630245000000000388e-01 3.184220000000000184e+01 1.688029999999999973e+02 1.591659999999999854e+03
1.050000000000000100e-01 5.629874999999999741e-01 3.112660000000000338e+01 1.685740000000000123e+02 1.591585000000000036e+03
1.059999999999999970e-01 5.629465000000000163e-01 3.042820000000000036e+01 1.683355000000000246e+02 1.591509999999999991e+03
1.069999999999999979e-01 5.628994999999999971e-01 2.974145000000000039e+01 1.680785000000000196e+02 1.591430000000000064e+03
1.079999999999999988e-01 5.628444999999999698e-01 2.906064999999999898e+01 1.677930000000000064e+02 1.591345000000000027e+03
1.089999999999999997e-01 5.627805000000000168e-01 2.837989999999999924e+01 1.674700000000000273e+02 1.591240000000000009e+03
1.100000000000000006e-01 5.627050000000000107e-01 2.769395000000000095e+01 1.671009999999999991e+02 1.591130000000000109e+03
1.110000000000000014e-01 5.626170000000000337e-01 2.699774999999999991e+01 1.666784999999999854e+02 1.591005000000000109e+03
1.120000000000000023e-01 5.625149999999999872e-01 2.628725000000000023e+01 1.661970000000000027e+02 1.590865000000000009e+03
1.130000000000000032e-01 5.623994999999999411e-01 2.555930000000000035e+01 1.656504999999999939e+02 1.590704999999999927e+03
1.140000000000000041e-01 5.622700000000000475e-01 2.481184999999999974e+01 1.650380000000000109e+02 1.590525000000000091e+03
1.150000000000000050e-01 5.621264999999999734e-01 2.404404999999999859e+01 1.643584999999999923e+02 1.590329999999999927e+03
1.160000000000000059e-01 5.619695000000000107e-01 2.325619999999999976e+01 1.636145000000000209e+02 1.590110000000000127e+03
1.170000000000000068e-01 5.618005000000000360e-01 2.244989999999999952e+01 1.628095000000000141e+02 1.589875000000000000e+03
1.180000000000000077e-01 5.616209999999999258e-01 2.162800000000000011e+01 1.619504999999999768e+02 1.589625000000000000e+03
1.190000000000000085e-01 5.614319999999999311e-01 2.079449999999999932e+01 1.610455000000000041e+02 1.589355000000000018e+03
1.200000000000000094e-01 5.612375000000000558e-01 1.995439999999999969e+01 1.601040000000000134e+02 1.589079999999999927e+03
1.209999999999999964e-01 5.610384999999999955e-01 1.911345000000000027e+01 1.591385000000000218e+02 1.588795000000000073e+03
1.219999999999999973e-01 5.608379999999999477e-01 1.827815000000000012e+01 1.581605000000000132e+02 1.588500000000000000e+03
1.229999999999999982e-01 5.606385000000000396e-01 1.745530000000000115e+01 1.571820000000000164e+02 1.588204999999999927e+03
1.239999999999999991e-01 5.604439999999999422e-01 1.665194999999999936e+01 1.562179999999999893e+02 1.587914999999999964e+03
1.250000000000000000e-01 5.602550000000000585e-01 1.587504999999999988e+01 1.552799999999999727e+02 1.587630000000000109e+03
1.260000000000000009e-01 5.600754999999999484e-01 1.513114999999999988e+01 1.543799999999999955e+02 1.587349999999999909e+03
1.270000000000000018e-01 5.599075000000000024e-01 1.442623500000000014e+01 1.535295000000000130e+02 1.587079999999999927e+03
1.280000000000000027e-01 5.597514999999999574e-01 1.376541500000000084e+01 1.527369999999999948e+02 1.586835000000000036e+03
1.290000000000000036e-01 5.596099999999999408e-01 1.315291500000000013e+01 1.520104999999999791e+02 1.586599999999999909e+03
1.300000000000000044e-01 5.594829999999999526e-01 1.259175499999999914e+01 1.513545000000000016e+02 1.586384999999999991e+03
1.310000000000000053e-01 5.593714999999999105e-01 1.208378000000000085e+01 1.507729999999999961e+02 1.586195000000000164e+03
1.320000000000000062e-01 5.592749999999999666e-01 1.162957499999999911e+01 1.502660000000000196e+02 1.586019999999999982e+03
1.330000000000000071e-01 5.591930000000000511e-01 1.122835500000000053e+01 1.498315000000000055e+02 1.585869999999999891e+03
1.340000000000000080e-01 5.591239999999999544e-01 1.087834499999999949e+01 1.494675000000000011e+02 1.585740000000000009e+03
1.350000000000000089e-01 5.590680000000000094e-01 1.057672999999999952e+01 1.491659999999999968e+02 1.585630000000000109e+03
1.360000000000000098e-01 5.590224999999999778e-01 1.031964999999999932e+01 1.489215000000000089e+02 1.585534999999999854e+03
1.370000000000000107e-01 5.589855000000000240e-01 1.010283499999999890e+01 1.487259999999999991e+02 1.585460000000000036e+03
1.380000000000000115e-01 5.589554999999999385e-01 9.921345000000000525e+00 1.485695000000000050e+02 1.585389999999999873e+03
1.390000000000000124e-01 5.589310000000000667e-01 9.770120000000000360e+00 1.484429999999999836e+02 1.585335000000000036e+03
1.400000000000000133e-01 5.589089999999999892e-01 9.644040000000000390e+00 1.483379999999999939e+02 1.585289999999999964e+03
1.410000000000000142e-01 5.588895000000000390e-01 9.538120000000001042e+00 1.482454999999999927e+02 1.585250000000000000e+03
1.420000000000000151e-01 5.588695000000000190e-01 9.447689999999999699e+00 1.481574999999999989e+02 1.585210000000000036e+03
1.430000000000000160e-01 5.588485000000000813e-01 9.368470000000000297e+00 1.480674999999999955e+02 1.585175000000000182e+03
1.440000000000000169e-01 5.588254999999999750e-01 9.296804999999999097e+00 1.479699999999999989e+02 1.585140000000000100e+03
1.450000000000000178e-01 5.587995000000000045e-01 9.229519999999999058e+00 1.478609999999999900e+02 1.585099999999999909e+03
1.459999999999999909e-01 5.587710000000000177e-01 9.163954999999999629e+00 1.477375000000000114e+02 1.585054999999999836e+03
1.469999999999999918e-01 5.587389999999999857e-01 9.098245000000000360e+00 1.475969999999999800e+02 1.585009999999999991e+03
1.479999999999999927e-01 5.587029999999999497e-01 9.030870000000000175e+00 1.474395000000000095e+02 1.584960000000000036e+03
1.489999999999999936e-01 5.586640000000000494e-01 8.960914999999999964e+00 1.472665000000000077e+02 1.584909999999999854e+03
1.499999999999999944e-01 5.586220000000000629e-01 8.887855000000000061e+00 1.470769999999999982e+02 1.584849999999999909e+03
1.509999999999999953e-01 5.585780000000000189e-01 8.811600000000000321e+00 1.468750000000000000e+02 1.584789999999999964e+03
1.519999999999999962e-01 5.585314999999999586e-01 8.732269999999999754e+00 1.466610000000000014e+02 1.584724999999999909e+03
1.529999999999999971e-01 5.584845000000000503e-01 8.650320000000000675e+00 1.464389999999999930e+02 1.584659999999999854e+03
1.539999999999999980e-01 5.584360000000000435e-01 8.566304999999999836e+00 1.462100000000000080e+02 1.584590000000000146e+03
1.549999999999999989e-01 5.583869999999999667e-01 8.481020000000000891e+00 1.459780000000000086e+02 1.584515000000000100e+03
1.559999999999999998e-01 5.583380000000000010e-01 8.395144999999999413e+00 1.457450000000000045e+02 1.584449999999999818e+03
1.570000000000000007e-01 5.582894999999999941e-01 8.309454999999999814e+00 1.455124999999999886e+02 1.584380000000000109e+03
1.580000000000000016e-01 5.582420000000000160e-01 8.224759999999999849e+00 1.452824999999999989e+02 1.584309999999999945e+03
1.590000000000000024e-01 5.581949999999999967e-01 8.141724999999999213e+00 1.450570000000000164e+02 1.584234999999999900e+03
