# t [s], A [cm^2], U [cm/s], P [cPa], c [cm/s]
1.000000000000000021e-03 7.775429999999999842e-01 6.618499999999999384e-03 9.981159999999999854e+01 1.722440000000000055e+03
2.000000000000000042e-03 7.775294999999999845e-01 -2.697490999999999778e-03 9.977674999999999272e+01 1.722434999999999945e+03
3.000000000000000062e-03 7.776015000000000565e-01 1.099131999999999887e-01 9.990614999999999668e+01 1.722464999999999918e+03
4.000000000000000083e-03 7.776534999999999975e-01 2.088285000000000002e-01 1.000294000000000096e+02 1.722490000000000009e+03
5.000000000000000104e-03 7.776000000000000689e-01 1.574089499999999919e-01 9.991174999999999784e+01 1.722465000000000146e+03
6.000000000000000125e-03 7.775110000000000632e-01 4.576049999999998175e-02 9.962565000000000737e+01 1.722404999999999973e+03
7.000000000000000146e-03 7.774339999999999584e-01 -5.892949999999996802e-02 9.928204999999999814e+01 1.722320000000000164e+03
8.000000000000000167e-03 7.772965000000000568e-01 -2.734699999999999909e-01 9.874569999999999936e+01 1.722204999999999927e+03
9.000000000000001055e-03 7.770789999999999642e-01 -6.345650000000000457e-01 9.793070000000000164e+01 1.722019999999999982e+03
1.000000000000000194e-02 7.767754999999999521e-01 -1.144469999999999876e+00 9.678915000000000646e+01 1.721759999999999991e+03
1.099999999999999936e-02 7.763539999999999885e-01 -1.838739999999999819e+00 9.522409999999999286e+01 1.721400000000000091e+03
1.200000000000000025e-02 7.758180000000000076e-01 -2.689084999999999948e+00 9.321340000000000714e+01 1.720924999999999955e+03
1.300000000000000114e-02 7.752485000000000070e-01 -3.540644999999999598e+00 9.092645000000000266e+01 1.720380000000000109e+03
1.400000000000000203e-02 7.747500000000000497e-01 -4.186683999999999628e+00 8.865964999999999918e+01 1.719815000000000055e+03
1.499999999999999944e-02 7.743845000000000312e-01 -4.485454499999999456e+00 8.667295000000000016e+01 1.719289999999999964e+03
1.600000000000000033e-02 7.741469999999999185e-01 -4.415499999999999758e+00 8.507380000000000564e+01 1.718829999999999927e+03
1.700000000000000122e-02 7.739785000000000137e-01 -4.058530000000000193e+00 8.380254999999999654e+01 1.718440000000000055e+03
1.800000000000000211e-02 7.738050000000000761e-01 -3.545209999999999972e+00 8.268959999999999866e+01 1.718089999999999918e+03
1.900000000000000300e-02 7.735659999999999759e-01 -2.996075999999999961e+00 8.154165000000000418e+01 1.717730000000000018e+03
2.000000000000000042e-02 7.732379999999999809e-01 -2.478666000000000036e+00 8.022159999999999513e+01 1.717335000000000036e+03
2.100000000000000130e-02 7.728360000000000785e-01 -1.993479999999999919e+00 7.869339999999999691e+01 1.716894999999999982e+03
2.200000000000000219e-02 7.724005000000000454e-01 -1.491765000000000230e+00 7.701734999999999332e+01 1.716424999999999955e+03
2.299999999999999961e-02 7.719750000000000778e-01 -9.134299999999999642e-01 7.530395000000000039e+01 1.715940000000000055e+03
2.400000000000000050e-02 7.715864999999999529e-01 -2.252849999999999575e-01 7.365260000000000673e+01 1.715464999999999918e+03
2.500000000000000139e-02 7.712314999999999587e-01 5.561650000000000205e-01 7.210384999999999422e+01 1.715009999999999991e+03
2.600000000000000228e-02 7.708835000000000548e-01 1.362434999999999841e+00 7.061724999999999852e+01 1.714565000000000055e+03
2.700000000000000316e-02 7.704954999999999998e-01 2.088185000000000180e+00 6.907984999999999332e+01 1.714110000000000127e+03
2.800000000000000058e-02 7.700179999999999803e-01 2.617485000000000284e+00 6.733750000000000568e+01 1.713619999999999891e+03
2.900000000000000147e-02 7.694129999999999026e-01 2.854305000000000092e+00 6.524029999999999063e+01 1.713055000000000064e+03
3.000000000000000236e-02 7.686679999999999069e-01 2.748924999999999841e+00 6.269105000000000416e+01 1.712389999999999873e+03
3.099999999999999978e-02 7.677994999999999681e-01 2.311904999999999877e+00 5.967990000000000350e+01 1.711619999999999891e+03
3.200000000000000067e-02 7.668519999999999781e-01 1.610130000000000283e+00 5.629359999999999786e+01 1.710759999999999991e+03
3.300000000000000155e-02 7.658834999999999393e-01 7.481100000000004968e-01 5.269835000000000491e+01 1.709849999999999909e+03
3.400000000000000244e-02 7.649565000000000392e-01 -1.580550000000000566e-01 4.910360000000000014e+01 1.708920000000000073e+03
3.500000000000000333e-02 7.641229999999999967e-01 -1.003359999999999808e+00 4.572234999999999872e+01 1.708029999999999973e+03
3.600000000000000422e-02 7.634204999999999464e-01 -1.708590000000000497e+00 4.273839999999999861e+01 1.707224999999999909e+03
3.700000000000000511e-02 7.628690000000000193e-01 -2.225515000000000576e+00 4.028634999999999877e+01 1.706534999999999854e+03
3.799999999999999906e-02 7.624750000000000139e-01 -2.533959999999999990e+00 3.844445000000000334e+01 1.705985000000000127e+03
3.899999999999999994e-02 7.622335000000000083e-01 -2.634262500000000173e+00 3.723949999999999960e+01 1.705595000000000027e+03
4.000000000000000083e-02 7.621350000000000069e-01 -2.537494999999999834e+00 3.665925000000000011e+01 1.705360000000000127e+03
4.100000000000000172e-02 7.621674999999999978e-01 -2.256475000000000009e+00 3.666774999999999807e+01 1.705280000000000200e+03
4.200000000000000261e-02 7.623210000000000264e-01 -1.799629499999999993e+00 3.722090000000000032e+01 1.705349999999999909e+03
4.300000000000000350e-02 7.625895000000000312e-01 -1.169040000000000079e+00 3.827639999999999532e+01 1.705550000000000182e+03
4.400000000000000439e-02 7.629675000000000207e-01 -3.624950000000000117e-01 3.979755000000000109e+01 1.705884999999999991e+03
4.499999999999999833e-02 7.634505000000000319e-01 6.218200000000000394e-01 4.175169999999999959e+01 1.706335000000000036e+03
4.599999999999999922e-02 7.640310000000000157e-01 1.780065000000000008e+00 4.410439999999999827e+01 1.706900000000000091e+03
4.700000000000000011e-02 7.646984999999999477e-01 3.098840000000000039e+00 4.681345000000000312e+01 1.707554999999999836e+03
4.800000000000000100e-02 7.654374999999999929e-01 4.553700000000000081e+00 4.982515000000000072e+01 1.708305000000000064e+03
4.900000000000000189e-02 7.662275000000000613e-01 6.110159999999999592e+00 5.307310000000000372e+01 1.709119999999999891e+03
5.000000000000000278e-02 7.670494999999999397e-01 7.726774000000000697e+00 5.648094999999999999e+01 1.709990000000000009e+03
5.100000000000000366e-02 7.678800000000000070e-01 9.359465000000000146e+00 5.996724999999999994e+01 1.710889999999999873e+03
5.200000000000000455e-02 7.687010000000000787e-01 1.096599499999999949e+01 6.345229999999999393e+01 1.711805000000000064e+03
5.300000000000000544e-02 7.694954999999999989e-01 1.250950499999999899e+01 6.686459999999999582e+01 1.712715000000000146e+03
5.399999999999999939e-02 7.702525000000000066e-01 1.396134999999999948e+01 7.014605000000000246e+01 1.713599999999999909e+03
5.500000000000000028e-02 7.709639999999999826e-01 1.530204000000000164e+01 7.325560000000000116e+01 1.714454999999999927e+03
5.600000000000000117e-02 7.716294999999999682e-01 1.652134999999999820e+01 7.617029999999999745e+01 1.715259999999999991e+03
5.700000000000000205e-02 7.722495000000000331e-01 1.761710000000000065e+01 7.888460000000000605e+01 1.716025000000000091e+03
5.800000000000000294e-02 7.728284999999999183e-01 1.859360000000000213e+01 8.140789999999999793e+01 1.716744999999999891e+03
5.900000000000000383e-02 7.733740000000000059e-01 1.946000000000000085e+01 8.376124999999998977e+01 1.717414999999999964e+03
6.000000000000000472e-02 7.738924999999999832e-01 2.022860000000000014e+01 8.597400000000000375e+01 1.718054999999999836e+03
6.099999999999999867e-02 7.743934999999999569e-01 2.091329999999999956e+01 8.807984999999999332e+01 1.718664999999999964e+03
6.199999999999999956e-02 7.748840000000000172e-01 2.152860000000000085e+01 9.011365000000000691e+01 1.719250000000000000e+03
6.300000000000000044e-02 7.753719999999999501e-01 2.208804999999999907e+01 9.210794999999998822e+01 1.719819999999999936e+03
6.400000000000000133e-02 7.758614999999999817e-01 2.260354999999999848e+01 9.409049999999999159e+01 1.720389999999999873e+03
6.500000000000000222e-02 7.763579999999999925e-01 2.308404999999999774e+01 9.608164999999999623e+01 1.720954999999999927e+03
6.600000000000000311e-02 7.768610000000000237e-01 2.353504999999999825e+01 9.809225000000000705e+01 1.721519999999999982e+03
6.700000000000000400e-02 7.773695000000000466e-01 2.395819999999999794e+01 1.001236000000000104e+02 1.722095000000000027e+03
6.800000000000000488e-02 7.778804999999999747e-01 2.435125000000000028e+01 1.021662500000000051e+02 1.722664999999999964e+03
6.900000000000000577e-02 7.783875000000000099e-01 2.470864999999999867e+01 1.042019999999999982e+02 1.723234999999999900e+03
7.000000000000000666e-02 7.788844999999999796e-01 2.502205000000000013e+01 1.062049999999999983e+02 1.723799999999999955e+03
7.100000000000000755e-02 7.793619999999999992e-01 2.528164999999999907e+01 1.081444999999999936e+02 1.724349999999999909e+03
7.200000000000000844e-02 7.798130000000000894e-01 2.547704999999999842e+01 1.099869999999999948e+02 1.724875000000000000e+03
7.300000000000000933e-02 7.802284999999999915e-01 2.559834999999999994e+01 1.116989999999999981e+02 1.725369999999999891e+03
7.399999999999999634e-02 7.806035000000000057e-01 2.563680000000000092e+01 1.132500000000000000e+02 1.725819999999999936e+03
7.499999999999999722e-02 7.809304999999999719e-01 2.558579999999999899e+01 1.146149999999999949e+02 1.726224999999999909e+03
7.599999999999999811e-02 7.812069999999999848e-01 2.544095000000000084e+01 1.157719999999999914e+02 1.726575000000000045e+03
7.699999999999999900e-02 7.814289999999999292e-01 2.520045000000000002e+01 1.167090000000000032e+02 1.726869999999999891e+03
7.799999999999999989e-02 7.815969999999999862e-01 2.486524999999999963e+01 1.174184999999999945e+02 1.727105000000000018e+03
7.900000000000000078e-02 7.817115000000000036e-01 2.443874999999999886e+01 1.179014999999999986e+02 1.727279999999999973e+03
8.000000000000000167e-02 7.817739999999999689e-01 2.392705000000000126e+01 1.181649999999999920e+02 1.727394999999999982e+03
8.100000000000000255e-02 7.817894999999999150e-01 2.333865000000000123e+01 1.182235000000000014e+02 1.727454999999999927e+03
8.200000000000000344e-02 7.817620000000000680e-01 2.268394999999999939e+01 1.180949999999999989e+02 1.727454999999999927e+03
8.300000000000000433e-02 7.816974999999999341e-01 2.197514999999999930e+01 1.178029999999999973e+02 1.727414999999999964e+03
8.400000000000000522e-02 7.816024999999999778e-01 2.122575000000000145e+01 1.173739999999999952e+02 1.727329999999999927e+03
8.500000000000000611e-02 7.814840000000000675e-01 2.044995000000000118e+01 1.168370000000000033e+02 1.727214999999999918e+03
8.600000000000000699e-02 7.813490000000000713e-01 1.966215000000000046e+01 1.162214999999999918e+02 1.727070000000000164e+03
8.700000000000000788e-02 7.812049999999999272e-01 1.887650000000000006e+01 1.155575000000000045e+02 1.726909999999999854e+03
8.800000000000000877e-02 7.810574999999999601e-01 1.810590000000000188e+01 1.148725000000000023e+02 1.726734999999999900e+03
8.899999999999999578e-02 7.809114999999999807e-01 1.736164999999999736e+01 1.141914999999999907e+02 1.726559999999999945e+03
8.999999999999999667e-02 7.807730000000000503e-01 1.665290000000000248e+01 1.135360000000000014e+02 1.726384999999999991e+03
9.099999999999999756e-02 7.806440000000000046e-01 1.598624999999999829e+01 1.129215000000000089e+02 1.726220000000000027e+03
9.199999999999999845e-02 7.805265000000000120e-01 1.536555000000000071e+01 1.123594999999999970e+02 1.726059999999999945e+03
9.299999999999999933e-02 7.804219999999999491e-01 1.479165000000000063e+01 1.118549999999999898e+02 1.725914999999999964e+03
9.400000000000000022e-02 7.803295000000000092e-01 1.426304999999999978e+01 1.114085000000000036e+02 1.725785000000000082e+03
9.500000000000000111e-02 7.802464999999999540e-01 1.377534999999999954e+01 1.110140000000000100e+02 1.725664999999999964e+03
9.600000000000000200e-02 7.801709999999999479e-01 1.332249999999999801e+01 1.106629999999999967e+02 1.725555000000000064e+03
9.700000000000000289e-02 7.800994999999999457e-01 1.289662000000000042e+01 1.103425000000000011e+02 1.725454999999999927e+03
9.800000000000000377e-02 7.800285000000000135e-01 1.248879999999999946e+01 1.100370000000000061e+02 1.725360000000000127e+03
9.900000000000000466e-02 7.799534999999999663e-01 1.208973999999999904e+01 1.097300000000000040e+02 1.725269999999999982e+03
1.000000000000000056e-01 7.798715000000000508e-01 1.168989000000000011e+01 1.094050000000000011e+02 1.725174999999999955e+03
1.010000000000000064e-01 7.797775000000000123e-01 1.128040500000000002e+01 1.090459999999999923e+02 1.725075000000000045e+03
1.020000000000000073e-01 7.796704999999999330e-01 1.085344999999999871e+01 1.086384999999999934e+02 1.724960000000000036e+03
1.030000000000000082e-01 7.795464999999999200e-01 1.040265499999999932e+01 1.081719999999999970e+02 1.724835000000000036e+03
1.040000000000000091e-01 7.794054999999999733e-01 9.923535000000001105e+00 1.076384999999999934e+02 1.724690000000000055e+03
1.050000000000000100e-01 7.792464999999999531e-01 9.413774999999999338e+00 1.070339999999999918e+02 1.724535000000000082e+03
1.059999999999999970e-01 7.790709999999999580e-01 8.873400000000000176e+00 1.063605000000000018e+02 1.724360000000000127e+03
1.069999999999999979e-01 7.788809999999999345e-01 8.304864999999999498e+00 1.056225000000000023e+02 1.724164999999999964e+03
1.079999999999999988e-01 7.786794999999999689e-01 7.712849999999999540e+00 1.048315000000000055e+02 1.723954999999999927e+03
1.089999999999999997e-01 7.784704999999999542e-01 7.104129999999999612e+00 1.040009000000000015e+02 1.723740000000000009e+03
1.100000000000000006e-01 7.782580000000000053e-01 6.487249999999999517e+00 1.031483000000000061e+02 1.723514999999999873e+03
1.110000000000000014e-01 7.780480000000000729e-01 5.871964999999999435e+00 1.022941999999999894e+02 1.723284999999999854e+03
1.120000000000000023e-01 7.778460000000000374e-01 5.268825000000000536e+00 1.014592999999999989e+02 1.723059999999999945e+03
1.130000000000000032e-01 7.776570000000000427e-01 4.688570000000000348e+00 1.006666500000000042e+02 1.722839999999999918e+03
1.140000000000000041e-01 7.774855000000000516e-01 4.141594999999999693e+00 9.993690000000000850e+01 1.722644999999999982e+03
1.150000000000000050e-01 7.773364999999999858e-01 3.637375000000000025e+00 9.928860000000000241e+01 1.722460000000000036e+03
1.160000000000000059e-01 7.772135000000000016e-01 3.184039999999999981e+00 9.873919999999999675e+01 1.722295000000000073e+03
1.170000000000000068e-01 7.771179999999999755e-01 2.787955000000000183e+00 9.829990000000000805e+01 1.722164999999999964e+03
1.180000000000000077e-01 7.770519999999999650e-01 2.453425000000000189e+00 9.797990000000000066e+01 1.722059999999999945e+03
1.190000000000000085e-01 7.770164999999999988e-01 2.182584999999999997e+00 9.778190000000000737e+01 1.721990000000000009e+03
1.200000000000000094e-01 7.770095000000000196e-01 1.975334999999999841e+00 9.770544999999999902e+01 1.721949999999999818e+03
1.209999999999999964e-01 7.770299999999999985e-01 1.829469999999999930e+00 9.774469999999999459e+01 1.721940000000000055e+03
1.219999999999999973e-01 7.770740000000000425e-01 1.740874999999999950e+00 9.789009999999998968e+01 1.721960000000000036e+03
1.229999999999999982e-01 7.771394999999999831e-01 1.703834999999999988e+00 9.812860000000000582e+01 1.722000000000000000e+03
1.239999999999999991e-01 7.772219999999999684e-01 1.711395000000000000e+00 9.844490000000000407e+01 1.722069999999999936e+03
1.250000000000000000e-01 7.773164999999999658e-01 1.755744999999999889e+00 9.882175000000000864e+01 1.722154999999999973e+03
1.260000000000000009e-01 7.774194999999999300e-01 1.828616499999999867e+00 9.924164999999999281e+01 1.722255000000000109e+03
1.270000000000000018e-01 7.775269999999999682e-01 1.921670999999999907e+00 9.968614999999999782e+01 1.722365000000000009e+03
1.280000000000000027e-01 7.776345000000000063e-01 2.026799999999999713e+00 1.001390999999999991e+02 1.722474999999999909e+03
1.290000000000000036e-01 7.777384999999999993e-01 2.136445000000000149e+00 1.005852999999999895e+02 1.722589999999999918e+03
1.300000000000000044e-01 7.778370000000000006e-01 2.243780000000000108e+00 1.010106499999999983e+02 1.722700000000000045e+03
1.310000000000000053e-01 7.779264999999999652e-01 2.342920000000000336e+00 1.014039999999999964e+02 1.722809999999999945e+03
1.320000000000000062e-01 7.780059999999999754e-01 2.428989999999999760e+00 1.017574999999999932e+02 1.722904999999999973e+03
1.330000000000000071e-01 7.780745000000000022e-01 2.498224999999999696e+00 1.020644999999999953e+02 1.722990000000000009e+03
1.340000000000000080e-01 7.781305000000000582e-01 2.547970000000000290e+00 1.023209999999999980e+02 1.723065000000000055e+03
1.350000000000000089e-01 7.781744999999999912e-01 2.576665000000000205e+00 1.025260000000000105e+02 1.723125000000000000e+03
1.360000000000000098e-01 7.782065000000000232e-01 2.583800000000000097e+00 1.026800000000000068e+02 1.723174999999999955e+03
1.370000000000000107e-01 7.782284999999999897e-01 2.569819999999999993e+00 1.027854999999999990e+02 1.723210000000000036e+03
1.380000000000000115e-01 7.782400000000000428e-01 2.536024999999999974e+00 1.028455000000000013e+02 1.723240000000000009e+03
1.390000000000000124e-01 7.782430000000000181e-01 2.484429999999999694e+00 1.028665000000000020e+02 1.723255000000000109e+03
1.400000000000000133e-01 7.782385000000000552e-01 2.417594999999999938e+00 1.028539999999999992e+02 1.723255000000000109e+03
1.410000000000000142e-01 7.782290000000000596e-01 2.338474999999999859e+00 1.028149999999999977e+02 1.723250000000000000e+03
1.420000000000000151e-01 7.782149999999999901e-01 2.250234999999999985e+00 1.027549999999999955e+02 1.723239999999999782e+03
1.430000000000000160e-01 7.781989999999999741e-01 2.156039999999999957e+00 1.026800000000000068e+02 1.723230000000000018e+03
1.440000000000000169e-01 7.781820000000000404e-01 2.058910000000000018e+00 1.025970000000000084e+02 1.723210000000000036e+03
1.450000000000000178e-01 7.781644999999999257e-01 1.961554999999999938e+00 1.025099999999999909e+02 1.723190000000000055e+03
1.459999999999999909e-01 7.781469999999999221e-01 1.866254999999999997e+00 1.024224999999999994e+02 1.723170000000000073e+03
1.469999999999999918e-01 7.781305000000000582e-01 1.774754999999999860e+00 1.023375000000000057e+02 1.723150000000000091e+03
1.479999999999999927e-01 7.781150000000000011e-01 1.688244999999999996e+00 1.022555000000000121e+02 1.723130000000000109e+03
1.489999999999999936e-01 7.781005000000000837e-01 1.607339999999999991e+00 1.021769999999999925e+02 1.723110000000000127e+03
1.499999999999999944e-01 7.780854999999999855e-01 1.532134999999999803e+00 1.021004999999999967e+02 1.723090000000000146e+03
1.509999999999999953e-01 7.780709999999999571e-01 1.462260000000000115e+00 1.020250000000000057e+02 1.723065000000000055e+03
1.519999999999999962e-01 7.780549999999999411e-01 1.396990500000000024e+00 1.019449999999999932e+02 1.723045000000000073e+03
1.529999999999999971e-01 7.780370000000000896e-01 1.335409999999999986e+00 1.018594999999999970e+02 1.723025000000000091e+03
1.539999999999999980e-01 7.780160000000000409e-01 1.276469000000000076e+00 1.017644999999999982e+02 1.723000000000000000e+03
1.549999999999999989e-01 7.779914999999999470e-01 1.219177500000000025e+00 1.016569999999999965e+02 1.722970000000000027e+03
1.559999999999999998e-01 7.779629999999999601e-01 1.162660499999999875e+00 1.015339999999999918e+02 1.722940000000000055e+03
1.570000000000000007e-01 7.779300000000000104e-01 1.106266999999999889e+00 1.013940000000000055e+02 1.722900000000000091e+03
1.580000000000000016e-01 7.778920000000000279e-01 1.049615500000000035e+00 1.012360000000000042e+02 1.722859999999999900e+03
1.590000000000000024e-01 7.778494999999999715e-01 9.926420000000000243e-01 1.010589999999999975e+02 1.722809999999999945e+03
