# t [s], A [cm^2], U [cm/s], P [cPa], c [cm/s]
1.000000000000000021e-03 1.844339999999999868e-01 2.953795000000000170e-01 9.246244999999998981e+01 2.099795000000000073e+03
2.000000000000000042e-03 1.843859999999999943e-01 1.747024500000000202e+00 8.927485000000000070e+01 2.099395000000000437e+03
3.000000000000000062e-03 1.842570000000000041e-01 3.543988999999999834e+00 8.483830000000000382e+01 2.098364999999999782e+03
4.000000000000000083e-03 1.840804999999999803e-01 5.570139499999999799e+00 8.002965000000000373e+01 2.096970000000000255e+03
5.000000000000000104e-03 1.838930000000000009e-01 7.753334999999999866e+00 7.576060000000001082e+01 2.095505000000000109e+03
6.000000000000000125e-03 1.837145000000000028e-01 9.906254999999999811e+00 7.230320000000000391e+01 2.094119999999999891e+03
7.000000000000000146e-03 1.835475000000000023e-01 1.180410000000000004e+01 6.936169999999999902e+01 2.092855000000000018e+03
8.000000000000000167e-03 1.833950000000000025e-01 1.337464500000000100e+01 6.670680000000000121e+01 2.091724999999999909e+03
9.000000000000001055e-03 1.832630000000000092e-01 1.466690000000000005e+01 6.442274999999999352e+01 2.090755000000000109e+03
1.000000000000000194e-02 1.831520000000000092e-01 1.571669999999999945e+01 6.258869999999999578e+01 2.089949999999999818e+03
1.099999999999999936e-02 1.830630000000000035e-01 1.654040000000000177e+01 6.117360000000000042e+01 2.089309999999999945e+03
1.200000000000000025e-02 1.829935000000000034e-01 1.715339999999999776e+01 6.010970000000000368e+01 2.088819999999999709e+03
1.300000000000000114e-02 1.829390000000000183e-01 1.755774999999999864e+01 5.928244999999999720e+01 2.088449999999999818e+03
1.400000000000000203e-02 1.828950000000000020e-01 1.776670000000000016e+01 5.856654999999999944e+01 2.088150000000000091e+03
1.499999999999999944e-02 1.828599999999999948e-01 1.785970000000000013e+01 5.798975000000000080e+01 2.087920000000000073e+03
1.600000000000000033e-02 1.828400000000000025e-01 1.799020000000000152e+01 5.783155000000000001e+01 2.087795000000000073e+03
1.700000000000000122e-02 1.828454999999999941e-01 1.831705000000000183e+01 5.849434999999999718e+01 2.087840000000000146e+03
1.800000000000000211e-02 1.828855000000000064e-01 1.891320000000000334e+01 6.022885000000000133e+01 2.088135000000000218e+03
1.900000000000000300e-02 1.829594999999999971e-01 1.971894999999999953e+01 6.292304999999999637e+01 2.088675000000000182e+03
2.000000000000000042e-02 1.830565000000000109e-01 2.056530000000000058e+01 6.609154999999999802e+01 2.089385000000000218e+03
2.100000000000000130e-02 1.831595000000000029e-01 2.124564999999999770e+01 6.905205000000000837e+01 2.090149999999999636e+03
2.200000000000000219e-02 1.832489999999999952e-01 2.159600000000000009e+01 7.118115000000000236e+01 2.090824999999999818e+03
2.299999999999999961e-02 1.833095000000000141e-01 2.154919999999999902e+01 7.212805000000000177e+01 2.091300000000000182e+03
2.400000000000000050e-02 1.833354999999999846e-01 2.114600000000000080e+01 7.190500000000000114e+01 2.091519999999999982e+03
2.500000000000000139e-02 1.833305000000000073e-01 2.050444999999999851e+01 7.083310000000000173e+01 2.091510000000000218e+03
2.600000000000000228e-02 1.833049999999999957e-01 1.976575000000000060e+01 6.938294999999999391e+01 2.091340000000000146e+03
2.700000000000000316e-02 1.832715000000000038e-01 1.904144999999999754e+01 6.798714999999999975e+01 2.091095000000000255e+03
2.800000000000000058e-02 1.832380000000000120e-01 1.838084999999999880e+01 6.689920000000000755e+01 2.090850000000000364e+03
2.900000000000000147e-02 1.832099999999999840e-01 1.776854999999999762e+01 6.614374999999999716e+01 2.090639999999999873e+03
3.000000000000000236e-02 1.831855000000000011e-01 1.714525000000000077e+01 6.555774999999999864e+01 2.090460000000000036e+03
3.099999999999999978e-02 1.831605000000000039e-01 1.644279999999999831e+01 6.489395000000000380e+01 2.090274999999999636e+03
3.200000000000000067e-02 1.831289999999999862e-01 1.561854999999999905e+01 6.394150000000000489e+01 2.090050000000000182e+03
3.300000000000000155e-02 1.830869999999999997e-01 1.467924999999999969e+01 6.262375000000000114e+01 2.089744999999999891e+03
3.400000000000000244e-02 1.830355000000000176e-01 1.368700000000000117e+01 6.104350000000000165e+01 2.089375000000000000e+03
3.500000000000000333e-02 1.829810000000000048e-01 1.274579999999999913e+01 5.946235000000000070e+01 2.088974999999999909e+03
3.600000000000000422e-02 1.829310000000000103e-01 1.197325000000000017e+01 5.822514999999999930e+01 2.088605000000000018e+03
3.700000000000000511e-02 1.828974999999999906e-01 1.146770000000000067e+01 5.765420000000000300e+01 2.088344999999999800e+03
3.799999999999999906e-02 1.828874999999999806e-01 1.128054999999999986e+01 5.795120000000000005e+01 2.088255000000000109e+03
3.899999999999999994e-02 1.829054999999999986e-01 1.140299999999999869e+01 5.913670000000000471e+01 2.088369999999999891e+03
4.000000000000000083e-02 1.829500000000000015e-01 1.176794999999999902e+01 6.104080000000000439e+01 2.088675000000000182e+03
4.100000000000000172e-02 1.830145000000000244e-01 1.226595000000000013e+01 6.334340000000000259e+01 2.089135000000000218e+03
4.200000000000000261e-02 1.830875000000000141e-01 1.276800000000000068e+01 6.564500000000001023e+01 2.089664999999999964e+03
4.300000000000000350e-02 1.831579999999999875e-01 1.314914999999999878e+01 6.754795000000000016e+01 2.090184999999999945e+03
4.400000000000000439e-02 1.832135000000000014e-01 1.330809999999999960e+01 6.872630000000000905e+01 2.090594999999999800e+03
4.499999999999999833e-02 1.832440000000000180e-01 1.317875000000000085e+01 6.897225000000000250e+01 2.090835000000000036e+03
4.599999999999999922e-02 1.832449999999999912e-01 1.273375000000000057e+01 6.821195000000000164e+01 2.090855000000000018e+03
4.700000000000000011e-02 1.832135000000000014e-01 1.198045000000000115e+01 6.649475000000001046e+01 2.090635000000000218e+03
4.800000000000000100e-02 1.831504999999999939e-01 1.095245000000000068e+01 6.396144999999999925e+01 2.090190000000000055e+03
4.900000000000000189e-02 1.830610000000000015e-01 9.699275000000000091e+00 6.080539999999999878e+01 2.089545000000000073e+03
5.000000000000000278e-02 1.829505000000000159e-01 8.277139999999999276e+00 5.723434999999999917e+01 2.088734999999999673e+03
5.100000000000000366e-02 1.828255000000000019e-01 6.742180000000000284e+00 5.344254999999999711e+01 2.087820000000000164e+03
5.200000000000000455e-02 1.826905000000000057e-01 5.147409999999999819e+00 4.959569999999999368e+01 2.086835000000000036e+03
5.300000000000000544e-02 1.825530000000000208e-01 3.542091000000000101e+00 4.582845000000000368e+01 2.085819999999999709e+03
5.399999999999999939e-02 1.824164999999999814e-01 1.972974999999999923e+00 4.225050000000000239e+01 2.084815000000000055e+03
5.500000000000000028e-02 1.822849999999999748e-01 4.860999999999999766e-01 3.895645000000000380e+01 2.083845000000000255e+03
5.600000000000000117e-02 1.821629999999999916e-01 -8.720200000000000173e-01 3.603544999999999732e+01 2.082940000000000055e+03
5.700000000000000205e-02 1.820545000000000080e-01 -2.054378999999999955e+00 3.357715000000000316e+01 2.082130000000000109e+03
5.800000000000000294e-02 1.819624999999999992e-01 -3.014845999999999915e+00 3.167190000000000083e+01 2.081440000000000055e+03
5.900000000000000383e-02 1.818905000000000105e-01 -3.710704999999999920e+00 3.040680000000000049e+01 2.080899999999999636e+03
6.000000000000000472e-02 1.818425000000000180e-01 -4.105800000000000338e+00 2.985795000000000243e+01 2.080524999999999636e+03
6.099999999999999867e-02 1.818200000000000094e-01 -4.173709999999999809e+00 3.008135000000000048e+01 2.080340000000000146e+03
6.199999999999999956e-02 1.818259999999999876e-01 -3.900285000000000224e+00 3.110504999999999853e+01 2.080364999999999782e+03
6.300000000000000044e-02 1.818604999999999805e-01 -3.285120000000000040e+00 3.292355000000000587e+01 2.080595000000000255e+03
6.400000000000000133e-02 1.819240000000000024e-01 -2.341810999999999865e+00 3.549670000000000414e+01 2.081034999999999854e+03
6.500000000000000222e-02 1.820154999999999967e-01 -1.096979999999999844e+00 3.875130000000000052e+01 2.081684999999999945e+03
6.600000000000000311e-02 1.821305000000000007e-01 4.116199999999998749e-01 4.258695000000000164e+01 2.082515000000000327e+03
6.700000000000000400e-02 1.822674999999999990e-01 2.137669999999999959e+00 4.688320000000000221e+01 2.083505000000000109e+03
6.800000000000000488e-02 1.824215000000000142e-01 4.029148250000000431e+00 5.150795000000000101e+01 2.084625000000000000e+03
6.900000000000000577e-02 1.825880000000000003e-01 6.031365000000000087e+00 5.632644999999999413e+01 2.085845000000000255e+03
7.000000000000000666e-02 1.827630000000000088e-01 8.089764999999999873e+00 6.120860000000000412e+01 2.087125000000000000e+03
7.100000000000000755e-02 1.829410000000000203e-01 1.015280000000000094e+01 6.603664999999999452e+01 2.088440000000000055e+03
7.200000000000000844e-02 1.831185000000000174e-01 1.217431000000000019e+01 7.071110000000000184e+01 2.089750000000000000e+03
7.300000000000000933e-02 1.832920000000000105e-01 1.411540000000000106e+01 7.515475000000000705e+01 2.091039999999999964e+03
7.399999999999999634e-02 1.834585000000000243e-01 1.594624999999999915e+01 7.931610000000000582e+01 2.092284999999999854e+03
7.499999999999999722e-02 1.836165000000000158e-01 1.764679999999999893e+01 8.317024999999999579e+01 2.093465000000000146e+03
7.599999999999999811e-02 1.837650000000000117e-01 1.920689999999999742e+01 8.671795000000000186e+01 2.094585000000000036e+03
7.699999999999999900e-02 1.839034999999999975e-01 2.062550000000000239e+01 8.998269999999999413e+01 2.095630000000000109e+03
7.799999999999999989e-02 1.840324999999999878e-01 2.190975000000000250e+01 9.300614999999999100e+01 2.096599999999999909e+03
7.900000000000000078e-02 1.841544999999999987e-01 2.307274999999999920e+01 9.584165000000000134e+01 2.097519999999999982e+03
8.000000000000000167e-02 1.842690000000000161e-01 2.413185000000000002e+01 9.854879999999999995e+01 2.098394999999999982e+03
8.100000000000000255e-02 1.843805000000000027e-01 2.510600000000000165e+01 1.011861999999999995e+02 2.099235000000000127e+03
8.200000000000000344e-02 1.844884999999999997e-01 2.601399999999999935e+01 1.038051000000000101e+02 2.100059999999999945e+03
8.300000000000000433e-02 1.845960000000000101e-01 2.687274999999999991e+01 1.064470000000000027e+02 2.100875000000000000e+03
8.400000000000000522e-02 1.847044999999999937e-01 2.769559999999999889e+01 1.091394999999999982e+02 2.101694999999999709e+03
8.500000000000000611e-02 1.848134999999999917e-01 2.849174999999999969e+01 1.118944999999999936e+02 2.102519999999999982e+03
8.600000000000000699e-02 1.849239999999999773e-01 2.926575000000000060e+01 1.147090000000000032e+02 2.103359999999999673e+03
8.700000000000000788e-02 1.850364999999999926e-01 3.001724999999999710e+01 1.175660000000000025e+02 2.104204999999999927e+03
8.800000000000000877e-02 1.851499999999999813e-01 3.074164999999999992e+01 1.204364999999999952e+02 2.105065000000000055e+03
8.899999999999999578e-02 1.852634999999999976e-01 3.143059999999999832e+01 1.232830000000000013e+02 2.105920000000000073e+03
8.999999999999999667e-02 1.853750000000000120e-01 3.207259999999999422e+01 1.260615000000000094e+02 2.106764999999999873e+03
9.099999999999999756e-02 1.854839999999999822e-01 3.265420000000000300e+01 1.287235000000000014e+02 2.107585000000000036e+03
9.199999999999999845e-02 1.855880000000000030e-01 3.316084999999999638e+01 1.312235000000000014e+02 2.108380000000000109e+03
9.299999999999999933e-02 1.856855000000000033e-01 3.357765000000000555e+01 1.335140000000000100e+02 2.109125000000000000e+03
9.400000000000000022e-02 1.857755000000000101e-01 3.389069999999999538e+01 1.355554999999999950e+02 2.109809999999999945e+03
9.500000000000000111e-02 1.858564999999999801e-01 3.408764999999999645e+01 1.373129999999999882e+02 2.110429999999999836e+03
9.600000000000000200e-02 1.859270000000000089e-01 3.415834999999999866e+01 1.387599999999999909e+02 2.110965000000000146e+03
9.700000000000000289e-02 1.859854999999999980e-01 3.409600000000000364e+01 1.398785000000000025e+02 2.111420000000000073e+03
9.800000000000000377e-02 1.860324999999999895e-01 3.389709999999999468e+01 1.406610000000000014e+02 2.111784999999999854e+03
9.900000000000000466e-02 1.860669999999999824e-01 3.356189999999999429e+01 1.411094999999999970e+02 2.112054999999999836e+03
1.000000000000000056e-01 1.860884999999999900e-01 3.309465000000000146e+01 1.412365000000000066e+02 2.112230000000000018e+03
1.010000000000000064e-01 1.860985000000000000e-01 3.250354999999999706e+01 1.410620000000000118e+02 2.112319999999999709e+03
1.020000000000000073e-01 1.860974999999999990e-01 3.180005000000000237e+01 1.406175000000000068e+02 2.112319999999999709e+03
1.030000000000000082e-01 1.860860000000000014e-01 3.099875000000000114e+01 1.399379999999999882e+02 2.112244999999999891e+03
1.040000000000000091e-01 1.860660000000000092e-01 3.011645000000000039e+01 1.390649999999999977e+02 2.112099999999999909e+03
1.050000000000000100e-01 1.860384999999999955e-01 2.917180000000000106e+01 1.380430000000000064e+02 2.111900000000000091e+03
1.059999999999999970e-01 1.860045000000000170e-01 2.818390000000000128e+01 1.369164999999999850e+02 2.111654999999999745e+03
1.069999999999999979e-01 1.859669999999999934e-01 2.717204999999999870e+01 1.357280000000000086e+02 2.111375000000000000e+03
1.079999999999999988e-01 1.859259999999999802e-01 2.615474999999999994e+01 1.345194999999999936e+02 2.111065000000000055e+03
1.089999999999999997e-01 1.858839999999999937e-01 2.514884999999999948e+01 1.333265000000000100e+02 2.110755000000000109e+03
1.100000000000000006e-01 1.858420000000000072e-01 2.416949999999999932e+01 1.321795000000000186e+02 2.110435000000000400e+03
1.110000000000000014e-01 1.858004999999999796e-01 2.322875000000000156e+01 1.311020000000000039e+02 2.110125000000000000e+03
1.120000000000000023e-01 1.857615000000000238e-01 2.233619999999999806e+01 1.301099999999999852e+02 2.109829999999999927e+03
1.130000000000000032e-01 1.857250000000000012e-01 2.149795000000000300e+01 1.292135000000000105e+02 2.109550000000000182e+03
1.140000000000000041e-01 1.856915000000000093e-01 2.071690000000000254e+01 1.284114999999999895e+02 2.109295000000000073e+03
1.150000000000000050e-01 1.856605000000000061e-01 1.999289999999999878e+01 1.277000000000000028e+02 2.109054999999999836e+03
1.160000000000000059e-01 1.856325000000000058e-01 1.932244999999999990e+01 1.270645000000000095e+02 2.108840000000000146e+03
1.170000000000000068e-01 1.856074999999999808e-01 1.869950000000000045e+01 1.264870000000000090e+02 2.108644999999999982e+03
1.180000000000000077e-01 1.855835000000000123e-01 1.811580000000000013e+01 1.259445000000000050e+02 2.108454999999999927e+03
1.190000000000000085e-01 1.855605000000000171e-01 1.756129999999999924e+01 1.254104999999999990e+02 2.108279999999999745e+03
1.200000000000000094e-01 1.855379999999999807e-01 1.702495000000000047e+01 1.248569999999999993e+02 2.108105000000000018e+03
1.209999999999999964e-01 1.855144999999999988e-01 1.649520000000000053e+01 1.242570000000000050e+02 2.107925000000000182e+03
1.219999999999999973e-01 1.854895000000000016e-01 1.596085000000000065e+01 1.235840000000000032e+02 2.107734999999999673e+03
1.229999999999999982e-01 1.854615000000000014e-01 1.541159999999999997e+01 1.228160000000000025e+02 2.107525000000000091e+03
1.239999999999999991e-01 1.854304999999999981e-01 1.483885000000000076e+01 1.219344999999999999e+02 2.107284999999999854e+03
1.250000000000000000e-01 1.853944999999999899e-01 1.423584999999999923e+01 1.209284999999999997e+02 2.107020000000000437e+03
1.260000000000000009e-01 1.853549999999999920e-01 1.359860000000000113e+01 1.197909999999999968e+02 2.106724999999999909e+03
1.270000000000000018e-01 1.853110000000000035e-01 1.292559999999999931e+01 1.185250000000000057e+02 2.106390000000000327e+03
1.280000000000000027e-01 1.852615000000000234e-01 1.221845000000000070e+01 1.171394999999999982e+02 2.106024999999999636e+03
1.290000000000000036e-01 1.852090000000000125e-01 1.148138499999999951e+01 1.156490000000000009e+02 2.105625000000000000e+03
1.300000000000000044e-01 1.851519999999999833e-01 1.072135499999999908e+01 1.140769999999999982e+02 2.105199999999999818e+03
1.310000000000000053e-01 1.850924999999999931e-01 9.947530000000000427e+00 1.124484999999999957e+02 2.104750000000000000e+03
1.320000000000000062e-01 1.850304999999999866e-01 9.170875000000000554e+00 1.107959999999999923e+02 2.104295000000000073e+03
1.330000000000000071e-01 1.849680000000000213e-01 8.403375000000000483e+00 1.091504999999999939e+02 2.103819999999999709e+03
1.340000000000000080e-01 1.849055000000000004e-01 7.657799999999999940e+00 1.075455000000000041e+02 2.103354999999999563e+03
1.350000000000000089e-01 1.848449999999999815e-01 6.946640000000000370e+00 1.060125000000000028e+02 2.102894999999999982e+03
1.360000000000000098e-01 1.847864999999999924e-01 6.281724999999999781e+00 1.045805000000000007e+02 2.102454999999999927e+03
1.370000000000000107e-01 1.847320000000000073e-01 5.673610000000000042e+00 1.032745000000000033e+02 2.102039999999999964e+03
1.380000000000000115e-01 1.846820000000000128e-01 5.131090000000000373e+00 1.021142499999999984e+02 2.101659999999999854e+03
1.390000000000000124e-01 1.846365000000000089e-01 4.660865000000000258e+00 1.011128999999999962e+02 2.101315000000000055e+03
1.400000000000000133e-01 1.845970000000000111e-01 4.267324999999999591e+00 1.002796000000000021e+02 2.101014999999999873e+03
1.410000000000000142e-01 1.845630000000000048e-01 3.952459999999999862e+00 9.961525000000000318e+01 2.100755000000000109e+03
1.420000000000000151e-01 1.845359999999999778e-01 3.715860000000000163e+00 9.911674999999999613e+01 2.100545000000000073e+03
1.430000000000000160e-01 1.845144999999999980e-01 3.554884999999999629e+00 9.877469999999999573e+01 2.100380000000000109e+03
1.440000000000000169e-01 1.844989999999999963e-01 3.464884999999999771e+00 9.857585000000000264e+01 2.100255000000000109e+03
1.450000000000000178e-01 1.844879999999999853e-01 3.439490000000000158e+00 9.850345000000000084e+01 2.100170000000000073e+03
1.459999999999999909e-01 1.844824999999999937e-01 3.470959999999999823e+00 9.853804999999999836e+01 2.100114999999999782e+03
1.469999999999999918e-01 1.844810000000000061e-01 3.550534999999999997e+00 9.865874999999999773e+01 2.100100000000000364e+03
1.479999999999999927e-01 1.844819999999999793e-01 3.668845000000000134e+00 9.884385000000000332e+01 2.100105000000000018e+03
1.489999999999999936e-01 1.844864999999999977e-01 3.816219999999999946e+00 9.907210000000000605e+01 2.100130000000000109e+03
1.499999999999999944e-01 1.844925000000000037e-01 3.983100000000000307e+00 9.932294999999999163e+01 2.100175000000000182e+03
1.509999999999999953e-01 1.844999999999999973e-01 4.160289999999999822e+00 9.957730000000000814e+01 2.100225000000000364e+03
1.519999999999999962e-01 1.845070000000000043e-01 4.339280000000000470e+00 9.981845000000001278e+01 2.100279999999999745e+03
1.529999999999999971e-01 1.845140000000000113e-01 4.512470000000000425e+00 1.000323999999999955e+02 2.100329999999999927e+03
1.539999999999999980e-01 1.845205000000000040e-01 4.673354999999999926e+00 1.002070999999999970e+02 2.100380000000000109e+03
1.549999999999999989e-01 1.845260000000000233e-01 4.816679999999999851e+00 1.003341000000000065e+02 2.100420000000000073e+03
1.559999999999999998e-01 1.845299999999999996e-01 4.938544999999999519e+00 1.004078000000000088e+02 2.100449999999999818e+03
1.570000000000000007e-01 1.845324999999999882e-01 5.036389999999999922e+00 1.004262999999999977e+02 2.100465000000000146e+03
1.580000000000000016e-01 1.845324999999999882e-01 5.109035000000000437e+00 1.003896000000000015e+02 2.100470000000000255e+03
1.590000000000000024e-01 1.845310000000000006e-01 5.156579999999999941e+00 1.003011999999999944e+02 2.100465000000000146e+03
