# t [s], A [cm^2], U [cm/s], P [cPa], c [cm/s]
1.000000000000000021e-03 1.581969999999999765e-01 2.347380000000000022e-01 9.612745000000001028e+01 1.842295000000000073e+03
2.000000000000000042e-03 1.581700000000000050e-01 1.665655499999999956e+00 9.338425000000000864e+01 1.842049999999999955e+03
3.000000000000000062e-03 1.580685000000000007e-01 3.450004999999999988e+00 8.970950000000000557e+01 1.841179999999999836e+03
4.000000000000000083e-03 1.579154999999999864e-01 5.439927349999999606e+00 8.550790000000000646e+01 1.839900000000000091e+03
5.000000000000000104e-03 1.577379999999999893e-01 7.585255000000000081e+00 8.146295000000000641e+01 1.838424999999999955e+03
6.000000000000000125e-03 1.575570000000000026e-01 9.789489999999998915e+00 7.797294999999999732e+01 1.836940000000000055e+03
7.000000000000000146e-03 1.573829999999999951e-01 1.189888499999999993e+01 7.504990000000000805e+01 1.835519999999999982e+03
8.000000000000000167e-03 1.572184999999999833e-01 1.378114000000000061e+01 7.249835000000000207e+01 1.834204999999999927e+03
9.000000000000001055e-03 1.570670000000000122e-01 1.540032000000000068e+01 7.020544999999999902e+01 1.833005000000000109e+03
1.000000000000000194e-02 1.569315000000000015e-01 1.678294999999999959e+01 6.820425000000000182e+01 1.831950000000000045e+03
1.099999999999999936e-02 1.568144999999999956e-01 1.795390000000000086e+01 6.653645000000000209e+01 1.831045000000000073e+03
1.200000000000000025e-02 1.567149999999999932e-01 1.892595000000000027e+01 6.518979999999999109e+01 1.830289999999999964e+03
1.300000000000000114e-02 1.566339999999999955e-01 1.971045000000000158e+01 6.412530000000000996e+01 1.829680000000000064e+03
1.400000000000000203e-02 1.565679999999999850e-01 2.031520000000000081e+01 6.328830000000000666e+01 1.829184999999999945e+03
1.499999999999999944e-02 1.565139999999999865e-01 2.074569999999999936e+01 6.260705000000000098e+01 1.828795000000000073e+03
1.600000000000000033e-02 1.564699999999999980e-01 2.102339999999999876e+01 6.203054999999999808e+01 1.828474999999999909e+03
1.700000000000000122e-02 1.564340000000000175e-01 2.120520000000000138e+01 6.159064999999999657e+01 1.828230000000000018e+03
1.800000000000000211e-02 1.564109999999999945e-01 2.138040000000000163e+01 6.142475000000000307e+01 1.828074999999999818e+03
1.900000000000000300e-02 1.564050000000000162e-01 2.164070000000000249e+01 6.172220000000000084e+01 1.828045000000000073e+03
2.000000000000000042e-02 1.564205000000000179e-01 2.204289999999999949e+01 6.262590000000000146e+01 1.828174999999999955e+03
2.100000000000000130e-02 1.564595000000000014e-01 2.258500000000000085e+01 6.414544999999999675e+01 1.828480000000000018e+03
2.200000000000000219e-02 1.565195000000000058e-01 2.320649999999999835e+01 6.612829999999999586e+01 1.828944999999999936e+03
2.299999999999999961e-02 1.565930000000000100e-01 2.380980000000000274e+01 6.829605000000000814e+01 1.829519999999999982e+03
2.400000000000000050e-02 1.566704999999999903e-01 2.429220000000000113e+01 7.032415000000000305e+01 1.830130000000000109e+03
2.500000000000000139e-02 1.567430000000000212e-01 2.457475000000000165e+01 7.193099999999999739e+01 1.830704999999999927e+03
2.600000000000000228e-02 1.568014999999999826e-01 2.462164999999999893e+01 7.294735000000000014e+01 1.831179999999999836e+03
2.700000000000000316e-02 1.568415000000000226e-01 2.444389999999999930e+01 7.334574999999999534e+01 1.831515000000000100e+03
2.800000000000000058e-02 1.568634999999999891e-01 2.408939999999999770e+01 7.322710000000000719e+01 1.831704999999999927e+03
2.900000000000000147e-02 1.568700000000000094e-01 2.362424999999999997e+01 7.277355000000000018e+01 1.831775000000000091e+03
3.000000000000000236e-02 1.568665000000000198e-01 2.311164999999999736e+01 7.218564999999999543e+01 1.831759999999999991e+03
3.099999999999999978e-02 1.568574999999999831e-01 2.259564999999999912e+01 7.162530000000000996e+01 1.831694999999999936e+03
3.200000000000000067e-02 1.568470000000000142e-01 2.209360000000000213e+01 7.117945000000000277e+01 1.831619999999999891e+03
3.300000000000000155e-02 1.568380000000000052e-01 2.159705000000000297e+01 7.085159999999999059e+01 1.831549999999999955e+03
3.400000000000000244e-02 1.568289999999999962e-01 2.108104999999999762e+01 7.057935000000000514e+01 1.831485000000000127e+03
3.500000000000000333e-02 1.568189999999999862e-01 2.051660000000000039e+01 7.026779999999999404e+01 1.831410000000000082e+03
3.600000000000000422e-02 1.568054999999999866e-01 1.988335000000000008e+01 6.982920000000000016e+01 1.831305000000000064e+03
3.700000000000000511e-02 1.567860000000000087e-01 1.917920000000000158e+01 6.921629999999998972e+01 1.831159999999999854e+03
3.799999999999999906e-02 1.567609999999999837e-01 1.842474999999999952e+01 6.844350000000000023e+01 1.830974999999999909e+03
3.899999999999999994e-02 1.567315000000000236e-01 1.766120000000000090e+01 6.758920000000000528e+01 1.830750000000000000e+03
4.000000000000000083e-02 1.567004999999999926e-01 1.694330000000000069e+01 6.678110000000000923e+01 1.830514999999999873e+03
4.100000000000000172e-02 1.566730000000000067e-01 1.632795000000000130e+01 6.616785000000000139e+01 1.830299999999999955e+03
4.200000000000000261e-02 1.566535000000000011e-01 1.586245000000000083e+01 6.588490000000000180e+01 1.830144999999999982e+03
4.300000000000000350e-02 1.566464999999999941e-01 1.557495000000000118e+01 6.602355000000000018e+01 1.830079999999999927e+03
4.400000000000000439e-02 1.566540000000000155e-01 1.546890000000000143e+01 6.661010000000000275e+01 1.830125000000000000e+03
4.499999999999999833e-02 1.566764999999999963e-01 1.552219999999999978e+01 6.759944999999999027e+01 1.830284999999999854e+03
4.599999999999999922e-02 1.567125000000000046e-01 1.569170000000000087e+01 6.888255000000000905e+01 1.830554999999999836e+03
4.700000000000000011e-02 1.567574999999999941e-01 1.592020000000000124e+01 7.030559999999999832e+01 1.830894999999999982e+03
4.800000000000000100e-02 1.568074999999999886e-01 1.614495000000000147e+01 7.169474999999999909e+01 1.831279999999999973e+03
4.900000000000000189e-02 1.568559999999999954e-01 1.630649999999999977e+01 7.288194999999998913e+01 1.831654999999999973e+03
5.000000000000000278e-02 1.568975000000000231e-01 1.635494999999999877e+01 7.372694999999998799e+01 1.831974999999999909e+03
5.100000000000000366e-02 1.569274999999999975e-01 1.625455000000000183e+01 7.413150000000000261e+01 1.832215000000000146e+03
5.200000000000000455e-02 1.569429999999999992e-01 1.598505000000000109e+01 7.404595000000000482e+01 1.832335000000000036e+03
5.300000000000000544e-02 1.569404999999999828e-01 1.554139999999999944e+01 7.346779999999999688e+01 1.832329999999999927e+03
5.399999999999999939e-02 1.569209999999999772e-01 1.493120000000000047e+01 7.243379999999999086e+01 1.832184999999999945e+03
5.500000000000000028e-02 1.568845000000000101e-01 1.417125000000000057e+01 7.100860000000000127e+01 1.831914999999999964e+03
5.600000000000000117e-02 1.568335000000000146e-01 1.328444999999999965e+01 6.927299999999999613e+01 1.831519999999999982e+03
5.700000000000000205e-02 1.567695000000000061e-01 1.229659499999999994e+01 6.731244999999999834e+01 1.831034999999999854e+03
5.800000000000000294e-02 1.566965000000000163e-01 1.123477499999999907e+01 6.520985000000000298e+01 1.830470000000000027e+03
5.900000000000000383e-02 1.566159999999999775e-01 1.012586999999999904e+01 6.304055000000000319e+01 1.829845000000000027e+03
6.000000000000000472e-02 1.565320000000000045e-01 8.996665000000000134e+00 6.087165000000000248e+01 1.829200000000000045e+03
6.099999999999999867e-02 1.564460000000000017e-01 7.873810000000000642e+00 5.876304999999999978e+01 1.828530000000000200e+03
6.199999999999999956e-02 1.563610000000000000e-01 6.784464999999999968e+00 5.676985000000000525e+01 1.827869999999999891e+03
6.300000000000000044e-02 1.562790000000000012e-01 5.756619999999999848e+00 5.494534999999999769e+01 1.827235000000000127e+03
6.400000000000000133e-02 1.562034999999999951e-01 4.819085000000000285e+00 5.334275000000000233e+01 1.826639999999999873e+03
6.500000000000000222e-02 1.561354999999999826e-01 4.001129999999999853e+00 5.201600000000000534e+01 1.826110000000000127e+03
6.600000000000000311e-02 1.560785000000000089e-01 3.331634999999999902e+00 5.101905000000000001e+01 1.825654999999999973e+03
6.700000000000000400e-02 1.560334999999999916e-01 2.837930000000000064e+00 5.040395000000000181e+01 1.825304999999999836e+03
6.800000000000000488e-02 1.560044999999999904e-01 2.544385000000000119e+00 5.021760000000000446e+01 1.825059999999999945e+03
6.900000000000000577e-02 1.559909999999999908e-01 2.471009999999999707e+00 5.049875000000000114e+01 1.824945000000000164e+03
7.000000000000000666e-02 1.559969999999999968e-01 2.632200000000000095e+00 5.127459999999999951e+01 1.824974999999999909e+03
7.100000000000000755e-02 1.560219999999999940e-01 3.035775000000000112e+00 5.255814999999999770e+01 1.825155000000000200e+03
7.200000000000000844e-02 1.560674999999999979e-01 3.682434999999999903e+00 5.434690000000000509e+01 1.825490000000000009e+03
7.300000000000000933e-02 1.561330000000000218e-01 4.565669999999999895e+00 5.662225000000000108e+01 1.825985000000000127e+03
7.399999999999999634e-02 1.562184999999999824e-01 5.672069999999999723e+00 5.935045000000000215e+01 1.826630000000000109e+03
7.499999999999999722e-02 1.563225000000000031e-01 6.982075000000000031e+00 6.248425000000000296e+01 1.827420000000000073e+03
7.599999999999999811e-02 1.564439999999999997e-01 8.470860000000000056e+00 6.596564999999999657e+01 1.828349999999999909e+03
7.699999999999999900e-02 1.565795000000000103e-01 1.010975000000000001e+01 6.972894999999999754e+01 1.829394999999999982e+03
7.799999999999999989e-02 1.567280000000000062e-01 1.186731999999999942e+01 7.370430000000000348e+01 1.830539999999999964e+03
7.900000000000000078e-02 1.568864999999999843e-01 1.371082499999999982e+01 7.782095000000001050e+01 1.831764999999999873e+03
8.000000000000000167e-02 1.570520000000000249e-01 1.560764999999999958e+01 8.201044999999999163e+01 1.833050000000000182e+03
8.100000000000000255e-02 1.572220000000000006e-01 1.752639999999999887e+01 8.620974999999999966e+01 1.834375000000000000e+03
8.200000000000000344e-02 1.573939999999999784e-01 1.943800000000000239e+01 9.036339999999999861e+01 1.835719999999999800e+03
8.300000000000000433e-02 1.575659999999999838e-01 2.131690000000000040e+01 9.442549999999999955e+01 1.837075000000000045e+03
8.400000000000000522e-02 1.577359999999999873e-01 2.314124999999999943e+01 9.836109999999999332e+01 1.838409999999999854e+03
8.500000000000000611e-02 1.579025000000000012e-01 2.489405000000000001e+01 1.021458000000000084e+02 1.839724999999999909e+03
8.600000000000000699e-02 1.580644999999999967e-01 2.656240000000000023e+01 1.057672000000000025e+02 1.841009999999999991e+03
8.700000000000000788e-02 1.582210000000000005e-01 2.813850000000000051e+01 1.092224999999999966e+02 1.842255000000000109e+03
8.800000000000000877e-02 1.583714999999999984e-01 2.961809999999999832e+01 1.125185000000000031e+02 1.843450000000000045e+03
8.899999999999999578e-02 1.585170000000000190e-01 3.100084999999999980e+01 1.156670000000000016e+02 1.844610000000000127e+03
8.999999999999999667e-02 1.586569999999999925e-01 3.228924999999999557e+01 1.186864999999999952e+02 1.845730000000000018e+03
9.099999999999999756e-02 1.587919999999999887e-01 3.348769999999999669e+01 1.215970000000000084e+02 1.846809999999999945e+03
9.199999999999999845e-02 1.589229999999999809e-01 3.460190000000000055e+01 1.244179999999999922e+02 1.847860000000000127e+03
9.299999999999999933e-02 1.590499999999999969e-01 3.563800000000000523e+01 1.271680000000000064e+02 1.848880000000000109e+03
9.400000000000000022e-02 1.591739999999999822e-01 3.660190000000000055e+01 1.298629999999999995e+02 1.849880000000000109e+03
9.500000000000000111e-02 1.592955000000000065e-01 3.749880000000000280e+01 1.325115000000000123e+02 1.850860000000000127e+03
9.600000000000000200e-02 1.594150000000000011e-01 3.833270000000000266e+01 1.351214999999999975e+02 1.851819999999999936e+03
9.700000000000000289e-02 1.595325000000000215e-01 3.910604999999999620e+01 1.376915000000000191e+02 1.852764999999999873e+03
9.800000000000000377e-02 1.596480000000000121e-01 3.981994999999999862e+01 1.402169999999999845e+02 1.853695000000000164e+03
9.900000000000000466e-02 1.597609999999999864e-01 4.047379999999999711e+01 1.426890000000000214e+02 1.854610000000000127e+03
1.000000000000000056e-01 1.598725000000000007e-01 4.106575000000000131e+01 1.450944999999999823e+02 1.855505000000000109e+03
1.010000000000000064e-01 1.599800000000000111e-01 4.159264999999999901e+01 1.474164999999999850e+02 1.856375000000000000e+03
1.020000000000000073e-01 1.600844999999999907e-01 4.205044999999999789e+01 1.496394999999999982e+02 1.857219999999999800e+03
1.030000000000000082e-01 1.601839999999999931e-01 4.243435000000000201e+01 1.517425000000000068e+02 1.858029999999999973e+03
1.040000000000000091e-01 1.602795000000000192e-01 4.273935000000000173e+01 1.537069999999999936e+02 1.858799999999999955e+03
1.050000000000000100e-01 1.603689999999999838e-01 4.296035000000000537e+01 1.555165000000000077e+02 1.859525000000000091e+03
1.059999999999999970e-01 1.604519999999999835e-01 4.309244999999999948e+01 1.571524999999999750e+02 1.860204999999999927e+03
1.069999999999999979e-01 1.605274999999999896e-01 4.313129999999999598e+01 1.586024999999999920e+02 1.860820000000000164e+03
1.079999999999999988e-01 1.605959999999999888e-01 4.307344999999999402e+01 1.598539999999999850e+02 1.861380000000000109e+03
1.089999999999999997e-01 1.606560000000000210e-01 4.291634999999999422e+01 1.608969999999999914e+02 1.861869999999999891e+03
1.100000000000000006e-01 1.607075000000000031e-01 4.265869999999999607e+01 1.617274999999999920e+02 1.862295000000000073e+03
1.110000000000000014e-01 1.607505000000000184e-01 4.230069999999999908e+01 1.623425000000000011e+02 1.862644999999999982e+03
1.120000000000000023e-01 1.607839999999999825e-01 4.184389999999999787e+01 1.627435000000000116e+02 1.862930000000000064e+03
1.130000000000000032e-01 1.608085000000000209e-01 4.129155000000000086e+01 1.629364999999999952e+02 1.863139999999999873e+03
1.140000000000000041e-01 1.608249999999999957e-01 4.064844999999999686e+01 1.629304999999999950e+02 1.863275000000000091e+03
1.150000000000000050e-01 1.608324999999999894e-01 3.992100000000000648e+01 1.627375000000000114e+02 1.863349999999999909e+03
1.160000000000000059e-01 1.608320000000000027e-01 3.911710000000000065e+01 1.623729999999999905e+02 1.863355000000000018e+03
1.170000000000000068e-01 1.608244999999999814e-01 3.824564999999999770e+01 1.618555000000000064e+02 1.863299999999999955e+03
1.180000000000000077e-01 1.608100000000000085e-01 3.731685000000000230e+01 1.612049999999999841e+02 1.863190000000000055e+03
1.190000000000000085e-01 1.607895000000000019e-01 3.634154999999999802e+01 1.604435000000000002e+02 1.863034999999999854e+03
1.200000000000000094e-01 1.607635000000000036e-01 3.533079999999999643e+01 1.595935000000000059e+02 1.862835000000000036e+03
1.209999999999999964e-01 1.607335000000000014e-01 3.429599999999999937e+01 1.586759999999999877e+02 1.862595000000000027e+03
1.219999999999999973e-01 1.607000000000000095e-01 3.324815000000000254e+01 1.577135000000000105e+02 1.862335000000000036e+03
1.229999999999999982e-01 1.606644999999999879e-01 3.219780000000000086e+01 1.567264999999999873e+02 1.862045000000000073e+03
1.239999999999999991e-01 1.606265000000000054e-01 3.115450000000000230e+01 1.557309999999999945e+02 1.861750000000000000e+03
1.250000000000000000e-01 1.605880000000000085e-01 3.012680000000000291e+01 1.547434999999999832e+02 1.861434999999999945e+03
1.260000000000000009e-01 1.605489999999999973e-01 2.912184999999999846e+01 1.537760000000000105e+02 1.861119999999999891e+03
1.270000000000000018e-01 1.605095000000000272e-01 2.814540000000000219e+01 1.528375000000000057e+02 1.860804999999999836e+03
1.280000000000000027e-01 1.604710000000000025e-01 2.720170000000000243e+01 1.519339999999999975e+02 1.860494999999999891e+03
1.290000000000000036e-01 1.604339999999999933e-01 2.629330000000000211e+01 1.510674999999999955e+02 1.860195000000000164e+03
1.300000000000000044e-01 1.603970000000000118e-01 2.542110000000000269e+01 1.502375000000000114e+02 1.859894999999999982e+03
1.310000000000000053e-01 1.603614999999999902e-01 2.458469999999999800e+01 1.494404999999999859e+02 1.859605000000000018e+03
1.320000000000000062e-01 1.603275000000000117e-01 2.378215000000000146e+01 1.486700000000000159e+02 1.859325000000000045e+03
1.330000000000000071e-01 1.602935000000000054e-01 2.301024999999999920e+01 1.479170000000000016e+02 1.859054999999999836e+03
1.340000000000000080e-01 1.602600000000000136e-01 2.226480000000000103e+01 1.471714999999999804e+02 1.858779999999999973e+03
1.350000000000000089e-01 1.602274999999999949e-01 2.154080000000000084e+01 1.464219999999999970e+02 1.858509999999999991e+03
1.360000000000000098e-01 1.601934999999999887e-01 2.083265000000000100e+01 1.456560000000000059e+02 1.858239999999999782e+03
1.370000000000000107e-01 1.601599999999999968e-01 2.013455000000000084e+01 1.448609999999999900e+02 1.857960000000000036e+03
1.380000000000000115e-01 1.601245000000000029e-01 1.944044999999999845e+01 1.440249999999999773e+02 1.857680000000000064e+03
1.390000000000000124e-01 1.600880000000000081e-01 1.874474999999999980e+01 1.431359999999999957e+02 1.857380000000000109e+03
1.400000000000000133e-01 1.600489999999999968e-01 1.804224999999999923e+01 1.421865000000000236e+02 1.857069999999999936e+03
1.410000000000000142e-01 1.600079999999999836e-01 1.732845000000000013e+01 1.411664999999999850e+02 1.856740000000000009e+03
1.420000000000000151e-01 1.599639999999999951e-01 1.659984999999999999e+01 1.400724999999999909e+02 1.856384999999999991e+03
1.430000000000000160e-01 1.599170000000000036e-01 1.585405000000000086e+01 1.389010000000000105e+02 1.856009999999999991e+03
1.440000000000000169e-01 1.598674999999999957e-01 1.508985000000000198e+01 1.376514999999999986e+02 1.855610000000000127e+03
1.450000000000000178e-01 1.598140000000000116e-01 1.430729999999999968e+01 1.363280000000000030e+02 1.855190000000000055e+03
1.459999999999999909e-01 1.597584999999999977e-01 1.350789999999999935e+01 1.349360000000000070e+02 1.854735000000000127e+03
1.469999999999999918e-01 1.596994999999999942e-01 1.269435000000000002e+01 1.334839999999999804e+02 1.854269999999999982e+03
1.479999999999999927e-01 1.596385000000000165e-01 1.187061999999999884e+01 1.319834999999999923e+02 1.853779999999999973e+03
1.489999999999999936e-01 1.595750000000000224e-01 1.104170500000000033e+01 1.304474999999999909e+02 1.853275000000000091e+03
1.499999999999999944e-01 1.595104999999999995e-01 1.021356499999999912e+01 1.288909999999999911e+02 1.852755000000000109e+03
1.509999999999999953e-01 1.594444999999999890e-01 9.392820000000000391e+00 1.273294999999999959e+02 1.852235000000000127e+03
1.519999999999999962e-01 1.593779999999999919e-01 8.586484999999999701e+00 1.257804999999999893e+02 1.851704999999999927e+03
1.529999999999999971e-01 1.593125000000000235e-01 7.801800000000000068e+00 1.242599999999999909e+02 1.851180000000000064e+03
1.539999999999999980e-01 1.592474999999999863e-01 7.045819999999999972e+00 1.227839999999999918e+02 1.850659999999999854e+03
1.549999999999999989e-01 1.591839999999999922e-01 6.325275000000000425e+00 1.213669999999999902e+02 1.850150000000000091e+03
1.559999999999999998e-01 1.591225000000000001e-01 5.646289999999999587e+00 1.200229999999999961e+02 1.849659999999999854e+03
1.570000000000000007e-01 1.590634999999999966e-01 5.014170000000000016e+00 1.187614999999999981e+02 1.849184999999999945e+03
1.580000000000000016e-01 1.590079999999999827e-01 4.433239999999999625e+00 1.175910000000000082e+02 1.848740000000000009e+03
1.590000000000000024e-01 1.589559999999999862e-01 3.906724999999999781e+00 1.165190000000000055e+02 1.848319999999999936e+03
