# t [s], A [cm^2], U [cm/s], P [cPa], c [cm/s]
1.000000000000000021e-03 1.716225000000000112e-01 4.362634999999999708e-01 1.030875000000000057e+02 2.152970000000000255e+03
2.000000000000000042e-03 1.715649999999999953e-01 2.185369500000000187e+00 9.908930000000000859e+01 2.152425000000000182e+03
3.000000000000000062e-03 1.714215000000000044e-01 4.305977000000000388e+00 9.367134999999998968e+01 2.151149999999999636e+03
4.000000000000000083e-03 1.712345000000000117e-01 6.680749000000000493e+00 8.810144999999999982e+01 2.149494999999999891e+03
5.000000000000000104e-03 1.710419999999999996e-01 9.190984999999999516e+00 8.341200000000000614e+01 2.147805000000000291e+03
6.000000000000000125e-03 1.708610000000000129e-01 1.156949000000000005e+01 7.968045000000000755e+01 2.146250000000000000e+03
7.000000000000000146e-03 1.706934999999999980e-01 1.358595000000000041e+01 7.644880000000000564e+01 2.144829999999999927e+03
8.000000000000000167e-03 1.705444999999999878e-01 1.523079999999999856e+01 7.358559999999999945e+01 2.143595000000000255e+03
9.000000000000001055e-03 1.704180000000000139e-01 1.656990000000000052e+01 7.123640000000000327e+01 2.142554999999999836e+03
1.000000000000000194e-02 1.703155000000000086e-01 1.763050000000000139e+01 6.941759999999999309e+01 2.141724999999999909e+03
1.099999999999999936e-02 1.702349999999999974e-01 1.843404999999999916e+01 6.805530000000000257e+01 2.141085000000000036e+03
1.200000000000000025e-02 1.701730000000000187e-01 1.899535000000000196e+01 6.704430000000000689e+01 2.140599999999999909e+03
1.300000000000000114e-02 1.701250000000000262e-01 1.932085000000000008e+01 6.622700000000000387e+01 2.140230000000000018e+03
1.400000000000000203e-02 1.700865000000000016e-01 1.947160000000000224e+01 6.554695000000000960e+01 2.139945000000000164e+03
1.499999999999999944e-02 1.700614999999999766e-01 1.960795000000000243e+01 6.525279999999999347e+01 2.139765000000000327e+03
1.600000000000000033e-02 1.700610000000000177e-01 1.993030000000000257e+01 6.583310000000000173e+01 2.139779999999999745e+03
1.700000000000000122e-02 1.700949999999999962e-01 2.055765000000000242e+01 6.767085000000000150e+01 2.140059999999999945e+03
1.800000000000000211e-02 1.701660000000000117e-01 2.144529999999999959e+01 7.070895000000000152e+01 2.140640000000000327e+03
1.900000000000000300e-02 1.702635000000000121e-01 2.239739999999999753e+01 7.437704999999999700e+01 2.141445000000000164e+03
2.000000000000000042e-02 1.703689999999999927e-01 2.315675000000000239e+01 7.780729999999999791e+01 2.142319999999999709e+03
2.100000000000000130e-02 1.704594999999999860e-01 2.351424999999999699e+01 8.018950000000000955e+01 2.143090000000000146e+03
2.200000000000000219e-02 1.705180000000000029e-01 2.338604999999999734e+01 8.107890000000000441e+01 2.143605000000000018e+03
2.299999999999999961e-02 1.705395000000000105e-01 2.283024999999999949e+01 8.052529999999998722e+01 2.143809999999999945e+03
2.400000000000000050e-02 1.705274999999999985e-01 2.200410000000000110e+01 7.898939999999998918e+01 2.143739999999999782e+03
2.500000000000000139e-02 1.704944999999999933e-01 2.108895000000000053e+01 7.710729999999999507e+01 2.143489999999999782e+03
2.600000000000000228e-02 1.704550000000000232e-01 2.021894999999999953e+01 7.542539999999999623e+01 2.143164999999999964e+03
2.700000000000000316e-02 1.704189999999999872e-01 1.944330000000000069e+01 7.421840000000000259e+01 2.142864999999999782e+03
2.800000000000000058e-02 1.703899999999999859e-01 1.872899999999999920e+01 7.344884999999999309e+01 2.142625000000000000e+03
2.900000000000000147e-02 1.703665000000000040e-01 1.799584999999999724e+01 7.285470000000000823e+01 2.142429999999999836e+03
3.000000000000000236e-02 1.703419999999999934e-01 1.716479999999999961e+01 7.210925000000000296e+01 2.142230000000000018e+03
3.099999999999999978e-02 1.703100000000000169e-01 1.620085000000000264e+01 7.098470000000000368e+01 2.141970000000000255e+03
3.200000000000000067e-02 1.702675000000000161e-01 1.513660000000000139e+01 6.946350000000001046e+01 2.141625000000000000e+03
3.300000000000000155e-02 1.702180000000000082e-01 1.406974999999999909e+01 6.776290000000000191e+01 2.141220000000000255e+03
3.400000000000000244e-02 1.701679999999999859e-01 1.313565000000000005e+01 6.626874999999999716e+01 2.140815000000000055e+03
3.500000000000000333e-02 1.701305000000000178e-01 1.246594999999999942e+01 6.540590000000000259e+01 2.140494999999999891e+03
3.600000000000000422e-02 1.701145000000000018e-01 1.214714999999999989e+01 6.549439999999999884e+01 2.140345000000000255e+03
3.700000000000000511e-02 1.701254999999999851e-01 1.219430000000000014e+01 6.664144999999999186e+01 2.140420000000000073e+03
3.799999999999999906e-02 1.701654999999999973e-01 1.254579999999999984e+01 6.870204999999999984e+01 2.140730000000000018e+03
3.899999999999999994e-02 1.702285000000000048e-01 1.307860000000000156e+01 7.131360000000000809e+01 2.141224999999999909e+03
4.000000000000000083e-02 1.703020000000000089e-01 1.363635000000000019e+01 7.398349999999999227e+01 2.141824999999999818e+03
4.100000000000000172e-02 1.703740000000000254e-01 1.406125000000000114e+01 7.620035000000000025e+01 2.142414999999999964e+03
4.200000000000000261e-02 1.704309999999999992e-01 1.422204999999999941e+01 7.753464999999999918e+01 2.142890000000000327e+03
4.300000000000000350e-02 1.704610000000000014e-01 1.403129999999999988e+01 7.770869999999999322e+01 2.143150000000000091e+03
4.400000000000000439e-02 1.704579999999999984e-01 1.345230000000000103e+01 7.662375000000000114e+01 2.143144999999999982e+03
4.499999999999999833e-02 1.704195000000000015e-01 1.249455000000000027e+01 7.434730000000000416e+01 2.142835000000000036e+03
4.599999999999999922e-02 1.703469999999999984e-01 1.120310999999999879e+01 7.107150000000000034e+01 2.142255000000000109e+03
4.700000000000000011e-02 1.702450000000000074e-01 9.645125000000000171e+00 6.705844999999999345e+01 2.141430000000000291e+03
4.800000000000000100e-02 1.701214999999999811e-01 7.897240000000000038e+00 6.258924999999999983e+01 2.140420000000000073e+03
4.900000000000000189e-02 1.699835000000000096e-01 6.037059999999999427e+00 5.792604999999999649e+01 2.139284999999999854e+03
5.000000000000000278e-02 1.698375000000000024e-01 4.138561499999999782e+00 5.329330000000000211e+01 2.138085000000000036e+03
5.100000000000000366e-02 1.696904999999999941e-01 2.271189999999999820e+00 4.887534999999999741e+01 2.136875000000000000e+03
5.200000000000000455e-02 1.695495000000000196e-01 5.011450000000001737e-01 4.482495000000000118e+01 2.135704999999999927e+03
5.300000000000000544e-02 1.694184999999999997e-01 -1.107195000000000151e+00 4.127554999999999552e+01 2.134614999999999782e+03
5.399999999999999939e-02 1.693020000000000080e-01 -2.490687000000000317e+00 3.835179999999999723e+01 2.133644999999999982e+03
5.500000000000000028e-02 1.692060000000000231e-01 -3.588550000000000129e+00 3.617334999999999923e+01 2.132840000000000146e+03
5.600000000000000117e-02 1.691330000000000056e-01 -4.345085000000000086e+00 3.485260000000000247e+01 2.132220000000000255e+03
5.700000000000000205e-02 1.690880000000000161e-01 -4.713599999999999568e+00 3.448559999999999803e+01 2.131829999999999927e+03
5.800000000000000294e-02 1.690730000000000011e-01 -4.660544999999999938e+00 3.514144999999999897e+01 2.131685000000000400e+03
5.900000000000000383e-02 1.690915000000000057e-01 -4.169010000000000105e+00 3.685065000000000168e+01 2.131810000000000400e+03
6.000000000000000472e-02 1.691440000000000166e-01 -3.240815000000000445e+00 3.959830000000000183e+01 2.132210000000000036e+03
6.099999999999999867e-02 1.692290000000000183e-01 -1.896784000000000248e+00 4.332155000000000200e+01 2.132885000000000218e+03
6.199999999999999956e-02 1.693454999999999822e-01 -1.752799999999998803e-01 4.791320000000000334e+01 2.133819999999999709e+03
6.300000000000000044e-02 1.694900000000000018e-01 1.870690000000000186e+00 5.323000000000000398e+01 2.134989999999999782e+03
6.400000000000000133e-02 1.696580000000000032e-01 4.177315999999999363e+00 5.910390000000000299e+01 2.136355000000000018e+03
6.500000000000000222e-02 1.698445000000000094e-01 6.674095000000000333e+00 6.535464999999999236e+01 2.137885000000000218e+03
6.600000000000000311e-02 1.700444999999999873e-01 9.288154999999999717e+00 7.180185000000000173e+01 2.139529999999999745e+03
6.700000000000000400e-02 1.702525000000000011e-01 1.194779000000000124e+01 7.827565000000001305e+01 2.141244999999999891e+03
6.800000000000000488e-02 1.704625000000000168e-01 1.458643000000000001e+01 8.462565000000000737e+01 2.142984999999999673e+03
6.900000000000000577e-02 1.706699999999999884e-01 1.714540000000000219e+01 9.072819999999998686e+01 2.144715000000000146e+03
7.000000000000000666e-02 1.708720000000000239e-01 1.957659999999999911e+01 9.649129999999999541e+01 2.146404999999999745e+03
7.100000000000000755e-02 1.710639999999999938e-01 2.184425000000000239e+01 1.018583500000000015e+02 2.148024999999999636e+03
7.200000000000000844e-02 1.712460000000000093e-01 2.392620000000000147e+01 1.068079999999999927e+02 2.149550000000000182e+03
7.300000000000000933e-02 1.714154999999999984e-01 2.581369999999999720e+01 1.113534999999999968e+02 2.150989999999999782e+03
7.399999999999999634e-02 1.715740000000000043e-01 2.751040000000000063e+01 1.155384999999999991e+02 2.152335000000000036e+03
7.499999999999999722e-02 1.717219999999999858e-01 2.903054999999999808e+01 1.194275000000000091e+02 2.153595000000000255e+03
7.599999999999999811e-02 1.718615000000000004e-01 3.039639999999999986e+01 1.231020000000000039e+02 2.154779999999999745e+03
7.699999999999999900e-02 1.719944999999999946e-01 3.163494999999999990e+01 1.266460000000000008e+02 2.155914999999999964e+03
7.799999999999999989e-02 1.721239999999999992e-01 3.277465000000000117e+01 1.301430000000000007e+02 2.157014999999999873e+03
7.900000000000000078e-02 1.722515000000000018e-01 3.384255000000000280e+01 1.336610000000000014e+02 2.158105000000000018e+03
8.000000000000000167e-02 1.723784999999999901e-01 3.486164999999999736e+01 1.372529999999999859e+02 2.159190000000000055e+03
8.100000000000000255e-02 1.725085000000000091e-01 3.584909999999999997e+01 1.409474999999999909e+02 2.160295000000000073e+03
8.200000000000000344e-02 1.726404999999999745e-01 3.681494999999999607e+01 1.447515000000000214e+02 2.161420000000000073e+03
8.300000000000000433e-02 1.727744999999999975e-01 3.776170000000000471e+01 1.486475000000000080e+02 2.162564999999999600e+03
8.400000000000000522e-02 1.729114999999999958e-01 3.868469999999999942e+01 1.525980000000000132e+02 2.163730000000000018e+03
8.500000000000000611e-02 1.730494999999999950e-01 3.957285000000000252e+01 1.565509999999999877e+02 2.164894999999999982e+03
8.600000000000000699e-02 1.731864999999999932e-01 4.040979999999999706e+01 1.604404999999999859e+02 2.166069999999999709e+03
8.700000000000000788e-02 1.733210000000000028e-01 4.117565000000000452e+01 1.641959999999999980e+02 2.167210000000000036e+03
8.800000000000000877e-02 1.734499999999999931e-01 4.184850000000000136e+01 1.677439999999999998e+02 2.168320000000000164e+03
8.899999999999999578e-02 1.735729999999999773e-01 4.240609999999999502e+01 1.710159999999999911e+02 2.169369999999999891e+03
8.999999999999999667e-02 1.736860000000000070e-01 4.282734999999999559e+01 1.739495000000000005e+02 2.170340000000000146e+03
9.099999999999999756e-02 1.737885000000000124e-01 4.309385000000000332e+01 1.764925000000000068e+02 2.171220000000000255e+03
9.199999999999999845e-02 1.738780000000000048e-01 4.319100000000000250e+01 1.786059999999999945e+02 2.172000000000000000e+03
9.299999999999999933e-02 1.739539999999999975e-01 4.310904999999999632e+01 1.802665000000000077e+02 2.172654999999999745e+03
9.400000000000000022e-02 1.740150000000000030e-01 4.284359999999999502e+01 1.814644999999999868e+02 2.173189999999999600e+03
9.500000000000000111e-02 1.740614999999999801e-01 4.239600000000000080e+01 1.822069999999999936e+02 2.173599999999999909e+03
9.600000000000000200e-02 1.740925000000000111e-01 4.177355000000000018e+01 1.825144999999999982e+02 2.173875000000000000e+03
9.700000000000000289e-02 1.741099999999999870e-01 4.098870000000000147e+01 1.824219999999999970e+02 2.174039999999999964e+03
9.800000000000000377e-02 1.741134999999999766e-01 4.005915000000000248e+01 1.819739999999999895e+02 2.174085000000000036e+03
9.900000000000000466e-02 1.741054999999999964e-01 3.900630000000000308e+01 1.812259999999999991e+02 2.174029999999999745e+03
1.000000000000000056e-01 1.740880000000000205e-01 3.785460000000000491e+01 1.802379999999999995e+02 2.173890000000000327e+03
1.010000000000000064e-01 1.740619999999999945e-01 3.663044999999999618e+01 1.790715000000000146e+02 2.173675000000000182e+03
1.020000000000000073e-01 1.740289999999999893e-01 3.536055000000000348e+01 1.777899999999999920e+02 2.173404999999999745e+03
1.030000000000000082e-01 1.739920000000000078e-01 3.407124999999999915e+01 1.764515000000000100e+02 2.173099999999999909e+03
1.040000000000000091e-01 1.739525000000000099e-01 3.278710000000000235e+01 1.751109999999999900e+02 2.172765000000000327e+03
1.050000000000000100e-01 1.739120000000000110e-01 3.153004999999999924e+01 1.738134999999999764e+02 2.172420000000000073e+03
1.059999999999999970e-01 1.738719999999999988e-01 3.031859999999999999e+01 1.725964999999999918e+02 2.172079999999999927e+03
1.069999999999999979e-01 1.738345000000000029e-01 2.916724999999999923e+01 1.714865000000000066e+02 2.171755000000000109e+03
1.079999999999999988e-01 1.737984999999999947e-01 2.808594999999999686e+01 1.704979999999999905e+02 2.171449999999999818e+03
1.089999999999999997e-01 1.737664999999999904e-01 2.708004999999999995e+01 1.696370000000000005e+02 2.171170000000000073e+03
1.100000000000000006e-01 1.737380000000000035e-01 2.615030000000000143e+01 1.688960000000000150e+02 2.170920000000000073e+03
1.110000000000000014e-01 1.737120000000000053e-01 2.529299999999999926e+01 1.682599999999999909e+02 2.170699999999999818e+03
1.120000000000000023e-01 1.736900000000000110e-01 2.450055000000000049e+01 1.677044999999999959e+02 2.170500000000000000e+03
1.130000000000000032e-01 1.736695000000000044e-01 2.376210000000000022e+01 1.671984999999999957e+02 2.170319999999999709e+03
1.140000000000000041e-01 1.736499999999999988e-01 2.306434999999999746e+01 1.667055000000000007e+02 2.170150000000000091e+03
1.150000000000000050e-01 1.736310000000000076e-01 2.239229999999999876e+01 1.661889999999999930e+02 2.169985000000000127e+03
1.160000000000000059e-01 1.736110000000000153e-01 2.173039999999999949e+01 1.656100000000000136e+02 2.169810000000000400e+03
1.170000000000000068e-01 1.735889999999999933e-01 2.106344999999999956e+01 1.649329999999999927e+02 2.169619999999999891e+03
1.180000000000000077e-01 1.735639999999999961e-01 2.037754999999999939e+01 1.641274999999999977e+02 2.169404999999999745e+03
1.190000000000000085e-01 1.735349999999999948e-01 1.966089999999999804e+01 1.631689999999999827e+02 2.169159999999999854e+03
1.200000000000000094e-01 1.735015000000000029e-01 1.890460000000000207e+01 1.620420000000000016e+02 2.168869999999999891e+03
1.209999999999999964e-01 1.734620000000000051e-01 1.810334999999999894e+01 1.607389999999999759e+02 2.168539999999999964e+03
1.219999999999999973e-01 1.734169999999999878e-01 1.725544999999999973e+01 1.592635000000000218e+02 2.168159999999999854e+03
1.229999999999999982e-01 1.733669999999999933e-01 1.636319999999999908e+01 1.576279999999999859e+02 2.167735000000000127e+03
1.239999999999999991e-01 1.733125000000000082e-01 1.543280000000000030e+01 1.558564999999999827e+02 2.167274999999999636e+03
1.250000000000000000e-01 1.732529999999999903e-01 1.447380000000000067e+01 1.539780000000000086e+02 2.166769999999999982e+03
1.260000000000000009e-01 1.731904999999999972e-01 1.349885000000000090e+01 1.520305000000000177e+02 2.166244999999999891e+03
1.270000000000000018e-01 1.731254999999999877e-01 1.252261999999999986e+01 1.500550000000000068e+02 2.165690000000000055e+03
1.280000000000000027e-01 1.730599999999999916e-01 1.156142499999999984e+01 1.480960000000000036e+02 2.165135000000000218e+03
1.290000000000000036e-01 1.729950000000000099e-01 1.063178500000000071e+01 1.461970000000000027e+02 2.164579999999999927e+03
1.300000000000000044e-01 1.729315000000000158e-01 9.750035000000000451e+00 1.443990000000000009e+02 2.164045000000000073e+03
1.310000000000000053e-01 1.728709999999999969e-01 8.931110000000000326e+00 1.427384999999999877e+02 2.163529999999999745e+03
1.320000000000000062e-01 1.728149999999999964e-01 8.187875000000000014e+00 1.412460000000000093e+02 2.163050000000000182e+03
1.330000000000000071e-01 1.727640000000000009e-01 7.530680000000000263e+00 1.399445000000000050e+02 2.162614999999999782e+03
1.340000000000000080e-01 1.727190000000000114e-01 6.966685000000000016e+00 1.388480000000000132e+02 2.162230000000000018e+03
1.350000000000000089e-01 1.726805000000000145e-01 6.499814999999999898e+00 1.379619999999999891e+02 2.161894999999999982e+03
1.360000000000000098e-01 1.726484999999999825e-01 6.130594999999999573e+00 1.372849999999999966e+02 2.161614999999999782e+03
1.370000000000000107e-01 1.726234999999999853e-01 5.856315000000000381e+00 1.368059999999999832e+02 2.161394999999999982e+03
1.380000000000000115e-01 1.726040000000000074e-01 5.671314999999999884e+00 1.365074999999999932e+02 2.161224999999999909e+03
1.390000000000000124e-01 1.725909999999999944e-01 5.567355000000000054e+00 1.363675000000000068e+02 2.161110000000000127e+03
1.400000000000000133e-01 1.725824999999999998e-01 5.534150000000000347e+00 1.363595000000000255e+02 2.161029999999999745e+03
1.410000000000000142e-01 1.725790000000000102e-01 5.559895000000000032e+00 1.364540000000000077e+02 2.160989999999999782e+03
1.420000000000000151e-01 1.725789999999999824e-01 5.631874999999999964e+00 1.366209999999999809e+02 2.160985000000000127e+03
1.430000000000000160e-01 1.725809999999999844e-01 5.736985000000000667e+00 1.368305000000000007e+02 2.161000000000000000e+03
1.440000000000000169e-01 1.725849999999999884e-01 5.862315000000000609e+00 1.370540000000000020e+02 2.161030000000000200e+03
1.450000000000000178e-01 1.725899999999999934e-01 5.995599999999999596e+00 1.372659999999999911e+02 2.161059999999999945e+03
1.459999999999999909e-01 1.725944999999999840e-01 6.125650000000000261e+00 1.374435000000000002e+02 2.161100000000000364e+03
1.469999999999999918e-01 1.725984999999999880e-01 6.242709999999999759e+00 1.375680000000000121e+02 2.161135000000000218e+03
1.479999999999999927e-01 1.726010000000000044e-01 6.338709999999999845e+00 1.376254999999999882e+02 2.161154999999999745e+03
1.489999999999999936e-01 1.726020000000000054e-01 6.407435000000000436e+00 1.376064999999999827e+02 2.161159999999999854e+03
1.499999999999999944e-01 1.726000000000000034e-01 6.444649999999999324e+00 1.375049999999999955e+02 2.161144999999999982e+03
1.509999999999999953e-01 1.725964999999999860e-01 6.448075000000000223e+00 1.373209999999999980e+02 2.161114999999999782e+03
1.519999999999999962e-01 1.725899999999999934e-01 6.417320000000000135e+00 1.370584999999999809e+02 2.161065000000000055e+03
1.529999999999999971e-01 1.725809999999999844e-01 6.353735000000000355e+00 1.367230000000000132e+02 2.160989999999999782e+03
1.539999999999999980e-01 1.725700000000000012e-01 6.260170000000000456e+00 1.363260000000000218e+02 2.160899999999999636e+03
1.549999999999999989e-01 1.725570000000000159e-01 6.140665000000000262e+00 1.358785000000000025e+02 2.160795000000000073e+03
1.559999999999999998e-01 1.725424999999999875e-01 6.000164999999999971e+00 1.353934999999999889e+02 2.160675000000000182e+03
1.570000000000000007e-01 1.725269999999999859e-01 5.844100000000000072e+00 1.348859999999999957e+02 2.160539999999999964e+03
1.580000000000000016e-01 1.725105000000000111e-01 5.678084999999999383e+00 1.343679999999999950e+02 2.160409999999999854e+03
1.590000000000000024e-01 1.724935000000000218e-01 5.507514999999999716e+00 1.338520000000000039e+02 2.160264999999999873e+03
