# t [s], A [cm^2], U [cm/s], P [cPa], c [cm/s]
1.000000000000000021e-03 6.461215000000000153e-01 5.647050000000000680e-03 1.083139999999999930e+02 1.710139999999999873e+03
2.000000000000000042e-03 6.461149999999999949e-01 6.900700000000000930e-03 1.082884999999999991e+02 1.710134999999999991e+03
3.000000000000000062e-03 6.461874999999999147e-01 1.435917999999999917e-01 1.084474999999999909e+02 1.710170000000000073e+03
4.000000000000000083e-03 6.462189999999999879e-01 2.206484999999999974e-01 1.085414999999999992e+02 1.710195000000000164e+03
5.000000000000000104e-03 6.461580000000000101e-01 1.348995000000000333e-01 1.083609999999999900e+02 1.710155000000000200e+03
6.000000000000000125e-03 6.460825000000000040e-01 1.201049999999997953e-02 1.080254999999999939e+02 1.710090000000000146e+03
7.000000000000000146e-03 6.459954999999999448e-01 -1.445299999999999363e-01 1.075690000000000026e+02 1.709994999999999891e+03
8.000000000000000167e-03 6.458375000000000643e-01 -4.525150000000000006e-01 1.068324999999999960e+02 1.709840000000000146e+03
9.000000000000001055e-03 6.456005000000000216e-01 -9.251099999999999879e-01 1.057409999999999997e+02 1.709609999999999900e+03
1.000000000000000194e-02 6.452700000000000102e-01 -1.573205000000000187e+00 1.042257000000000033e+02 1.709289999999999964e+03
1.099999999999999936e-02 6.448240000000000638e-01 -2.417684999999999640e+00 1.021974000000000018e+02 1.708845000000000027e+03
1.200000000000000025e-02 6.442894999999999595e-01 -3.375904999999999934e+00 9.970340000000000202e+01 1.708295000000000073e+03
1.300000000000000114e-02 6.437534999999999785e-01 -4.243240000000000123e+00 9.700175000000000125e+01 1.707674999999999955e+03
1.400000000000000203e-02 6.433065000000000033e-01 -4.803757499999999681e+00 9.443729999999999336e+01 1.707054999999999836e+03
1.499999999999999944e-02 6.429860000000000575e-01 -4.943050500000000014e+00 9.226640000000000441e+01 1.706500000000000000e+03
1.600000000000000033e-02 6.427730000000000388e-01 -4.681515000000000093e+00 9.055819999999999936e+01 1.706025000000000091e+03
1.700000000000000122e-02 6.426069999999999283e-01 -4.138829999999999565e+00 8.920260000000000389e+01 1.705615000000000009e+03
1.800000000000000211e-02 6.424209999999999088e-01 -3.468859999999999832e+00 8.798699999999999477e+01 1.705230000000000018e+03
1.900000000000000300e-02 6.421689999999999898e-01 -2.795688000000000173e+00 8.669735000000000014e+01 1.704844999999999800e+03
2.000000000000000042e-02 6.418399999999999661e-01 -2.172934999999999839e+00 8.520310000000000628e+01 1.704425000000000182e+03
2.100000000000000130e-02 6.414560000000000262e-01 -1.581045000000000256e+00 8.349349999999999739e+01 1.703960000000000036e+03
2.200000000000000219e-02 6.410544999999999716e-01 -9.603700000000001680e-01 8.165229999999999677e+01 1.703465000000000146e+03
2.299999999999999961e-02 6.406680000000000152e-01 -2.589899999999998315e-01 7.979274999999999807e+01 1.702965000000000146e+03
2.400000000000000050e-02 6.403065000000000007e-01 5.297350000000000669e-01 7.798985000000000412e+01 1.702470000000000027e+03
2.500000000000000139e-02 6.399544999999999817e-01 1.353269999999999973e+00 7.623824999999999363e+01 1.701974999999999909e+03
2.600000000000000228e-02 6.395759999999999224e-01 2.109925000000000050e+00 7.444535000000000480e+01 1.701480000000000018e+03
2.700000000000000316e-02 6.391275000000000706e-01 2.675390000000000157e+00 7.245740000000000691e+01 1.700945000000000164e+03
2.800000000000000058e-02 6.385709999999999997e-01 2.937005000000000088e+00 7.010699999999999932e+01 1.700340000000000146e+03
2.900000000000000147e-02 6.378874999999999407e-01 2.825954999999999995e+00 6.726834999999999809e+01 1.699634999999999991e+03
3.000000000000000236e-02 6.370839999999999836e-01 2.338025000000000464e+00 6.390415000000000134e+01 1.698825000000000045e+03
3.099999999999999978e-02 6.361950000000000660e-01 1.535619999999999763e+00 6.008719999999999573e+01 1.697905000000000200e+03
3.200000000000000067e-02 6.352720000000000589e-01 5.315999999999991843e-01 5.599105000000000132e+01 1.696924999999999955e+03
3.300000000000000155e-02 6.343760000000000510e-01 -5.378999999999996007e-01 5.185604999999999620e+01 1.695920000000000073e+03
3.400000000000000244e-02 6.335619999999999585e-01 -1.541005000000000180e+00 4.794384999999999764e+01 1.694945000000000164e+03
3.500000000000000333e-02 6.328739999999999366e-01 -2.370175000000000143e+00 4.449535000000000196e+01 1.694065000000000055e+03
3.600000000000000422e-02 6.323404999999999720e-01 -2.952125000000000110e+00 4.170024999999999693e+01 1.693315000000000055e+03
3.700000000000000511e-02 6.319755000000000233e-01 -3.247860000000000191e+00 3.968285000000000196e+01 1.692735000000000127e+03
3.799999999999999906e-02 6.317804999999999671e-01 -3.246044999999999625e+00 3.850124999999999886e+01 1.692345000000000027e+03
3.899999999999999994e-02 6.317490000000000050e-01 -2.952980000000000160e+00 3.815864999999999441e+01 1.692155000000000200e+03
4.000000000000000083e-02 6.318705000000000016e-01 -2.382523500000000016e+00 3.862014999999999532e+01 1.692160000000000082e+03
4.100000000000000172e-02 6.321339999999999737e-01 -1.548789999999999889e+00 3.983004999999999995e+01 1.692349999999999909e+03
4.200000000000000261e-02 6.325294999999999668e-01 -4.630499999999999616e-01 4.172540000000000049e+01 1.692724999999999909e+03
4.300000000000000350e-02 6.330464999999999565e-01 8.650549999999999073e-01 4.424280000000000257e+01 1.693255000000000109e+03
4.400000000000000439e-02 6.336744999999999184e-01 2.423475000000000268e+00 4.731879999999999598e+01 1.693934999999999945e+03
4.499999999999999833e-02 6.344009999999999927e-01 4.193155000000000854e+00 5.088649999999999807e+01 1.694744999999999891e+03
4.599999999999999922e-02 6.352100000000000524e-01 6.144744999999999457e+00 5.487080000000000268e+01 1.695670000000000073e+03
4.700000000000000011e-02 6.360824999999999951e-01 8.237729999999999109e+00 5.918594999999999828e+01 1.696690000000000055e+03
4.800000000000000100e-02 6.369979999999999531e-01 1.042260650000000055e+01 6.373579999999999757e+01 1.697775000000000091e+03
4.900000000000000189e-02 6.379325000000000134e-01 1.264461999999999975e+01 6.841785000000000139e+01 1.698920000000000073e+03
5.000000000000000278e-02 6.388660000000000450e-01 1.484872999999999976e+01 7.312954999999999472e+01 1.700079999999999927e+03
5.100000000000000366e-02 6.397794999999999455e-01 1.698454999999999870e+01 7.777585000000000548e+01 1.701250000000000000e+03
5.200000000000000455e-02 6.406585000000000196e-01 1.901004999999999967e+01 8.227570000000000050e+01 1.702389999999999873e+03
5.300000000000000544e-02 6.414925000000000210e-01 2.089400000000000190e+01 8.656804999999999950e+01 1.703500000000000000e+03
5.399999999999999939e-02 6.422769999999999868e-01 2.261679999999999779e+01 9.061365000000000691e+01 1.704565000000000055e+03
5.500000000000000028e-02 6.430104999999999293e-01 2.416980000000000217e+01 9.439570000000000505e+01 1.705570000000000164e+03
5.600000000000000117e-02 6.436975000000000335e-01 2.555395000000000039e+01 9.791899999999999693e+01 1.706519999999999982e+03
5.700000000000000205e-02 6.443425000000000402e-01 2.677785000000000082e+01 1.012044999999999959e+02 1.707414999999999964e+03
5.800000000000000294e-02 6.449534999999999574e-01 2.785564999999999714e+01 1.042859499999999997e+02 1.708259999999999991e+03
5.900000000000000383e-02 6.455405000000000726e-01 2.880539999999999878e+01 1.072060000000000031e+02 1.709059999999999945e+03
6.000000000000000472e-02 6.461105000000000320e-01 2.964730000000000132e+01 1.100120000000000005e+02 1.709835000000000036e+03
6.099999999999999867e-02 6.466745000000000410e-01 3.040214999999999890e+01 1.127500000000000000e+02 1.710590000000000146e+03
6.199999999999999956e-02 6.472394999999999676e-01 3.108980000000000388e+01 1.154629999999999939e+02 1.711329999999999927e+03
6.300000000000000044e-02 6.478110000000000257e-01 3.172769999999999868e+01 1.181864999999999952e+02 1.712069999999999936e+03
6.400000000000000133e-02 6.483934999999999560e-01 3.232954999999999757e+01 1.209470000000000027e+02 1.712809999999999945e+03
6.500000000000000222e-02 6.489875000000000504e-01 3.290404999999999802e+01 1.237560000000000002e+02 1.713565000000000055e+03
6.600000000000000311e-02 6.495925000000000171e-01 3.345434999999999803e+01 1.266124999999999972e+02 1.714329999999999927e+03
6.700000000000000400e-02 6.502034999999999343e-01 3.397800000000000153e+01 1.295024999999999977e+02 1.715095000000000027e+03
6.800000000000000488e-02 6.508134999999999337e-01 3.446715000000000373e+01 1.323975000000000080e+02 1.715865000000000009e+03
6.900000000000000577e-02 6.514134999999999787e-01 3.490990000000000038e+01 1.352590000000000146e+02 1.716630000000000109e+03
7.000000000000000666e-02 6.519949999999999912e-01 3.529135000000000133e+01 1.380420000000000016e+02 1.717375000000000000e+03
7.100000000000000755e-02 6.525459999999999594e-01 3.559550000000000125e+01 1.406970000000000027e+02 1.718090000000000146e+03
7.200000000000000844e-02 6.530580000000000274e-01 3.580649999999999977e+01 1.431754999999999995e+02 1.718769999999999982e+03
7.300000000000000933e-02 6.535225000000000062e-01 3.591015000000000157e+01 1.454314999999999998e+02 1.719389999999999873e+03
7.399999999999999634e-02 6.539314999999999989e-01 3.589480000000000359e+01 1.474265000000000043e+02 1.719954999999999927e+03
7.499999999999999722e-02 6.542799999999999727e-01 3.575260000000000105e+01 1.491310000000000002e+02 1.720449999999999818e+03
7.599999999999999811e-02 6.545659999999999812e-01 3.547944999999999993e+01 1.505260000000000105e+02 1.720865000000000009e+03
7.699999999999999900e-02 6.547870000000000079e-01 3.507564999999999600e+01 1.516030000000000086e+02 1.721200000000000045e+03
7.799999999999999989e-02 6.549449999999999994e-01 3.454569999999999652e+01 1.523644999999999925e+02 1.721460000000000036e+03
7.900000000000000078e-02 6.550435000000000008e-01 3.389799999999999613e+01 1.528235000000000241e+02 1.721639999999999873e+03
8.000000000000000167e-02 6.550875000000000448e-01 3.314480000000000359e+01 1.530024999999999977e+02 1.721744999999999891e+03
8.100000000000000255e-02 6.550825000000000120e-01 3.230120000000000147e+01 1.529319999999999879e+02 1.721784999999999854e+03
8.200000000000000344e-02 6.550365000000000215e-01 3.138485000000000014e+01 1.526479999999999961e+02 1.721759999999999991e+03
8.300000000000000433e-02 6.549579999999999291e-01 3.041505000000000081e+01 1.521915000000000191e+02 1.721690000000000055e+03
8.400000000000000522e-02 6.548549999999999649e-01 2.941179999999999950e+01 1.516049999999999898e+02 1.721575000000000045e+03
8.500000000000000611e-02 6.547365000000000546e-01 2.839504999999999768e+01 1.509320000000000164e+02 1.721434999999999945e+03
8.600000000000000699e-02 6.546095000000000663e-01 2.738374999999999915e+01 1.502129999999999939e+02 1.721275000000000091e+03
8.700000000000000788e-02 6.544824999999999671e-01 2.639520000000000266e+01 1.494869999999999948e+02 1.721105000000000018e+03
8.800000000000000877e-02 6.543605000000000116e-01 2.544369999999999976e+01 1.487860000000000014e+02 1.720934999999999945e+03
8.899999999999999578e-02 6.542494999999999283e-01 2.454070000000000107e+01 1.481365000000000123e+02 1.720769999999999982e+03
8.999999999999999667e-02 6.541510000000000380e-01 2.369375000000000142e+01 1.475570000000000164e+02 1.720615000000000009e+03
9.099999999999999756e-02 6.540679999999999827e-01 2.290684999999999860e+01 1.470584999999999809e+02 1.720485000000000127e+03
9.199999999999999845e-02 6.539999999999999147e-01 2.218005000000000138e+01 1.466444999999999936e+02 1.720360000000000127e+03
9.299999999999999933e-02 6.539455000000000684e-01 2.150990000000000180e+01 1.463110000000000070e+02 1.720259999999999991e+03
9.400000000000000022e-02 6.539019999999999833e-01 2.088980000000000103e+01 1.460469999999999970e+02 1.720179999999999836e+03
9.500000000000000111e-02 6.538665000000000171e-01 2.031064999999999898e+01 1.458365000000000009e+02 1.720115000000000009e+03
9.600000000000000200e-02 6.538344999999999851e-01 1.976144999999999996e+01 1.456585000000000036e+02 1.720054999999999836e+03
9.700000000000000289e-02 6.538015000000000354e-01 1.922995000000000232e+01 1.454904999999999973e+02 1.719994999999999891e+03
9.800000000000000377e-02 6.537619999999999543e-01 1.870360000000000156e+01 1.453090000000000259e+02 1.719940000000000055e+03
9.900000000000000466e-02 6.537125000000000297e-01 1.817004999999999981e+01 1.450904999999999916e+02 1.719875000000000000e+03
1.000000000000000056e-01 6.536489999999999245e-01 1.761809999999999832e+01 1.448129999999999882e+02 1.719800000000000182e+03
1.010000000000000064e-01 6.535680000000000378e-01 1.703815000000000168e+01 1.444594999999999914e+02 1.719715000000000146e+03
1.020000000000000073e-01 6.534679999999999378e-01 1.642285000000000039e+01 1.440160000000000196e+02 1.719599999999999909e+03
1.030000000000000082e-01 6.533474999999999699e-01 1.576754999999999995e+01 1.434739999999999895e+02 1.719470000000000027e+03
1.040000000000000091e-01 6.532059999999999533e-01 1.507045000000000101e+01 1.428310000000000173e+02 1.719309999999999945e+03
1.050000000000000100e-01 6.530450000000000976e-01 1.433289999999999864e+01 1.420914999999999964e+02 1.719130000000000109e+03
1.059999999999999970e-01 6.528680000000000039e-01 1.355923499999999926e+01 1.412649999999999864e+02 1.718929999999999836e+03
1.069999999999999979e-01 6.526775000000000215e-01 1.275653499999999951e+01 1.403664999999999736e+02 1.718710000000000036e+03
1.079999999999999988e-01 6.524784999999999613e-01 1.193442499999999917e+01 1.394155000000000086e+02 1.718480000000000018e+03
1.089999999999999997e-01 6.522764999999999258e-01 1.110439500000000024e+01 1.384360000000000070e+02 1.718230000000000018e+03
1.100000000000000006e-01 6.520764999999999478e-01 1.027932999999999986e+01 1.374555000000000007e+02 1.717985000000000127e+03
1.110000000000000014e-01 6.518835000000000601e-01 9.472739999999999938e+00 1.364995000000000118e+02 1.717744999999999891e+03
1.120000000000000023e-01 6.517040000000000610e-01 8.697990000000000776e+00 1.355969999999999800e+02 1.717505000000000109e+03
1.130000000000000032e-01 6.515424999999999134e-01 7.967814999999999870e+00 1.347719999999999914e+02 1.717289999999999964e+03
1.140000000000000041e-01 6.514029999999999543e-01 7.293470000000000120e+00 1.340469999999999970e+02 1.717095000000000027e+03
1.150000000000000050e-01 6.512890000000000068e-01 6.684279999999999333e+00 1.334399999999999977e+02 1.716920000000000073e+03
1.160000000000000059e-01 6.512024999999999064e-01 6.147149999999999892e+00 1.329639999999999986e+02 1.716785000000000082e+03
1.170000000000000068e-01 6.511439999999999451e-01 5.686255000000000059e+00 1.326254999999999882e+02 1.716679999999999836e+03
1.180000000000000077e-01 6.511139999999999706e-01 5.302990000000000315e+00 1.324270000000000209e+02 1.716599999999999909e+03
1.190000000000000085e-01 6.511099999999999666e-01 4.995964999999999989e+00 1.323634999999999877e+02 1.716559999999999945e+03
1.200000000000000094e-01 6.511310000000000153e-01 4.761174999999999713e+00 1.324239999999999782e+02 1.716555000000000064e+03
1.209999999999999964e-01 6.511730000000000018e-01 4.592394999999999783e+00 1.325955000000000155e+02 1.716574999999999818e+03
1.219999999999999973e-01 6.512320000000000331e-01 4.481510000000000105e+00 1.328590000000000089e+02 1.716619999999999891e+03
1.229999999999999982e-01 6.513035000000000352e-01 4.419080000000000119e+00 1.331945000000000050e+02 1.716684999999999945e+03
1.239999999999999991e-01 6.513830000000000453e-01 4.394795000000000229e+00 1.335794999999999959e+02 1.716769999999999982e+03
1.250000000000000000e-01 6.514670000000000183e-01 4.398019999999999818e+00 1.339915000000000020e+02 1.716860000000000127e+03
1.260000000000000009e-01 6.515504999999999214e-01 4.418240000000000833e+00 1.344089999999999918e+02 1.716954999999999927e+03
1.270000000000000018e-01 6.516290000000000138e-01 4.445495000000000196e+00 1.348129999999999882e+02 1.717049999999999955e+03
1.280000000000000027e-01 6.517010000000000858e-01 4.470744999999999969e+00 1.351854999999999905e+02 1.717144999999999982e+03
1.290000000000000036e-01 6.517619999999999525e-01 4.486134999999999984e+00 1.355120000000000005e+02 1.717220000000000027e+03
1.300000000000000044e-01 6.518120000000000580e-01 4.485200000000000742e+00 1.357819999999999823e+02 1.717295000000000073e+03
1.310000000000000053e-01 6.518479999999999830e-01 4.462975000000000136e+00 1.359869999999999948e+02 1.717349999999999909e+03
1.320000000000000062e-01 6.518710000000000893e-01 4.416080000000000005e+00 1.361229999999999905e+02 1.717389999999999873e+03
1.330000000000000071e-01 6.518794999999999451e-01 4.342645000000000088e+00 1.361885000000000048e+02 1.717420000000000073e+03
1.340000000000000080e-01 6.518749999999999822e-01 4.242295000000000371e+00 1.361854999999999905e+02 1.717424999999999955e+03
1.350000000000000089e-01 6.518574999999999786e-01 4.115975000000000605e+00 1.361184999999999832e+02 1.717420000000000073e+03
1.360000000000000098e-01 6.518304999999999794e-01 3.965800000000000214e+00 1.359939999999999998e+02 1.717394999999999982e+03
1.370000000000000107e-01 6.517935000000000256e-01 3.794859999999999900e+00 1.358199999999999932e+02 1.717365000000000009e+03
1.380000000000000115e-01 6.517494999999999816e-01 3.606974999999999820e+00 1.356049999999999898e+02 1.717315000000000055e+03
1.390000000000000124e-01 6.516999999999999460e-01 3.406439999999999912e+00 1.353590000000000089e+02 1.717259999999999991e+03
1.400000000000000133e-01 6.516469999999999763e-01 3.197820000000000107e+00 1.350905000000000200e+02 1.717199999999999818e+03
1.410000000000000142e-01 6.515925000000000189e-01 2.985630000000000450e+00 1.348095000000000141e+02 1.717134999999999991e+03
1.420000000000000151e-01 6.515375000000001027e-01 2.774169999999999803e+00 1.345235000000000127e+02 1.717065000000000055e+03
1.430000000000000160e-01 6.514834999999999932e-01 2.567274999999999974e+00 1.342395000000000209e+02 1.716994999999999891e+03
1.440000000000000169e-01 6.514309999999999823e-01 2.368179999999999730e+00 1.339625000000000057e+02 1.716924999999999955e+03
1.450000000000000178e-01 6.513815000000000577e-01 2.179374999999999840e+00 1.336960000000000264e+02 1.716860000000000127e+03
1.459999999999999909e-01 6.513339999999999685e-01 2.002559999999999896e+00 1.334420000000000073e+02 1.716789999999999964e+03
1.469999999999999918e-01 6.512890000000000068e-01 1.838646000000000003e+00 1.331999999999999886e+02 1.716730000000000018e+03
1.479999999999999927e-01 6.512459999999999916e-01 1.687787499999999996e+00 1.329694999999999823e+02 1.716664999999999964e+03
1.489999999999999936e-01 6.512040000000000051e-01 1.549490500000000104e+00 1.327470000000000141e+02 1.716610000000000127e+03
1.499999999999999944e-01 6.511629999999999363e-01 1.422739500000000046e+00 1.325285000000000082e+02 1.716550000000000182e+03
1.509999999999999953e-01 6.511204999999999909e-01 1.306176999999999921e+00 1.323104999999999905e+02 1.716490000000000009e+03
1.519999999999999962e-01 6.510774999999999757e-01 1.198266000000000053e+00 1.320885000000000105e+02 1.716429999999999836e+03
1.529999999999999971e-01 6.510320000000000551e-01 1.097450500000000106e+00 1.318584999999999923e+02 1.716369999999999891e+03
1.539999999999999980e-01 6.509834999999999372e-01 1.002334499999999906e+00 1.316165000000000020e+02 1.716305000000000064e+03
1.549999999999999989e-01 6.509319999999999551e-01 9.117800000000000349e-01 1.313609999999999900e+02 1.716240000000000009e+03
1.559999999999999998e-01 6.508769999999999278e-01 8.250241500000000672e-01 1.310900000000000034e+02 1.716164999999999964e+03
1.570000000000000007e-01 6.508180000000000076e-01 7.417171999999999654e-01 1.308040000000000020e+02 1.716095000000000027e+03
1.580000000000000016e-01 6.507570000000000299e-01 6.619454999999999645e-01 1.305035000000000025e+02 1.716014999999999873e+03
1.590000000000000024e-01 6.506929999999999659e-01 5.862229999999999386e-01 1.301915000000000191e+02 1.715934999999999945e+03
