# t [s], A [cm^2], U [cm/s], P [cPa], c [cm/s]
1.000000000000000021e-03 5.322925000000000573e-01 4.449399999999999189e-03 1.048580000000000041e+02 1.489940000000000055e+03
2.000000000000000042e-03 5.322835000000000205e-01 -1.636709999999999988e-03 1.048359999999999985e+02 1.489930000000000064e+03
3.000000000000000062e-03 5.323225000000000318e-01 7.113020000000000453e-02 1.049064999999999941e+02 1.489949999999999818e+03
4.000000000000000083e-03 5.323704999999999687e-01 1.658260000000000012e-01 1.050185000000000031e+02 1.489985000000000127e+03
5.000000000000000104e-03 5.323655000000000470e-01 1.689935000000000187e-01 1.050134999999999934e+02 1.489990000000000009e+03
6.000000000000000125e-03 5.323160000000000114e-01 8.691900000000002402e-02 1.048594999999999970e+02 1.489949999999999818e+03
7.000000000000000146e-03 5.322670000000000456e-01 -5.449999999999621814e-04 1.046355000000000075e+02 1.489894999999999982e+03
8.000000000000000167e-03 5.322069999999999856e-01 -1.156220000000000581e-01 1.043340000000000032e+02 1.489815000000000055e+03
9.000000000000001055e-03 5.321044999999999803e-01 -3.243800000000000017e-01 1.038729999999999905e+02 1.489690000000000055e+03
1.000000000000000194e-02 5.319534999999999680e-01 -6.377599999999999936e-01 1.032115000000000009e+02 1.489514999999999873e+03
1.099999999999999936e-02 5.317479999999999984e-01 -1.057100000000000151e+00 1.023152000000000044e+02 1.489269999999999982e+03
1.200000000000000025e-02 5.314730000000000842e-01 -1.599134999999999973e+00 1.011317999999999984e+02 1.488940000000000055e+03
1.300000000000000114e-02 5.311244999999999994e-01 -2.252324999999999910e+00 9.963779999999999859e+01 1.488519999999999982e+03
1.400000000000000203e-02 5.307315000000000227e-01 -2.939229999999999787e+00 9.789154999999999518e+01 1.488009999999999991e+03
1.499999999999999944e-02 5.303424999999999390e-01 -3.534729999999999706e+00 9.603539999999999566e+01 1.487460000000000036e+03
1.600000000000000033e-02 5.300030000000000019e-01 -3.920212999999999948e+00 9.423579999999999757e+01 1.486894999999999982e+03
1.700000000000000122e-02 5.297339999999999272e-01 -4.028613000000000000e+00 9.262020000000001119e+01 1.486359999999999900e+03
1.800000000000000211e-02 5.295294999999999863e-01 -3.858779999999999877e+00 9.123949999999999250e+01 1.485875000000000000e+03
1.900000000000000300e-02 5.293624999999999581e-01 -3.463458499999999773e+00 9.006624999999999659e+01 1.485434999999999945e+03
2.000000000000000042e-02 5.291995000000000449e-01 -2.923752850000000070e+00 8.901689999999999259e+01 1.485025000000000091e+03
2.100000000000000130e-02 5.290084999999999926e-01 -2.320881999999999667e+00 8.798654999999999404e+01 1.484619999999999891e+03
2.200000000000000219e-02 5.287720000000000198e-01 -1.713130000000000042e+00 8.688415000000000532e+01 1.484199999999999818e+03
2.299999999999999961e-02 5.284880000000000688e-01 -1.123734999999999928e+00 8.565899999999999181e+01 1.483750000000000000e+03
2.400000000000000050e-02 5.281679999999999708e-01 -5.428299999999999237e-01 8.430930000000000746e+01 1.483264999999999873e+03
2.500000000000000139e-02 5.278315000000000090e-01 5.868499999999965411e-02 8.287295000000000300e+01 1.482750000000000000e+03
2.600000000000000228e-02 5.274965000000000348e-01 7.100699999999999790e-01 8.140545000000000186e+01 1.482230000000000018e+03
2.700000000000000316e-02 5.271740000000000315e-01 1.424065000000000136e+00 7.995529999999999404e+01 1.481704999999999927e+03
2.800000000000000058e-02 5.268639999999999990e-01 2.187585000000000335e+00 7.854479999999999507e+01 1.481195000000000164e+03
2.900000000000000147e-02 5.265560000000000240e-01 2.961180000000000145e+00 7.716150000000000375e+01 1.480684999999999945e+03
3.000000000000000236e-02 5.262310000000000043e-01 3.685665000000000191e+00 7.575955000000000439e+01 1.480174999999999955e+03
3.099999999999999978e-02 5.258680000000000021e-01 4.293719999999999537e+00 7.427045000000001096e+01 1.479639999999999873e+03
3.200000000000000067e-02 5.254499999999999726e-01 4.723655000000000825e+00 7.262000000000000455e+01 1.479065000000000055e+03
3.300000000000000155e-02 5.249645000000000561e-01 4.931999999999999496e+00 7.074689999999999657e+01 1.478434999999999945e+03
3.400000000000000244e-02 5.244109999999999605e-01 4.903229999999999755e+00 6.862040000000000362e+01 1.477740000000000009e+03
3.500000000000000333e-02 5.238015000000000310e-01 4.652895000000000003e+00 6.625065000000000737e+01 1.476980000000000018e+03
3.600000000000000422e-02 5.231554999999999955e-01 4.224615000000000009e+00 6.369114999999999327e+01 1.476160000000000082e+03
3.700000000000000511e-02 5.225030000000000507e-01 3.681610000000000049e+00 6.103180000000000405e+01 1.475309999999999945e+03
3.799999999999999906e-02 5.218720000000000026e-01 3.095704999999999707e+00 5.838595000000000113e+01 1.474460000000000036e+03
3.899999999999999994e-02 5.212919999999999776e-01 2.536909999999999776e+00 5.587489999999999668e+01 1.473639999999999873e+03
4.000000000000000083e-02 5.207859999999999712e-01 2.065259999999999430e+00 5.361364999999999981e+01 1.472875000000000000e+03
4.100000000000000172e-02 5.203714999999999868e-01 1.726210000000000022e+00 5.169934999999999548e+01 1.472210000000000036e+03
4.200000000000000261e-02 5.200590000000000490e-01 1.549529999999999852e+00 5.020504999999999995e+01 1.471659999999999854e+03
4.300000000000000350e-02 5.198530000000000095e-01 1.550730000000000164e+00 4.917694999999999794e+01 1.471250000000000000e+03
4.400000000000000439e-02 5.197545000000000082e-01 1.734335000000000182e+00 4.863615000000000066e+01 1.470985000000000127e+03
4.499999999999999833e-02 5.197599999999999998e-01 2.097875000000000156e+00 4.858305000000000007e+01 1.470869999999999891e+03
4.599999999999999922e-02 5.198650000000000215e-01 2.635625000000000107e+00 4.900270000000000437e+01 1.470909999999999854e+03
4.700000000000000011e-02 5.200635000000000119e-01 3.341371499999999717e+00 4.987130000000000507e+01 1.471095000000000027e+03
4.800000000000000100e-02 5.203510000000000080e-01 4.209725999999999857e+00 5.116040000000000276e+01 1.471425000000000182e+03
4.900000000000000189e-02 5.207215000000000593e-01 5.235985499999999959e+00 5.283995000000000175e+01 1.471884999999999991e+03
5.000000000000000278e-02 5.211700000000000221e-01 6.414747499999999825e+00 5.487944999999999851e+01 1.472470000000000027e+03
5.100000000000000366e-02 5.216899999999999871e-01 7.738428500000000376e+00 5.724689999999999657e+01 1.473164999999999964e+03
5.200000000000000455e-02 5.222744999999999749e-01 9.195294999999999774e+00 5.990784999999999627e+01 1.473965000000000146e+03
5.300000000000000544e-02 5.229150000000000187e-01 1.076854499999999959e+01 6.282404999999999973e+01 1.474855000000000018e+03
5.399999999999999939e-02 5.236000000000000654e-01 1.243632500000000007e+01 6.595250000000000057e+01 1.475825000000000045e+03
5.500000000000000028e-02 5.243189999999999795e-01 1.417232500000000073e+01 6.924600000000000932e+01 1.476860000000000127e+03
5.600000000000000117e-02 5.250599999999999712e-01 1.594736500000000134e+01 7.265424999999999045e+01 1.477950000000000045e+03
5.700000000000000205e-02 5.258114999999999872e-01 1.773126500000000050e+01 7.612600000000000477e+01 1.479069999999999936e+03
5.800000000000000294e-02 5.265615000000000157e-01 1.949474999999999980e+01 7.961160000000000991e+01 1.480204999999999927e+03
5.900000000000000383e-02 5.273014999999999786e-01 2.121150000000000091e+01 8.306550000000000011e+01 1.481349999999999909e+03
6.000000000000000472e-02 5.280240000000000489e-01 2.285904999999999987e+01 8.644855000000001155e+01 1.482480000000000018e+03
6.099999999999999867e-02 5.287230000000000540e-01 2.442014999999999958e+01 8.973019999999999641e+01 1.483595000000000027e+03
6.199999999999999956e-02 5.293944999999999901e-01 2.588269999999999982e+01 9.288835000000000264e+01 1.484675000000000182e+03
6.300000000000000044e-02 5.300384999999999680e-01 2.723980000000000246e+01 9.591089999999999804e+01 1.485719999999999800e+03
6.400000000000000133e-02 5.306539999999999591e-01 2.848895000000000266e+01 9.879380000000000450e+01 1.486730000000000018e+03
6.500000000000000222e-02 5.312434999999999796e-01 2.963159999999999883e+01 1.015406499999999994e+02 1.487700000000000045e+03
6.600000000000000311e-02 5.318095000000000461e-01 3.067220000000000013e+01 1.041621000000000095e+02 1.488634999999999991e+03
6.700000000000000400e-02 5.323554999999999815e-01 3.161739999999999640e+01 1.066720499999999987e+02 1.489529999999999973e+03
6.800000000000000488e-02 5.328855000000000119e-01 3.247525000000000261e+01 1.090879999999999939e+02 1.490400000000000091e+03
6.900000000000000577e-02 5.334035000000000304e-01 3.325464999999999804e+01 1.114295000000000044e+02 1.491244999999999891e+03
7.000000000000000666e-02 5.339119999999999422e-01 3.396455000000000268e+01 1.137139999999999986e+02 1.492065000000000055e+03
7.100000000000000755e-02 5.344160000000000021e-01 3.461355000000000359e+01 1.159594999999999914e+02 1.492875000000000000e+03
7.200000000000000844e-02 5.349169999999999758e-01 3.520945000000000391e+01 1.181800000000000068e+02 1.493670000000000073e+03
7.300000000000000933e-02 5.354170000000000318e-01 3.575830000000000553e+01 1.203859999999999957e+02 1.494460000000000036e+03
7.399999999999999634e-02 5.359169999999999767e-01 3.626465000000000316e+01 1.225835000000000008e+02 1.495244999999999891e+03
7.499999999999999722e-02 5.364155000000000451e-01 3.673075000000000045e+01 1.247740000000000009e+02 1.496025000000000091e+03
7.599999999999999811e-02 5.369125000000000147e-01 3.715664999999999907e+01 1.269530000000000030e+02 1.496799999999999955e+03
7.699999999999999900e-02 5.374045000000000627e-01 3.754025000000000034e+01 1.291115000000000066e+02 1.497570000000000164e+03
7.799999999999999989e-02 5.378870000000000040e-01 3.787734999999999985e+01 1.312350000000000136e+02 1.498325000000000045e+03
7.900000000000000078e-02 5.383575000000000443e-01 3.816244999999999976e+01 1.333070000000000164e+02 1.499069999999999936e+03
8.000000000000000167e-02 5.388104999999999700e-01 3.838859999999999673e+01 1.353059999999999832e+02 1.499789999999999964e+03
8.100000000000000255e-02 5.392409999999999703e-01 3.854869999999999663e+01 1.372115000000000009e+02 1.500474999999999909e+03
8.200000000000000344e-02 5.396445000000000825e-01 3.863530000000000086e+01 1.390004999999999882e+02 1.501130000000000109e+03
8.300000000000000433e-02 5.400165000000000104e-01 3.864194999999999425e+01 1.406535000000000082e+02 1.501740000000000009e+03
8.400000000000000522e-02 5.403525000000000134e-01 3.856305000000000405e+01 1.421510000000000105e+02 1.502299999999999955e+03
8.500000000000000611e-02 5.406509999999999927e-01 3.839444999999999908e+01 1.434770000000000039e+02 1.502804999999999836e+03
8.600000000000000699e-02 5.409079999999999444e-01 3.813380000000000081e+01 1.446200000000000045e+02 1.503255000000000109e+03
8.700000000000000788e-02 5.411239999999999384e-01 3.778065000000000140e+01 1.455735000000000241e+02 1.503639999999999873e+03
8.800000000000000877e-02 5.412969999999999171e-01 3.733650000000000091e+01 1.463329999999999984e+02 1.503960000000000036e+03
8.899999999999999578e-02 5.414289999999999381e-01 3.680490000000000350e+01 1.469014999999999986e+02 1.504220000000000027e+03
8.999999999999999667e-02 5.415209999999999191e-01 3.619104999999999706e+01 1.472839999999999918e+02 1.504409999999999854e+03
9.099999999999999756e-02 5.415754999999999875e-01 3.550209999999999866e+01 1.474900000000000091e+02 1.504539999999999964e+03
9.199999999999999845e-02 5.415950000000000486e-01 3.474665000000000248e+01 1.475339999999999918e+02 1.504615000000000009e+03
9.299999999999999933e-02 5.415839999999999543e-01 3.393435000000000201e+01 1.474314999999999998e+02 1.504634999999999991e+03
9.400000000000000022e-02 5.415459999999999718e-01 3.307605000000000217e+01 1.472015000000000100e+02 1.504610000000000127e+03
9.500000000000000111e-02 5.414854999999999530e-01 3.218294999999999817e+01 1.468645000000000209e+02 1.504539999999999964e+03
9.600000000000000200e-02 5.414075000000000415e-01 3.126679999999999993e+01 1.464404999999999859e+02 1.504434999999999945e+03
9.700000000000000289e-02 5.413155000000000605e-01 3.033909999999999840e+01 1.459524999999999864e+02 1.504305000000000064e+03
9.800000000000000377e-02 5.412144999999999317e-01 2.941094999999999970e+01 1.454189999999999827e+02 1.504154999999999973e+03
9.900000000000000466e-02 5.411090000000000622e-01 2.849269999999999925e+01 1.448615000000000066e+02 1.503984999999999900e+03
1.000000000000000056e-01 5.410015000000000240e-01 2.759355000000000047e+01 1.442964999999999804e+02 1.503809999999999945e+03
1.010000000000000064e-01 5.408954999999999735e-01 2.672125000000000128e+01 1.437404999999999973e+02 1.503630000000000109e+03
1.020000000000000073e-01 5.407944999999999558e-01 2.588199999999999790e+01 1.432055000000000007e+02 1.503454999999999927e+03
1.030000000000000082e-01 5.406990000000000407e-01 2.508004999999999995e+01 1.427009999999999934e+02 1.503279999999999973e+03
1.040000000000000091e-01 5.406100000000000350e-01 2.431790000000000163e+01 1.422330000000000041e+02 1.503119999999999891e+03
1.050000000000000100e-01 5.405294999999999961e-01 2.359590000000000032e+01 1.418050000000000068e+02 1.502965000000000146e+03
1.059999999999999970e-01 5.404550000000000187e-01 2.291290000000000049e+01 1.414155000000000086e+02 1.502825000000000045e+03
1.069999999999999979e-01 5.403864999999999919e-01 2.226570000000000249e+01 1.410620000000000118e+02 1.502684999999999945e+03
1.079999999999999988e-01 5.403225000000000389e-01 2.164995000000000047e+01 1.407375000000000114e+02 1.502565000000000055e+03
1.089999999999999997e-01 5.402609999999999912e-01 2.105995000000000061e+01 1.404339999999999975e+02 1.502444999999999936e+03
1.100000000000000006e-01 5.401994999999999436e-01 2.048935000000000173e+01 1.401419999999999959e+02 1.502335000000000036e+03
1.110000000000000014e-01 5.401359999999999495e-01 1.993104999999999905e+01 1.398495000000000061e+02 1.502224999999999909e+03
1.120000000000000023e-01 5.400685000000000624e-01 1.937804999999999822e+01 1.395459999999999923e+02 1.502110000000000127e+03
1.130000000000000032e-01 5.399939999999999740e-01 1.882325000000000159e+01 1.392194999999999823e+02 1.501990000000000009e+03
1.140000000000000041e-01 5.399110000000000298e-01 1.826040000000000063e+01 1.388605000000000018e+02 1.501865000000000009e+03
1.150000000000000050e-01 5.398169999999999913e-01 1.768359999999999843e+01 1.384600000000000080e+02 1.501730000000000018e+03
1.160000000000000059e-01 5.397110000000000518e-01 1.708825000000000216e+01 1.380090000000000146e+02 1.501579999999999927e+03
1.170000000000000068e-01 5.395925000000000304e-01 1.647084999999999866e+01 1.375045000000000073e+02 1.501409999999999854e+03
1.180000000000000077e-01 5.394609999999999683e-01 1.582920000000000016e+01 1.369420000000000073e+02 1.501220000000000027e+03
1.190000000000000085e-01 5.393170000000000464e-01 1.516270000000000095e+01 1.363224999999999909e+02 1.501019999999999982e+03
1.200000000000000094e-01 5.391610000000000014e-01 1.447212999999999994e+01 1.356465000000000032e+02 1.500800000000000182e+03
1.209999999999999964e-01 5.389939999999999731e-01 1.375971999999999973e+01 1.349194999999999993e+02 1.500559999999999945e+03
1.219999999999999973e-01 5.388184999999999780e-01 1.302913500000000013e+01 1.341490000000000009e+02 1.500309999999999945e+03
1.229999999999999982e-01 5.386364999999999625e-01 1.228529999999999944e+01 1.333445000000000107e+02 1.500045000000000073e+03
1.239999999999999991e-01 5.384499999999999842e-01 1.153413499999999914e+01 1.325155000000000030e+02 1.499765000000000100e+03
1.250000000000000000e-01 5.382624999999999771e-01 1.078242999999999974e+01 1.316750000000000114e+02 1.499485000000000127e+03
1.260000000000000009e-01 5.380774999999999864e-01 1.003761000000000081e+01 1.308369999999999891e+02 1.499204999999999927e+03
1.270000000000000018e-01 5.378969999999999585e-01 9.307365000000000776e+00 1.300140000000000100e+02 1.498924999999999955e+03
1.280000000000000027e-01 5.377235000000000209e-01 8.599389999999999645e+00 1.292189999999999941e+02 1.498654999999999973e+03
1.290000000000000036e-01 5.375609999999999555e-01 7.921129999999999782e+00 1.284675000000000011e+02 1.498394999999999982e+03
1.300000000000000044e-01 5.374120000000000008e-01 7.279469999999999885e+00 1.277685000000000031e+02 1.498150000000000091e+03
1.310000000000000053e-01 5.372770000000000046e-01 6.680530000000000079e+00 1.271329999999999956e+02 1.497924999999999955e+03
1.320000000000000062e-01 5.371589999999999421e-01 6.129340000000000011e+00 1.265709999999999980e+02 1.497715000000000146e+03
1.330000000000000071e-01 5.370595000000000230e-01 5.629820000000000491e+00 1.260865000000000009e+02 1.497534999999999854e+03
1.340000000000000080e-01 5.369770000000000376e-01 5.184569999999999901e+00 1.256850000000000023e+02 1.497375000000000000e+03
1.350000000000000089e-01 5.369135000000000435e-01 4.794850000000000279e+00 1.253660000000000139e+02 1.497250000000000000e+03
1.360000000000000098e-01 5.368684999999999707e-01 4.460574999999999513e+00 1.251304999999999978e+02 1.497144999999999982e+03
1.370000000000000107e-01 5.368395000000000250e-01 4.180369999999999919e+00 1.249735000000000014e+02 1.497065000000000055e+03
1.380000000000000115e-01 5.368260000000000254e-01 3.951700000000000212e+00 1.248910000000000053e+02 1.497014999999999873e+03
1.390000000000000124e-01 5.368269999999999431e-01 3.770995000000000097e+00 1.248750000000000000e+02 1.496985000000000127e+03
1.400000000000000133e-01 5.368395000000000250e-01 3.633855000000000057e+00 1.249164999999999992e+02 1.496974999999999909e+03
1.410000000000000142e-01 5.368614999999999915e-01 3.535239999999999938e+00 1.250070000000000050e+02 1.496980000000000018e+03
1.420000000000000151e-01 5.368914999999999660e-01 3.469694999999999752e+00 1.251355000000000075e+02 1.497009999999999991e+03
1.430000000000000160e-01 5.369254999999999445e-01 3.431535000000000224e+00 1.252920000000000016e+02 1.497039999999999964e+03
1.440000000000000169e-01 5.369630000000000791e-01 3.415065000000000239e+00 1.254664999999999964e+02 1.497085000000000036e+03
1.450000000000000178e-01 5.370019999999999794e-01 3.414730000000000043e+00 1.256490000000000009e+02 1.497134999999999991e+03
1.459999999999999909e-01 5.370395000000000030e-01 3.425300000000000011e+00 1.258310000000000031e+02 1.497179999999999836e+03
1.469999999999999918e-01 5.370755000000000390e-01 3.441945000000000032e+00 1.260049999999999955e+02 1.497235000000000127e+03
1.479999999999999927e-01 5.371074999999999600e-01 3.460365000000000357e+00 1.261634999999999991e+02 1.497279999999999973e+03
1.489999999999999936e-01 5.371340000000000003e-01 3.476835000000000342e+00 1.263025000000000091e+02 1.497325000000000045e+03
1.499999999999999944e-01 5.371555000000000080e-01 3.488255000000000106e+00 1.264164999999999992e+02 1.497360000000000127e+03
1.509999999999999953e-01 5.371715000000000240e-01 3.492144999999999833e+00 1.265039999999999907e+02 1.497389999999999873e+03
1.519999999999999962e-01 5.371814999999999785e-01 3.486660000000000093e+00 1.265625000000000000e+02 1.497414999999999964e+03
1.529999999999999971e-01 5.371844999999999537e-01 3.470550000000000246e+00 1.265919999999999987e+02 1.497425000000000182e+03
1.539999999999999980e-01 5.371820000000000483e-01 3.443135000000000279e+00 1.265925000000000011e+02 1.497434999999999945e+03
1.549999999999999989e-01 5.371740000000000403e-01 3.404255000000000031e+00 1.265664999999999907e+02 1.497429999999999836e+03
1.559999999999999998e-01 5.371605000000000407e-01 3.354204999999999881e+00 1.265144999999999982e+02 1.497420000000000073e+03
1.570000000000000007e-01 5.371424999999999672e-01 3.293700000000000294e+00 1.264389999999999930e+02 1.497400000000000091e+03
1.580000000000000016e-01 5.371209999999999596e-01 3.223794999999999966e+00 1.263439999999999941e+02 1.497369999999999891e+03
1.590000000000000024e-01 5.370960000000000178e-01 3.145800000000000374e+00 1.262319999999999993e+02 1.497339999999999918e+03
