# t [s], A [cm^2], U [cm/s], P [cPa], c [cm/s]
1.000000000000000021e-03 7.034240000000000492e-01 5.947799999999996146e-03 1.023969999999999914e+02 1.661349999999999909e+03
2.000000000000000042e-03 7.034119999999999262e-01 -1.920600000000000172e-03 1.023665000000000020e+02 1.661340000000000146e+03
3.000000000000000062e-03 7.034764999999999491e-01 1.039105499999999904e-01 1.024840000000000089e+02 1.661369999999999891e+03
4.000000000000000083e-03 7.035270000000000135e-01 2.012533650000000174e-01 1.026049999999999898e+02 1.661400000000000091e+03
5.000000000000000104e-03 7.034865000000000146e-01 1.614029499999999895e-01 1.025155000000000030e+02 1.661380000000000109e+03
6.000000000000000125e-03 7.034070000000000045e-01 5.283749999999998170e-02 1.022565000000000026e+02 1.661320000000000164e+03
7.000000000000000146e-03 7.033374999999999488e-01 -4.958000000000001295e-02 1.019369999999999976e+02 1.661244999999999891e+03
8.000000000000000167e-03 7.032209999999999850e-01 -2.436399999999999677e-01 1.014509999999999934e+02 1.661125000000000000e+03
9.000000000000001055e-03 7.030319999999999903e-01 -5.762649999999999162e-01 1.007086000000000041e+02 1.660954999999999927e+03
1.000000000000000194e-02 7.027674999999999894e-01 -1.045960000000000001e+00 9.966764999999999475e+01 1.660704999999999927e+03
1.099999999999999936e-02 7.024029999999999996e-01 -1.680760000000000254e+00 9.824805000000000632e+01 1.660360000000000127e+03
1.200000000000000025e-02 7.019299999999999429e-01 -2.473700000000000010e+00 9.640440000000000964e+01 1.659910000000000082e+03
1.300000000000000114e-02 7.014004999999999823e-01 -3.309975000000000556e+00 9.424184999999999945e+01 1.659369999999999891e+03
1.400000000000000203e-02 7.009039999999999715e-01 -4.003878499999999896e+00 9.200409999999999400e+01 1.658784999999999854e+03
1.499999999999999944e-02 7.005095000000000072e-01 -4.398934699999999864e+00 8.994774999999999920e+01 1.658219999999999800e+03
1.600000000000000033e-02 7.002344999999999819e-01 -4.435777500000000373e+00 8.822520000000000095e+01 1.657715000000000146e+03
1.700000000000000122e-02 7.000439999999999996e-01 -4.156975000000000087e+00 8.684309999999999263e+01 1.657279999999999973e+03
1.800000000000000211e-02 6.998784999999999590e-01 -3.669875000000000220e+00 8.568784999999999741e+01 1.656894999999999982e+03
1.900000000000000300e-02 6.996789999999999399e-01 -3.095661499999999844e+00 8.458955000000000268e+01 1.656519999999999982e+03
2.000000000000000042e-02 6.994080000000000297e-01 -2.524462999999999901e+00 8.339414999999999623e+01 1.656130000000000109e+03
2.100000000000000130e-02 6.990629999999999900e-01 -1.989980000000000082e+00 8.201834999999999809e+01 1.655700000000000045e+03
2.200000000000000219e-02 6.986660000000000093e-01 -1.471044999999999936e+00 8.046809999999999263e+01 1.655230000000000018e+03
2.299999999999999961e-02 6.982545000000000002e-01 -9.168250000000000011e-01 7.881815000000000282e+01 1.654735000000000127e+03
2.400000000000000050e-02 6.978604999999999947e-01 -2.816250000000000142e-01 7.716495000000000459e+01 1.654230000000000018e+03
2.500000000000000139e-02 6.974960000000000049e-01 4.469099999999999184e-01 7.557880000000000109e+01 1.653744999999999891e+03
2.600000000000000228e-02 6.971534999999999815e-01 1.235429999999999806e+00 7.407134999999999536e+01 1.653269999999999982e+03
2.700000000000000316e-02 6.968024999999999913e-01 2.009210000000000385e+00 7.258705000000000496e+01 1.652800000000000182e+03
2.800000000000000058e-02 6.964040000000000230e-01 2.669169999999999821e+00 7.101685000000000514e+01 1.652315000000000055e+03
2.900000000000000147e-02 6.959199999999999831e-01 3.115990000000000038e+00 6.922844999999999516e+01 1.651789999999999964e+03
3.000000000000000236e-02 6.953245000000000120e-01 3.275339999999999918e+00 6.710509999999999309e+01 1.651184999999999945e+03
3.099999999999999978e-02 6.946140000000000647e-01 3.117485000000000284e+00 6.458294999999999675e+01 1.650485000000000127e+03
3.200000000000000067e-02 6.938070000000000626e-01 2.665219999999999700e+00 6.167470000000000141e+01 1.649700000000000045e+03
3.300000000000000155e-02 6.929450000000000331e-01 1.987534999999999830e+00 5.847285000000000110e+01 1.648835000000000036e+03
3.400000000000000244e-02 6.920770000000000532e-01 1.182519999999999349e+00 5.513275000000000148e+01 1.647930000000000064e+03
3.500000000000000333e-02 6.912564999999999404e-01 3.560749999999996973e-01 5.184264999999999901e+01 1.647029999999999973e+03
3.600000000000000422e-02 6.905269999999998909e-01 -3.967749999999998778e-01 4.879184999999999661e+01 1.646164999999999964e+03
3.700000000000000511e-02 6.899210000000000065e-01 -1.003334999999999866e+00 4.614439999999999742e+01 1.645400000000000091e+03
3.799999999999999906e-02 6.894575000000000564e-01 -1.417559999999999931e+00 4.402284999999999826e+01 1.644759999999999991e+03
3.899999999999999994e-02 6.891430000000000611e-01 -1.617954999999999810e+00 4.250184999999999746e+01 1.644264999999999873e+03
4.000000000000000083e-02 6.889764999999999917e-01 -1.601465999999999834e+00 4.161104999999999876e+01 1.643934999999999945e+03
4.100000000000000172e-02 6.889499999999999513e-01 -1.375592999999999844e+00 4.134484999999999388e+01 1.643775000000000091e+03
4.200000000000000261e-02 6.890540000000000553e-01 -9.509505000000000319e-01 4.167464999999999975e+01 1.643775000000000091e+03
4.300000000000000350e-02 6.892800000000000038e-01 -3.360750000000001236e-01 4.256119999999999948e+01 1.643934999999999945e+03
4.400000000000000439e-02 6.896214999999999984e-01 4.645749999999999602e-01 4.396334999999999837e+01 1.644244999999999891e+03
4.499999999999999833e-02 6.900710000000001010e-01 1.449340000000000073e+00 4.584244999999999948e+01 1.644690000000000055e+03
4.599999999999999922e-02 6.906229999999999869e-01 2.615939999999999266e+00 4.816165000000000163e+01 1.645264999999999873e+03
4.700000000000000011e-02 6.912694999999999812e-01 3.957415000000000127e+00 5.088255000000000194e+01 1.645960000000000036e+03
4.800000000000000100e-02 6.920005000000000184e-01 5.458990000000000009e+00 5.396089999999999520e+01 1.646759999999999991e+03
4.900000000000000189e-02 6.928000000000000824e-01 7.096489999999999299e+00 5.734340000000000259e+01 1.647654999999999973e+03
5.000000000000000278e-02 6.936530000000000751e-01 8.837213499999998945e+00 6.096679999999999211e+01 1.648625000000000000e+03
5.100000000000000366e-02 6.945390000000000175e-01 1.064215499999999892e+01 6.475979999999999848e+01 1.649650000000000091e+03
5.200000000000000455e-02 6.954400000000000581e-01 1.246943500000000071e+01 6.864659999999999229e+01 1.650720000000000027e+03
5.300000000000000544e-02 6.963369999999999838e-01 1.427817000000000114e+01 7.255240000000000578e+01 1.651809999999999945e+03
5.399999999999999939e-02 6.972154999999999880e-01 1.603167499999999990e+01 7.640845000000000198e+01 1.652894999999999982e+03
5.500000000000000028e-02 6.980634999999999479e-01 1.769995000000000118e+01 8.015694999999999482e+01 1.653965000000000146e+03
5.600000000000000117e-02 6.988734999999999253e-01 1.926099999999999923e+01 8.375415000000000987e+01 1.655014999999999873e+03
5.700000000000000205e-02 6.996409999999999574e-01 2.070125000000000171e+01 8.717220000000000368e+01 1.656014999999999873e+03
5.800000000000000294e-02 7.003654999999999742e-01 2.201464999999999961e+01 9.039875000000000682e+01 1.656974999999999909e+03
5.900000000000000383e-02 7.010499999999999510e-01 2.320169999999999888e+01 9.343494999999998640e+01 1.657884999999999991e+03
6.000000000000000472e-02 7.016995000000000315e-01 2.426814999999999856e+01 9.629465000000000430e+01 1.658750000000000000e+03
6.099999999999999867e-02 7.023185000000000677e-01 2.522319999999999851e+01 9.899915000000000020e+01 1.659570000000000164e+03
6.199999999999999956e-02 7.029144999999999976e-01 2.607864999999999966e+01 1.015758999999999901e+02 1.660360000000000127e+03
6.300000000000000044e-02 7.034945000000000226e-01 2.684720000000000084e+01 1.040557500000000033e+02 1.661119999999999891e+03
6.400000000000000133e-02 7.040649999999999409e-01 2.754214999999999947e+01 1.064679999999999893e+02 1.661860000000000127e+03
6.500000000000000222e-02 7.046310000000000073e-01 2.817555000000000121e+01 1.088404999999999916e+02 1.662579999999999927e+03
6.600000000000000311e-02 7.051974999999999216e-01 2.875779999999999959e+01 1.111954999999999956e+02 1.663299999999999955e+03
6.700000000000000400e-02 7.057660000000000045e-01 2.929670000000000130e+01 1.135469999999999970e+02 1.664009999999999991e+03
6.800000000000000488e-02 7.063380000000000214e-01 2.979684999999999917e+01 1.159039999999999964e+02 1.664720000000000027e+03
6.900000000000000577e-02 7.069104999999999972e-01 3.025925000000000153e+01 1.182624999999999886e+02 1.665430000000000064e+03
7.000000000000000666e-02 7.074804999999999566e-01 3.068149999999999977e+01 1.206129999999999995e+02 1.666134999999999991e+03
7.100000000000000755e-02 7.080425000000000191e-01 3.105799999999999983e+01 1.229364999999999952e+02 1.666835000000000036e+03
7.200000000000000844e-02 7.085900000000000531e-01 3.138090000000000046e+01 1.252065000000000055e+02 1.667519999999999982e+03
7.300000000000000933e-02 7.091145000000000920e-01 3.164069999999999894e+01 1.273940000000000055e+02 1.668179999999999836e+03
7.399999999999999634e-02 7.096099999999999630e-01 3.182760000000000389e+01 1.294669999999999845e+02 1.668815000000000055e+03
7.499999999999999722e-02 7.100675000000000736e-01 3.193200000000000216e+01 1.313944999999999936e+02 1.669405000000000200e+03
7.599999999999999811e-02 7.104824999999999058e-01 3.194554999999999723e+01 1.331454999999999984e+02 1.669954999999999927e+03
7.699999999999999900e-02 7.108479999999999244e-01 3.186205000000000354e+01 1.346965000000000146e+02 1.670450000000000045e+03
7.799999999999999989e-02 7.111615000000000020e-01 3.167725000000000080e+01 1.360275000000000034e+02 1.670880000000000109e+03
7.900000000000000078e-02 7.114194999999999824e-01 3.138985000000000269e+01 1.371264999999999930e+02 1.671250000000000000e+03
8.000000000000000167e-02 7.116225000000000467e-01 3.100104999999999933e+01 1.379859999999999900e+02 1.671549999999999955e+03
8.100000000000000255e-02 7.117700000000000138e-01 3.051494999999999891e+01 1.386094999999999970e+02 1.671784999999999854e+03
8.200000000000000344e-02 7.118659999999999988e-01 2.993815000000000026e+01 1.390029999999999859e+02 1.671950000000000045e+03
8.300000000000000433e-02 7.119130000000000180e-01 2.927955000000000041e+01 1.391809999999999832e+02 1.672054999999999836e+03
8.400000000000000522e-02 7.119165000000000632e-01 2.855024999999999835e+01 1.391639999999999873e+02 1.672099999999999909e+03
8.500000000000000611e-02 7.118815000000000559e-01 2.776279999999999859e+01 1.389735000000000014e+02 1.672090000000000146e+03
8.600000000000000699e-02 7.118145000000000167e-01 2.693124999999999858e+01 1.386384999999999934e+02 1.672029999999999973e+03
8.700000000000000788e-02 7.117229999999999945e-01 2.606994999999999862e+01 1.381870000000000118e+02 1.671940000000000055e+03
8.800000000000000877e-02 7.116130000000000511e-01 2.519375000000000142e+01 1.376490000000000009e+02 1.671815000000000055e+03
8.899999999999999578e-02 7.114909999999999846e-01 2.431684999999999874e+01 1.370544999999999902e+02 1.671664999999999964e+03
8.999999999999999667e-02 7.113639999999999963e-01 2.345250000000000057e+01 1.364314999999999998e+02 1.671505000000000109e+03
9.099999999999999756e-02 7.112365000000000492e-01 2.261230000000000118e+01 1.358054999999999950e+02 1.671335000000000036e+03
9.199999999999999845e-02 7.111144999999999827e-01 2.180600000000000094e+01 1.351985000000000241e+02 1.671164999999999964e+03
9.299999999999999933e-02 7.109999999999999654e-01 2.104064999999999941e+01 1.346279999999999859e+02 1.671000000000000000e+03
9.400000000000000022e-02 7.108965000000000423e-01 2.032085000000000008e+01 1.341059999999999945e+02 1.670845000000000027e+03
9.500000000000000111e-02 7.108039999999999914e-01 1.964839999999999876e+01 1.336394999999999982e+02 1.670704999999999927e+03
9.600000000000000200e-02 7.107235000000000635e-01 1.902234999999999943e+01 1.332305000000000064e+02 1.670575000000000045e+03
9.700000000000000289e-02 7.106529999999999792e-01 1.843929999999999936e+01 1.328770000000000095e+02 1.670454999999999927e+03
9.800000000000000377e-02 7.105909999999999727e-01 1.789390000000000214e+01 1.325699999999999932e+02 1.670360000000000127e+03
9.900000000000000466e-02 7.105345000000000688e-01 1.737899999999999778e+01 1.322995000000000232e+02 1.670264999999999873e+03
1.000000000000000056e-01 7.104794999999999305e-01 1.688615000000000066e+01 1.320525000000000091e+02 1.670179999999999836e+03
1.010000000000000064e-01 7.104239999999999444e-01 1.640639999999999787e+01 1.318135000000000048e+02 1.670099999999999909e+03
1.020000000000000073e-01 7.103635000000000366e-01 1.593045000000000044e+01 1.315670000000000073e+02 1.670019999999999982e+03
1.030000000000000082e-01 7.102950000000000097e-01 1.544940000000000069e+01 1.312980000000000018e+02 1.669934999999999945e+03
1.040000000000000091e-01 7.102159999999999584e-01 1.495514999999999972e+01 1.309915000000000020e+02 1.669845000000000027e+03
1.050000000000000100e-01 7.101230000000000597e-01 1.444059999999999988e+01 1.306370000000000005e+02 1.669740000000000009e+03
1.059999999999999970e-01 7.100154999999999106e-01 1.390044999999999931e+01 1.302239999999999895e+02 1.669619999999999891e+03
1.069999999999999979e-01 7.098925000000000374e-01 1.333098499999999831e+01 1.297479999999999905e+02 1.669490000000000009e+03
1.079999999999999988e-01 7.097534999999999261e-01 1.273064000000000107e+01 1.292069999999999936e+02 1.669335000000000036e+03
1.089999999999999997e-01 7.096000000000000085e-01 1.209999499999999983e+01 1.286020000000000039e+02 1.669170000000000073e+03
1.100000000000000006e-01 7.094344999999999679e-01 1.144165500000000080e+01 1.279405000000000001e+02 1.668985000000000127e+03
1.110000000000000014e-01 7.092585000000000139e-01 1.076022999999999996e+01 1.272309999999999945e+02 1.668789999999999964e+03
1.120000000000000023e-01 7.090769999999999573e-01 1.006221500000000013e+01 1.264869999999999948e+02 1.668579999999999927e+03
1.130000000000000032e-01 7.088924999999999255e-01 9.355374999999998664e+00 1.257235000000000014e+02 1.668364999999999782e+03
1.140000000000000041e-01 7.087099999999999511e-01 8.648814999999999031e+00 1.249585000000000008e+02 1.668150000000000091e+03
1.150000000000000050e-01 7.085339999999999971e-01 7.952119999999999855e+00 1.242109999999999985e+02 1.667934999999999945e+03
1.160000000000000059e-01 7.083684999999999565e-01 7.275199999999999889e+00 1.235000000000000000e+02 1.667730000000000018e+03
1.170000000000000068e-01 7.082185000000000841e-01 6.627599999999999270e+00 1.228425000000000011e+02 1.667534999999999854e+03
1.180000000000000077e-01 7.080870000000000219e-01 6.018274999999999153e+00 1.222560000000000002e+02 1.667360000000000127e+03
1.190000000000000085e-01 7.079774999999999263e-01 5.455000000000000071e+00 1.217545000000000073e+02 1.667204999999999927e+03
1.200000000000000094e-01 7.078915000000000068e-01 4.944115000000000038e+00 1.213499999999999943e+02 1.667075000000000045e+03
1.209999999999999964e-01 7.078305000000000291e-01 4.490230000000000388e+00 1.210490000000000066e+02 1.666970000000000027e+03
1.219999999999999973e-01 7.077959999999999807e-01 4.096099999999999852e+00 1.208559999999999945e+02 1.666900000000000091e+03
1.229999999999999982e-01 7.077860000000000262e-01 3.762509999999999799e+00 1.207710000000000008e+02 1.666855000000000018e+03
1.239999999999999991e-01 7.078005000000000546e-01 3.488354999999999873e+00 1.207890000000000015e+02 1.666844999999999800e+03
1.250000000000000000e-01 7.078360000000000207e-01 3.270769999999999733e+00 1.209039999999999964e+02 1.666855000000000018e+03
1.260000000000000009e-01 7.078910000000000480e-01 3.105315000000000047e+00 1.211045000000000016e+02 1.666889999999999873e+03
1.270000000000000018e-01 7.079614999999999103e-01 2.986304999999999765e+00 1.213780000000000001e+02 1.666950000000000045e+03
1.280000000000000027e-01 7.080440000000000067e-01 2.907065000000000232e+00 1.217095000000000056e+02 1.667034999999999854e+03
1.290000000000000036e-01 7.081345000000000001e-01 2.860330000000000261e+00 1.220829999999999984e+02 1.667125000000000000e+03
1.300000000000000044e-01 7.082304999999999851e-01 2.838515000000000121e+00 1.224825000000000017e+02 1.667224999999999909e+03
1.310000000000000053e-01 7.083269999999999289e-01 2.834060000000000024e+00 1.228930000000000007e+02 1.667335000000000036e+03
1.320000000000000062e-01 7.084209999999999674e-01 2.839690000000000047e+00 1.232984999999999900e+02 1.667440000000000055e+03
1.330000000000000071e-01 7.085095000000000143e-01 2.848670000000000258e+00 1.236860000000000070e+02 1.667549999999999955e+03
1.340000000000000080e-01 7.085909999999999709e-01 2.854969999999999786e+00 1.240455000000000041e+02 1.667654999999999973e+03
1.350000000000000089e-01 7.086624999999999730e-01 2.853399999999999714e+00 1.243659999999999997e+02 1.667744999999999891e+03
1.360000000000000098e-01 7.087235000000000618e-01 2.839730000000000310e+00 1.246410000000000053e+02 1.667824999999999818e+03
1.370000000000000107e-01 7.087714999999999987e-01 2.810710000000000264e+00 1.248650000000000091e+02 1.667894999999999982e+03
1.380000000000000115e-01 7.088079999999999936e-01 2.764104999999999812e+00 1.250355000000000132e+02 1.667949999999999818e+03
1.390000000000000124e-01 7.088324999999999765e-01 2.698644999999999960e+00 1.251520000000000010e+02 1.667994999999999891e+03
1.400000000000000133e-01 7.088440000000000296e-01 2.613995000000000068e+00 1.252145000000000010e+02 1.668014999999999873e+03
1.410000000000000142e-01 7.088445000000000995e-01 2.510670000000000179e+00 1.252259999999999991e+02 1.668034999999999854e+03
1.420000000000000151e-01 7.088345000000000340e-01 2.389920000000000044e+00 1.251910000000000025e+02 1.668030000000000200e+03
1.430000000000000160e-01 7.088160000000000016e-01 2.253600000000000048e+00 1.251129999999999995e+02 1.668019999999999982e+03
1.440000000000000169e-01 7.087894999999999612e-01 2.104055000000000231e+00 1.249985000000000070e+02 1.667994999999999891e+03
1.450000000000000178e-01 7.087565000000000115e-01 1.943959999999999910e+00 1.248530000000000086e+02 1.667960000000000036e+03
1.459999999999999909e-01 7.087179999999999591e-01 1.776145000000000085e+00 1.246820000000000022e+02 1.667914999999999964e+03
1.469999999999999918e-01 7.086760000000000836e-01 1.603482000000000074e+00 1.244920000000000044e+02 1.667869999999999891e+03
1.479999999999999927e-01 7.086310000000000109e-01 1.428714999999999957e+00 1.242865000000000038e+02 1.667815000000000055e+03
1.489999999999999936e-01 7.085835000000000328e-01 1.254349500000000006e+00 1.240709999999999980e+02 1.667759999999999991e+03
1.499999999999999944e-01 7.085354999999999848e-01 1.082553499999999946e+00 1.238495000000000061e+02 1.667695000000000164e+03
1.509999999999999953e-01 7.084870000000000889e-01 9.150925000000000864e-01 1.236230000000000047e+02 1.667639999999999873e+03
1.519999999999999962e-01 7.084375000000000533e-01 7.532939499999999899e-01 1.233944999999999936e+02 1.667569999999999936e+03
1.529999999999999971e-01 7.083874999999999478e-01 5.980459999999999665e-01 1.231640000000000015e+02 1.667505000000000109e+03
1.539999999999999980e-01 7.083365000000000355e-01 4.498420000000000196e-01 1.229309999999999974e+02 1.667440000000000055e+03
1.549999999999999989e-01 7.082850000000000534e-01 3.088294999999999790e-01 1.226949999999999932e+02 1.667369999999999891e+03
1.559999999999999998e-01 7.082319999999999727e-01 1.749095000000000233e-01 1.224540000000000077e+02 1.667305000000000064e+03
1.570000000000000007e-01 7.081770000000000564e-01 4.781499999999999639e-02 1.222075000000000102e+02 1.667230000000000018e+03
1.580000000000000016e-01 7.081195000000000128e-01 -7.278300000000004211e-02 1.219519999999999982e+02 1.667154999999999973e+03
1.590000000000000024e-01 7.080595000000000638e-01 -1.871865000000000334e-01 1.216880000000000024e+02 1.667079999999999927e+03
