# t [s], A [cm^2], U [cm/s], P [cPa], c [cm/s]
1.000000000000000021e-03 1.635794999999999888e-01 1.367155499999999912e-01 9.696385000000000787e+01 1.841735000000000127e+03
2.000000000000000042e-03 1.635645000000000016e-01 1.364729499999999929e+00 9.456579999999999586e+01 1.841605000000000018e+03
3.000000000000000062e-03 1.634844999999999771e-01 2.936654499999999945e+00 9.144849999999999568e+01 1.840985000000000127e+03
4.000000000000000083e-03 1.633545000000000136e-01 4.698445000000000427e+00 8.775905000000000200e+01 1.840000000000000000e+03
5.000000000000000104e-03 1.631965000000000221e-01 6.604003499999999249e+00 8.402004999999999768e+01 1.838815000000000055e+03
6.000000000000000125e-03 1.630280000000000062e-01 8.593125000000000568e+00 8.062250000000000227e+01 1.837559999999999945e+03
7.000000000000000146e-03 1.628610000000000058e-01 1.056260999999999939e+01 7.769714999999999350e+01 1.836324999999999818e+03
8.000000000000000167e-03 1.627000000000000113e-01 1.239763999999999911e+01 7.516225000000000023e+01 1.835159999999999854e+03
9.000000000000001055e-03 1.625475000000000114e-01 1.403043999999999869e+01 7.289679999999999893e+01 1.834070000000000164e+03
1.000000000000000194e-02 1.624075000000000102e-01 1.545456000000000074e+01 7.087000000000000455e+01 1.833075000000000045e+03
1.099999999999999936e-02 1.622819999999999818e-01 1.668779999999999930e+01 6.911279999999999291e+01 1.832200000000000045e+03
1.200000000000000025e-02 1.621730000000000116e-01 1.774365000000000236e+01 6.764279999999999404e+01 1.831440000000000055e+03
1.300000000000000114e-02 1.620800000000000018e-01 1.862944999999999851e+01 6.644395000000000095e+01 1.830800000000000182e+03
1.400000000000000203e-02 1.620019999999999794e-01 1.934935000000000116e+01 6.547749999999999204e+01 1.830269999999999982e+03
1.499999999999999944e-02 1.619364999999999832e-01 1.990520000000000067e+01 6.468864999999999554e+01 1.829829999999999927e+03
1.600000000000000033e-02 1.618819999999999981e-01 2.030304999999999893e+01 6.402009999999999934e+01 1.829470000000000027e+03
1.700000000000000122e-02 1.618364999999999942e-01 2.056585000000000107e+01 6.344435000000000002e+01 1.829179999999999836e+03
1.800000000000000211e-02 1.617994999999999850e-01 2.074040000000000106e+01 6.299609999999999843e+01 1.828945000000000164e+03
1.900000000000000300e-02 1.617730000000000001e-01 2.089114999999999966e+01 6.277315000000000111e+01 1.828779999999999973e+03
2.000000000000000042e-02 1.617605000000000015e-01 2.108149999999999835e+01 6.290024999999999977e+01 1.828710000000000036e+03
2.100000000000000130e-02 1.617655000000000065e-01 2.135329999999999728e+01 6.347294999999999732e+01 1.828759999999999991e+03
2.200000000000000219e-02 1.617890000000000161e-01 2.171484999999999843e+01 6.451134999999999309e+01 1.828924999999999955e+03
2.299999999999999961e-02 1.618295000000000150e-01 2.214029999999999987e+01 6.594335000000000946e+01 1.829215000000000146e+03
2.400000000000000050e-02 1.618840000000000001e-01 2.258014999999999972e+01 6.761965000000000714e+01 1.829599999999999909e+03
2.500000000000000139e-02 1.619464999999999932e-01 2.297659999999999769e+01 6.935165000000000646e+01 1.830045000000000073e+03
2.600000000000000228e-02 1.620115000000000027e-01 2.327880000000000038e+01 7.095619999999999550e+01 1.830509999999999991e+03
2.700000000000000316e-02 1.620729999999999948e-01 2.345394999999999897e+01 7.229384999999999195e+01 1.830949999999999818e+03
2.800000000000000058e-02 1.621270000000000211e-01 2.349164999999999992e+01 7.329110000000000014e+01 1.831340000000000146e+03
2.900000000000000147e-02 1.621710000000000096e-01 2.340210000000000079e+01 7.394399999999998840e+01 1.831664999999999964e+03
3.000000000000000236e-02 1.622040000000000148e-01 2.320960000000000178e+01 7.430400000000000205e+01 1.831909999999999854e+03
3.099999999999999978e-02 1.622284999999999977e-01 2.294299999999999784e+01 7.445295000000000130e+01 1.832099999999999909e+03
3.200000000000000067e-02 1.622460000000000013e-01 2.262765000000000271e+01 7.447589999999999577e+01 1.832224999999999909e+03
3.300000000000000155e-02 1.622580000000000133e-01 2.227919999999999945e+01 7.443784999999999741e+01 1.832319999999999936e+03
3.400000000000000244e-02 1.622660000000000213e-01 2.190194999999999936e+01 7.437130000000000507e+01 1.832384999999999991e+03
3.500000000000000333e-02 1.622715000000000130e-01 2.149050000000000082e+01 7.427540000000000475e+01 1.832424999999999955e+03
3.600000000000000422e-02 1.622730000000000006e-01 2.103440000000000154e+01 7.412510000000000332e+01 1.832440000000000055e+03
3.700000000000000511e-02 1.622705000000000120e-01 2.052414999999999878e+01 7.388654999999999973e+01 1.832425000000000182e+03
3.799999999999999906e-02 1.622635000000000050e-01 1.995620000000000260e+01 7.353379999999999939e+01 1.832380000000000109e+03
3.899999999999999994e-02 1.622514999999999930e-01 1.933689999999999998e+01 7.306250000000000000e+01 1.832300000000000182e+03
4.000000000000000083e-02 1.622345000000000037e-01 1.868359999999999843e+01 7.249754999999998972e+01 1.832195000000000164e+03
4.100000000000000172e-02 1.622149999999999981e-01 1.802289999999999992e+01 7.189239999999999498e+01 1.832059999999999945e+03
4.200000000000000261e-02 1.621940000000000048e-01 1.738714999999999833e+01 7.132185000000001196e+01 1.831914999999999964e+03
4.300000000000000350e-02 1.621750000000000136e-01 1.680874999999999986e+01 7.086809999999999832e+01 1.831780000000000200e+03
4.400000000000000439e-02 1.621604999999999852e-01 1.631530000000000058e+01 7.060585000000000377e+01 1.831679999999999836e+03
4.499999999999999833e-02 1.621520000000000183e-01 1.592459999999999987e+01 7.058820000000000050e+01 1.831619999999999891e+03
4.599999999999999922e-02 1.621529999999999916e-01 1.564229999999999876e+01 7.083664999999999168e+01 1.831619999999999891e+03
4.700000000000000011e-02 1.621630000000000016e-01 1.546164999999999878e+01 7.133754999999999313e+01 1.831684999999999945e+03
4.800000000000000100e-02 1.621819999999999928e-01 1.536464999999999925e+01 7.204464999999999009e+01 1.831804999999999836e+03
4.900000000000000189e-02 1.622075000000000045e-01 1.532570000000000121e+01 7.288689999999999714e+01 1.831980000000000018e+03
5.000000000000000278e-02 1.622379999999999933e-01 1.531499999999999950e+01 7.377930000000000632e+01 1.832190000000000055e+03
5.100000000000000366e-02 1.622705000000000120e-01 1.530264999999999986e+01 7.463464999999999350e+01 1.832410000000000082e+03
5.200000000000000455e-02 1.623025000000000162e-01 1.526164999999999949e+01 7.537420000000000186e+01 1.832630000000000109e+03
5.300000000000000544e-02 1.623304999999999887e-01 1.517040000000000077e+01 7.593530000000001223e+01 1.832829999999999927e+03
5.399999999999999939e-02 1.623525000000000107e-01 1.501370000000000005e+01 7.627574999999998795e+01 1.832985000000000127e+03
5.500000000000000028e-02 1.623665000000000247e-01 1.478245000000000076e+01 7.637440000000000850e+01 1.833085000000000036e+03
5.600000000000000117e-02 1.623725000000000029e-01 1.447330000000000005e+01 7.622899999999999920e+01 1.833135000000000218e+03
5.700000000000000205e-02 1.623700000000000143e-01 1.408719999999999928e+01 7.585224999999999795e+01 1.833115000000000009e+03
5.800000000000000294e-02 1.623580000000000023e-01 1.362824999999999953e+01 7.526654999999999518e+01 1.833035000000000082e+03
5.900000000000000383e-02 1.623380000000000101e-01 1.310245000000000104e+01 7.450005000000000166e+01 1.832900000000000091e+03
6.000000000000000472e-02 1.623104999999999964e-01 1.251694999999999958e+01 7.358259999999999934e+01 1.832710000000000036e+03
6.099999999999999867e-02 1.622760000000000036e-01 1.187996499999999855e+01 7.254380000000000450e+01 1.832474999999999909e+03
6.199999999999999956e-02 1.622359999999999913e-01 1.120040499999999994e+01 7.141225000000000023e+01 1.832194999999999936e+03
6.300000000000000044e-02 1.621920000000000028e-01 1.048846999999999952e+01 7.021590000000000487e+01 1.831889999999999873e+03
6.400000000000000133e-02 1.621440000000000103e-01 9.755910000000000082e+00 6.898355000000000814e+01 1.831554999999999836e+03
6.500000000000000222e-02 1.620940000000000158e-01 9.016515000000000057e+00 6.774564999999999770e+01 1.831204999999999927e+03
6.600000000000000311e-02 1.620429999999999926e-01 8.286154999999999049e+00 6.653619999999999379e+01 1.830849999999999909e+03
6.700000000000000400e-02 1.619924999999999837e-01 7.582819999999999894e+00 6.539289999999999736e+01 1.830500000000000000e+03
6.800000000000000488e-02 1.619444999999999912e-01 6.926454999999999806e+00 6.435745000000000005e+01 1.830159999999999854e+03
6.900000000000000577e-02 1.619005000000000027e-01 6.338214999999999932e+00 6.347424999999999784e+01 1.829845000000000027e+03
7.000000000000000666e-02 1.618620000000000059e-01 5.839795000000000513e+00 6.278949999999999676e+01 1.829575000000000045e+03
7.100000000000000755e-02 1.618310000000000026e-01 5.452469999999999928e+00 6.234864999999999924e+01 1.829355000000000018e+03
7.200000000000000844e-02 1.618100000000000094e-01 5.196139999999999759e+00 6.219414999999999338e+01 1.829200000000000045e+03
7.300000000000000933e-02 1.617999999999999994e-01 5.088390000000000413e+00 6.236355000000000359e+01 1.829119999999999891e+03
7.399999999999999634e-02 1.618030000000000024e-01 5.143634999999999735e+00 6.288680000000000092e+01 1.829130000000000109e+03
7.499999999999999722e-02 1.618199999999999916e-01 5.372469999999999857e+00 6.378515000000000157e+01 1.829244999999999891e+03
7.599999999999999811e-02 1.618519999999999959e-01 5.781219999999999359e+00 6.506955000000000666e+01 1.829460000000000036e+03
7.699999999999999900e-02 1.619005000000000027e-01 6.371710000000000207e+00 6.674070000000000391e+01 1.829779999999999973e+03
7.799999999999999989e-02 1.619645000000000112e-01 7.141275000000000261e+00 6.878874999999999318e+01 1.830215000000000146e+03
7.900000000000000078e-02 1.620440000000000214e-01 8.082985000000000753e+00 7.119429999999999836e+01 1.830759999999999991e+03
8.000000000000000167e-02 1.621385000000000187e-01 9.186074999999998880e+00 7.392949999999999022e+01 1.831414999999999964e+03
8.100000000000000255e-02 1.622480000000000033e-01 1.043642999999999965e+01 7.695959999999999468e+01 1.832164999999999964e+03
8.200000000000000344e-02 1.623700000000000143e-01 1.181737500000000018e+01 8.024510000000000787e+01 1.833009999999999991e+03
8.300000000000000433e-02 1.625030000000000086e-01 1.331027999999999878e+01 8.374309999999999832e+01 1.833945000000000164e+03
8.400000000000000522e-02 1.626464999999999994e-01 1.489535000000000053e+01 8.740995000000000914e+01 1.834944999999999936e+03
8.500000000000000611e-02 1.627985000000000126e-01 1.655250000000000199e+01 9.120260000000000389e+01 1.836005000000000109e+03
8.600000000000000699e-02 1.629565000000000041e-01 1.826169999999999760e+01 9.508020000000000493e+01 1.837115000000000009e+03
8.700000000000000788e-02 1.631195000000000006e-01 2.000384999999999991e+01 9.900610000000000355e+01 1.838264999999999873e+03
8.800000000000000877e-02 1.632865000000000011e-01 2.176109999999999900e+01 1.029478499999999883e+02 1.839440000000000055e+03
8.899999999999999578e-02 1.634554999999999758e-01 2.351724999999999710e+01 1.068776499999999885e+02 1.840634999999999991e+03
8.999999999999999667e-02 1.636255000000000071e-01 2.525775000000000148e+01 1.107740000000000009e+02 1.841835000000000036e+03
9.099999999999999756e-02 1.637949999999999962e-01 2.697005000000000052e+01 1.146200000000000045e+02 1.843045000000000073e+03
9.199999999999999845e-02 1.639634999999999843e-01 2.864325000000000188e+01 1.184020000000000010e+02 1.844240000000000009e+03
9.299999999999999933e-02 1.641305000000000125e-01 3.026814999999999856e+01 1.221114999999999924e+02 1.845434999999999945e+03
9.400000000000000022e-02 1.642954999999999832e-01 3.183704999999999785e+01 1.257435000000000116e+02 1.846615000000000009e+03
9.500000000000000111e-02 1.644579999999999931e-01 3.334349999999999881e+01 1.292930000000000064e+02 1.847775000000000091e+03
9.600000000000000200e-02 1.646174999999999999e-01 3.478199999999999648e+01 1.327570000000000050e+02 1.848920000000000073e+03
9.700000000000000289e-02 1.647740000000000038e-01 3.614799999999999613e+01 1.361340000000000146e+02 1.850049999999999955e+03
9.800000000000000377e-02 1.649269999999999903e-01 3.743765000000000498e+01 1.394209999999999923e+02 1.851150000000000091e+03
9.900000000000000466e-02 1.650774999999999881e-01 3.864759999999999707e+01 1.426154999999999973e+02 1.852235000000000127e+03
1.000000000000000056e-01 1.652234999999999954e-01 3.977495000000000402e+01 1.457139999999999986e+02 1.853289999999999964e+03
1.010000000000000064e-01 1.653654999999999986e-01 4.081739999999999924e+01 1.487124999999999773e+02 1.854320000000000164e+03
1.020000000000000073e-01 1.655039999999999845e-01 4.177284999999999826e+01 1.516069999999999993e+02 1.855319999999999936e+03
1.030000000000000082e-01 1.656380000000000075e-01 4.263960000000000150e+01 1.543915000000000077e+02 1.856295000000000073e+03
1.040000000000000091e-01 1.657669999999999977e-01 4.341639999999999588e+01 1.570625000000000000e+02 1.857240000000000009e+03
1.050000000000000100e-01 1.658919999999999839e-01 4.410219999999999629e+01 1.596139999999999759e+02 1.858144999999999982e+03
1.059999999999999970e-01 1.660114999999999785e-01 4.469634999999999536e+01 1.620405000000000086e+02 1.859014999999999873e+03
1.069999999999999979e-01 1.661259999999999959e-01 4.519839999999999947e+01 1.643374999999999773e+02 1.859849999999999909e+03
1.079999999999999988e-01 1.662350000000000216e-01 4.560814999999999486e+01 1.664995000000000118e+02 1.860650000000000091e+03
1.089999999999999997e-01 1.663385000000000002e-01 4.592549999999999955e+01 1.685229999999999961e+02 1.861404999999999973e+03
1.100000000000000006e-01 1.664360000000000006e-01 4.615080000000000382e+01 1.704019999999999868e+02 1.862119999999999891e+03
1.110000000000000014e-01 1.665265000000000217e-01 4.628430000000000177e+01 1.721329999999999814e+02 1.862789999999999964e+03
1.120000000000000023e-01 1.666114999999999957e-01 4.632665000000000077e+01 1.737115000000000009e+02 1.863409999999999854e+03
1.130000000000000032e-01 1.666894999999999905e-01 4.627885000000000559e+01 1.751349999999999909e+02 1.863985000000000127e+03
1.140000000000000041e-01 1.667609999999999926e-01 4.614204999999999757e+01 1.764004999999999939e+02 1.864514999999999873e+03
1.150000000000000050e-01 1.668259999999999743e-01 4.591799999999999926e+01 1.775060000000000002e+02 1.864990000000000009e+03
1.160000000000000059e-01 1.668830000000000036e-01 4.560880000000000223e+01 1.784519999999999982e+02 1.865414999999999964e+03
1.170000000000000068e-01 1.669340000000000268e-01 4.521730000000000160e+01 1.792379999999999995e+02 1.865789999999999964e+03
1.180000000000000077e-01 1.669769999999999865e-01 4.474689999999999657e+01 1.798684999999999832e+02 1.866119999999999891e+03
1.190000000000000085e-01 1.670139999999999958e-01 4.420179999999999865e+01 1.803469999999999800e+02 1.866394999999999982e+03
1.200000000000000094e-01 1.670435000000000114e-01 4.358670000000000044e+01 1.806789999999999736e+02 1.866619999999999891e+03
1.209999999999999964e-01 1.670670000000000210e-01 4.290709999999999980e+01 1.808739999999999952e+02 1.866795000000000073e+03
1.219999999999999973e-01 1.670840000000000103e-01 4.216910000000000025e+01 1.809399999999999977e+02 1.866925000000000182e+03
1.229999999999999982e-01 1.670949999999999935e-01 4.137924999999999898e+01 1.808880000000000052e+02 1.867015000000000100e+03
1.239999999999999991e-01 1.671009999999999995e-01 4.054429999999999978e+01 1.807300000000000182e+02 1.867065000000000055e+03
1.250000000000000000e-01 1.671015000000000139e-01 3.967145000000000010e+01 1.804780000000000086e+02 1.867074999999999818e+03
1.260000000000000009e-01 1.670979999999999965e-01 3.876780000000000115e+01 1.801449999999999818e+02 1.867055000000000064e+03
1.270000000000000018e-01 1.670895000000000019e-01 3.784035000000000082e+01 1.797429999999999950e+02 1.867000000000000000e+03
1.280000000000000027e-01 1.670785000000000187e-01 3.689565000000000339e+01 1.792830000000000155e+02 1.866925000000000182e+03
1.290000000000000036e-01 1.670639999999999903e-01 3.594015000000000271e+01 1.787760000000000105e+02 1.866815000000000055e+03
1.300000000000000044e-01 1.670464999999999867e-01 3.497939999999999827e+01 1.782314999999999827e+02 1.866695000000000164e+03
1.310000000000000053e-01 1.670269999999999810e-01 3.401845000000000141e+01 1.776570000000000107e+02 1.866559999999999945e+03
1.320000000000000062e-01 1.670065000000000022e-01 3.306159999999999854e+01 1.770600000000000023e+02 1.866409999999999854e+03
1.330000000000000071e-01 1.669835000000000069e-01 3.211244999999999550e+01 1.764435000000000002e+02 1.866244999999999891e+03
1.340000000000000080e-01 1.669594999999999829e-01 3.117365000000000208e+01 1.758114999999999952e+02 1.866070000000000164e+03
1.350000000000000089e-01 1.669339999999999991e-01 3.024725000000000108e+01 1.751664999999999850e+02 1.865889999999999873e+03
1.360000000000000098e-01 1.669080000000000008e-01 2.933449999999999847e+01 1.745080000000000098e+02 1.865695000000000164e+03
1.370000000000000107e-01 1.668810000000000016e-01 2.843585000000000207e+01 1.738350000000000080e+02 1.865500000000000000e+03
1.380000000000000115e-01 1.668525000000000147e-01 2.755134999999999934e+01 1.731449999999999818e+02 1.865289999999999964e+03
1.390000000000000124e-01 1.668235000000000134e-01 2.668035000000000068e+01 1.724360000000000070e+02 1.865079999999999927e+03
1.400000000000000133e-01 1.667934999999999834e-01 2.582175000000000153e+01 1.717044999999999959e+02 1.864860000000000127e+03
1.410000000000000142e-01 1.667619999999999936e-01 2.497409999999999997e+01 1.709470000000000027e+02 1.864625000000000000e+03
1.420000000000000151e-01 1.667290000000000161e-01 2.413579999999999970e+01 1.701585000000000036e+02 1.864389999999999873e+03
1.430000000000000160e-01 1.666949999999999821e-01 2.330494999999999806e+01 1.693349999999999795e+02 1.864139999999999873e+03
1.440000000000000169e-01 1.666595000000000160e-01 2.247959999999999781e+01 1.684730000000000132e+02 1.863880000000000109e+03
1.450000000000000178e-01 1.666219999999999923e-01 2.165780000000000172e+01 1.675685000000000002e+02 1.863605000000000018e+03
1.459999999999999909e-01 1.665824999999999945e-01 2.083765000000000001e+01 1.666179999999999950e+02 1.863320000000000164e+03
1.469999999999999918e-01 1.665409999999999946e-01 2.001754999999999995e+01 1.656189999999999998e+02 1.863019999999999982e+03
1.479999999999999927e-01 1.664979999999999793e-01 1.919599999999999795e+01 1.645704999999999814e+02 1.862704999999999927e+03
1.489999999999999936e-01 1.664525000000000032e-01 1.837190000000000012e+01 1.634705000000000155e+02 1.862375000000000000e+03
1.499999999999999944e-01 1.664045000000000107e-01 1.754449999999999932e+01 1.623185000000000002e+02 1.862029999999999973e+03
1.509999999999999953e-01 1.663545000000000162e-01 1.671355000000000146e+01 1.611154999999999973e+02 1.861664999999999964e+03
1.519999999999999962e-01 1.663020000000000054e-01 1.587920000000000087e+01 1.598644999999999925e+02 1.861284999999999854e+03
1.529999999999999971e-01 1.662474999999999925e-01 1.504214999999999947e+01 1.585670000000000073e+02 1.860894999999999982e+03
1.539999999999999980e-01 1.661910000000000054e-01 1.420364999999999966e+01 1.572280000000000086e+02 1.860485000000000127e+03
1.549999999999999989e-01 1.661325000000000163e-01 1.336540000000000106e+01 1.558520000000000039e+02 1.860065000000000055e+03
1.559999999999999998e-01 1.660730000000000262e-01 1.252965000000000018e+01 1.544465000000000146e+02 1.859625000000000000e+03
1.570000000000000007e-01 1.660110000000000197e-01 1.169914999999999949e+01 1.530174999999999841e+02 1.859184999999999945e+03
1.580000000000000016e-01 1.659484999999999988e-01 1.087692000000000014e+01 1.515734999999999957e+02 1.858730000000000018e+03
1.590000000000000024e-01 1.658850000000000047e-01 1.006635499999999972e+01 1.501225000000000023e+02 1.858275000000000091e+03
