# t [s], A [cm^2], U [cm/s], P [cPa], c [cm/s]
1.000000000000000021e-03 1.495670000000000055e-01 2.185194999999999776e-01 9.170140000000000668e+01 1.767550000000000182e+03
2.000000000000000042e-03 1.495515000000000039e-01 1.529755500000000046e+00 8.918784999999999741e+01 1.767404999999999973e+03
3.000000000000000062e-03 1.494725000000000081e-01 3.158546000000000298e+00 8.597480000000000189e+01 1.766724999999999909e+03
4.000000000000000083e-03 1.493470000000000075e-01 4.965485449999999190e+00 8.229544999999998822e+01 1.765659999999999854e+03
5.000000000000000104e-03 1.491959999999999953e-01 6.908924999999999983e+00 7.868805000000000405e+01 1.764389999999999873e+03
6.000000000000000125e-03 1.490360000000000018e-01 8.922155000000000058e+00 7.550274999999999181e+01 1.763054999999999836e+03
7.000000000000000146e-03 1.488780000000000103e-01 1.089414000000000016e+01 7.280369999999999209e+01 1.761750000000000000e+03
8.000000000000000167e-03 1.487260000000000248e-01 1.271486000000000161e+01 7.046460000000000434e+01 1.760514999999999873e+03
9.000000000000001055e-03 1.485825000000000062e-01 1.433212999999999937e+01 6.836305000000000121e+01 1.759360000000000127e+03
1.000000000000000194e-02 1.484504999999999852e-01 1.575144999999999840e+01 6.648255000000000337e+01 1.758309999999999945e+03
1.099999999999999936e-02 1.483315000000000050e-01 1.699244999999999806e+01 6.485384999999999422e+01 1.757375000000000000e+03
1.200000000000000025e-02 1.482275000000000120e-01 1.806534999999999869e+01 6.348055000000000092e+01 1.756559999999999945e+03
1.300000000000000114e-02 1.481374999999999775e-01 1.897540000000000049e+01 6.233520000000000039e+01 1.755865000000000009e+03
1.400000000000000203e-02 1.480604999999999838e-01 1.972654999999999959e+01 6.137675000000000125e+01 1.755280000000000200e+03
1.499999999999999944e-02 1.479945000000000010e-01 2.032204999999999728e+01 6.055644999999999811e+01 1.754780000000000200e+03
1.600000000000000033e-02 1.479380000000000139e-01 2.077080000000000126e+01 5.982905000000000229e+01 1.754360000000000127e+03
1.700000000000000122e-02 1.478895000000000071e-01 2.109895000000000209e+01 5.918295000000000528e+01 1.754000000000000000e+03
1.800000000000000211e-02 1.478490000000000082e-01 2.135645000000000238e+01 5.866854999999999620e+01 1.753704999999999927e+03
1.900000000000000300e-02 1.478185000000000193e-01 2.160889999999999844e+01 5.839520000000000266e+01 1.753489999999999782e+03
2.000000000000000042e-02 1.478019999999999889e-01 2.191774999999999807e+01 5.849009999999999820e+01 1.753375000000000000e+03
2.100000000000000130e-02 1.478025000000000033e-01 2.231985000000000241e+01 5.904120000000000346e+01 1.753394999999999982e+03
2.200000000000000219e-02 1.478204999999999936e-01 2.281564999999999799e+01 6.005254999999999654e+01 1.753539999999999964e+03
2.299999999999999961e-02 1.478555000000000008e-01 2.337000000000000099e+01 6.143144999999999811e+01 1.753820000000000164e+03
2.400000000000000050e-02 1.479039999999999799e-01 2.392425000000000068e+01 6.300825000000000387e+01 1.754199999999999818e+03
2.500000000000000139e-02 1.479584999999999928e-01 2.441335000000000122e+01 6.457935000000000514e+01 1.754639999999999873e+03
2.600000000000000228e-02 1.480150000000000077e-01 2.478224999999999767e+01 6.595494999999999663e+01 1.755085000000000036e+03
2.700000000000000316e-02 1.480654999999999888e-01 2.499730000000000274e+01 6.699924999999998931e+01 1.755500000000000000e+03
2.800000000000000058e-02 1.481075000000000030e-01 2.505105000000000004e+01 6.765180000000000859e+01 1.755840000000000146e+03
2.900000000000000147e-02 1.481385000000000063e-01 2.495920000000000272e+01 6.792810000000000059e+01 1.756105000000000018e+03
3.000000000000000236e-02 1.481584999999999985e-01 2.475290000000000035e+01 6.790210000000000434e+01 1.756275000000000091e+03
3.099999999999999978e-02 1.481689999999999952e-01 2.446824999999999761e+01 6.767695000000000505e+01 1.756369999999999891e+03
3.200000000000000067e-02 1.481724999999999848e-01 2.413680000000000092e+01 6.735479999999999734e+01 1.756409999999999854e+03
3.300000000000000155e-02 1.481709999999999972e-01 2.377904999999999802e+01 6.701214999999999122e+01 1.756404999999999973e+03
3.400000000000000244e-02 1.481669999999999932e-01 2.340230000000000032e+01 6.668710000000000093e+01 1.756380000000000109e+03
3.500000000000000333e-02 1.481615000000000015e-01 2.300294999999999845e+01 6.637944999999999141e+01 1.756340000000000146e+03
3.600000000000000422e-02 1.481540000000000079e-01 2.257085000000000008e+01 6.606149999999999523e+01 1.756284999999999854e+03
3.700000000000000511e-02 1.481439999999999979e-01 2.209595000000000198e+01 6.569419999999999504e+01 1.756210000000000036e+03
3.799999999999999906e-02 1.481310000000000127e-01 2.157370000000000232e+01 6.524575000000000102e+01 1.756115000000000009e+03
3.899999999999999994e-02 1.481144999999999823e-01 2.100925000000000153e+01 6.470584999999999809e+01 1.755990000000000009e+03
4.000000000000000083e-02 1.480940000000000034e-01 2.041864999999999952e+01 6.409364999999999668e+01 1.755835000000000036e+03
4.100000000000000172e-02 1.480719999999999814e-01 1.982784999999999798e+01 6.345790000000000219e+01 1.755664999999999964e+03
4.200000000000000261e-02 1.480489999999999862e-01 1.926849999999999952e+01 6.286939999999999884e+01 1.755490000000000009e+03
4.300000000000000350e-02 1.480279999999999929e-01 1.877315000000000111e+01 6.240770000000000550e+01 1.755325000000000045e+03
4.400000000000000439e-02 1.480114999999999903e-01 1.836930000000000263e+01 6.214569999999999794e+01 1.755194999999999936e+03
4.499999999999999833e-02 1.480020000000000224e-01 1.807484999999999786e+01 6.213500000000000512e+01 1.755115000000000009e+03
4.599999999999999922e-02 1.480009999999999937e-01 1.789519999999999911e+01 6.239589999999999748e+01 1.755105000000000018e+03
4.700000000000000011e-02 1.480090000000000017e-01 1.782224999999999682e+01 6.291290000000000049e+01 1.755164999999999964e+03
4.800000000000000100e-02 1.480259999999999909e-01 1.783590000000000231e+01 6.363654999999999973e+01 1.755285000000000082e+03
4.900000000000000189e-02 1.480505000000000015e-01 1.790715000000000146e+01 6.449109999999998877e+01 1.755470000000000027e+03
5.000000000000000278e-02 1.480799999999999894e-01 1.800189999999999912e+01 6.538500000000000512e+01 1.755690000000000055e+03
5.100000000000000366e-02 1.481109999999999927e-01 1.808524999999999849e+01 6.622339999999999804e+01 1.755934999999999945e+03
5.200000000000000455e-02 1.481409999999999949e-01 1.812509999999999977e+01 6.691925000000000523e+01 1.756164999999999964e+03
5.300000000000000544e-02 1.481664999999999788e-01 1.809499999999999886e+01 6.740200000000000102e+01 1.756364999999999782e+03
5.399999999999999939e-02 1.481859999999999844e-01 1.797569999999999979e+01 6.762305000000000632e+01 1.756514999999999873e+03
5.500000000000000028e-02 1.481959999999999944e-01 1.775574999999999903e+01 6.755754999999999200e+01 1.756605000000000018e+03
5.600000000000000117e-02 1.481965000000000088e-01 1.743095000000000283e+01 6.720279999999999632e+01 1.756610000000000127e+03
5.700000000000000205e-02 1.481864999999999988e-01 1.700339999999999918e+01 6.657465000000000543e+01 1.756535000000000082e+03
5.800000000000000294e-02 1.481664999999999788e-01 1.647974999999999923e+01 6.570250000000000057e+01 1.756384999999999991e+03
5.900000000000000383e-02 1.481370000000000187e-01 1.587024999999999864e+01 6.462409999999999854e+01 1.756154999999999973e+03
6.000000000000000472e-02 1.480985000000000218e-01 1.518729999999999869e+01 6.338134999999999764e+01 1.755865000000000009e+03
6.099999999999999867e-02 1.480529999999999902e-01 1.444484999999999886e+01 6.201670000000000016e+01 1.755509999999999991e+03
6.199999999999999956e-02 1.480019999999999947e-01 1.365784999999999982e+01 6.057174999999999443e+01 1.755110000000000127e+03
6.300000000000000044e-02 1.479459999999999942e-01 1.284205000000000041e+01 5.908629999999999427e+01 1.754674999999999955e+03
6.400000000000000133e-02 1.478875000000000051e-01 1.201434000000000069e+01 5.759904999999999831e+01 1.754220000000000027e+03
6.500000000000000222e-02 1.478275000000000006e-01 1.119273000000000096e+01 5.614835000000000065e+01 1.753750000000000000e+03
6.600000000000000311e-02 1.477680000000000105e-01 1.039645499999999956e+01 5.477309999999999945e+01 1.753284999999999854e+03
6.700000000000000400e-02 1.477100000000000080e-01 9.645925000000000082e+00 5.351340000000000430e+01 1.752829999999999927e+03
6.800000000000000488e-02 1.476560000000000095e-01 8.962455000000000283e+00 5.241079999999999472e+01 1.752404999999999973e+03
6.900000000000000577e-02 1.476069999999999882e-01 8.367795000000000982e+00 5.150764999999999816e+01 1.752025000000000091e+03
7.000000000000000666e-02 1.475654999999999883e-01 7.883460000000000356e+00 5.084605000000000530e+01 1.751690000000000055e+03
7.100000000000000755e-02 1.475334999999999841e-01 7.529840000000000089e+00 5.046614999999999895e+01 1.751434999999999945e+03
7.200000000000000844e-02 1.475115000000000176e-01 7.325489999999999391e+00 5.040435000000000088e+01 1.751259999999999991e+03
7.300000000000000933e-02 1.475020000000000220e-01 7.286170000000000258e+00 5.069140000000000157e+01 1.751170000000000073e+03
7.399999999999999634e-02 1.475059999999999982e-01 7.424160000000000537e+00 5.135044999999999504e+01 1.751194999999999936e+03
7.499999999999999722e-02 1.475245000000000029e-01 7.747659999999999769e+00 5.239584999999999582e+01 1.751329999999999927e+03
7.599999999999999811e-02 1.475589999999999957e-01 8.260440000000000893e+00 5.383235000000000525e+01 1.751585000000000036e+03
7.699999999999999900e-02 1.476089999999999902e-01 8.961669999999999803e+00 5.565439999999999543e+01 1.751969999999999800e+03
7.799999999999999989e-02 1.476750000000000007e-01 9.846099999999999852e+00 5.784685000000000343e+01 1.752470000000000027e+03
7.900000000000000078e-02 1.477565000000000128e-01 1.090421500000000066e+01 6.038564999999999827e+01 1.753094999999999800e+03
8.000000000000000167e-02 1.478524999999999978e-01 1.212276999999999916e+01 6.323905000000000598e+01 1.753835000000000036e+03
8.100000000000000255e-02 1.479624999999999968e-01 1.348560000000000159e+01 6.636934999999999718e+01 1.754684999999999945e+03
8.200000000000000344e-02 1.480845000000000078e-01 1.497409999999999997e+01 6.973480000000000700e+01 1.755634999999999991e+03
8.300000000000000433e-02 1.482179999999999886e-01 1.656804999999999950e+01 7.329134999999999422e+01 1.756680000000000064e+03
8.400000000000000522e-02 1.483609999999999929e-01 1.824660000000000082e+01 7.699490000000000123e+01 1.757789999999999964e+03
8.500000000000000611e-02 1.485120000000000051e-01 1.998884999999999934e+01 8.080264999999999986e+01 1.758969999999999800e+03
8.600000000000000699e-02 1.486684999999999812e-01 2.177454999999999785e+01 8.467520000000000380e+01 1.760200000000000045e+03
8.700000000000000788e-02 1.488295000000000035e-01 2.358480000000000132e+01 8.857724999999999227e+01 1.761469999999999800e+03
8.800000000000000877e-02 1.489935000000000009e-01 2.540245000000000175e+01 9.247910000000000252e+01 1.762764999999999873e+03
8.899999999999999578e-02 1.491589999999999860e-01 2.721245000000000047e+01 9.635649999999999693e+01 1.764074999999999818e+03
8.999999999999999667e-02 1.493254999999999999e-01 2.900199999999999889e+01 1.001913499999999999e+02 1.765400000000000091e+03
9.099999999999999756e-02 1.494914999999999994e-01 3.076059999999999661e+01 1.039707500000000095e+02 1.766720000000000027e+03
9.199999999999999845e-02 1.496569999999999845e-01 3.247999999999999687e+01 1.076869999999999976e+02 1.768039999999999964e+03
9.299999999999999933e-02 1.498209999999999820e-01 3.415390000000000015e+01 1.113375000000000057e+02 1.769349999999999909e+03
9.400000000000000022e-02 1.499830000000000052e-01 3.577774999999999750e+01 1.149215000000000089e+02 1.770640000000000100e+03
9.500000000000000111e-02 1.501429999999999987e-01 3.734844999999999970e+01 1.184405000000000001e+02 1.771925000000000182e+03
9.600000000000000200e-02 1.503010000000000179e-01 3.886384999999999934e+01 1.218984999999999843e+02 1.773199999999999818e+03
9.700000000000000289e-02 1.504570000000000074e-01 4.032260000000000133e+01 1.252980000000000018e+02 1.774449999999999818e+03
9.800000000000000377e-02 1.506104999999999805e-01 4.172360000000000468e+01 1.286419999999999959e+02 1.775695000000000164e+03
9.900000000000000466e-02 1.507625000000000215e-01 4.306589999999999918e+01 1.319304999999999950e+02 1.776920000000000073e+03
1.000000000000000056e-01 1.509114999999999762e-01 4.434839999999999804e+01 1.351634999999999991e+02 1.778130000000000109e+03
1.010000000000000064e-01 1.510589999999999988e-01 4.556985000000000241e+01 1.383385000000000105e+02 1.779319999999999936e+03
1.020000000000000073e-01 1.512040000000000051e-01 4.672860000000000014e+01 1.414495000000000005e+02 1.780494999999999891e+03
1.030000000000000082e-01 1.513464999999999949e-01 4.782249999999999801e+01 1.444909999999999854e+02 1.781650000000000091e+03
1.040000000000000091e-01 1.514860000000000095e-01 4.884909999999999997e+01 1.474544999999999959e+02 1.782784999999999854e+03
1.050000000000000100e-01 1.516219999999999790e-01 4.980564999999999998e+01 1.503299999999999841e+02 1.783894999999999982e+03
1.059999999999999970e-01 1.517545000000000144e-01 5.068904999999999461e+01 1.531069999999999993e+02 1.784980000000000018e+03
1.069999999999999979e-01 1.518835000000000046e-01 5.149609999999999843e+01 1.557740000000000009e+02 1.786030000000000200e+03
1.079999999999999988e-01 1.520075000000000176e-01 5.222355000000000302e+01 1.583195000000000050e+02 1.787039999999999964e+03
1.089999999999999997e-01 1.521270000000000122e-01 5.286809999999999832e+01 1.607334999999999923e+02 1.788019999999999982e+03
1.100000000000000006e-01 1.522405000000000008e-01 5.342660000000000053e+01 1.630040000000000191e+02 1.788950000000000045e+03
1.110000000000000014e-01 1.523484999999999978e-01 5.389634999999999820e+01 1.651214999999999975e+02 1.789840000000000146e+03
1.120000000000000023e-01 1.524499999999999744e-01 5.427490000000000236e+01 1.670769999999999982e+02 1.790674999999999955e+03
1.130000000000000032e-01 1.525449999999999862e-01 5.456015000000000015e+01 1.688629999999999995e+02 1.791454999999999927e+03
1.140000000000000041e-01 1.526329999999999909e-01 5.475099999999999767e+01 1.704730000000000132e+02 1.792179999999999836e+03
1.150000000000000050e-01 1.527129999999999876e-01 5.484659999999999513e+01 1.719035000000000082e+02 1.792845000000000027e+03
1.160000000000000059e-01 1.527860000000000051e-01 5.484714999999999918e+01 1.731500000000000057e+02 1.793450000000000045e+03
1.170000000000000068e-01 1.528510000000000146e-01 5.475374999999999659e+01 1.742144999999999868e+02 1.793990000000000009e+03
1.180000000000000077e-01 1.529079999999999884e-01 5.456834999999999525e+01 1.750970000000000084e+02 1.794470000000000027e+03
1.190000000000000085e-01 1.529575000000000240e-01 5.429380000000000450e+01 1.758009999999999877e+02 1.794880000000000109e+03
1.200000000000000094e-01 1.529989999999999961e-01 5.393415000000000248e+01 1.763335000000000150e+02 1.795230000000000018e+03
1.209999999999999964e-01 1.530334999999999890e-01 5.349415000000000475e+01 1.767019999999999982e+02 1.795519999999999982e+03
1.219999999999999973e-01 1.530604999999999882e-01 5.297970000000000113e+01 1.769170000000000016e+02 1.795744999999999891e+03
1.229999999999999982e-01 1.530799999999999939e-01 5.239730000000000132e+01 1.769900000000000091e+02 1.795914999999999964e+03
1.239999999999999991e-01 1.530934999999999935e-01 5.175430000000000064e+01 1.769339999999999975e+02 1.796039999999999964e+03
1.250000000000000000e-01 1.531009999999999871e-01 5.105830000000000268e+01 1.767640000000000100e+02 1.796105000000000018e+03
1.260000000000000009e-01 1.531025000000000025e-01 5.031735000000000468e+01 1.764939999999999998e+02 1.796130000000000109e+03
1.270000000000000018e-01 1.531000000000000139e-01 4.953969999999999629e+01 1.761394999999999982e+02 1.796110000000000127e+03
1.280000000000000027e-01 1.530924999999999925e-01 4.873329999999999984e+01 1.757155000000000200e+02 1.796059999999999945e+03
1.290000000000000036e-01 1.530814999999999815e-01 4.790600000000000591e+01 1.752365000000000066e+02 1.795970000000000027e+03
1.300000000000000044e-01 1.530675000000000230e-01 4.706510000000000105e+01 1.747144999999999868e+02 1.795860000000000127e+03
1.310000000000000053e-01 1.530509999999999926e-01 4.621724999999999994e+01 1.741614999999999895e+02 1.795730000000000018e+03
1.320000000000000062e-01 1.530320000000000014e-01 4.536840000000000117e+01 1.735879999999999939e+02 1.795579999999999927e+03
1.330000000000000071e-01 1.530119999999999814e-01 4.452355000000000018e+01 1.730015000000000214e+02 1.795409999999999854e+03
1.340000000000000080e-01 1.529900000000000149e-01 4.368684999999999974e+01 1.724085000000000036e+02 1.795235000000000127e+03
1.350000000000000089e-01 1.529675000000000062e-01 4.286140000000000327e+01 1.718125000000000000e+02 1.795055000000000064e+03
1.360000000000000098e-01 1.529444999999999832e-01 4.204940000000000566e+01 1.712169999999999845e+02 1.794860000000000127e+03
1.370000000000000107e-01 1.529205000000000148e-01 4.125194999999999368e+01 1.706215000000000259e+02 1.794664999999999964e+03
1.380000000000000115e-01 1.528955000000000175e-01 4.046949999999999648e+01 1.700250000000000057e+02 1.794464999999999918e+03
1.390000000000000124e-01 1.528710000000000069e-01 3.970145000000000124e+01 1.694244999999999948e+02 1.794260000000000218e+03
1.400000000000000133e-01 1.528454999999999953e-01 3.894664999999999822e+01 1.688170000000000073e+02 1.794055000000000064e+03
1.410000000000000142e-01 1.528200000000000114e-01 3.820335000000000036e+01 1.681965000000000146e+02 1.793840000000000146e+03
1.420000000000000151e-01 1.527930000000000121e-01 3.746929999999999694e+01 1.675589999999999975e+02 1.793619999999999891e+03
1.430000000000000160e-01 1.527654999999999985e-01 3.674195000000000277e+01 1.668979999999999961e+02 1.793394999999999982e+03
1.440000000000000169e-01 1.527370000000000116e-01 3.601855000000000473e+01 1.662090000000000032e+02 1.793160000000000082e+03
1.450000000000000178e-01 1.527074999999999960e-01 3.529630000000000223e+01 1.654845000000000255e+02 1.792914999999999964e+03
1.459999999999999909e-01 1.526759999999999784e-01 3.457240000000000180e+01 1.647205000000000155e+02 1.792660000000000082e+03
1.469999999999999918e-01 1.526430000000000009e-01 3.384440000000000026e+01 1.639130000000000109e+02 1.792389999999999873e+03
1.479999999999999927e-01 1.526084999999999803e-01 3.310999999999999943e+01 1.630570000000000164e+02 1.792105000000000018e+03
1.489999999999999936e-01 1.525714999999999988e-01 3.236719999999999686e+01 1.621514999999999986e+02 1.791805000000000064e+03
1.499999999999999944e-01 1.525330000000000019e-01 3.161465000000000103e+01 1.611935000000000002e+02 1.791485000000000127e+03
1.509999999999999953e-01 1.524919999999999887e-01 3.085139999999999816e+01 1.601829999999999927e+02 1.791154999999999973e+03
1.519999999999999962e-01 1.524490000000000012e-01 3.007715000000000316e+01 1.591215000000000259e+02 1.790800000000000182e+03
1.529999999999999971e-01 1.524034999999999973e-01 2.929204999999999970e+01 1.580099999999999909e+02 1.790429999999999836e+03
1.539999999999999980e-01 1.523559999999999914e-01 2.849705000000000155e+01 1.568530000000000086e+02 1.790045000000000073e+03
1.549999999999999989e-01 1.523070000000000257e-01 2.769355000000000189e+01 1.556544999999999845e+02 1.789644999999999982e+03
1.559999999999999998e-01 1.522554999999999881e-01 2.688360000000000127e+01 1.544194999999999993e+02 1.789230000000000018e+03
1.570000000000000007e-01 1.522025000000000183e-01 2.606980000000000075e+01 1.531560000000000059e+02 1.788800000000000182e+03
1.580000000000000016e-01 1.521485000000000198e-01 2.525520000000000209e+01 1.518709999999999809e+02 1.788355000000000018e+03
1.590000000000000024e-01 1.520930000000000060e-01 2.444330000000000069e+01 1.505724999999999909e+02 1.787909999999999854e+03
