# t [s], A [cm^2], U [cm/s], P [cPa], c [cm/s]
1.000000000000000021e-03 7.482940000000000147e-01 5.389499999999998459e-03 1.012290000000000134e+02 1.669615000000000009e+03
2.000000000000000042e-03 7.482855000000000478e-01 6.567499999999999553e-03 1.012000000000000028e+02 1.669605000000000018e+03
3.000000000000000062e-03 7.483755000000000823e-01 1.543421999999999850e-01 1.013629999999999995e+02 1.669639999999999873e+03
4.000000000000000083e-03 7.484094999999999498e-01 2.335499999999999798e-01 1.014484999999999957e+02 1.669660000000000082e+03
5.000000000000000104e-03 7.483234999999999193e-01 1.324750000000000094e-01 1.012349999999999994e+02 1.669619999999999891e+03
6.000000000000000125e-03 7.482214999999999838e-01 -6.249499999999963418e-03 1.008619999999999948e+02 1.669549999999999955e+03
7.000000000000000146e-03 7.481020000000000447e-01 -1.876300000000000745e-01 1.003567000000000036e+02 1.669449999999999818e+03
8.000000000000000167e-03 7.478845000000000631e-01 -5.452000000000001290e-01 9.954110000000000014e+01 1.669289999999999964e+03
9.000000000000001055e-03 7.475694999999999979e-01 -1.075619999999999798e+00 9.835620000000000118e+01 1.669054999999999836e+03
1.000000000000000194e-02 7.471460000000000878e-01 -1.779170000000000140e+00 9.674859999999999616e+01 1.668730000000000018e+03
1.099999999999999936e-02 7.465794999999999515e-01 -2.684474999999999945e+00 9.462354999999999450e+01 1.668295000000000073e+03
1.200000000000000025e-02 7.459000000000000075e-01 -3.712239999999999984e+00 9.202009999999999934e+01 1.667755000000000109e+03
1.300000000000000114e-02 7.452220000000000510e-01 -4.638524499999999939e+00 8.921424999999999272e+01 1.667150000000000091e+03
1.400000000000000203e-02 7.446675000000000377e-01 -5.216301099999999913e+00 8.659184999999999377e+01 1.666559999999999945e+03
1.499999999999999944e-02 7.442954999999999988e-01 -5.310889999999999667e+00 8.444544999999999391e+01 1.666039999999999964e+03
1.600000000000000033e-02 7.440780000000000172e-01 -4.945034999999999847e+00 8.285320000000000107e+01 1.665610000000000127e+03
1.700000000000000122e-02 7.439299999999999802e-01 -4.262710000000000221e+00 8.168084999999999241e+01 1.665264999999999873e+03
1.800000000000000211e-02 7.437534999999999563e-01 -3.454599999999999671e+00 8.066585000000000605e+01 1.664954999999999927e+03
1.900000000000000300e-02 7.434760000000000257e-01 -2.679311999999999916e+00 7.953749999999999432e+01 1.664634999999999991e+03
2.000000000000000042e-02 7.430780000000000163e-01 -2.007705000000000073e+00 7.812694999999999368e+01 1.664264999999999873e+03
2.100000000000000130e-02 7.425920000000000298e-01 -1.414309999999999956e+00 7.641759999999999309e+01 1.663839999999999918e+03
2.200000000000000219e-02 7.420759999999999579e-01 -8.179600000000002424e-01 7.451715000000000089e+01 1.663375000000000000e+03
2.299999999999999961e-02 7.415815000000000046e-01 -1.439499999999998003e-01 7.257509999999999195e+01 1.662894999999999982e+03
2.400000000000000050e-02 7.411265000000000214e-01 6.265000000000000568e-01 7.069559999999999889e+01 1.662420000000000073e+03
2.500000000000000139e-02 7.406909999999999883e-01 1.437669999999999781e+00 6.888335000000000719e+01 1.661960000000000036e+03
2.600000000000000228e-02 7.402230000000000754e-01 2.170799999999999841e+00 6.703340000000000032e+01 1.661490000000000009e+03
2.700000000000000316e-02 7.396579999999999266e-01 2.676244999999999763e+00 6.496115000000000350e+01 1.660974999999999909e+03
2.800000000000000058e-02 7.389384999999999426e-01 2.815600000000000325e+00 6.245960000000000178e+01 1.660384999999999991e+03
2.900000000000000147e-02 7.380335000000000090e-01 2.502630000000000354e+00 5.936769999999999925e+01 1.659684999999999945e+03
3.000000000000000236e-02 7.369504999999999528e-01 1.730620000000000047e+00 5.562969999999999970e+01 1.658849999999999909e+03
3.099999999999999978e-02 7.357359999999999456e-01 5.766000000000000014e-01 5.132475000000000165e+01 1.657905000000000200e+03
3.200000000000000067e-02 7.344669999999999810e-01 -8.183000000000006935e-01 4.665704999999999814e+01 1.656865000000000009e+03
3.300000000000000155e-02 7.332300000000000484e-01 -2.283380000000000187e+00 4.191420000000000101e+01 1.655805000000000064e+03
3.400000000000000244e-02 7.321060000000000345e-01 -3.652855000000000629e+00 3.741134999999999877e+01 1.654769999999999982e+03
3.500000000000000333e-02 7.311590000000000034e-01 -4.791745000000000587e+00 3.343910000000000338e+01 1.653825000000000045e+03
3.600000000000000422e-02 7.304304999999999826e-01 -5.608049999999999535e+00 3.022579999999999956e+01 1.653029999999999973e+03
3.700000000000000511e-02 7.299394999999999634e-01 -6.053300000000000125e+00 2.791925000000000168e+01 1.652414999999999964e+03
3.799999999999999906e-02 7.296884999999999621e-01 -6.115009999999999835e+00 2.658554999999999779e+01 1.652005000000000109e+03
3.899999999999999994e-02 7.296650000000000080e-01 -5.804159999999999542e+00 2.622220000000000084e+01 1.651809999999999945e+03
4.000000000000000083e-02 7.298529999999999740e-01 -5.142949999999999910e+00 2.677834999999999965e+01 1.651825000000000045e+03
4.100000000000000172e-02 7.302325000000000621e-01 -4.155148999999999759e+00 2.817695000000000149e+01 1.652035000000000082e+03
4.200000000000000261e-02 7.307854999999999768e-01 -2.861759999999999415e+00 3.033194999999999908e+01 1.652430000000000064e+03
4.300000000000000350e-02 7.314950000000000063e-01 -1.281885000000000385e+00 3.315740000000000265e+01 1.652984999999999900e+03
4.400000000000000439e-02 7.323435000000000361e-01 5.626500000000005386e-01 3.656880000000000308e+01 1.653690000000000055e+03
4.499999999999999833e-02 7.333110000000000461e-01 2.641809999999999548e+00 4.047879999999999967e+01 1.654515000000000100e+03
4.599999999999999922e-02 7.343739999999999712e-01 4.913560000000000372e+00 4.479214999999999947e+01 1.655450000000000045e+03
4.700000000000000011e-02 7.355030000000000179e-01 7.323125000000000107e+00 4.940234999999999843e+01 1.656465000000000146e+03
4.800000000000000100e-02 7.366679999999999895e-01 9.805883499999998421e+00 5.419290000000000163e+01 1.657534999999999854e+03
4.900000000000000189e-02 7.378359999999999363e-01 1.229264000000000046e+01 5.904229999999999734e+01 1.658640000000000100e+03
5.000000000000000278e-02 7.389784999999999826e-01 1.471578999999999837e+01 6.383214999999999861e+01 1.659744999999999891e+03
5.100000000000000366e-02 7.400700000000000056e-01 1.701575499999999863e+01 6.845624999999999716e+01 1.660829999999999927e+03
5.200000000000000455e-02 7.410934999999999606e-01 1.914520000000000266e+01 7.282920000000000016e+01 1.661875000000000000e+03
5.300000000000000544e-02 7.420375000000000165e-01 2.107179999999999964e+01 7.689149999999999352e+01 1.662865000000000009e+03
5.399999999999999939e-02 7.428995000000000459e-01 2.277884999999999849e+01 8.061244999999999550e+01 1.663784999999999854e+03
5.500000000000000028e-02 7.436825000000000241e-01 2.426350000000000051e+01 8.398924999999999841e+01 1.664634999999999991e+03
5.600000000000000117e-02 7.443944999999999590e-01 2.553490000000000038e+01 8.704325000000000045e+01 1.665414999999999964e+03
5.700000000000000205e-02 7.450485000000000024e-01 2.661119999999999663e+01 8.981539999999999679e+01 1.666134999999999991e+03
5.800000000000000294e-02 7.456575000000000841e-01 2.751719999999999899e+01 9.236074999999999591e+01 1.666799999999999955e+03
5.900000000000000383e-02 7.462379999999999569e-01 2.828225000000000122e+01 9.474295000000000755e+01 1.667420000000000073e+03
6.000000000000000472e-02 7.468055000000000110e-01 2.893860000000000099e+01 9.703005000000000280e+01 1.668019999999999982e+03
6.099999999999999867e-02 7.473764999999999992e-01 2.951989999999999981e+01 9.929019999999999868e+01 1.668599999999999909e+03
6.199999999999999956e-02 7.479655000000000609e-01 3.005910000000000082e+01 1.015878999999999905e+02 1.669184999999999945e+03
6.300000000000000044e-02 7.485850000000000559e-01 3.058709999999999951e+01 1.039795000000000016e+02 1.669784999999999854e+03
6.400000000000000133e-02 7.492450000000000498e-01 3.112980000000000302e+01 1.065105000000000075e+02 1.670414999999999964e+03
6.500000000000000222e-02 7.499510000000000343e-01 3.170660000000000167e+01 1.092109999999999985e+02 1.671070000000000164e+03
6.600000000000000311e-02 7.507030000000000092e-01 3.232805000000000462e+01 1.120925000000000011e+02 1.671769999999999982e+03
6.700000000000000400e-02 7.514974999999999294e-01 3.299539999999999651e+01 1.151465000000000032e+02 1.672500000000000000e+03
6.800000000000000488e-02 7.523250000000000215e-01 3.370015000000000072e+01 1.183449999999999989e+02 1.673269999999999982e+03
6.900000000000000577e-02 7.531719999999999526e-01 3.442524999999999835e+01 1.216419999999999959e+02 1.674054999999999836e+03
7.000000000000000666e-02 7.540229999999999988e-01 3.514719999999999800e+01 1.249775000000000063e+02 1.674860000000000127e+03
7.100000000000000755e-02 7.548580000000000290e-01 3.583764999999999645e+01 1.282814999999999941e+02 1.675654999999999973e+03
7.200000000000000844e-02 7.556599999999999984e-01 3.646665000000000134e+01 1.314790000000000134e+02 1.676440000000000055e+03
7.300000000000000933e-02 7.564115000000000144e-01 3.700480000000000302e+01 1.344979999999999905e+02 1.677179999999999836e+03
7.399999999999999634e-02 7.570959999999999912e-01 3.742520000000000380e+01 1.372715000000000032e+02 1.677880000000000109e+03
7.499999999999999722e-02 7.577019999999999866e-01 3.770555000000000234e+01 1.397429999999999950e+02 1.678509999999999991e+03
7.599999999999999811e-02 7.582195000000000462e-01 3.782920000000000016e+01 1.418695000000000164e+02 1.679065000000000055e+03
7.699999999999999900e-02 7.586444999999999439e-01 3.778579999999999472e+01 1.436235000000000070e+02 1.679534999999999854e+03
7.799999999999999989e-02 7.589744999999999964e-01 3.757184999999999775e+01 1.449925000000000068e+02 1.679920000000000073e+03
7.900000000000000078e-02 7.592130000000000267e-01 3.719055000000000177e+01 1.459809999999999945e+02 1.680220000000000027e+03
8.000000000000000167e-02 7.593640000000000390e-01 3.665155000000000030e+01 1.466069999999999993e+02 1.680434999999999945e+03
8.100000000000000255e-02 7.594374999999999876e-01 3.596999999999999886e+01 1.469030000000000200e+02 1.680565000000000055e+03
8.200000000000000344e-02 7.594440000000000079e-01 3.516624999999999801e+01 1.469105000000000132e+02 1.680625000000000000e+03
8.300000000000000433e-02 7.593969999999999887e-01 3.426415000000000077e+01 1.466800000000000068e+02 1.680619999999999891e+03
8.400000000000000522e-02 7.593084999999999418e-01 3.329005000000000081e+01 1.462674999999999841e+02 1.680569999999999936e+03
8.500000000000000611e-02 7.591935000000000766e-01 3.227159999999999940e+01 1.457295000000000016e+02 1.680480000000000018e+03
8.600000000000000699e-02 7.590654999999999486e-01 3.123604999999999876e+01 1.451225000000000023e+02 1.680369999999999891e+03
8.700000000000000788e-02 7.589365000000000139e-01 3.020925000000000082e+01 1.445000000000000000e+02 1.680244999999999891e+03
8.800000000000000877e-02 7.588179999999999925e-01 2.921419999999999817e+01 1.439095000000000084e+02 1.680115000000000009e+03
8.899999999999999578e-02 7.587180000000000035e-01 2.827014999999999745e+01 1.433894999999999982e+02 1.680000000000000000e+03
8.999999999999999667e-02 7.586435000000000262e-01 2.739164999999999850e+01 1.429694999999999823e+02 1.679900000000000091e+03
9.099999999999999756e-02 7.585969999999999658e-01 2.658849999999999980e+01 1.426674999999999898e+02 1.679825000000000045e+03
9.199999999999999845e-02 7.585800000000000320e-01 2.586509999999999820e+01 1.424929999999999950e+02 1.679769999999999982e+03
9.299999999999999933e-02 7.585910000000000153e-01 2.522094999999999843e+01 1.424424999999999955e+02 1.679744999999999891e+03
9.400000000000000022e-02 7.586265000000000924e-01 2.465070000000000050e+01 1.425054999999999836e+02 1.679744999999999891e+03
9.500000000000000111e-02 7.586820000000000785e-01 2.414499999999999957e+01 1.426624999999999943e+02 1.679764999999999873e+03
9.600000000000000200e-02 7.587490000000000068e-01 2.369099999999999895e+01 1.428860000000000241e+02 1.679800000000000182e+03
9.700000000000000289e-02 7.588209999999999678e-01 2.327329999999999899e+01 1.431454999999999984e+02 1.679849999999999909e+03
9.800000000000000377e-02 7.588889999999999247e-01 2.287500000000000000e+01 1.434069999999999823e+02 1.679900000000000091e+03
9.900000000000000466e-02 7.589440000000000630e-01 2.247850000000000037e+01 1.436349999999999909e+02 1.679949999999999818e+03
1.000000000000000056e-01 7.589795000000000291e-01 2.206660000000000110e+01 1.437959999999999923e+02 1.679985000000000127e+03
1.010000000000000064e-01 7.589865000000000084e-01 2.162359999999999971e+01 1.438600000000000136e+02 1.680000000000000000e+03
1.020000000000000073e-01 7.589609999999999967e-01 2.113604999999999734e+01 1.438009999999999877e+02 1.679994999999999891e+03
1.030000000000000082e-01 7.588979999999999615e-01 2.059365000000000023e+01 1.435999999999999943e+02 1.679954999999999927e+03
1.040000000000000091e-01 7.587969999999999438e-01 1.998975000000000080e+01 1.432445000000000164e+02 1.679884999999999991e+03
1.050000000000000100e-01 7.586559999999999970e-01 1.932189999999999941e+01 1.427315000000000111e+02 1.679775000000000091e+03
1.059999999999999970e-01 7.584790000000000143e-01 1.859179999999999922e+01 1.420660000000000025e+02 1.679634999999999991e+03
1.069999999999999979e-01 7.582685000000000120e-01 1.780550000000000210e+01 1.412615000000000123e+02 1.679465000000000146e+03
1.079999999999999988e-01 7.580314999999999692e-01 1.697279999999999944e+01 1.403389999999999986e+02 1.679259999999999991e+03
1.089999999999999997e-01 7.577754999999999352e-01 1.610694999999999766e+01 1.393260000000000218e+02 1.679034999999999854e+03
1.100000000000000006e-01 7.575079999999999592e-01 1.522374999999999901e+01 1.382545000000000073e+02 1.678789999999999964e+03
1.110000000000000014e-01 7.572394999999999543e-01 1.434093999999999980e+01 1.371619999999999777e+02 1.678539999999999964e+03
1.120000000000000023e-01 7.569780000000000397e-01 1.347697499999999948e+01 1.360835000000000150e+02 1.678289999999999964e+03
1.130000000000000032e-01 7.567329999999999890e-01 1.265019999999999989e+01 1.350584999999999809e+02 1.678039999999999964e+03
1.140000000000000041e-01 7.565124999999999211e-01 1.187788000000000110e+01 1.341200000000000045e+02 1.677815000000000055e+03
1.150000000000000050e-01 7.563235000000000374e-01 1.117539000000000016e+01 1.332980000000000018e+02 1.677609999999999900e+03
1.160000000000000059e-01 7.561714999999999964e-01 1.055524499999999932e+01 1.326179999999999950e+02 1.677429999999999836e+03
1.170000000000000068e-01 7.560594999999999954e-01 1.002673500000000040e+01 1.320970000000000084e+02 1.677289999999999964e+03
1.180000000000000077e-01 7.559899999999999398e-01 9.595369999999999067e+00 1.317450000000000045e+02 1.677184999999999945e+03
1.190000000000000085e-01 7.559620000000000228e-01 9.262995000000000090e+00 1.315649999999999977e+02 1.677119999999999891e+03
1.200000000000000094e-01 7.559734999999999649e-01 9.027454999999999785e+00 1.315515000000000043e+02 1.677090000000000146e+03
1.209999999999999964e-01 7.560219999999999718e-01 8.883214999999999861e+00 1.316924999999999955e+02 1.677095000000000027e+03
1.219999999999999973e-01 7.561009999999999120e-01 8.821690000000000254e+00 1.319689999999999941e+02 1.677134999999999991e+03
1.229999999999999982e-01 7.562059999999999338e-01 8.831714999999999094e+00 1.323600000000000136e+02 1.677204999999999927e+03
1.239999999999999991e-01 7.563284999999999592e-01 8.900300000000001432e+00 1.328380000000000223e+02 1.677295000000000073e+03
1.250000000000000000e-01 7.564634999999999554e-01 9.013269999999998561e+00 1.333760000000000048e+02 1.677405000000000200e+03
1.260000000000000009e-01 7.566030000000000255e-01 9.155969999999999942e+00 1.339449999999999932e+02 1.677525000000000091e+03
1.270000000000000018e-01 7.567414999999999559e-01 9.313905000000000101e+00 1.345180000000000007e+02 1.677650000000000091e+03
1.280000000000000027e-01 7.568714999999999193e-01 9.473330000000000695e+00 1.350704999999999814e+02 1.677775000000000091e+03
1.290000000000000036e-01 7.569900000000000517e-01 9.621764999999999901e+00 1.355794999999999959e+02 1.677894999999999982e+03
1.300000000000000044e-01 7.570915000000000283e-01 9.748429999999999040e+00 1.360279999999999916e+02 1.678000000000000000e+03
1.310000000000000053e-01 7.571740000000000137e-01 9.844549999999999912e+00 1.364010000000000105e+02 1.678090000000000146e+03
1.320000000000000062e-01 7.572349999999999914e-01 9.903480000000000061e+00 1.366895000000000095e+02 1.678164999999999964e+03
1.330000000000000071e-01 7.572740000000000027e-01 9.920975000000000321e+00 1.368890000000000100e+02 1.678220000000000027e+03
1.340000000000000080e-01 7.572915000000000063e-01 9.894970000000000709e+00 1.369989999999999952e+02 1.678259999999999991e+03
1.350000000000000089e-01 7.572894999999999488e-01 9.825794999999999391e+00 1.370229999999999961e+02 1.678279999999999973e+03
1.360000000000000098e-01 7.572685000000000111e-01 9.715659999999999741e+00 1.369689999999999941e+02 1.678275000000000091e+03
1.370000000000000107e-01 7.572330000000000449e-01 9.568574999999999164e+00 1.368464999999999918e+02 1.678259999999999991e+03
1.380000000000000115e-01 7.571855000000000668e-01 9.390109999999999957e+00 1.366680000000000064e+02 1.678230000000000018e+03
1.390000000000000124e-01 7.571290000000000520e-01 9.186944999999999695e+00 1.364485000000000241e+02 1.678190000000000055e+03
1.400000000000000133e-01 7.570680000000000742e-01 8.966495000000000104e+00 1.362015000000000100e+02 1.678134999999999991e+03
1.410000000000000142e-01 7.570054999999999978e-01 8.736525000000000318e+00 1.359429999999999836e+02 1.678085000000000036e+03
1.420000000000000151e-01 7.569455000000000489e-01 8.504844999999999544e+00 1.356864999999999952e+02 1.678025000000000091e+03
1.430000000000000160e-01 7.568905000000000216e-01 8.278784999999999172e+00 1.354449999999999932e+02 1.677974999999999909e+03
1.440000000000000169e-01 7.568429999999999325e-01 8.064799999999999969e+00 1.352305000000000064e+02 1.677924999999999955e+03
1.450000000000000178e-01 7.568049999999999500e-01 7.868445000000000356e+00 1.350494999999999948e+02 1.677880000000000109e+03
1.459999999999999909e-01 7.567779999999999507e-01 7.693914999999999615e+00 1.349100000000000250e+02 1.677844999999999800e+03
1.469999999999999918e-01 7.567615000000000869e-01 7.543989999999999974e+00 1.348140000000000214e+02 1.677820000000000164e+03
1.479999999999999927e-01 7.567555000000000254e-01 7.419990000000000308e+00 1.347615000000000123e+02 1.677805000000000064e+03
1.489999999999999936e-01 7.567595000000000294e-01 7.321799999999999642e+00 1.347504999999999882e+02 1.677795000000000073e+03
1.499999999999999944e-01 7.567720000000000002e-01 7.248004999999999143e+00 1.347760000000000105e+02 1.677799999999999955e+03
1.509999999999999953e-01 7.567904999999999216e-01 7.196054999999999424e+00 1.348305000000000007e+02 1.677804999999999836e+03
1.519999999999999962e-01 7.568124999999999991e-01 7.162539999999999907e+00 1.349060000000000059e+02 1.677815000000000055e+03
1.529999999999999971e-01 7.568375000000000519e-01 7.143430000000000391e+00 1.349934999999999832e+02 1.677829999999999927e+03
1.539999999999999980e-01 7.568610000000000060e-01 7.134380000000000166e+00 1.350835000000000150e+02 1.677849999999999909e+03
1.549999999999999989e-01 7.568820000000000547e-01 7.130969999999999587e+00 1.351680000000000064e+02 1.677865000000000009e+03
1.559999999999999998e-01 7.568989999999999885e-01 7.128994999999999749e+00 1.352370000000000232e+02 1.677880000000000109e+03
1.570000000000000007e-01 7.569095000000000129e-01 7.124650000000000816e+00 1.352855000000000132e+02 1.677894999999999982e+03
1.580000000000000016e-01 7.569124999999999881e-01 7.114700000000000912e+00 1.353070000000000164e+02 1.677894999999999982e+03
1.590000000000000024e-01 7.569080000000000252e-01 7.096634999999999138e+00 1.352984999999999900e+02 1.677900000000000091e+03
