# t [s], A [cm^2], U [cm/s], P [cPa], c [cm/s]
1.000000000000000021e-03 1.987615000000000076e-01 4.242186500000000304e-01 9.643559999999999377e+01 2.101894999999999982e+03
2.000000000000000042e-03 1.986884999999999901e-01 2.146986500000000131e+00 9.257570000000001187e+01 2.101385000000000218e+03
3.000000000000000062e-03 1.985139999999999960e-01 4.242085499999999954e+00 8.728299999999998704e+01 2.100204999999999927e+03
4.000000000000000083e-03 1.982895000000000074e-01 6.600287999999999933e+00 8.185094999999999743e+01 2.098710000000000036e+03
5.000000000000000104e-03 1.980609999999999871e-01 9.101420000000000954e+00 7.731489999999999441e+01 2.097210000000000036e+03
6.000000000000000125e-03 1.978495000000000115e-01 1.146086000000000027e+01 7.371950000000001069e+01 2.095829999999999927e+03
7.000000000000000146e-03 1.976545000000000107e-01 1.343704500000000124e+01 7.057280000000000086e+01 2.094595000000000255e+03
8.000000000000000167e-03 1.974814999999999765e-01 1.503434999999999988e+01 6.776560000000000628e+01 2.093515000000000327e+03
9.000000000000001055e-03 1.973360000000000114e-01 1.632809999999999917e+01 6.546774999999999523e+01 2.092619999999999891e+03
1.000000000000000194e-02 1.972190000000000054e-01 1.734499999999999886e+01 6.368689999999999429e+01 2.091900000000000091e+03
1.099999999999999936e-02 1.971279999999999977e-01 1.811495000000000033e+01 6.235705000000000098e+01 2.091349999999999909e+03
1.200000000000000025e-02 1.970589999999999842e-01 1.866315000000000168e+01 6.140145000000000408e+01 2.090949999999999818e+03
1.300000000000000114e-02 1.970069999999999877e-01 1.899370000000000047e+01 6.066570000000000107e+01 2.090650000000000091e+03
1.400000000000000203e-02 1.969664999999999888e-01 1.915919999999999845e+01 6.006530000000000058e+01 2.090425000000000182e+03
1.499999999999999944e-02 1.969410000000000049e-01 1.932345000000000113e+01 5.983509999999999707e+01 2.090284999999999854e+03
1.600000000000000033e-02 1.969454999999999956e-01 1.970465000000000089e+01 6.048999999999999488e+01 2.090324999999999818e+03
1.700000000000000122e-02 1.969934999999999881e-01 2.043440000000000012e+01 6.245005000000000450e+01 2.090625000000000000e+03
1.800000000000000211e-02 1.970879999999999854e-01 2.145700000000000074e+01 6.565309999999999491e+01 2.091204999999999927e+03
1.900000000000000300e-02 1.972150000000000014e-01 2.253989999999999938e+01 6.945834999999999582e+01 2.091994999999999891e+03
2.000000000000000042e-02 1.973465000000000080e-01 2.337699999999999889e+01 7.288405000000000200e+01 2.092815000000000055e+03
2.100000000000000130e-02 1.974515000000000020e-01 2.372039999999999793e+01 7.501660000000001105e+01 2.093494999999999891e+03
2.200000000000000219e-02 1.975080000000000169e-01 2.347729999999999961e+01 7.537539999999999907e+01 2.093875000000000000e+03
2.299999999999999961e-02 1.975089999999999901e-01 2.273294999999999888e+01 7.407359999999999900e+01 2.093914999999999964e+03
2.400000000000000050e-02 1.974629999999999996e-01 2.169754999999999967e+01 7.171680000000000632e+01 2.093659999999999854e+03
2.500000000000000139e-02 1.973929999999999851e-01 2.060904999999999987e+01 6.911144999999999072e+01 2.093230000000000018e+03
2.600000000000000228e-02 1.973194999999999810e-01 1.964070000000000249e+01 6.693260000000000787e+01 2.092779999999999745e+03
2.700000000000000316e-02 1.972589999999999899e-01 1.885125000000000028e+01 6.549979999999999336e+01 2.092390000000000327e+03
2.800000000000000058e-02 1.972160000000000024e-01 1.819050000000000011e+01 6.473194999999999766e+01 2.092114999999999782e+03
2.900000000000000147e-02 1.971855000000000135e-01 1.754510000000000147e+01 6.426494999999999891e+01 2.091925000000000182e+03
3.000000000000000236e-02 1.971559999999999979e-01 1.680174999999999841e+01 6.365600000000000591e+01 2.091734999999999673e+03
3.099999999999999978e-02 1.971169999999999867e-01 1.590285000000000082e+01 6.258960000000000434e+01 2.091500000000000000e+03
3.200000000000000067e-02 1.970629999999999882e-01 1.487785000000000046e+01 6.101700000000000301e+01 2.091170000000000073e+03
3.300000000000000155e-02 1.969980000000000064e-01 1.384035000000000082e+01 5.918630000000000280e+01 2.090769999999999982e+03
3.400000000000000244e-02 1.969330000000000247e-01 1.295390000000000086e+01 5.755979999999999563e+01 2.090364999999999782e+03
3.500000000000000333e-02 1.968840000000000034e-01 1.237800000000000011e+01 5.665050000000000097e+01 2.090050000000000182e+03
3.600000000000000422e-02 1.968664999999999998e-01 1.221549999999999869e+01 5.684174999999999756e+01 2.089920000000000073e+03
3.700000000000000511e-02 1.968880000000000075e-01 1.247915000000000063e+01 5.825345000000000084e+01 2.090034999999999854e+03
3.799999999999999906e-02 1.969489999999999852e-01 1.308555000000000135e+01 6.069644999999999868e+01 2.090390000000000327e+03
3.899999999999999994e-02 1.970399999999999929e-01 1.387620000000000076e+01 6.371894999999999953e+01 2.090944999999999709e+03
4.000000000000000083e-02 1.971445000000000003e-01 1.465360000000000085e+01 6.671924999999998818e+01 2.091585000000000036e+03
4.100000000000000172e-02 1.972415000000000140e-01 1.522250000000000014e+01 6.908334999999999582e+01 2.092190000000000055e+03
4.200000000000000261e-02 1.973115000000000008e-01 1.542425000000000068e+01 7.030819999999999936e+01 2.092630000000000109e+03
4.300000000000000350e-02 1.973395000000000010e-01 1.515840000000000032e+01 7.008359999999998990e+01 2.092824999999999818e+03
4.400000000000000439e-02 1.973159999999999914e-01 1.438954999999999984e+01 6.832144999999999868e+01 2.092699999999999818e+03
4.499999999999999833e-02 1.972389999999999977e-01 1.314154999999999873e+01 6.513609999999999900e+01 2.092234999999999673e+03
4.599999999999999922e-02 1.971134999999999970e-01 1.148252000000000095e+01 6.079019999999999868e+01 2.091474999999999909e+03
4.700000000000000011e-02 1.969460000000000099e-01 9.507179999999999964e+00 5.562565000000000026e+01 2.090444999999999709e+03
4.800000000000000100e-02 1.967495000000000216e-01 7.320705000000000240e+00 5.000005000000000166e+01 2.089235000000000127e+03
4.900000000000000189e-02 1.965359999999999885e-01 5.027112499999999429e+00 4.424089999999999634e+01 2.087904999999999745e+03
5.000000000000000278e-02 1.963155000000000039e-01 2.723654999999999937e+00 3.862359999999999616e+01 2.086534999999999854e+03
5.100000000000000366e-02 1.960979999999999945e-01 4.997750000000000803e-01 3.337000000000000455e+01 2.085180000000000291e+03
5.200000000000000455e-02 1.958929999999999838e-01 -1.561485000000000234e+00 2.866020000000000323e+01 2.083894999999999982e+03
5.300000000000000544e-02 1.957079999999999931e-01 -3.381488000000000049e+00 2.464839999999999876e+01 2.082730000000000018e+03
5.399999999999999939e-02 1.955490000000000006e-01 -4.885379999999999612e+00 2.147520000000000095e+01 2.081730000000000018e+03
5.500000000000000028e-02 1.954224999999999990e-01 -6.003655000000000186e+00 1.927199999999999847e+01 2.080925000000000182e+03
5.600000000000000117e-02 1.953344999999999942e-01 -6.675839999999999996e+00 1.815640000000000143e+01 2.080349999999999909e+03
5.700000000000000205e-02 1.952889999999999904e-01 -6.855525000000000091e+00 1.822039999999999793e+01 2.080045000000000073e+03
5.800000000000000294e-02 1.952900000000000191e-01 -6.515425000000000466e+00 1.951639999999999731e+01 2.080019999999999982e+03
5.900000000000000383e-02 1.953394999999999992e-01 -5.651189999999999714e+00 2.204400000000000048e+01 2.080295000000000073e+03
6.000000000000000472e-02 1.954359999999999986e-01 -4.282999999999999474e+00 2.574370000000000047e+01 2.080875000000000000e+03
6.099999999999999867e-02 1.955790000000000028e-01 -2.454429999999999890e+00 3.049729999999999919e+01 2.081730000000000018e+03
6.199999999999999956e-02 1.957619999999999916e-01 -2.289900000000000269e-01 3.613694999999999879e+01 2.082845000000000255e+03
6.300000000000000044e-02 1.959799999999999875e-01 2.315024999999999888e+00 4.245924999999999727e+01 2.084180000000000291e+03
6.400000000000000133e-02 1.962254999999999971e-01 5.090397000000000283e+00 4.924259999999999593e+01 2.085689999999999600e+03
6.500000000000000222e-02 1.964889999999999970e-01 8.006515000000000271e+00 5.626359999999999673e+01 2.087329999999999927e+03
6.600000000000000311e-02 1.967639999999999945e-01 1.097442000000000029e+01 6.331105000000000160e+01 2.089045000000000073e+03
6.700000000000000400e-02 1.970415000000000083e-01 1.391065000000000040e+01 7.019614999999998872e+01 2.090779999999999745e+03
6.800000000000000488e-02 1.973145000000000038e-01 1.674050000000000082e+01 7.675945000000000107e+01 2.092489999999999782e+03
6.900000000000000577e-02 1.975764999999999882e-01 1.940075000000000216e+01 8.287590000000000146e+01 2.094149999999999636e+03
7.000000000000000666e-02 1.978239999999999998e-01 2.184215000000000018e+01 8.845789999999999509e+01 2.095715000000000146e+03
7.100000000000000755e-02 1.980520000000000058e-01 2.403114999999999668e+01 9.345830000000000837e+01 2.097164999999999964e+03
7.200000000000000844e-02 1.982590000000000185e-01 2.595134999999999792e+01 9.787090000000000600e+01 2.098489999999999782e+03
7.300000000000000933e-02 1.984454999999999969e-01 2.760374999999999801e+01 1.017299500000000023e+02 2.099684999999999945e+03
7.399999999999999634e-02 1.986120000000000108e-01 2.900574999999999903e+01 1.051079000000000008e+02 2.100755000000000109e+03
7.499999999999999722e-02 1.987609999999999932e-01 3.018905000000000172e+01 1.081065000000000111e+02 2.101720000000000255e+03
7.599999999999999811e-02 1.988960000000000172e-01 3.119630000000000081e+01 1.108495000000000061e+02 2.102595000000000255e+03
7.699999999999999900e-02 1.990224999999999911e-01 3.207694999999999652e+01 1.134705000000000013e+02 2.103409999999999854e+03
7.799999999999999989e-02 1.991439999999999877e-01 3.288250000000000028e+01 1.161009999999999991e+02 2.104199999999999818e+03
7.900000000000000078e-02 1.992659999999999987e-01 3.366205000000000069e+01 1.188584999999999923e+02 2.104985000000000127e+03
8.000000000000000167e-02 1.993925000000000003e-01 3.445850000000000080e+01 1.218369999999999891e+02 2.105795000000000073e+03
8.100000000000000255e-02 1.995270000000000099e-01 3.530485000000000184e+01 1.251015000000000015e+02 2.106650000000000091e+03
8.200000000000000344e-02 1.996705000000000008e-01 3.622254999999999825e+01 1.286794999999999902e+02 2.107574999999999818e+03
8.300000000000000433e-02 1.998260000000000036e-01 3.722005000000000052e+01 1.325659999999999741e+02 2.108559999999999945e+03
8.400000000000000522e-02 1.999914999999999887e-01 3.829300000000000637e+01 1.367210000000000036e+02 2.109614999999999782e+03
8.500000000000000611e-02 2.001664999999999972e-01 3.942539999999999623e+01 1.410769999999999982e+02 2.110730000000000018e+03
8.600000000000000699e-02 2.003479999999999983e-01 4.059130000000000393e+01 1.455430000000000064e+02 2.111880000000000109e+03
8.700000000000000788e-02 2.005325000000000024e-01 4.175710000000000122e+01 1.500134999999999934e+02 2.113059999999999945e+03
8.800000000000000877e-02 2.007170000000000065e-01 4.288459999999999894e+01 1.543779999999999859e+02 2.114235000000000127e+03
8.899999999999999578e-02 2.008960000000000190e-01 4.393325000000000102e+01 1.585235000000000127e+02 2.115380000000000109e+03
8.999999999999999667e-02 2.010660000000000225e-01 4.486364999999999981e+01 1.623474999999999966e+02 2.116470000000000255e+03
9.099999999999999756e-02 2.012229999999999852e-01 4.563954999999999984e+01 1.657584999999999980e+02 2.117480000000000018e+03
9.199999999999999845e-02 2.013645000000000018e-01 4.623004999999999853e+01 1.686845000000000141e+02 2.118394999999999982e+03
9.299999999999999933e-02 2.014865000000000128e-01 4.661175000000000068e+01 1.710740000000000123e+02 2.119189999999999600e+03
9.400000000000000022e-02 2.015875000000000028e-01 4.676944999999999908e+01 1.728990000000000009e+02 2.119849999999999909e+03
9.500000000000000111e-02 2.016669999999999852e-01 4.669700000000000273e+01 1.741555000000000177e+02 2.120375000000000000e+03
9.600000000000000200e-02 2.017245000000000010e-01 4.639754999999999541e+01 1.748605000000000018e+02 2.120750000000000000e+03
9.700000000000000289e-02 2.017594999999999805e-01 4.588275000000000148e+01 1.750534999999999854e+02 2.120994999999999891e+03
9.800000000000000377e-02 2.017754999999999965e-01 4.517210000000000036e+01 1.747875000000000227e+02 2.121114999999999782e+03
9.900000000000000466e-02 2.017729999999999801e-01 4.429155000000000086e+01 1.741324999999999932e+02 2.121114999999999782e+03
1.000000000000000056e-01 2.017550000000000177e-01 4.327195000000000391e+01 1.731655000000000086e+02 2.121010000000000218e+03
1.010000000000000064e-01 2.017240000000000144e-01 4.214730000000000132e+01 1.719680000000000177e+02 2.120824999999999818e+03
1.020000000000000073e-01 2.016835000000000155e-01 4.095309999999999917e+01 1.706234999999999786e+02 2.120574999999999818e+03
1.030000000000000082e-01 2.016364999999999963e-01 3.972469999999999857e+01 1.692115000000000009e+02 2.120279999999999745e+03
1.040000000000000091e-01 2.015865000000000018e-01 3.849564999999999770e+01 1.678045000000000186e+02 2.119960000000000036e+03
1.050000000000000100e-01 2.015355000000000063e-01 3.729645000000000010e+01 1.664675000000000011e+02 2.119635000000000218e+03
1.059999999999999970e-01 2.014859999999999984e-01 3.615319999999999823e+01 1.652529999999999859e+02 2.119324999999999818e+03
1.069999999999999979e-01 2.014404999999999946e-01 3.508684999999999832e+01 1.642005000000000052e+02 2.119029999999999745e+03
1.079999999999999988e-01 2.014009999999999967e-01 3.411225000000000307e+01 1.633360000000000127e+02 2.118769999999999982e+03
1.089999999999999997e-01 2.013674999999999771e-01 3.323805000000000121e+01 1.626705000000000041e+02 2.118555000000000291e+03
1.100000000000000006e-01 2.013409999999999922e-01 3.246645000000000181e+01 1.622005000000000052e+02 2.118380000000000109e+03
1.110000000000000014e-01 2.013214999999999866e-01 3.179330000000000211e+01 1.619085000000000036e+02 2.118244999999999891e+03
1.120000000000000023e-01 2.013075000000000003e-01 3.120875000000000199e+01 1.617640000000000100e+02 2.118150000000000091e+03
1.130000000000000032e-01 2.012994999999999923e-01 3.069794999999999874e+01 1.617264999999999873e+02 2.118090000000000146e+03
1.140000000000000041e-01 2.012950000000000017e-01 3.024210000000000065e+01 1.617479999999999905e+02 2.118054999999999836e+03
1.150000000000000050e-01 2.012924999999999853e-01 2.981969999999999743e+01 1.617744999999999891e+02 2.118029999999999745e+03
1.160000000000000059e-01 2.012895000000000101e-01 2.940789999999999793e+01 1.617520000000000095e+02 2.118010000000000218e+03
1.170000000000000068e-01 2.012844999999999773e-01 2.898384999999999678e+01 1.616260000000000048e+02 2.117980000000000018e+03
1.180000000000000077e-01 2.012760000000000105e-01 2.852605000000000146e+01 1.613489999999999895e+02 2.117920000000000073e+03
1.190000000000000085e-01 2.012614999999999821e-01 2.801575000000000060e+01 1.608795000000000073e+02 2.117820000000000164e+03
1.200000000000000094e-01 2.012390000000000012e-01 2.743775000000000119e+01 1.601875000000000000e+02 2.117684999999999945e+03
1.209999999999999964e-01 2.012085000000000123e-01 2.678170000000000073e+01 1.592555000000000121e+02 2.117489999999999782e+03
1.219999999999999973e-01 2.011685000000000001e-01 2.604234999999999900e+01 1.580774999999999864e+02 2.117234999999999673e+03
1.229999999999999982e-01 2.011200000000000210e-01 2.522009999999999863e+01 1.566630000000000109e+02 2.116930000000000291e+03
1.239999999999999991e-01 2.010615000000000041e-01 2.432075000000000031e+01 1.550339999999999918e+02 2.116565000000000055e+03
1.250000000000000000e-01 2.009960000000000080e-01 2.335549999999999926e+01 1.532239999999999895e+02 2.116144999999999982e+03
1.260000000000000009e-01 2.009229999999999905e-01 2.233984999999999843e+01 1.512775000000000034e+02 2.115680000000000291e+03
1.270000000000000018e-01 2.008445000000000091e-01 2.129290000000000305e+01 1.492459999999999809e+02 2.115184999999999945e+03
1.280000000000000027e-01 2.007634999999999836e-01 2.023649999999999949e+01 1.471864999999999952e+02 2.114670000000000073e+03
1.290000000000000036e-01 2.006809999999999983e-01 1.919359999999999999e+01 1.451560000000000059e+02 2.114145000000000437e+03
1.300000000000000044e-01 2.005994999999999862e-01 1.818735000000000213e+01 1.432115000000000009e+02 2.113625000000000000e+03
1.310000000000000053e-01 2.005219999999999780e-01 1.723975000000000080e+01 1.414054999999999893e+02 2.113130000000000109e+03
1.320000000000000062e-01 2.004489999999999883e-01 1.637045000000000172e+01 1.397839999999999918e+02 2.112659999999999854e+03
1.330000000000000071e-01 2.003829999999999778e-01 1.559619999999999962e+01 1.383820000000000050e+02 2.112239999999999782e+03
1.340000000000000080e-01 2.003260000000000041e-01 1.492949999999999910e+01 1.372270000000000039e+02 2.111864999999999782e+03
1.350000000000000089e-01 2.002780000000000116e-01 1.437889999999999979e+01 1.363344999999999914e+02 2.111550000000000182e+03
1.360000000000000098e-01 2.002395000000000147e-01 1.394805000000000028e+01 1.357085000000000150e+02 2.111300000000000182e+03
1.370000000000000107e-01 2.002120000000000011e-01 1.363615000000000066e+01 1.353419999999999845e+02 2.111114999999999782e+03
1.380000000000000115e-01 2.001939999999999831e-01 1.343815000000000026e+01 1.352180000000000177e+02 2.110994999999999891e+03
1.390000000000000124e-01 2.001855000000000162e-01 1.334500000000000064e+01 1.353125000000000000e+02 2.110929999999999836e+03
1.400000000000000133e-01 2.001860000000000028e-01 1.334435000000000038e+01 1.355930000000000177e+02 2.110930000000000291e+03
1.410000000000000142e-01 2.001934999999999965e-01 1.342154999999999987e+01 1.360219999999999914e+02 2.110965000000000146e+03
1.420000000000000151e-01 2.002069999999999961e-01 1.355985000000000085e+01 1.365604999999999905e+02 2.111045000000000073e+03
1.430000000000000160e-01 2.002249999999999863e-01 1.374169999999999980e+01 1.371674999999999898e+02 2.111159999999999854e+03
1.440000000000000169e-01 2.002459999999999796e-01 1.394944999999999879e+01 1.378034999999999854e+02 2.111284999999999854e+03
1.450000000000000178e-01 2.002685000000000159e-01 1.416595000000000049e+01 1.384300000000000068e+02 2.111425000000000182e+03
1.459999999999999909e-01 2.002909999999999968e-01 1.437525000000000119e+01 1.390144999999999982e+02 2.111565000000000055e+03
1.469999999999999918e-01 2.003119999999999901e-01 1.456315000000000026e+01 1.395275000000000034e+02 2.111699999999999818e+03
1.479999999999999927e-01 2.003309999999999813e-01 1.471774999999999878e+01 1.399459999999999980e+02 2.111819999999999709e+03
1.489999999999999936e-01 2.003464999999999829e-01 1.482975000000000065e+01 1.402529999999999859e+02 2.111920000000000073e+03
1.499999999999999944e-01 2.003575000000000217e-01 1.489269999999999960e+01 1.404395000000000095e+02 2.111994999999999891e+03
1.509999999999999953e-01 2.003649999999999876e-01 1.490285000000000082e+01 1.405010000000000048e+02 2.112039999999999964e+03
1.519999999999999962e-01 2.003670000000000173e-01 1.485954999999999870e+01 1.404399999999999977e+02 2.112059999999999945e+03
1.529999999999999971e-01 2.003650000000000153e-01 1.476454999999999984e+01 1.402655000000000030e+02 2.112050000000000182e+03
1.539999999999999980e-01 2.003590000000000093e-01 1.462239999999999895e+01 1.399909999999999854e+02 2.112014999999999873e+03
1.549999999999999989e-01 2.003484999999999849e-01 1.443945000000000078e+01 1.396340000000000146e+02 2.111949999999999818e+03
1.559999999999999998e-01 2.003354999999999997e-01 1.422364999999999924e+01 1.392144999999999868e+02 2.111869999999999891e+03
1.570000000000000007e-01 2.003195000000000114e-01 1.398430000000000106e+01 1.387555000000000121e+02 2.111774999999999636e+03
1.580000000000000016e-01 2.003024999999999944e-01 1.373094999999999999e+01 1.382794999999999845e+02 2.111664999999999964e+03
1.590000000000000024e-01 2.002849999999999908e-01 1.347330000000000005e+01 1.378079999999999927e+02 2.111554999999999836e+03
