# t [s], A [cm^2], U [cm/s], P [cPa], c [cm/s]
1.000000000000000021e-03 1.750194999999999945e-01 1.385819000000000079e-01 9.628694999999999027e+01 2.035119999999999891e+03
2.000000000000000042e-03 1.749904999999999933e-01 1.397427999999999892e+00 9.368635000000000446e+01 2.034875000000000000e+03
3.000000000000000062e-03 1.748895000000000033e-01 3.028359999999999719e+00 9.001654999999999518e+01 2.034069999999999936e+03
4.000000000000000083e-03 1.747394999999999921e-01 4.882897999999999961e+00 8.569519999999999982e+01 2.032900000000000091e+03
5.000000000000000104e-03 1.745669999999999999e-01 6.907449999999999868e+00 8.145035000000000025e+01 2.031559999999999945e+03
6.000000000000000125e-03 1.743935000000000068e-01 9.002985000000000682e+00 7.773994999999999322e+01 2.030230000000000018e+03
7.000000000000000146e-03 1.742279999999999940e-01 1.100220500000000001e+01 7.459704999999999586e+01 2.028980000000000018e+03
8.000000000000000167e-03 1.740724999999999911e-01 1.276179499999999933e+01 7.181820000000000448e+01 2.027829999999999927e+03
9.000000000000001055e-03 1.739310000000000023e-01 1.425054499999999891e+01 6.931565000000000509e+01 2.026800000000000182e+03
1.000000000000000194e-02 1.738065000000000027e-01 1.549875000000000114e+01 6.715359999999999729e+01 2.025900000000000091e+03
1.099999999999999936e-02 1.737009999999999943e-01 1.653099999999999881e+01 6.538204999999999245e+01 2.025150000000000091e+03
1.200000000000000025e-02 1.736145000000000049e-01 1.736244999999999905e+01 6.398964999999999748e+01 2.024539999999999964e+03
1.300000000000000114e-02 1.735464999999999924e-01 1.800319999999999965e+01 6.292714999999999748e+01 2.024069999999999936e+03
1.400000000000000203e-02 1.734914999999999929e-01 1.845410000000000039e+01 6.210544999999999760e+01 2.023694999999999936e+03
1.499999999999999944e-02 1.734479999999999911e-01 1.872169999999999845e+01 6.142215000000000202e+01 2.023404999999999973e+03
1.600000000000000033e-02 1.734124999999999972e-01 1.884969999999999857e+01 6.084955000000000069e+01 2.023174999999999955e+03
1.700000000000000122e-02 1.733879999999999866e-01 1.893079999999999785e+01 6.050475000000000136e+01 2.023019999999999982e+03
1.800000000000000211e-02 1.733795000000000197e-01 1.907939999999999969e+01 6.061865000000000236e+01 2.022970000000000027e+03
1.900000000000000300e-02 1.733929999999999916e-01 1.938154999999999717e+01 6.141034999999999400e+01 2.023079999999999927e+03
2.000000000000000042e-02 1.734324999999999894e-01 1.985624999999999929e+01 6.295309999999999206e+01 2.023365000000000009e+03
2.100000000000000130e-02 1.734950000000000103e-01 2.044825000000000159e+01 6.510970000000000368e+01 2.023815000000000055e+03
2.200000000000000219e-02 1.735729999999999773e-01 2.105170000000000030e+01 6.756485000000000696e+01 2.024380000000000109e+03
2.299999999999999961e-02 1.736554999999999904e-01 2.154990000000000094e+01 6.992705000000000837e+01 2.024985000000000127e+03
2.400000000000000050e-02 1.737319999999999975e-01 2.185334999999999894e+01 7.184944999999999027e+01 2.025549999999999955e+03
2.500000000000000139e-02 1.737929999999999753e-01 2.192300000000000182e+01 7.312350000000000705e+01 2.026009999999999991e+03
2.600000000000000228e-02 1.738350000000000173e-01 2.177380000000000138e+01 7.371719999999999118e+01 2.026339999999999918e+03
2.700000000000000316e-02 1.738584999999999992e-01 2.146085000000000065e+01 7.375369999999999493e+01 2.026525000000000091e+03
2.800000000000000058e-02 1.738675000000000082e-01 2.105434999999999945e+01 7.344554999999999723e+01 2.026610000000000127e+03
2.900000000000000147e-02 1.738675000000000082e-01 2.061514999999999986e+01 7.301245000000000118e+01 2.026619999999999891e+03
3.000000000000000236e-02 1.738635000000000042e-01 2.017654999999999887e+01 7.261089999999998668e+01 2.026595000000000027e+03
3.099999999999999978e-02 1.738580000000000125e-01 1.973895000000000266e+01 7.229675000000000296e+01 2.026555000000000064e+03
3.200000000000000067e-02 1.738524999999999932e-01 1.927615000000000123e+01 7.202674999999999272e+01 2.026515000000000100e+03
3.300000000000000155e-02 1.738434999999999842e-01 1.875000000000000000e+01 7.169294999999999618e+01 2.026454999999999927e+03
3.400000000000000244e-02 1.738290000000000113e-01 1.812809999999999988e+01 7.117525000000000546e+01 2.026355000000000018e+03
3.500000000000000333e-02 1.738065000000000027e-01 1.739945000000000164e+01 7.039515000000000100e+01 2.026194999999999936e+03
3.600000000000000422e-02 1.737750000000000128e-01 1.658295000000000030e+01 6.935415000000000418e+01 2.025980000000000018e+03
3.700000000000000511e-02 1.737370000000000025e-01 1.572765000000000057e+01 6.814705000000000723e+01 2.025710000000000036e+03
3.799999999999999906e-02 1.736960000000000170e-01 1.490305000000000035e+01 6.694554999999999723e+01 2.025414999999999964e+03
3.899999999999999994e-02 1.736584999999999934e-01 1.418390000000000128e+01 6.595855000000000246e+01 2.025139999999999873e+03
4.000000000000000083e-02 1.736300000000000066e-01 1.363315000000000055e+01 6.538030000000000541e+01 2.024929999999999836e+03
4.100000000000000172e-02 1.736169999999999936e-01 1.328810000000000002e+01 6.534309999999999263e+01 2.024824999999999818e+03
4.200000000000000261e-02 1.736214999999999842e-01 1.315315000000000012e+01 6.588599999999999568e+01 2.024845000000000027e+03
4.300000000000000350e-02 1.736439999999999928e-01 1.320019999999999882e+01 6.694700000000000273e+01 2.024994999999999891e+03
4.400000000000000439e-02 1.736820000000000030e-01 1.337565000000000026e+01 6.837784999999999513e+01 2.025255000000000109e+03
4.499999999999999833e-02 1.737294999999999812e-01 1.361129999999999995e+01 6.997505000000001019e+01 2.025589999999999918e+03
4.599999999999999922e-02 1.737815000000000054e-01 1.383664999999999878e+01 7.151860000000000639e+01 2.025954999999999927e+03
4.700000000000000011e-02 1.738295000000000257e-01 1.398925000000000018e+01 7.280819999999999936e+01 2.026309999999999945e+03
4.800000000000000100e-02 1.738695000000000102e-01 1.402205000000000013e+01 7.369114999999999327e+01 2.026599999999999909e+03
4.900000000000000189e-02 1.738954999999999806e-01 1.390670000000000073e+01 7.407680000000000575e+01 2.026795000000000073e+03
5.000000000000000278e-02 1.739054999999999906e-01 1.363305000000000078e+01 7.393840000000000146e+01 2.026880000000000109e+03
5.100000000000000366e-02 1.738989999999999980e-01 1.320565000000000033e+01 7.330355000000000132e+01 2.026845000000000027e+03
5.200000000000000455e-02 1.738770000000000038e-01 1.263920000000000066e+01 7.223730000000000473e+01 2.026684999999999945e+03
5.300000000000000544e-02 1.738394999999999802e-01 1.195350000000000001e+01 7.082444999999999879e+01 2.026420000000000073e+03
5.399999999999999939e-02 1.737905000000000144e-01 1.116981499999999983e+01 6.915264999999999418e+01 2.026074999999999818e+03
5.500000000000000028e-02 1.737309999999999965e-01 1.030845000000000056e+01 6.730180000000000007e+01 2.025654999999999973e+03
5.600000000000000117e-02 1.736655000000000004e-01 9.388310000000000599e+00 6.533905000000000030e+01 2.025175000000000182e+03
5.700000000000000205e-02 1.735939999999999983e-01 8.427585000000000548e+00 6.331945000000000334e+01 2.024659999999999854e+03
5.800000000000000294e-02 1.735205000000000219e-01 7.445265000000000022e+00 6.129064999999999941e+01 2.024130000000000109e+03
5.900000000000000383e-02 1.734455000000000024e-01 6.462894999999999612e+00 5.929890000000000327e+01 2.023585000000000036e+03
6.000000000000000472e-02 1.733715000000000117e-01 5.505539999999999878e+00 5.739520000000000266e+01 2.023045000000000073e+03
6.099999999999999867e-02 1.733004999999999962e-01 4.602414999999999701e+00 5.563880000000000337e+01 2.022529999999999973e+03
6.199999999999999956e-02 1.732350000000000001e-01 3.786274999999999835e+00 5.409874999999999545e+01 2.022054999999999836e+03
6.300000000000000044e-02 1.731785000000000130e-01 3.092114999999999725e+00 5.285139999999999816e+01 2.021634999999999991e+03
6.400000000000000133e-02 1.731320000000000081e-01 2.555155000000000065e+00 5.197650000000000148e+01 2.021289999999999964e+03
6.500000000000000222e-02 1.730999999999999761e-01 2.208509999999999973e+00 5.155084999999999695e+01 2.021049999999999955e+03
6.600000000000000311e-02 1.730855000000000032e-01 2.080859999999999932e+00 5.164204999999999757e+01 2.020924999999999955e+03
6.700000000000000400e-02 1.730889999999999929e-01 2.194440000000000168e+00 5.230244999999999322e+01 2.020940000000000055e+03
6.800000000000000488e-02 1.731139999999999901e-01 2.563539999999999708e+00 5.356459999999999866e+01 2.021105000000000018e+03
6.900000000000000577e-02 1.731615000000000237e-01 3.193645000000000067e+00 5.543874999999999886e+01 2.021424999999999955e+03
7.000000000000000666e-02 1.732305000000000095e-01 4.081269999999999953e+00 5.791195000000000448e+01 2.021909999999999854e+03
7.100000000000000755e-02 1.733215000000000172e-01 5.214355000000000295e+00 6.094960000000000377e+01 2.022554999999999836e+03
7.200000000000000844e-02 1.734335000000000182e-01 6.573210000000000441e+00 6.449784999999999968e+01 2.023344999999999800e+03
7.300000000000000933e-02 1.735639999999999961e-01 8.131840000000000401e+00 6.848810000000000286e+01 2.024279999999999973e+03
7.399999999999999634e-02 1.737110000000000043e-01 9.859500000000000597e+00 7.284119999999998640e+01 2.025339999999999918e+03
7.499999999999999722e-02 1.738719999999999988e-01 1.172246000000000166e+01 7.747294999999999732e+01 2.026500000000000000e+03
7.599999999999999811e-02 1.740440000000000043e-01 1.368579500000000060e+01 8.229874999999999829e+01 2.027740000000000009e+03
7.699999999999999900e-02 1.742239999999999900e-01 1.571504999999999974e+01 8.723839999999999861e+01 2.029050000000000182e+03
7.799999999999999989e-02 1.744084999999999941e-01 1.777769999999999939e+01 9.221979999999999222e+01 2.030400000000000091e+03
7.900000000000000078e-02 1.745964999999999878e-01 1.984444999999999837e+01 9.718274999999999864e+01 2.031775000000000091e+03
8.000000000000000167e-02 1.747845000000000093e-01 2.189014999999999844e+01 1.020799499999999966e+02 2.033154999999999973e+03
8.100000000000000255e-02 1.749715000000000020e-01 2.389410000000000167e+01 1.068769499999999937e+02 2.034530000000000200e+03
8.200000000000000344e-02 1.751564999999999928e-01 2.584024999999999750e+01 1.115540000000000020e+02 2.035889999999999873e+03
8.300000000000000433e-02 1.753375000000000072e-01 2.771665000000000134e+01 1.161009999999999991e+02 2.037230000000000018e+03
8.400000000000000522e-02 1.755150000000000043e-01 2.951509999999999678e+01 1.205185000000000031e+02 2.038545000000000073e+03
8.500000000000000611e-02 1.756884999999999974e-01 3.123019999999999996e+01 1.248109999999999928e+02 2.039835000000000036e+03
8.600000000000000699e-02 1.758574999999999999e-01 3.285864999999999725e+01 1.289869999999999948e+02 2.041090000000000146e+03
8.700000000000000788e-02 1.760229999999999850e-01 3.439829999999999899e+01 1.330554999999999950e+02 2.042325000000000045e+03
8.800000000000000877e-02 1.761849999999999805e-01 3.584765000000000157e+01 1.370219999999999914e+02 2.043529999999999745e+03
8.899999999999999578e-02 1.763429999999999997e-01 3.720550000000000068e+01 1.408890000000000100e+02 2.044715000000000146e+03
8.999999999999999667e-02 1.764975000000000016e-01 3.847034999999999627e+01 1.446574999999999989e+02 2.045869999999999891e+03
9.099999999999999756e-02 1.766484999999999861e-01 3.964059999999999917e+01 1.483210000000000264e+02 2.047000000000000000e+03
9.199999999999999845e-02 1.767950000000000077e-01 4.071455000000000268e+01 1.518725000000000023e+02 2.048105000000000018e+03
9.299999999999999933e-02 1.769374999999999976e-01 4.169020000000000437e+01 1.553020000000000209e+02 2.049175000000000182e+03
9.400000000000000022e-02 1.770744999999999958e-01 4.256560000000000343e+01 1.585964999999999918e+02 2.050204999999999927e+03
9.500000000000000111e-02 1.772070000000000034e-01 4.333875000000000455e+01 1.617435000000000116e+02 2.051204999999999927e+03
9.600000000000000200e-02 1.773339999999999916e-01 4.400775000000000148e+01 1.647305000000000064e+02 2.052159999999999854e+03
9.700000000000000289e-02 1.774550000000000016e-01 4.457079999999999842e+01 1.675444999999999993e+02 2.053074999999999818e+03
9.800000000000000377e-02 1.775685000000000180e-01 4.502609999999999957e+01 1.701725000000000136e+02 2.053940000000000055e+03
9.900000000000000466e-02 1.776754999999999862e-01 4.537210000000000321e+01 1.726030000000000086e+02 2.054744999999999891e+03
1.000000000000000056e-01 1.777750000000000163e-01 4.560730000000000217e+01 1.748245000000000005e+02 2.055500000000000000e+03
1.010000000000000064e-01 1.778659999999999963e-01 4.573055000000000092e+01 1.768280000000000030e+02 2.056194999999999709e+03
1.020000000000000073e-01 1.779489999999999961e-01 4.574099999999999966e+01 1.786024999999999920e+02 2.056824999999999818e+03
1.030000000000000082e-01 1.780229999999999868e-01 4.563864999999999839e+01 1.801419999999999959e+02 2.057389999999999873e+03
1.040000000000000091e-01 1.780879999999999963e-01 4.542425000000000068e+01 1.814414999999999907e+02 2.057885000000000218e+03
1.050000000000000100e-01 1.781435000000000102e-01 4.509964999999999691e+01 1.824990000000000236e+02 2.058315000000000055e+03
1.059999999999999970e-01 1.781895000000000007e-01 4.466830000000000211e+01 1.833165000000000191e+02 2.058675000000000182e+03
1.069999999999999979e-01 1.782269999999999965e-01 4.413485000000000014e+01 1.838999999999999773e+02 2.058965000000000146e+03
1.079999999999999988e-01 1.782549999999999968e-01 4.350579999999999359e+01 1.842590000000000146e+02 2.059184999999999945e+03
1.089999999999999997e-01 1.782745000000000024e-01 4.278909999999999769e+01 1.844089999999999918e+02 2.059340000000000146e+03
1.100000000000000006e-01 1.782860000000000000e-01 4.199394999999999811e+01 1.843675000000000068e+02 2.059434999999999945e+03
1.110000000000000014e-01 1.782900000000000040e-01 4.113100000000000023e+01 1.841555000000000177e+02 2.059470000000000255e+03
1.120000000000000023e-01 1.782870000000000010e-01 4.021155000000000257e+01 1.837964999999999804e+02 2.059465000000000146e+03
1.130000000000000032e-01 1.782785000000000064e-01 3.924739999999999895e+01 1.833160000000000025e+02 2.059400000000000091e+03
1.140000000000000041e-01 1.782650000000000068e-01 3.825039999999999907e+01 1.827379999999999995e+02 2.059304999999999836e+03
1.150000000000000050e-01 1.782475000000000032e-01 3.723230000000000217e+01 1.820874999999999773e+02 2.059180000000000291e+03
1.160000000000000059e-01 1.782265000000000099e-01 3.620394999999999897e+01 1.813865000000000123e+02 2.059025000000000091e+03
1.170000000000000068e-01 1.782030000000000003e-01 3.517544999999999789e+01 1.806555000000000177e+02 2.058855000000000018e+03
1.180000000000000077e-01 1.781785000000000174e-01 3.415565000000000140e+01 1.799110000000000014e+02 2.058670000000000073e+03
1.190000000000000085e-01 1.781524999999999914e-01 3.315194999999999936e+01 1.791664999999999850e+02 2.058480000000000018e+03
1.200000000000000094e-01 1.781264999999999932e-01 3.217025000000000290e+01 1.784320000000000164e+02 2.058279999999999745e+03
1.209999999999999964e-01 1.780999999999999805e-01 3.121480000000000388e+01 1.777144999999999868e+02 2.058079999999999927e+03
1.219999999999999973e-01 1.780734999999999957e-01 3.028819999999999624e+01 1.770149999999999864e+02 2.057880000000000109e+03
1.229999999999999982e-01 1.780474999999999974e-01 2.939159999999999684e+01 1.763335000000000150e+02 2.057684999999999945e+03
1.239999999999999991e-01 1.780214999999999992e-01 2.852430000000000021e+01 1.756664999999999850e+02 2.057485000000000127e+03
1.250000000000000000e-01 1.779955000000000009e-01 2.768449999999999989e+01 1.750060000000000002e+02 2.057289999999999964e+03
1.260000000000000009e-01 1.779700000000000171e-01 2.686905000000000143e+01 1.743430000000000177e+02 2.057095000000000255e+03
1.270000000000000018e-01 1.779439999999999911e-01 2.607379999999999853e+01 1.736664999999999850e+02 2.056900000000000091e+03
1.280000000000000027e-01 1.779175000000000062e-01 2.529390000000000072e+01 1.729639999999999986e+02 2.056690000000000055e+03
1.290000000000000036e-01 1.778894999999999782e-01 2.452384999999999948e+01 1.722224999999999966e+02 2.056480000000000018e+03
1.300000000000000044e-01 1.778599999999999903e-01 2.375820000000000221e+01 1.714300000000000068e+02 2.056260000000000218e+03
1.310000000000000053e-01 1.778279999999999861e-01 2.299135000000000062e+01 1.705735000000000241e+02 2.056019999999999982e+03
1.320000000000000062e-01 1.777940000000000076e-01 2.221829999999999927e+01 1.696430000000000007e+02 2.055760000000000218e+03
1.330000000000000071e-01 1.777569999999999983e-01 2.143455000000000155e+01 1.686295000000000073e+02 2.055485000000000127e+03
1.340000000000000080e-01 1.777175000000000005e-01 2.063649999999999807e+01 1.675269999999999868e+02 2.055190000000000055e+03
1.350000000000000089e-01 1.776739999999999986e-01 1.982179999999999964e+01 1.663319999999999936e+02 2.054864999999999782e+03
1.360000000000000098e-01 1.776274999999999937e-01 1.898919999999999675e+01 1.650450000000000159e+02 2.054514999999999873e+03
1.370000000000000107e-01 1.775774999999999992e-01 1.813909999999999911e+01 1.636684999999999945e+02 2.054139999999999873e+03
1.380000000000000115e-01 1.775240000000000151e-01 1.727309999999999945e+01 1.622099999999999795e+02 2.053744999999999891e+03
1.390000000000000124e-01 1.774675000000000002e-01 1.639450000000000074e+01 1.606800000000000068e+02 2.053324999999999818e+03
1.400000000000000133e-01 1.774085000000000245e-01 1.550774999999999970e+01 1.590920000000000130e+02 2.052885000000000218e+03
1.410000000000000142e-01 1.773474999999999913e-01 1.461855000000000082e+01 1.574625000000000057e+02 2.052425000000000182e+03
1.420000000000000151e-01 1.772850000000000259e-01 1.373354999999999926e+01 1.558089999999999975e+02 2.051965000000000146e+03
1.430000000000000160e-01 1.772210000000000174e-01 1.286009999999999920e+01 1.541510000000000105e+02 2.051489999999999782e+03
1.440000000000000169e-01 1.771574999999999955e-01 1.200581000000000031e+01 1.525090000000000146e+02 2.051015000000000327e+03
1.450000000000000178e-01 1.770944999999999880e-01 1.117833999999999861e+01 1.509019999999999868e+02 2.050534999999999854e+03
1.459999999999999909e-01 1.770324999999999815e-01 1.038506499999999910e+01 1.493480000000000132e+02 2.050074999999999818e+03
1.469999999999999918e-01 1.769719999999999904e-01 9.632595000000000240e+00 1.478634999999999877e+02 2.049619999999999891e+03
1.479999999999999927e-01 1.769140000000000157e-01 8.926660000000000039e+00 1.464610000000000127e+02 2.049184999999999945e+03
1.489999999999999936e-01 1.768589999999999884e-01 8.271914999999999907e+00 1.451519999999999868e+02 2.048769999999999982e+03
1.499999999999999944e-01 1.768075000000000063e-01 7.671694999999999709e+00 1.439424999999999955e+02 2.048384999999999764e+03
1.509999999999999953e-01 1.767595000000000138e-01 7.127975000000000172e+00 1.428365000000000009e+02 2.048025000000000091e+03
1.519999999999999962e-01 1.767150000000000110e-01 6.641390000000000349e+00 1.418340000000000032e+02 2.047690000000000055e+03
1.529999999999999971e-01 1.766745000000000121e-01 6.211304999999999410e+00 1.409329999999999927e+02 2.047380000000000109e+03
1.539999999999999980e-01 1.766369999999999885e-01 5.835899999999999643e+00 1.401265000000000214e+02 2.047099999999999909e+03
1.549999999999999989e-01 1.766039999999999832e-01 5.512344999999999828e+00 1.394074999999999989e+02 2.046844999999999800e+03
1.559999999999999998e-01 1.765740000000000087e-01 5.236990000000000478e+00 1.387674999999999841e+02 2.046615000000000236e+03
1.570000000000000007e-01 1.765464999999999951e-01 5.005544999999999689e+00 1.381954999999999814e+02 2.046404999999999973e+03
1.580000000000000016e-01 1.765214999999999979e-01 4.813290000000000290e+00 1.376814999999999998e+02 2.046220000000000027e+03
1.590000000000000024e-01 1.764995000000000036e-01 4.655264999999999986e+00 1.372139999999999986e+02 2.046049999999999955e+03
