# t [s], A [cm^2], U [cm/s], P [cPa], c [cm/s]
1.000000000000000021e-03 6.777509999999999923e-01 6.572000000000001452e-03 9.644044999999999845e+01 1.797099999999999909e+03
2.000000000000000042e-03 6.777425000000000255e-01 5.323149999999999583e-03 9.640680000000000405e+01 1.797095000000000027e+03
3.000000000000000062e-03 6.778174999999999617e-01 1.531498500000000040e-01 9.658330000000000837e+01 1.797130000000000109e+03
4.000000000000000083e-03 6.778450000000000308e-01 2.329185000000000283e-01 9.667369999999999663e+01 1.797150000000000091e+03
5.000000000000000104e-03 6.777679999999999261e-01 1.272125000000000061e-01 9.643625000000000114e+01 1.797105000000000018e+03
6.000000000000000125e-03 6.776874999999999982e-01 1.254499999999991733e-03 9.605754999999999200e+01 1.797019999999999982e+03
7.000000000000000146e-03 6.775899999999999146e-01 -1.721449999999999925e-01 9.554444999999999766e+01 1.796909999999999854e+03
8.000000000000000167e-03 6.774105000000000265e-01 -5.227799999999999114e-01 9.470489999999999498e+01 1.796730000000000018e+03
9.000000000000001055e-03 6.771510000000000584e-01 -1.046214999999999895e+00 9.348394999999999300e+01 1.796474999999999909e+03
1.000000000000000194e-02 6.767885000000000151e-01 -1.770145000000000302e+00 9.178825000000000500e+01 1.796105000000000018e+03
1.099999999999999936e-02 6.763019999999999587e-01 -2.713649999999999896e+00 8.952160000000000650e+01 1.795610000000000127e+03
1.200000000000000025e-02 6.757480000000000153e-01 -3.736415000000000042e+00 8.681810000000000116e+01 1.795009999999999991e+03
1.300000000000000114e-02 6.752430000000000376e-01 -4.571799999999999642e+00 8.406045000000000300e+01 1.794365000000000009e+03
1.400000000000000203e-02 6.748775000000000190e-01 -4.998692999999999387e+00 8.165145000000001119e+01 1.793769999999999982e+03
1.499999999999999944e-02 6.746600000000000374e-01 -4.956915000000000404e+00 7.979554999999999154e+01 1.793269999999999982e+03
1.600000000000000033e-02 6.745324999999999793e-01 -4.544055000000000177e+00 7.843770000000000664e+01 1.792875000000000000e+03
1.700000000000000122e-02 6.744080000000000075e-01 -3.940675000000000150e+00 7.733559999999999945e+01 1.792519999999999982e+03
1.800000000000000211e-02 6.742154999999999676e-01 -3.319280000000000008e+00 7.619579999999999131e+01 1.792175000000000182e+03
1.900000000000000300e-02 6.739245000000000374e-01 -2.774055500000000229e+00 7.480760000000000787e+01 1.791784999999999854e+03
2.000000000000000042e-02 6.735549999999999038e-01 -2.297369999999999912e+00 7.312064999999999770e+01 1.791335000000000036e+03
2.100000000000000130e-02 6.731559999999999766e-01 -1.810525000000000162e+00 7.123355000000000814e+01 1.790844999999999800e+03
2.200000000000000219e-02 6.727754999999999708e-01 -1.226739999999999720e+00 6.931109999999999616e+01 1.790345000000000027e+03
2.299999999999999961e-02 6.724369999999999514e-01 -5.092100000000001625e-01 6.748310000000000741e+01 1.789849999999999909e+03
2.400000000000000050e-02 6.721285000000000176e-01 3.008950000000001346e-01 6.577365000000000350e+01 1.789375000000000000e+03
2.500000000000000139e-02 6.718060000000000143e-01 1.090515000000000123e+00 6.408119999999999550e+01 1.788905000000000200e+03
2.600000000000000228e-02 6.714124999999999677e-01 1.706315000000000026e+00 6.220739999999999981e+01 1.788404999999999973e+03
2.700000000000000316e-02 6.708950000000000191e-01 2.000080000000000524e+00 5.992090000000000316e+01 1.787819999999999936e+03
2.800000000000000058e-02 6.702240000000000419e-01 1.874779999999999891e+00 5.703745000000000687e+01 1.787119999999999891e+03
2.900000000000000147e-02 6.694054999999999866e-01 1.316479999999999873e+00 5.348969999999999914e+01 1.786275000000000091e+03
3.000000000000000236e-02 6.684799999999999631e-01 3.992300000000001958e-01 4.936110000000000042e+01 1.785304999999999836e+03
3.099999999999999978e-02 6.675145000000000106e-01 -7.380199999999996763e-01 4.487089999999999890e+01 1.784244999999999891e+03
3.200000000000000067e-02 6.665809999999999791e-01 -1.930514999999999759e+00 4.032110000000000127e+01 1.783150000000000091e+03
3.300000000000000155e-02 6.657429999999999737e-01 -3.025554999999999772e+00 3.603055000000000518e+01 1.782095000000000027e+03
3.400000000000000244e-02 6.650464999999999849e-01 -3.907654999999999657e+00 3.227750000000000341e+01 1.781139999999999873e+03
3.500000000000000333e-02 6.645174999999999832e-01 -4.508179999999999410e+00 2.926384999999999792e+01 1.780340000000000146e+03
3.600000000000000422e-02 6.641610000000000014e-01 -4.801654499999999715e+00 2.710190000000000055e+01 1.779724999999999909e+03
3.700000000000000511e-02 6.639705000000000190e-01 -4.793800000000000061e+00 2.582155000000000200e+01 1.779309999999999945e+03
3.799999999999999906e-02 6.639329999999999954e-01 -4.506285000000000096e+00 2.539139999999999731e+01 1.779105000000000018e+03
3.899999999999999994e-02 6.640329999999999844e-01 -3.962769999999999904e+00 2.574510000000000076e+01 1.779089999999999918e+03
4.000000000000000083e-02 6.642574999999999452e-01 -3.180040500000000048e+00 2.680635000000000190e+01 1.779255000000000109e+03
4.100000000000000172e-02 6.645980000000000221e-01 -2.166125000000000078e+00 2.850430000000000064e+01 1.779585000000000036e+03
4.200000000000000261e-02 6.650460000000000260e-01 -9.245799999999997354e-01 3.077754999999999797e+01 1.780065000000000055e+03
4.300000000000000350e-02 6.655944999999999778e-01 5.378699999999998482e-01 3.356964999999999577e+01 1.780674999999999955e+03
4.400000000000000439e-02 6.662310000000000176e-01 2.204144999999999577e+00 3.681954999999999956e+01 1.781414999999999964e+03
4.499999999999999833e-02 6.669405000000000472e-01 4.042699999999999960e+00 4.045315000000000083e+01 1.782255000000000109e+03
4.599999999999999922e-02 6.677020000000000177e-01 6.007759999999999323e+00 4.438040000000000163e+01 1.783175000000000182e+03
4.700000000000000011e-02 6.684915000000000163e-01 8.042984499999999315e+00 4.849660000000000082e+01 1.784154999999999973e+03
4.800000000000000100e-02 6.692869999999999653e-01 1.008810000000000073e+01 5.269015000000000271e+01 1.785175000000000182e+03
4.900000000000000189e-02 6.700664999999998983e-01 1.208534500000000023e+01 5.685229999999999961e+01 1.786199999999999818e+03
5.000000000000000278e-02 6.708125000000000338e-01 1.398552000000000106e+01 6.088730000000000331e+01 1.787204999999999927e+03
5.100000000000000366e-02 6.715145000000000142e-01 1.575206999999999979e+01 6.472124999999999773e+01 1.788179999999999836e+03
5.200000000000000455e-02 6.721660000000000412e-01 1.736224999999999952e+01 6.830670000000000641e+01 1.789110000000000127e+03
5.300000000000000544e-02 6.727680000000000327e-01 1.880700000000000216e+01 7.162395000000000778e+01 1.789980000000000018e+03
5.399999999999999939e-02 6.733240000000000336e-01 2.008885000000000076e+01 7.467910000000000537e+01 1.790789999999999964e+03
5.500000000000000028e-02 6.738409999999999123e-01 2.121934999999999860e+01 7.749930000000000518e+01 1.791549999999999955e+03
5.600000000000000117e-02 6.743295000000000261e-01 2.221625000000000227e+01 8.012760000000000105e+01 1.792259999999999991e+03
5.700000000000000205e-02 6.747994999999999965e-01 2.310144999999999982e+01 8.261705000000000609e+01 1.792934999999999945e+03
5.800000000000000294e-02 6.752624999999999877e-01 2.389885000000000304e+01 8.502509999999999479e+01 1.793590000000000146e+03
5.900000000000000383e-02 6.757284999999999542e-01 2.463254999999999839e+01 8.740915000000001100e+01 1.794235000000000127e+03
6.000000000000000472e-02 6.762060000000000848e-01 2.532515000000000072e+01 8.982085000000000719e+01 1.794875000000000000e+03
6.099999999999999867e-02 6.767024999999999846e-01 2.599579999999999913e+01 9.230264999999999986e+01 1.795529999999999973e+03
6.199999999999999956e-02 6.772219999999999906e-01 2.665834999999999866e+01 9.488315000000000055e+01 1.796204999999999927e+03
6.300000000000000044e-02 6.777649999999999508e-01 2.732025000000000148e+01 9.757495000000000118e+01 1.796904999999999973e+03
6.400000000000000133e-02 6.783280000000000420e-01 2.798194999999999766e+01 1.003718499999999949e+02 1.797625000000000000e+03
6.500000000000000222e-02 6.789049999999999807e-01 2.863664999999999949e+01 1.032520999999999987e+02 1.798369999999999891e+03
6.600000000000000311e-02 6.794875000000000220e-01 2.927169999999999916e+01 1.061765000000000043e+02 1.799125000000000000e+03
6.700000000000000400e-02 6.800650000000000306e-01 2.986990000000000123e+01 1.090960000000000036e+02 1.799875000000000000e+03
6.800000000000000488e-02 6.806254999999999944e-01 3.041159999999999997e+01 1.119519999999999982e+02 1.800625000000000000e+03
6.900000000000000577e-02 6.811579999999999302e-01 3.087675000000000125e+01 1.146869999999999976e+02 1.801340000000000146e+03
7.000000000000000666e-02 6.816519999999999246e-01 3.124660000000000082e+01 1.172439999999999998e+02 1.802025000000000091e+03
7.100000000000000755e-02 6.820980000000000931e-01 3.150525000000000020e+01 1.195734999999999957e+02 1.802644999999999982e+03
7.200000000000000844e-02 6.824909999999999588e-01 3.164049999999999940e+01 1.216349999999999909e+02 1.803215000000000146e+03
7.300000000000000933e-02 6.828255000000000852e-01 3.164484999999999815e+01 1.234010000000000105e+02 1.803710000000000036e+03
7.399999999999999634e-02 6.830994999999999706e-01 3.151534999999999798e+01 1.248549999999999898e+02 1.804130000000000109e+03
7.499999999999999722e-02 6.833145000000000469e-01 3.125420000000000087e+01 1.259954999999999927e+02 1.804474999999999909e+03
7.599999999999999811e-02 6.834724999999999273e-01 3.086790000000000234e+01 1.268309999999999889e+02 1.804735000000000127e+03
7.699999999999999900e-02 6.835774999999999491e-01 3.036759999999999593e+01 1.273830000000000098e+02 1.804929999999999836e+03
7.799999999999999989e-02 6.836370000000000502e-01 2.976785000000000281e+01 1.276794999999999902e+02 1.805059999999999945e+03
7.900000000000000078e-02 6.836565000000000003e-01 2.908624999999999972e+01 1.277590000000000146e+02 1.805125000000000000e+03
8.000000000000000167e-02 6.836465000000000458e-01 2.834264999999999901e+01 1.276625000000000085e+02 1.805144999999999982e+03
8.100000000000000255e-02 6.836134999999999851e-01 2.755785000000000196e+01 1.274339999999999975e+02 1.805125000000000000e+03
8.200000000000000344e-02 6.835670000000000357e-01 2.675280000000000058e+01 1.271200000000000045e+02 1.805070000000000164e+03
8.300000000000000433e-02 6.835150000000000947e-01 2.594740000000000180e+01 1.267615000000000123e+02 1.805005000000000109e+03
8.400000000000000522e-02 6.834639999999999604e-01 2.515959999999999752e+01 1.263990000000000009e+02 1.804929999999999836e+03
8.500000000000000611e-02 6.834194999999999576e-01 2.440435000000000088e+01 1.260625000000000000e+02 1.804855000000000018e+03
8.600000000000000699e-02 6.833845000000000613e-01 2.369294999999999973e+01 1.257785000000000082e+02 1.804785000000000082e+03
8.700000000000000788e-02 6.833629999999999427e-01 2.303260000000000218e+01 1.255614999999999952e+02 1.804730000000000018e+03
8.800000000000000877e-02 6.833549999999999347e-01 2.242650000000000077e+01 1.254194999999999993e+02 1.804690000000000055e+03
8.899999999999999578e-02 6.833584999999999798e-01 2.187349999999999994e+01 1.253499999999999943e+02 1.804664999999999964e+03
8.999999999999999667e-02 6.833719999999999795e-01 2.136899999999999977e+01 1.253435000000000059e+02 1.804650000000000091e+03
9.099999999999999756e-02 6.833914999999999296e-01 2.090494999999999948e+01 1.253840000000000146e+02 1.804650000000000091e+03
9.199999999999999845e-02 6.834130000000000482e-01 2.047100000000000009e+01 1.254489999999999981e+02 1.804659999999999854e+03
9.299999999999999933e-02 6.834305000000000518e-01 2.005485000000000184e+01 1.255125000000000028e+02 1.804670000000000073e+03
9.400000000000000022e-02 6.834394999999999776e-01 1.964350000000000307e+01 1.255480000000000018e+02 1.804670000000000073e+03
9.500000000000000111e-02 6.834339999999999860e-01 1.922370000000000090e+01 1.255279999999999916e+02 1.804664999999999964e+03
9.600000000000000200e-02 6.834100000000000730e-01 1.878300000000000125e+01 1.254260000000000019e+02 1.804639999999999873e+03
9.700000000000000289e-02 6.833640000000000825e-01 1.831060000000000088e+01 1.252194999999999965e+02 1.804595000000000027e+03
9.800000000000000377e-02 6.832925000000000804e-01 1.779809999999999803e+01 1.248924999999999983e+02 1.804515000000000100e+03
9.900000000000000466e-02 6.831949999999999967e-01 1.723989999999999867e+01 1.244330000000000069e+02 1.804410000000000082e+03
1.000000000000000056e-01 6.830700000000000660e-01 1.663405000000000200e+01 1.238384999999999962e+02 1.804269999999999982e+03
1.010000000000000064e-01 6.829205000000000414e-01 1.598204999999999920e+01 1.231124999999999972e+02 1.804105000000000018e+03
1.020000000000000073e-01 6.827490000000000503e-01 1.528904999999999959e+01 1.222665000000000077e+02 1.803904999999999973e+03
1.030000000000000082e-01 6.825594999999999857e-01 1.456364999999999910e+01 1.213195000000000050e+02 1.803675000000000182e+03
1.040000000000000091e-01 6.823574999999999502e-01 1.381721999999999895e+01 1.202974999999999994e+02 1.803430000000000064e+03
1.050000000000000100e-01 6.821500000000000341e-01 1.306343500000000191e+01 1.192295000000000016e+02 1.803170000000000073e+03
1.059999999999999970e-01 6.819425000000000070e-01 1.231733000000000011e+01 1.181490000000000009e+02 1.802900000000000091e+03
1.069999999999999979e-01 6.817424999999999180e-01 1.159447000000000116e+01 1.170900000000000034e+02 1.802634999999999991e+03
1.079999999999999988e-01 6.815550000000000219e-01 1.090997000000000128e+01 1.160854999999999961e+02 1.802375000000000000e+03
1.089999999999999997e-01 6.813865000000000061e-01 1.027783999999999942e+01 1.151664999999999992e+02 1.802139999999999873e+03
1.100000000000000006e-01 6.812420000000000142e-01 9.709984999999999644e+00 1.143590000000000089e+02 1.801920000000000073e+03
1.110000000000000014e-01 6.811234999999999928e-01 9.215654999999999930e+00 1.136835000000000093e+02 1.801735000000000127e+03
1.120000000000000023e-01 6.810334999999999583e-01 8.801114999999999355e+00 1.131539999999999964e+02 1.801579999999999927e+03
1.130000000000000032e-01 6.809735000000000094e-01 8.469364999999999810e+00 1.127764999999999986e+02 1.801460000000000036e+03
1.140000000000000041e-01 6.809425000000000061e-01 8.220085000000000974e+00 1.125504999999999995e+02 1.801384999999999991e+03
1.150000000000000050e-01 6.809374999999999734e-01 8.049974999999999881e+00 1.124689999999999941e+02 1.801340000000000146e+03
1.160000000000000059e-01 6.809560000000000057e-01 7.952980000000000160e+00 1.125194999999999936e+02 1.801329999999999927e+03
1.170000000000000068e-01 6.809944999999999471e-01 7.920844999999999914e+00 1.126825000000000045e+02 1.801345000000000027e+03
1.180000000000000077e-01 6.810484999999999456e-01 7.943699999999999761e+00 1.129389999999999930e+02 1.801389999999999873e+03
1.190000000000000085e-01 6.811134999999999273e-01 8.010650000000000048e+00 1.132649999999999864e+02 1.801450000000000045e+03
1.200000000000000094e-01 6.811859999999999582e-01 8.110350000000000392e+00 1.136370000000000005e+02 1.801530000000000200e+03
1.209999999999999964e-01 6.812605000000000466e-01 8.231585000000000818e+00 1.140324999999999989e+02 1.801619999999999891e+03
1.219999999999999973e-01 6.813339999999999952e-01 8.363704999999999501e+00 1.144309999999999974e+02 1.801704999999999927e+03
1.229999999999999982e-01 6.814029999999999809e-01 8.497030000000000527e+00 1.148135000000000048e+02 1.801799999999999955e+03
1.239999999999999991e-01 6.814649999999999874e-01 8.623129999999999740e+00 1.151664999999999992e+02 1.801884999999999991e+03
1.250000000000000000e-01 6.815185000000000271e-01 8.735060000000000713e+00 1.154765000000000015e+02 1.801964999999999918e+03
1.260000000000000009e-01 6.815620000000000012e-01 8.827455000000000496e+00 1.157369999999999948e+02 1.802029999999999973e+03
1.270000000000000018e-01 6.815944999999999920e-01 8.896625000000000227e+00 1.159440000000000026e+02 1.802089999999999918e+03
1.280000000000000027e-01 6.816174999999999873e-01 8.940519999999999357e+00 1.160960000000000036e+02 1.802130000000000109e+03
1.290000000000000036e-01 6.816305000000000280e-01 8.958569999999999922e+00 1.161949999999999932e+02 1.802164999999999964e+03
1.300000000000000044e-01 6.816359999999999086e-01 8.951840000000000686e+00 1.162469999999999999e+02 1.802184999999999945e+03
1.310000000000000053e-01 6.816339999999999621e-01 8.922484999999999999e+00 1.162579999999999956e+02 1.802190000000000055e+03
1.320000000000000062e-01 6.816265000000000240e-01 8.873829999999999885e+00 1.162374999999999972e+02 1.802194999999999936e+03
1.330000000000000071e-01 6.816165000000000695e-01 8.809870000000000090e+00 1.161949999999999932e+02 1.802190000000000055e+03
1.340000000000000080e-01 6.816055000000000863e-01 8.735205000000000553e+00 1.161409999999999911e+02 1.802184999999999945e+03
1.350000000000000089e-01 6.815949999999999509e-01 8.654590000000000671e+00 1.160850000000000080e+02 1.802174999999999955e+03
1.360000000000000098e-01 6.815865000000000951e-01 8.572639999999999816e+00 1.160374999999999943e+02 1.802164999999999964e+03
1.370000000000000107e-01 6.815830000000000499e-01 8.493479999999999919e+00 1.160045000000000073e+02 1.802159999999999854e+03
1.380000000000000115e-01 6.815835000000000088e-01 8.420645000000000380e+00 1.159939999999999998e+02 1.802154999999999973e+03
1.390000000000000124e-01 6.815900000000000292e-01 8.356785000000000352e+00 1.160099999999999909e+02 1.802159999999999854e+03
1.400000000000000133e-01 6.816020000000000412e-01 8.303560000000000940e+00 1.160529999999999973e+02 1.802164999999999964e+03
1.410000000000000142e-01 6.816189999999999749e-01 8.261635000000000062e+00 1.161245000000000118e+02 1.802184999999999945e+03
1.420000000000000151e-01 6.816409999999999414e-01 8.230715000000000003e+00 1.162205000000000013e+02 1.802204999999999927e+03
1.430000000000000160e-01 6.816664999999999530e-01 8.209659999999999513e+00 1.163365000000000009e+02 1.802235000000000127e+03
1.440000000000000169e-01 6.816940000000000222e-01 8.196669999999999234e+00 1.164675000000000011e+02 1.802269999999999982e+03
1.450000000000000178e-01 6.817225000000000090e-01 8.189489999999999270e+00 1.166069999999999993e+02 1.802299999999999955e+03
1.459999999999999909e-01 6.817504999999999260e-01 8.185639999999999361e+00 1.167469999999999999e+02 1.802329999999999927e+03
1.469999999999999918e-01 6.817770000000000774e-01 8.182604999999998796e+00 1.168820000000000050e+02 1.802365000000000009e+03
1.479999999999999927e-01 6.818009999999999904e-01 8.178065000000000140e+00 1.170045000000000073e+02 1.802400000000000091e+03
1.489999999999999936e-01 6.818210000000000104e-01 8.170024999999998983e+00 1.171109999999999900e+02 1.802425000000000182e+03
1.499999999999999944e-01 6.818364999999999565e-01 8.156959999999999766e+00 1.171970000000000027e+02 1.802450000000000045e+03
1.509999999999999953e-01 6.818480000000000096e-01 8.137895000000000323e+00 1.172605000000000075e+02 1.802465000000000146e+03
1.519999999999999962e-01 6.818549999999999889e-01 8.112434999999999619e+00 1.173010000000000019e+02 1.802485000000000127e+03
1.529999999999999971e-01 6.818575000000000053e-01 8.080814999999999415e+00 1.173199999999999932e+02 1.802485000000000127e+03
1.539999999999999980e-01 6.818564999999999765e-01 8.043825000000000003e+00 1.173199999999999932e+02 1.802490000000000009e+03
1.549999999999999989e-01 6.818535000000000013e-01 8.002810000000000201e+00 1.173050000000000068e+02 1.802490000000000009e+03
1.559999999999999998e-01 6.818480000000000096e-01 7.959579999999999878e+00 1.172800000000000011e+02 1.802485000000000127e+03
1.570000000000000007e-01 6.818429999999999769e-01 7.916339999999999932e+00 1.172510000000000048e+02 1.802474999999999909e+03
1.580000000000000016e-01 6.818385000000000140e-01 7.875544999999999796e+00 1.172249999999999943e+02 1.802474999999999909e+03
1.590000000000000024e-01 6.818359999999999976e-01 7.839809999999999945e+00 1.172075000000000102e+02 1.802470000000000027e+03
