# t [s], A [cm^2], U [cm/s], P [cPa], c [cm/s]
1.000000000000000021e-03 2.027780000000000138e-01 3.710209999999999897e-01 9.189254999999999995e+01 2.088899999999999636e+03
2.000000000000000042e-03 2.027189999999999825e-01 1.915860499999999966e+00 8.844350000000000023e+01 2.088489999999999782e+03
3.000000000000000062e-03 2.025675000000000114e-01 3.794897499999999813e+00 8.375024999999999409e+01 2.087465000000000146e+03
4.000000000000000083e-03 2.023665000000000047e-01 5.905585000000000306e+00 7.884120000000000061e+01 2.086119999999999891e+03
5.000000000000000104e-03 2.021550000000000014e-01 8.161464999999999748e+00 7.463524999999999920e+01 2.084725000000000364e+03
6.000000000000000125e-03 2.019555000000000100e-01 1.034261500000000034e+01 7.127355000000000018e+01 2.083420000000000073e+03
7.000000000000000146e-03 2.017694999999999905e-01 1.223011999999999944e+01 6.837094999999999345e+01 2.082224999999999909e+03
8.000000000000000167e-03 2.016000000000000014e-01 1.378961500000000129e+01 6.575025000000000830e+01 2.081159999999999854e+03
9.000000000000001055e-03 2.014540000000000219e-01 1.507985000000000042e+01 6.353100000000000591e+01 2.080250000000000000e+03
1.000000000000000194e-02 2.013324999999999976e-01 1.612829999999999941e+01 6.175880000000000791e+01 2.079505000000000109e+03
1.099999999999999936e-02 2.012344999999999828e-01 1.694865000000000066e+01 6.037559999999999860e+01 2.078909999999999854e+03
1.200000000000000025e-02 2.011565000000000158e-01 1.755454999999999899e+01 5.930074999999999363e+01 2.078444999999999709e+03
1.300000000000000114e-02 2.010945000000000094e-01 1.794979999999999976e+01 5.841284999999999883e+01 2.078079999999999927e+03
1.400000000000000203e-02 2.010429999999999995e-01 1.816694999999999993e+01 5.762560000000000571e+01 2.077779999999999745e+03
1.499999999999999944e-02 2.010029999999999872e-01 1.831810000000000116e+01 5.706390000000000384e+01 2.077555000000000291e+03
1.600000000000000033e-02 2.009839999999999960e-01 1.857600000000000051e+01 5.709904999999999831e+01 2.077454999999999927e+03
1.700000000000000122e-02 2.009990000000000110e-01 1.908364999999999867e+01 5.813349999999999795e+01 2.077555000000000291e+03
1.800000000000000211e-02 2.010549999999999837e-01 1.986540000000000106e+01 6.030034999999999457e+01 2.077904999999999745e+03
1.900000000000000300e-02 2.011475000000000068e-01 2.080369999999999919e+01 6.330470000000000397e+01 2.078474999999999909e+03
2.000000000000000042e-02 2.012599999999999945e-01 2.168834999999999980e+01 6.650110000000000809e+01 2.079175000000000182e+03
2.100000000000000130e-02 2.013695000000000068e-01 2.230424999999999969e+01 6.914105000000000700e+01 2.079869999999999891e+03
2.200000000000000219e-02 2.014540000000000219e-01 2.251169999999999760e+01 7.065305000000000746e+01 2.080420000000000073e+03
2.299999999999999961e-02 2.015005000000000268e-01 2.228885000000000005e+01 7.083050000000000068e+01 2.080730000000000018e+03
2.400000000000000050e-02 2.015049999999999897e-01 2.172305000000000064e+01 6.986084999999999923e+01 2.080789999999999964e+03
2.500000000000000139e-02 2.014775000000000038e-01 2.096289999999999765e+01 6.820329999999999870e+01 2.080635000000000218e+03
2.600000000000000228e-02 2.014319999999999999e-01 2.015545000000000186e+01 6.638325000000000387e+01 2.080364999999999782e+03
2.700000000000000316e-02 2.013809999999999767e-01 1.939600000000000080e+01 6.479834999999999923e+01 2.080050000000000182e+03
2.800000000000000058e-02 2.013344999999999996e-01 1.870770000000000266e+01 6.360859999999999559e+01 2.079755000000000109e+03
2.900000000000000147e-02 2.012950000000000017e-01 1.805274999999999963e+01 6.273584999999999923e+01 2.079510000000000218e+03
3.000000000000000236e-02 2.012594999999999801e-01 1.736415000000000219e+01 6.195204999999999984e+01 2.079284999999999854e+03
3.099999999999999978e-02 2.012209999999999832e-01 1.658484999999999943e+01 6.100869999999999749e+01 2.079045000000000073e+03
3.200000000000000067e-02 2.011739999999999917e-01 1.569894999999999996e+01 5.975780000000000314e+01 2.078760000000000218e+03
3.300000000000000155e-02 2.011180000000000190e-01 1.474674999999999869e+01 5.822570000000000334e+01 2.078414999999999964e+03
3.400000000000000244e-02 2.010560000000000125e-01 1.381844999999999857e+01 5.661919999999999931e+01 2.078034999999999854e+03
3.500000000000000333e-02 2.009969999999999812e-01 1.303014999999999901e+01 5.526465000000000316e+01 2.077664999999999964e+03
3.600000000000000422e-02 2.009525000000000061e-01 1.248985000000000056e+01 5.450424999999999898e+01 2.077380000000000109e+03
3.700000000000000511e-02 2.009325000000000139e-01 1.226575000000000060e+01 5.458615000000000350e+01 2.077244999999999891e+03
3.799999999999999906e-02 2.009434999999999971e-01 1.236585000000000001e+01 5.558355000000000246e+01 2.077289999999999964e+03
3.899999999999999994e-02 2.009845000000000104e-01 1.273460000000000036e+01 5.736730000000000018e+01 2.077529999999999745e+03
4.000000000000000083e-02 2.010510000000000075e-01 1.326520000000000010e+01 5.963280000000000314e+01 2.077925000000000182e+03
4.100000000000000172e-02 2.011300000000000032e-01 1.382225000000000037e+01 6.196875000000000000e+01 2.078414999999999964e+03
4.200000000000000261e-02 2.012089999999999990e-01 1.426774999999999949e+01 6.394289999999999452e+01 2.078899999999999636e+03
4.300000000000000350e-02 2.012725000000000208e-01 1.448339999999999961e+01 6.518325000000000102e+01 2.079300000000000182e+03
4.400000000000000439e-02 2.013090000000000157e-01 1.438690000000000069e+01 6.543495000000000061e+01 2.079529999999999745e+03
4.499999999999999833e-02 2.013095000000000023e-01 1.393754999999999988e+01 6.458689999999999998e+01 2.079550000000000182e+03
4.599999999999999922e-02 2.012709999999999777e-01 1.313499999999999979e+01 6.266634999999999422e+01 2.079324999999999818e+03
4.700000000000000011e-02 2.011944999999999983e-01 1.201100500000000082e+01 5.981034999999999968e+01 2.078859999999999673e+03
4.800000000000000100e-02 2.010830000000000117e-01 1.061928999999999945e+01 5.622494999999999976e+01 2.078184999999999945e+03
4.900000000000000189e-02 2.009449999999999847e-01 9.024760000000000559e+00 5.214374999999999716e+01 2.077324999999999818e+03
5.000000000000000278e-02 2.007864999999999789e-01 7.295684999999999754e+00 4.779514999999999958e+01 2.076349999999999909e+03
5.100000000000000366e-02 2.006169999999999898e-01 5.498789999999999623e+00 4.338255000000000194e+01 2.075295000000000073e+03
5.200000000000000455e-02 2.004420000000000091e-01 3.697292500000000093e+00 3.907779999999999632e+01 2.074204999999999927e+03
5.300000000000000544e-02 2.002694999999999892e-01 1.951220000000000176e+00 3.502454999999999785e+01 2.073130000000000109e+03
5.399999999999999939e-02 2.001049999999999773e-01 3.183199999999999363e-01 3.134635000000000105e+01 2.072105000000000018e+03
5.500000000000000028e-02 1.999540000000000206e-01 -1.145255000000000134e+00 2.815524999999999878e+01 2.071154999999999745e+03
5.600000000000000117e-02 1.998214999999999852e-01 -2.385229499999999891e+00 2.555684999999999718e+01 2.070320000000000164e+03
5.700000000000000205e-02 1.997120000000000006e-01 -3.350844999999999629e+00 2.365090000000000003e+01 2.069625000000000000e+03
5.800000000000000294e-02 1.996299999999999741e-01 -3.997440000000000104e+00 2.252655000000000030e+01 2.069095000000000255e+03
5.900000000000000383e-02 1.995794999999999930e-01 -4.289695000000000036e+00 2.225525000000000020e+01 2.068765000000000327e+03
6.000000000000000472e-02 1.995629999999999904e-01 -4.204660000000000508e+00 2.288149999999999906e+01 2.068640000000000327e+03
6.099999999999999867e-02 1.995824999999999960e-01 -3.734070000000000000e+00 2.441610000000000014e+01 2.068739999999999782e+03
6.199999999999999956e-02 1.996384999999999965e-01 -2.885440000000000005e+00 2.683145000000000024e+01 2.069064999999999600e+03
6.300000000000000044e-02 1.997295000000000043e-01 -1.681773499999999810e+00 3.006184999999999974e+01 2.069609999999999673e+03
6.400000000000000133e-02 1.998535000000000172e-01 -1.600099999999999856e-01 3.400715000000000288e+01 2.070359999999999673e+03
6.500000000000000222e-02 2.000069999999999903e-01 1.631585000000000063e+00 3.854019999999999868e+01 2.071295000000000073e+03
6.600000000000000311e-02 2.001844999999999875e-01 3.636588000000000154e+00 4.351569999999999538e+01 2.072385000000000218e+03
6.700000000000000400e-02 2.003810000000000036e-01 5.793835000000000512e+00 4.878045000000000186e+01 2.073599999999999909e+03
6.800000000000000488e-02 2.005910000000000193e-01 8.040710000000000690e+00 5.418229999999999791e+01 2.074905000000000200e+03
6.900000000000000577e-02 2.008079999999999865e-01 1.031660000000000110e+01 5.957914999999999850e+01 2.076255000000000109e+03
7.000000000000000666e-02 2.010270000000000112e-01 1.256541500000000156e+01 6.484569999999999368e+01 2.077625000000000000e+03
7.100000000000000755e-02 2.012424999999999908e-01 1.473830000000000062e+01 6.987914999999999566e+01 2.078980000000000018e+03
7.200000000000000844e-02 2.014515000000000056e-01 1.679560000000000031e+01 7.460365000000000180e+01 2.080295000000000073e+03
7.300000000000000933e-02 2.016499999999999959e-01 1.870844999999999914e+01 7.897249999999999659e+01 2.081550000000000182e+03
7.399999999999999634e-02 2.018360000000000154e-01 2.045940000000000225e+01 8.296899999999999409e+01 2.082730000000000018e+03
7.499999999999999722e-02 2.020085000000000075e-01 2.204250000000000043e+01 8.660509999999999309e+01 2.083835000000000036e+03
7.599999999999999811e-02 2.021689999999999876e-01 2.346249999999999858e+01 8.991775000000001228e+01 2.084855000000000018e+03
7.699999999999999900e-02 2.023169999999999968e-01 2.473324999999999818e+01 9.296415000000000362e+01 2.085805000000000291e+03
7.799999999999999989e-02 2.024555000000000105e-01 2.587555000000000049e+01 9.581470000000000198e+01 2.086694999999999709e+03
7.900000000000000078e-02 2.025870000000000171e-01 2.691465000000000174e+01 9.854560000000000741e+01 2.087534999999999854e+03
8.000000000000000167e-02 2.027134999999999909e-01 2.787749999999999773e+01 1.012321000000000026e+02 2.088350000000000364e+03
8.100000000000000255e-02 2.028384999999999772e-01 2.879044999999999987e+01 1.039412499999999966e+02 2.089150000000000091e+03
8.200000000000000344e-02 2.029630000000000045e-01 2.967665000000000219e+01 1.067270000000000039e+02 2.089949999999999818e+03
8.300000000000000433e-02 2.030899999999999928e-01 3.055474999999999852e+01 1.096250000000000000e+02 2.090760000000000218e+03
8.400000000000000522e-02 2.032214999999999994e-01 3.143710000000000093e+01 1.126534999999999940e+02 2.091600000000000364e+03
8.500000000000000611e-02 2.033564999999999956e-01 3.232974999999999710e+01 1.158100000000000023e+02 2.092465000000000146e+03
8.600000000000000699e-02 2.034960000000000102e-01 3.323189999999999600e+01 1.190749999999999886e+02 2.093355000000000018e+03
8.700000000000000788e-02 2.036390000000000144e-01 3.413670000000000471e+01 1.224105000000000132e+02 2.094265000000000327e+03
8.800000000000000877e-02 2.037845000000000073e-01 3.503170000000000073e+01 1.257690000000000055e+02 2.095190000000000055e+03
8.899999999999999578e-02 2.039300000000000002e-01 3.590024999999999977e+01 1.290910000000000082e+02 2.096114999999999782e+03
8.999999999999999667e-02 2.040730000000000044e-01 3.672274999999999778e+01 1.323160000000000025e+02 2.097034999999999854e+03
9.099999999999999756e-02 2.042124999999999913e-01 3.747785000000000366e+01 1.353795000000000073e+02 2.097930000000000291e+03
9.199999999999999845e-02 2.043444999999999845e-01 3.814414999999999623e+01 1.382205000000000155e+02 2.098774999999999636e+03
9.299999999999999933e-02 2.044679999999999831e-01 3.870139999999999958e+01 1.407849999999999966e+02 2.099569999999999709e+03
9.400000000000000022e-02 2.045804999999999985e-01 3.913154999999999717e+01 1.430269999999999868e+02 2.100289999999999964e+03
9.500000000000000111e-02 2.046795000000000142e-01 3.942005000000000337e+01 1.449105000000000132e+02 2.100930000000000291e+03
9.600000000000000200e-02 2.047640000000000016e-01 3.955639999999999645e+01 1.464134999999999991e+02 2.101485000000000127e+03
9.700000000000000289e-02 2.048335000000000017e-01 3.953504999999999825e+01 1.475249999999999773e+02 2.101940000000000055e+03
9.800000000000000377e-02 2.048869999999999858e-01 3.935510000000000019e+01 1.482475000000000023e+02 2.102295000000000073e+03
9.900000000000000466e-02 2.049249999999999960e-01 3.902114999999999867e+01 1.485964999999999918e+02 2.102545000000000073e+03
1.000000000000000056e-01 2.049475000000000047e-01 3.854224999999999568e+01 1.485994999999999777e+02 2.102699999999999818e+03
1.010000000000000064e-01 2.049555000000000127e-01 3.793215000000000003e+01 1.482914999999999850e+02 2.102760000000000218e+03
1.020000000000000073e-01 2.049509999999999943e-01 3.720805000000000007e+01 1.477180000000000177e+02 2.102739999999999782e+03
1.030000000000000082e-01 2.049350000000000060e-01 3.638984999999999559e+01 1.469279999999999973e+02 2.102650000000000091e+03
1.040000000000000091e-01 2.049100000000000088e-01 3.549949999999999761e+01 1.459745000000000061e+02 2.102494999999999891e+03
1.050000000000000100e-01 2.048769999999999758e-01 3.455949999999999989e+01 1.449105000000000132e+02 2.102289999999999964e+03
1.059999999999999970e-01 2.048389999999999933e-01 3.359255000000000280e+01 1.437864999999999895e+02 2.102059999999999945e+03
1.069999999999999979e-01 2.047979999999999801e-01 3.261979999999999791e+01 1.426510000000000105e+02 2.101795000000000073e+03
1.079999999999999988e-01 2.047550000000000203e-01 3.166075000000000017e+01 1.415434999999999945e+02 2.101525000000000091e+03
1.089999999999999997e-01 2.047125000000000195e-01 3.073205000000000098e+01 1.404995000000000118e+02 2.101260000000000218e+03
1.100000000000000006e-01 2.046719999999999928e-01 2.984725000000000250e+01 1.395434999999999945e+02 2.100994999999999891e+03
1.110000000000000014e-01 2.046335000000000237e-01 2.901595000000000013e+01 1.386929999999999836e+02 2.100750000000000000e+03
1.120000000000000023e-01 2.045990000000000031e-01 2.824410000000000309e+01 1.379544999999999959e+02 2.100529999999999745e+03
1.130000000000000032e-01 2.045679999999999998e-01 2.753350000000000009e+01 1.373265000000000100e+02 2.100324999999999818e+03
1.140000000000000041e-01 2.045405000000000140e-01 2.688215000000000288e+01 1.367975000000000136e+02 2.100150000000000091e+03
1.150000000000000050e-01 2.045175000000000187e-01 2.628455000000000297e+01 1.363505000000000109e+02 2.099994999999999891e+03
1.160000000000000059e-01 2.044965000000000255e-01 2.573210000000000264e+01 1.359594999999999914e+02 2.099855000000000018e+03
1.170000000000000068e-01 2.044774999999999787e-01 2.521389999999999887e+01 1.355955000000000155e+02 2.099724999999999909e+03
1.180000000000000077e-01 2.044594999999999885e-01 2.471715000000000018e+01 1.352259999999999991e+02 2.099610000000000127e+03
1.190000000000000085e-01 2.044409999999999838e-01 2.422820000000000107e+01 1.348174999999999955e+02 2.099489999999999782e+03
1.200000000000000094e-01 2.044210000000000194e-01 2.373335000000000150e+01 1.343369999999999891e+02 2.099355000000000018e+03
1.209999999999999964e-01 2.043979999999999964e-01 2.321959999999999980e+01 1.337549999999999955e+02 2.099210000000000036e+03
1.219999999999999973e-01 2.043709999999999971e-01 2.267539999999999978e+01 1.330469999999999970e+02 2.099039999999999964e+03
1.229999999999999982e-01 2.043389999999999929e-01 2.209144999999999825e+01 1.321935000000000002e+02 2.098835000000000036e+03
1.239999999999999991e-01 2.043019999999999836e-01 2.146119999999999806e+01 1.311839999999999975e+02 2.098595000000000255e+03
1.250000000000000000e-01 2.042579999999999951e-01 2.078115000000000023e+01 1.300144999999999982e+02 2.098320000000000164e+03
1.260000000000000009e-01 2.042085000000000150e-01 2.005134999999999934e+01 1.286904999999999859e+02 2.098005000000000109e+03
1.270000000000000018e-01 2.041525000000000145e-01 1.927510000000000190e+01 1.272265000000000015e+02 2.097650000000000091e+03
1.280000000000000027e-01 2.040909999999999946e-01 1.845904999999999774e+01 1.256430000000000007e+02 2.097260000000000218e+03
1.290000000000000036e-01 2.040250000000000119e-01 1.761274999999999835e+01 1.239689999999999941e+02 2.096845000000000255e+03
1.300000000000000044e-01 2.039549999999999974e-01 1.674824999999999875e+01 1.222379999999999995e+02 2.096399999999999636e+03
1.310000000000000053e-01 2.038830000000000087e-01 1.587924999999999898e+01 1.204859999999999900e+02 2.095940000000000055e+03
1.320000000000000062e-01 2.038099999999999912e-01 1.502064999999999984e+01 1.187524999999999977e+02 2.095480000000000018e+03
1.330000000000000071e-01 2.037380000000000024e-01 1.418774999999999942e+01 1.170750000000000028e+02 2.095014999999999873e+03
1.340000000000000080e-01 2.036675000000000013e-01 1.339509999999999934e+01 1.154894999999999925e+02 2.094569999999999709e+03
1.350000000000000089e-01 2.036000000000000032e-01 1.265639999999999965e+01 1.140295000000000130e+02 2.094140000000000327e+03
1.360000000000000098e-01 2.035379999999999967e-01 1.198346499999999892e+01 1.127210000000000036e+02 2.093739999999999782e+03
1.370000000000000107e-01 2.034819999999999962e-01 1.138581500000000091e+01 1.115840000000000032e+02 2.093380000000000109e+03
1.380000000000000115e-01 2.034325000000000161e-01 1.087033500000000075e+01 1.106334999999999980e+02 2.093065000000000055e+03
1.390000000000000124e-01 2.033895000000000008e-01 1.044112000000000151e+01 1.098750000000000000e+02 2.092784999999999854e+03
1.400000000000000133e-01 2.033550000000000080e-01 1.009929999999999950e+01 1.093085000000000093e+02 2.092560000000000400e+03
1.410000000000000142e-01 2.033280000000000087e-01 9.843199999999999505e+00 1.089265000000000043e+02 2.092380000000000109e+03
1.420000000000000151e-01 2.033079999999999887e-01 9.668585000000000207e+00 1.087150000000000034e+02 2.092250000000000000e+03
1.430000000000000160e-01 2.032954999999999901e-01 9.568770000000000664e+00 1.086570000000000107e+02 2.092159999999999854e+03
1.440000000000000169e-01 2.032889999999999975e-01 9.535425000000000040e+00 1.087305000000000064e+02 2.092114999999999782e+03
1.450000000000000178e-01 2.032875000000000099e-01 9.558579999999999188e+00 1.089099999999999966e+02 2.092100000000000364e+03
1.459999999999999909e-01 2.032909999999999995e-01 9.627379999999998716e+00 1.091709999999999923e+02 2.092114999999999782e+03
1.469999999999999918e-01 2.032984999999999931e-01 9.730589999999999407e+00 1.094865000000000066e+02 2.092154999999999745e+03
1.479999999999999927e-01 2.033079999999999887e-01 9.856809999999999405e+00 1.098315000000000055e+02 2.092215000000000146e+03
1.489999999999999936e-01 2.033189999999999997e-01 9.995194999999998942e+00 1.101825000000000045e+02 2.092284999999999854e+03
1.499999999999999944e-01 2.033314999999999984e-01 1.013568000000000069e+01 1.105185000000000031e+02 2.092360000000000127e+03
1.509999999999999953e-01 2.033429999999999960e-01 1.026921000000000106e+01 1.108224999999999909e+02 2.092430000000000291e+03
1.519999999999999962e-01 2.033535000000000204e-01 1.038820000000000121e+01 1.110794999999999959e+02 2.092500000000000000e+03
1.529999999999999971e-01 2.033635000000000026e-01 1.048649999999999949e+01 1.112789999999999964e+02 2.092559999999999945e+03
1.539999999999999980e-01 2.033709999999999962e-01 1.055979999999999919e+01 1.114149999999999920e+02 2.092605000000000018e+03
1.549999999999999989e-01 2.033760000000000012e-01 1.060534999999999961e+01 1.114849999999999994e+02 2.092640000000000327e+03
1.559999999999999998e-01 2.033785000000000176e-01 1.062209999999999965e+01 1.114894999999999925e+02 2.092659999999999854e+03
1.570000000000000007e-01 2.033790000000000042e-01 1.061048500000000061e+01 1.114329999999999927e+02 2.092659999999999854e+03
1.580000000000000016e-01 2.033770000000000022e-01 1.057244500000000009e+01 1.113225000000000051e+02 2.092654999999999745e+03
1.590000000000000024e-01 2.033730000000000260e-01 1.051105499999999893e+01 1.111670000000000016e+02 2.092630000000000109e+03
