# t [s], A [cm^2], U [cm/s], P [cPa], c [cm/s]
1.000000000000000021e-03 7.649160000000000403e-01 5.589549999999998686e-03 1.026719999999999970e+02 1.581590000000000146e+03
2.000000000000000042e-03 7.649019999999999708e-01 -4.390345000000000358e-03 1.026454999999999984e+02 1.581585000000000036e+03
3.000000000000000062e-03 7.649485000000000312e-01 5.952134999999999371e-02 1.027125000000000057e+02 1.581599999999999909e+03
4.000000000000000083e-03 7.650155000000000705e-01 1.585640000000000105e-01 1.028354999999999961e+02 1.581634999999999991e+03
5.000000000000000104e-03 7.650120000000000253e-01 1.728620000000000156e-01 1.028400000000000034e+02 1.581634999999999991e+03
6.000000000000000125e-03 7.649399999999999533e-01 9.307000000000001383e-02 1.026784999999999997e+02 1.581599999999999909e+03
7.000000000000000146e-03 7.648745000000000127e-01 1.676050000000001150e-02 1.024609999999999985e+02 1.581550000000000182e+03
8.000000000000000167e-03 7.648040000000000393e-01 -7.547999999999999154e-02 1.021864999999999952e+02 1.581485000000000127e+03
9.000000000000001055e-03 7.646785000000000387e-01 -2.594950000000000312e-01 1.017655000000000030e+02 1.581389999999999873e+03
1.000000000000000194e-02 7.644910000000000316e-01 -5.491400000000000725e-01 1.011535999999999973e+02 1.581244999999999891e+03
1.099999999999999936e-02 7.642320000000000224e-01 -9.508749999999999147e-01 1.003120499999999993e+02 1.581050000000000182e+03
1.200000000000000025e-02 7.638789999999999747e-01 -1.486929999999999863e+00 9.917900000000000205e+01 1.580784999999999854e+03
1.300000000000000114e-02 7.634319999999999995e-01 -2.140445000000000153e+00 9.773304999999999154e+01 1.580445000000000164e+03
1.400000000000000203e-02 7.629390000000000338e-01 -2.820189999999999753e+00 9.605464999999999520e+01 1.580035000000000082e+03
1.499999999999999944e-02 7.624705000000000510e-01 -3.393400999999999890e+00 9.430310000000000059e+01 1.579595000000000027e+03
1.600000000000000033e-02 7.620820000000000372e-01 -3.749006999999999756e+00 9.264390000000000214e+01 1.579154999999999973e+03
1.700000000000000122e-02 7.617869999999999919e-01 -3.838668499999999817e+00 9.117860000000000298e+01 1.578750000000000000e+03
1.800000000000000211e-02 7.615629999999999900e-01 -3.680768000000000040e+00 8.992260000000000275e+01 1.578375000000000000e+03
1.900000000000000300e-02 7.613654999999999173e-01 -3.339039999999999786e+00 8.881709999999999638e+01 1.578034999999999854e+03
2.000000000000000042e-02 7.611475000000000879e-01 -2.892342499999999816e+00 8.776415000000000077e+01 1.577700000000000045e+03
2.100000000000000130e-02 7.608749999999999680e-01 -2.407059999999999977e+00 8.666630000000000678e+01 1.577360000000000127e+03
2.200000000000000219e-02 7.605385000000000062e-01 -1.919105000000000061e+00 8.545945000000000391e+01 1.576984999999999900e+03
2.299999999999999961e-02 7.601480000000000459e-01 -1.429450000000000109e+00 8.412954999999999472e+01 1.576590000000000146e+03
2.400000000000000050e-02 7.597300000000000164e-01 -9.133549999999999169e-01 8.270935000000000059e+01 1.576175000000000182e+03
2.500000000000000139e-02 7.593130000000000157e-01 -3.385050000000000558e-01 8.125835000000000719e+01 1.575744999999999891e+03
2.600000000000000228e-02 7.589159999999999240e-01 3.158150000000001789e-01 7.983565000000000111e+01 1.575315000000000055e+03
2.700000000000000316e-02 7.585450000000000248e-01 1.045344999999999969e+00 7.847585000000000832e+01 1.574900000000000091e+03
2.800000000000000058e-02 7.581890000000000018e-01 1.816619999999999902e+00 7.717519999999998959e+01 1.574500000000000000e+03
2.900000000000000147e-02 7.578210000000000779e-01 2.571460000000000079e+00 7.589009999999998968e+01 1.574105000000000018e+03
3.000000000000000236e-02 7.574114999999999043e-01 3.237990000000000368e+00 7.454675000000000296e+01 1.573704999999999927e+03
3.099999999999999978e-02 7.569295000000000329e-01 3.745270000000000099e+00 7.305899999999999750e+01 1.573269999999999982e+03
3.200000000000000067e-02 7.563549999999999995e-01 4.038420000000000343e+00 7.135065000000000168e+01 1.572785000000000082e+03
3.300000000000000155e-02 7.556840000000000224e-01 4.090634999999999799e+00 6.937590000000000146e+01 1.572240000000000009e+03
3.400000000000000244e-02 7.549280000000000435e-01 3.908780000000000587e+00 6.713400000000000034e+01 1.571644999999999982e+03
3.500000000000000333e-02 7.541170000000000373e-01 3.530774999999999775e+00 6.467269999999999186e+01 1.570989999999999782e+03
3.600000000000000422e-02 7.532885000000000275e-01 3.016650000000000276e+00 6.208020000000000493e+01 1.570304999999999836e+03
3.700000000000000511e-02 7.524825000000000541e-01 2.435524999999999718e+00 5.946990000000000265e+01 1.569599999999999909e+03
3.799999999999999906e-02 7.517359999999999598e-01 1.853800000000000114e+00 5.696184999999999832e+01 1.568925000000000182e+03
3.899999999999999994e-02 7.510780000000000234e-01 1.326159999999999783e+00 5.466634999999999422e+01 1.568284999999999854e+03
4.000000000000000083e-02 7.505269999999999442e-01 8.916499999999998316e-01 5.267314999999999969e+01 1.567720000000000027e+03
4.100000000000000172e-02 7.500925000000000509e-01 5.731500000000000483e-01 5.104484999999999673e+01 1.567235000000000127e+03
4.200000000000000261e-02 7.497764999999999569e-01 3.802000000000000934e-01 4.981709999999999638e+01 1.566855000000000018e+03
4.300000000000000350e-02 7.495760000000000201e-01 3.134000000000001229e-01 4.900180000000000291e+01 1.566579999999999927e+03
4.400000000000000439e-02 7.494859999999999856e-01 3.692400000000000126e-01 4.859390000000000498e+01 1.566414999999999964e+03
4.499999999999999833e-02 7.494994999999999852e-01 5.442630000000000523e-01 4.857800000000000296e+01 1.566349999999999909e+03
4.599999999999999922e-02 7.496125000000000149e-01 8.377145000000000286e-01 4.893515000000000015e+01 1.566389999999999873e+03
4.700000000000000011e-02 7.498219999999999885e-01 1.252244999999999830e+00 4.964654999999999774e+01 1.566529999999999973e+03
4.800000000000000100e-02 7.501249999999999307e-01 1.792825000000000113e+00 5.069590000000000174e+01 1.566759999999999991e+03
4.900000000000000189e-02 7.505209999999999937e-01 2.464330000000000354e+00 5.206804999999999950e+01 1.567090000000000146e+03
5.000000000000000278e-02 7.510050000000000336e-01 3.268800000000000150e+00 5.374679999999999325e+01 1.567494999999999891e+03
5.100000000000000366e-02 7.515720000000000178e-01 4.202994999999999592e+00 5.571184999999999832e+01 1.567990000000000009e+03
5.200000000000000455e-02 7.522124999999999506e-01 5.257075000000000387e+00 5.793644999999999357e+01 1.568555000000000064e+03
5.300000000000000544e-02 7.529150000000000009e-01 6.414279999999999760e+00 6.038599999999999568e+01 1.569184999999999945e+03
5.399999999999999939e-02 7.536644999999999595e-01 7.651979499999999490e+00 6.301845000000000141e+01 1.569875000000000000e+03
5.500000000000000028e-02 7.544459999999999500e-01 8.943414999999999893e+00 6.578579999999999472e+01 1.570605000000000018e+03
5.600000000000000117e-02 7.552444999999999853e-01 1.025990499999999983e+01 6.863675000000000637e+01 1.571365000000000009e+03
5.700000000000000205e-02 7.560439999999999383e-01 1.157331500000000091e+01 7.152004999999999768e+01 1.572144999999999982e+03
5.800000000000000294e-02 7.568319999999999492e-01 1.285801500000000175e+01 7.438769999999999527e+01 1.572929999999999836e+03
5.900000000000000383e-02 7.575979999999999936e-01 1.409232499999999888e+01 7.719790000000000418e+01 1.573704999999999927e+03
6.000000000000000472e-02 7.583345000000000224e-01 1.525944499999999948e+01 7.991689999999999827e+01 1.574470000000000027e+03
6.099999999999999867e-02 7.590365000000000029e-01 1.634779999999999944e+01 8.252049999999999841e+01 1.575204999999999927e+03
6.199999999999999956e-02 7.597030000000000172e-01 1.735075000000000145e+01 8.499379999999999313e+01 1.575914999999999964e+03
6.300000000000000044e-02 7.603330000000000366e-01 1.826570000000000249e+01 8.733095000000000141e+01 1.576595000000000027e+03
6.400000000000000133e-02 7.609289999999999665e-01 1.909369999999999834e+01 8.953379999999999939e+01 1.577240000000000009e+03
6.500000000000000222e-02 7.614944999999999631e-01 1.983830000000000027e+01 9.161025000000000773e+01 1.577849999999999909e+03
6.600000000000000311e-02 7.620329999999999604e-01 2.050475000000000136e+01 9.357255000000000678e+01 1.578430000000000064e+03
6.700000000000000400e-02 7.625500000000000611e-01 2.109944999999999737e+01 9.543595000000000539e+01 1.578985000000000127e+03
6.800000000000000488e-02 7.630485000000000184e-01 2.162884999999999991e+01 9.721625000000000227e+01 1.579519999999999982e+03
6.900000000000000577e-02 7.635324999999999473e-01 2.209944999999999737e+01 9.892859999999998877e+01 1.580030000000000200e+03
7.000000000000000666e-02 7.640055000000000041e-01 2.251684999999999803e+01 1.005872499999999974e+02 1.580525000000000091e+03
7.100000000000000755e-02 7.644695000000000240e-01 2.288550000000000040e+01 1.022018000000000058e+02 1.581005000000000109e+03
7.200000000000000844e-02 7.649249999999999661e-01 2.320835000000000292e+01 1.037789999999999964e+02 1.581480000000000018e+03
7.300000000000000933e-02 7.653714999999999824e-01 2.348675000000000068e+01 1.053209999999999980e+02 1.581934999999999945e+03
7.399999999999999634e-02 7.658080000000000442e-01 2.372054999999999936e+01 1.068265000000000100e+02 1.582380000000000109e+03
7.499999999999999722e-02 7.662310000000001065e-01 2.390794999999999959e+01 1.082870000000000061e+02 1.582815000000000055e+03
7.599999999999999811e-02 7.666385000000000005e-01 2.404619999999999891e+01 1.096945000000000050e+02 1.583240000000000009e+03
7.699999999999999900e-02 7.670254999999999157e-01 2.413185000000000002e+01 1.110349999999999966e+02 1.583640000000000100e+03
7.799999999999999989e-02 7.673879999999999590e-01 2.416100000000000136e+01 1.122950000000000017e+02 1.584019999999999982e+03
7.900000000000000078e-02 7.677210000000000978e-01 2.413009999999999877e+01 1.134594999999999914e+02 1.584375000000000000e+03
8.000000000000000167e-02 7.680225000000000524e-01 2.403594999999999970e+01 1.145144999999999982e+02 1.584699999999999818e+03
8.100000000000000255e-02 7.682879999999999709e-01 2.387640000000000029e+01 1.154474999999999909e+02 1.584994999999999891e+03
8.200000000000000344e-02 7.685149999999999482e-01 2.364999999999999858e+01 1.162475000000000023e+02 1.585250000000000000e+03
8.300000000000000433e-02 7.687025000000000663e-01 2.335670000000000002e+01 1.169060000000000059e+02 1.585470000000000027e+03
8.400000000000000522e-02 7.688479999999999759e-01 2.299734999999999729e+01 1.174189999999999969e+02 1.585644999999999982e+03
8.500000000000000611e-02 7.689524999999999277e-01 2.257399999999999807e+01 1.177830000000000013e+02 1.585784999999999854e+03
8.600000000000000699e-02 7.690164999999999917e-01 2.208990000000000009e+01 1.179989999999999952e+02 1.585880000000000109e+03
8.700000000000000788e-02 7.690399999999999459e-01 2.154925000000000068e+01 1.180704999999999956e+02 1.585929999999999836e+03
8.800000000000000877e-02 7.690265000000000573e-01 2.095745000000000147e+01 1.180039999999999907e+02 1.585950000000000045e+03
8.899999999999999578e-02 7.689774999999999805e-01 2.032055000000000078e+01 1.178085000000000093e+02 1.585920000000000073e+03
8.999999999999999667e-02 7.688964999999999828e-01 1.964574999999999960e+01 1.174939999999999998e+02 1.585865000000000009e+03
9.099999999999999756e-02 7.687869999999999981e-01 1.894079999999999941e+01 1.170745000000000005e+02 1.585775000000000091e+03
9.199999999999999845e-02 7.686534999999999895e-01 1.821405000000000030e+01 1.165635000000000048e+02 1.585654999999999973e+03
9.299999999999999933e-02 7.684999999999999609e-01 1.747425000000000139e+01 1.159780000000000086e+02 1.585509999999999991e+03
9.400000000000000022e-02 7.683320000000000149e-01 1.673025000000000162e+01 1.153335000000000008e+02 1.585349999999999909e+03
9.500000000000000111e-02 7.681529999999999747e-01 1.599070000000000036e+01 1.146465000000000032e+02 1.585170000000000073e+03
9.600000000000000200e-02 7.679679999999999840e-01 1.526379999999999981e+01 1.139339999999999975e+02 1.584980000000000018e+03
9.700000000000000289e-02 7.677810000000000468e-01 1.455683499999999952e+01 1.132109999999999985e+02 1.584784999999999854e+03
9.800000000000000377e-02 7.675950000000000273e-01 1.387617000000000012e+01 1.124915000000000020e+02 1.584585000000000036e+03
9.900000000000000466e-02 7.674134999999999707e-01 1.322682500000000161e+01 1.117874999999999943e+02 1.584389999999999873e+03
1.000000000000000056e-01 7.672384999999999344e-01 1.261211499999999930e+01 1.111080000000000041e+02 1.584195000000000164e+03
1.010000000000000064e-01 7.670715000000000172e-01 1.203394499999999923e+01 1.104600000000000080e+02 1.584005000000000109e+03
1.020000000000000073e-01 7.669129999999999558e-01 1.149253999999999998e+01 1.098479999999999990e+02 1.583829999999999927e+03
1.030000000000000082e-01 7.667629999999999724e-01 1.098643500000000017e+01 1.092734999999999985e+02 1.583654999999999973e+03
1.040000000000000091e-01 7.666209999999999969e-01 1.051294000000000040e+01 1.087340000000000089e+02 1.583494999999999891e+03
1.050000000000000100e-01 7.664860000000000007e-01 1.006809499999999957e+01 1.082270000000000039e+02 1.583340000000000146e+03
1.059999999999999970e-01 7.663550000000000084e-01 9.646959999999999980e+00 1.077464999999999975e+02 1.583190000000000055e+03
1.069999999999999979e-01 7.662269999999999914e-01 9.243985000000000340e+00 1.072849999999999966e+02 1.583049999999999955e+03
1.079999999999999988e-01 7.660994999999999333e-01 8.853220000000000312e+00 1.068359999999999985e+02 1.582914999999999964e+03
1.089999999999999997e-01 7.659700000000000397e-01 8.468630000000000990e+00 1.063905000000000030e+02 1.582779999999999973e+03
1.100000000000000006e-01 7.658369999999999900e-01 8.084334999999999383e+00 1.059395000000000095e+02 1.582639999999999873e+03
1.110000000000000014e-01 7.656979999999999897e-01 7.694950000000000401e+00 1.054755000000000109e+02 1.582509999999999991e+03
1.120000000000000023e-01 7.655520000000000103e-01 7.295690000000000452e+00 1.049929999999999950e+02 1.582369999999999891e+03
1.130000000000000032e-01 7.653974999999999529e-01 6.882715000000001027e+00 1.044855000000000018e+02 1.582220000000000027e+03
1.140000000000000041e-01 7.652339999999999698e-01 6.453234999999999388e+00 1.039500000000000028e+02 1.582069999999999936e+03
1.150000000000000050e-01 7.650620000000000198e-01 6.005630000000000024e+00 1.033845000000000027e+02 1.581914999999999964e+03
1.160000000000000059e-01 7.648809999999999221e-01 5.539564999999999628e+00 1.027896000000000072e+02 1.581744999999999891e+03
1.170000000000000068e-01 7.646934999999999150e-01 5.056004999999999860e+00 1.021676999999999964e+02 1.581575000000000045e+03
1.180000000000000077e-01 7.644999999999999574e-01 4.557185000000000485e+00 1.015241499999999917e+02 1.581394999999999982e+03
1.190000000000000085e-01 7.643035000000000245e-01 4.046540000000000248e+00 1.008648000000000025e+02 1.581210000000000036e+03
1.200000000000000094e-01 7.641074999999999395e-01 3.528561499999999906e+00 1.001990499999999997e+02 1.581025000000000091e+03
1.209999999999999964e-01 7.639135000000000231e-01 3.008621499999999838e+00 9.953640000000000043e+01 1.580840000000000146e+03
1.219999999999999973e-01 7.637260000000000160e-01 2.492726449999999705e+00 9.888759999999999195e+01 1.580659999999999854e+03
1.229999999999999982e-01 7.635475000000000456e-01 1.987298999999999927e+00 9.826444999999999652e+01 1.580484999999999900e+03
1.239999999999999991e-01 7.633824999999999639e-01 1.498882999999999965e+00 9.767789999999999395e+01 1.580315000000000055e+03
1.250000000000000000e-01 7.632324999999999804e-01 1.033883499999999955e+00 9.714019999999999300e+01 1.580159999999999854e+03
1.260000000000000009e-01 7.631015000000000992e-01 5.982940000000001035e-01 9.666065000000000396e+01 1.580019999999999982e+03
1.270000000000000018e-01 7.629909999999999748e-01 1.974500000000000144e-01 9.624850000000000705e+01 1.579894999999999982e+03
1.280000000000000027e-01 7.629029999999999978e-01 -1.641855000000000397e-01 9.591105000000000302e+01 1.579789999999999964e+03
1.290000000000000036e-01 7.628390000000000448e-01 -4.831925000000000248e-01 9.565340000000000487e+01 1.579704999999999927e+03
1.300000000000000044e-01 7.627984999999999349e-01 -7.573229999999999684e-01 9.547835000000000605e+01 1.579644999999999982e+03
1.310000000000000053e-01 7.627820000000000711e-01 -9.855534999999999712e-01 9.538630000000000564e+01 1.579599999999999909e+03
1.320000000000000062e-01 7.627884999999999804e-01 -1.168109999999999982e+00 9.537545000000000073e+01 1.579585000000000036e+03
1.330000000000000071e-01 7.628165000000000084e-01 -1.306379500000000027e+00 9.544159999999999400e+01 1.579589999999999918e+03
1.340000000000000080e-01 7.628635000000000277e-01 -1.402845000000000120e+00 9.557839999999998781e+01 1.579610000000000127e+03
1.350000000000000089e-01 7.629264999999999519e-01 -1.460904999999999898e+00 9.577790000000000248e+01 1.579650000000000091e+03
1.360000000000000098e-01 7.630040000000000155e-01 -1.484725500000000142e+00 9.603069999999999595e+01 1.579704999999999927e+03
1.370000000000000107e-01 7.630919999999999925e-01 -1.479003499999999915e+00 9.632649999999999579e+01 1.579775000000000091e+03
1.380000000000000115e-01 7.631874999999999076e-01 -1.448798500000000100e+00 9.665440000000000964e+01 1.579855000000000018e+03
1.390000000000000124e-01 7.632879999999999665e-01 -1.399313249999999842e+00 9.700319999999999254e+01 1.579945000000000164e+03
1.400000000000000133e-01 7.633894999999999431e-01 -1.335724499999999981e+00 9.736234999999999218e+01 1.580035000000000082e+03
1.410000000000000142e-01 7.634904999999999609e-01 -1.263016499999999986e+00 9.772159999999999513e+01 1.580130000000000109e+03
1.420000000000000151e-01 7.635875000000000856e-01 -1.185859999999999914e+00 9.807165000000000532e+01 1.580224999999999909e+03
1.430000000000000160e-01 7.636789999999999967e-01 -1.108490500000000045e+00 9.840424999999999045e+01 1.580315000000000055e+03
1.440000000000000169e-01 7.637635000000000396e-01 -1.034660500000000205e+00 9.871240000000000236e+01 1.580400000000000091e+03
1.450000000000000178e-01 7.638385000000000868e-01 -9.675609999999998934e-01 9.899035000000000650e+01 1.580480000000000018e+03
1.459999999999999909e-01 7.639034999999999576e-01 -9.098128000000000881e-01 9.923380000000000223e+01 1.580549999999999955e+03
1.469999999999999918e-01 7.639584999999999848e-01 -8.634317000000000242e-01 9.943930000000000291e+01 1.580610000000000127e+03
1.479999999999999927e-01 7.640020000000000699e-01 -8.298834999999999962e-01 9.960564999999999714e+01 1.580664999999999964e+03
1.489999999999999936e-01 7.640350000000000197e-01 -8.100460000000000438e-01 9.973130000000000450e+01 1.580710000000000036e+03
1.499999999999999944e-01 7.640569999999999862e-01 -8.042814999999999825e-01 9.981680000000000064e+01 1.580734999999999900e+03
1.509999999999999953e-01 7.640679999999999694e-01 -8.124649999999999928e-01 9.986324999999999363e+01 1.580759999999999991e+03
1.519999999999999962e-01 7.640694999999999570e-01 -8.340400000000000036e-01 9.987235000000001151e+01 1.580764999999999873e+03
1.529999999999999971e-01 7.640614999999999490e-01 -8.680740000000000123e-01 9.984675000000000011e+01 1.580764999999999873e+03
1.539999999999999980e-01 7.640454999999999330e-01 -9.133294999999999053e-01 9.978974999999999795e+01 1.580759999999999991e+03
1.549999999999999989e-01 7.640219999999999789e-01 -9.683319999999999705e-01 9.970345000000000368e+01 1.580740000000000009e+03
1.559999999999999998e-01 7.639920000000000044e-01 -1.031458500000000056e+00 9.959184999999999377e+01 1.580715000000000146e+03
1.570000000000000007e-01 7.639559999999999684e-01 -1.100990000000000135e+00 9.945785000000000764e+01 1.580684999999999945e+03
1.580000000000000016e-01 7.639154999999999696e-01 -1.175206500000000043e+00 9.930495000000000516e+01 1.580644999999999982e+03
1.590000000000000024e-01 7.638705000000000078e-01 -1.252454999999999874e+00 9.913609999999999900e+01 1.580605000000000018e+03
