# t [s], A [cm^2], U [cm/s], P [cPa], c [cm/s]
1.000000000000000021e-03 1.798945000000000127e-01 4.705805499999999864e-01 8.914074999999999704e+01 2.260354999999999563e+03
2.000000000000000042e-03 1.798285000000000022e-01 2.090828999999999827e+00 8.501670000000000016e+01 2.259784999999999854e+03
3.000000000000000062e-03 1.796829999999999816e-01 4.044587999999999184e+00 7.955709999999999127e+01 2.258579999999999927e+03
4.000000000000000083e-03 1.795065000000000133e-01 6.257810000000000095e+00 7.432769999999999300e+01 2.257119999999999891e+03
5.000000000000000104e-03 1.793350000000000222e-01 8.563185000000000713e+00 7.024564999999999770e+01 2.255720000000000255e+03
6.000000000000000125e-03 1.791765000000000163e-01 1.062080500000000072e+01 6.696854999999999336e+01 2.254449999999999818e+03
7.000000000000000146e-03 1.790315000000000101e-01 1.227452500000000057e+01 6.397109999999999275e+01 2.253315000000000055e+03
8.000000000000000167e-03 1.789060000000000095e-01 1.360729999999999862e+01 6.138609999999999900e+01 2.252355000000000018e+03
9.000000000000001055e-03 1.788040000000000185e-01 1.466859999999999964e+01 5.934624999999999773e+01 2.251565000000000055e+03
1.000000000000000194e-02 1.787219999999999920e-01 1.547499999999999964e+01 5.777349999999999852e+01 2.250954999999999927e+03
1.099999999999999936e-02 1.786590000000000122e-01 1.604915000000000092e+01 5.657370000000000232e+01 2.250489999999999782e+03
1.200000000000000025e-02 1.786085000000000034e-01 1.639140000000000086e+01 5.557349999999999568e+01 2.250119999999999891e+03
1.300000000000000114e-02 1.785670000000000035e-01 1.655325000000000202e+01 5.466604999999999848e+01 2.249824999999999818e+03
1.400000000000000203e-02 1.785370000000000013e-01 1.672980000000000089e+01 5.417649999999999721e+01 2.249619999999999891e+03
1.499999999999999944e-02 1.785360000000000003e-01 1.718740000000000023e+01 5.482184999999999775e+01 2.249614999999999782e+03
1.600000000000000033e-02 1.785780000000000145e-01 1.806900000000000261e+01 5.714055000000000462e+01 2.249935000000000400e+03
1.700000000000000122e-02 1.786635000000000029e-01 1.926554999999999751e+01 6.093435000000000201e+01 2.250585000000000036e+03
1.800000000000000211e-02 1.787759999999999905e-01 2.045400000000000063e+01 6.520884999999999820e+01 2.251454999999999927e+03
1.900000000000000300e-02 1.788839999999999875e-01 2.125950000000000273e+01 6.862049999999999272e+01 2.252305000000000291e+03
2.000000000000000042e-02 1.789585000000000203e-01 2.143209999999999837e+01 7.010804999999999154e+01 2.252900000000000091e+03
2.100000000000000130e-02 1.789800000000000002e-01 2.094695000000000107e+01 6.935089999999999577e+01 2.253109999999999673e+03
2.200000000000000219e-02 1.789514999999999856e-01 1.998879999999999768e+01 6.683875000000000455e+01 2.252914999999999964e+03
2.299999999999999961e-02 1.788874999999999771e-01 1.884230000000000160e+01 6.355875000000000341e+01 2.252444999999999709e+03
2.400000000000000050e-02 1.788115000000000121e-01 1.775564999999999927e+01 6.050199999999999534e+01 2.251864999999999782e+03
2.500000000000000139e-02 1.787429999999999852e-01 1.684815000000000040e+01 5.825464999999999804e+01 2.251329999999999927e+03
2.600000000000000228e-02 1.786900000000000155e-01 1.609400000000000119e+01 5.684759999999999991e+01 2.250909999999999854e+03
2.700000000000000316e-02 1.786484999999999879e-01 1.537359999999999971e+01 5.587850000000000250e+01 2.250579999999999927e+03
2.800000000000000058e-02 1.786095000000000044e-01 1.455640000000000001e+01 5.479675000000000296e+01 2.250274999999999636e+03
2.900000000000000147e-02 1.785619999999999985e-01 1.357789999999999964e+01 5.320850000000000080e+01 2.249914999999999964e+03
3.000000000000000236e-02 1.785025000000000084e-01 1.248174999999999990e+01 5.108044999999999902e+01 2.249460000000000036e+03
3.099999999999999978e-02 1.784344999999999959e-01 1.141338000000000008e+01 4.877434999999999832e+01 2.248944999999999709e+03
3.200000000000000067e-02 1.783714999999999884e-01 1.056976999999999833e+01 4.690814999999999912e+01 2.248449999999999818e+03
3.300000000000000155e-02 1.783289999999999875e-01 1.012593000000000032e+01 4.610810000000000031e+01 2.248109999999999673e+03
3.400000000000000244e-02 1.783195000000000197e-01 1.016944999999999943e+01 4.675874999999999915e+01 2.248015000000000327e+03
3.500000000000000333e-02 1.783494999999999941e-01 1.066700000000000159e+01 4.884714999999999918e+01 2.248220000000000255e+03
3.600000000000000422e-02 1.784135000000000026e-01 1.147139999999999915e+01 5.195165000000000077e+01 2.248694999999999709e+03
3.700000000000000511e-02 1.784985000000000044e-01 1.236080000000000112e+01 5.536010000000000275e+01 2.249335000000000036e+03
3.799999999999999906e-02 1.785849999999999937e-01 1.309319999999999951e+01 5.826024999999999920e+01 2.250000000000000000e+03
3.899999999999999994e-02 1.786520000000000052e-01 1.345790000000000042e+01 5.993430000000000035e+01 2.250525000000000091e+03
4.000000000000000083e-02 1.786824999999999941e-01 1.331174999999999997e+01 5.990240000000000009e+01 2.250774999999999636e+03
4.100000000000000172e-02 1.786654999999999771e-01 1.259420000000000073e+01 5.798730000000000473e+01 2.250659999999999854e+03
4.200000000000000261e-02 1.785970000000000057e-01 1.132271000000000072e+01 5.429939999999999856e+01 2.250149999999999636e+03
4.300000000000000350e-02 1.784815000000000151e-01 9.574315000000000353e+00 4.916355000000000075e+01 2.249279999999999745e+03
4.400000000000000439e-02 1.783264999999999989e-01 7.461749999999999439e+00 4.301980000000000359e+01 2.248099999999999909e+03
4.499999999999999833e-02 1.781435000000000102e-01 5.111587150000000079e+00 3.633055000000000234e+01 2.246694999999999709e+03
4.599999999999999922e-02 1.779439999999999911e-01 2.649004999999999832e+00 2.951554999999999751e+01 2.245164999999999964e+03
4.700000000000000011e-02 1.777400000000000091e-01 1.903449999999997644e-01 2.292295000000000016e+01 2.243585000000000036e+03
4.800000000000000100e-02 1.775404999999999900e-01 -2.157944999999999780e+00 1.683010499999999965e+01 2.242045000000000073e+03
4.900000000000000189e-02 1.773544999999999983e-01 -4.297341299999999364e+00 1.146213499999999996e+01 2.240600000000000364e+03
5.000000000000000278e-02 1.771889999999999854e-01 -6.135384999999999422e+00 7.012698499999999946e+00 2.239309999999999945e+03
5.100000000000000366e-02 1.770504999999999995e-01 -7.585939999999999905e+00 3.657524999999999693e+00 2.238230000000000018e+03
5.200000000000000455e-02 1.769459999999999922e-01 -8.572435000000000471e+00 1.554894999999999694e+00 2.237399999999999636e+03
5.300000000000000544e-02 1.768800000000000094e-01 -9.033605000000001439e+00 8.342849999999999433e-01 2.236864999999999782e+03
5.399999999999999939e-02 1.768560000000000132e-01 -8.929780000000000939e+00 1.577831000000000206e+00 2.236649999999999636e+03
5.500000000000000028e-02 1.768764999999999921e-01 -8.248445000000000249e+00 3.802055000000000184e+00 2.236779999999999745e+03
5.600000000000000117e-02 1.769425000000000026e-01 -7.006954999999999600e+00 7.446120000000000516e+00 2.237255000000000109e+03
5.700000000000000205e-02 1.770515000000000005e-01 -5.251900000000000013e+00 1.237089499999999909e+01 2.238059999999999945e+03
5.800000000000000294e-02 1.771989999999999954e-01 -3.055125000000000313e+00 1.836909999999999954e+01 2.239170000000000073e+03
5.900000000000000383e-02 1.773790000000000089e-01 -5.073650000000000659e-01 2.518434999999999846e+01 2.240534999999999854e+03
6.000000000000000472e-02 1.775844999999999785e-01 2.289159999999999862e+00 3.253450000000000131e+01 2.242105000000000018e+03
6.099999999999999867e-02 1.778075000000000072e-01 5.228096499999999480e+00 4.013465000000000060e+01 2.243814999999999600e+03
6.199999999999999956e-02 1.780384999999999884e-01 8.205489999999999284e+00 4.771685000000000088e+01 2.245599999999999909e+03
6.300000000000000044e-02 1.782710000000000128e-01 1.112527500000000025e+01 5.504495000000000005e+01 2.247404999999999745e+03
6.400000000000000133e-02 1.784979999999999900e-01 1.390377499999999955e+01 6.192534999999999457e+01 2.249170000000000073e+03
6.500000000000000222e-02 1.787124999999999964e-01 1.647350000000000136e+01 6.821474999999999511e+01 2.250850000000000364e+03
6.600000000000000311e-02 1.789115000000000011e-01 1.878625000000000256e+01 7.382525000000001114e+01 2.252414999999999964e+03
6.700000000000000400e-02 1.790915000000000146e-01 2.081534999999999869e+01 7.872724999999999795e+01 2.253835000000000036e+03
6.800000000000000488e-02 1.792524999999999813e-01 2.255624999999999858e+01 8.294899999999999807e+01 2.255109999999999673e+03
6.900000000000000577e-02 1.793939999999999979e-01 2.402554999999999907e+01 8.657224999999999682e+01 2.256239999999999782e+03
7.000000000000000666e-02 1.795189999999999841e-01 2.525865000000000293e+01 8.972315000000000396e+01 2.257239999999999782e+03
7.100000000000000755e-02 1.796304999999999985e-01 2.630494999999999806e+01 9.255859999999999843e+01 2.258130000000000109e+03
7.200000000000000844e-02 1.797340000000000049e-01 2.722275000000000134e+01 9.525055000000000405e+01 2.258954999999999927e+03
7.300000000000000933e-02 1.798329999999999929e-01 2.807314999999999827e+01 9.796844999999999004e+01 2.259750000000000000e+03
7.399999999999999634e-02 1.799324999999999952e-01 2.891389999999999816e+01 1.008623999999999938e+02 2.260545000000000073e+03
7.499999999999999722e-02 1.800379999999999758e-01 2.979435000000000144e+01 1.040515000000000043e+02 2.261375000000000000e+03
7.599999999999999811e-02 1.801504999999999912e-01 3.075139999999999674e+01 1.076105000000000018e+02 2.262269999999999982e+03
7.699999999999999900e-02 1.802734999999999754e-01 3.180684999999999718e+01 1.115690000000000026e+02 2.263239999999999782e+03
7.799999999999999989e-02 1.804074999999999984e-01 3.296620000000000061e+01 1.159090000000000060e+02 2.264289999999999964e+03
7.900000000000000078e-02 1.805514999999999759e-01 3.421920000000000073e+01 1.205689999999999884e+02 2.265425000000000182e+03
8.000000000000000167e-02 1.807040000000000035e-01 3.554170000000000584e+01 1.254509999999999934e+02 2.266625000000000000e+03
8.100000000000000255e-02 1.808625000000000094e-01 3.689799999999999613e+01 1.304304999999999950e+02 2.267875000000000000e+03
8.200000000000000344e-02 1.810225000000000029e-01 3.824429999999999552e+01 1.353684999999999832e+02 2.269135000000000218e+03
8.300000000000000433e-02 1.811809999999999810e-01 3.953289999999999793e+01 1.401210000000000093e+02 2.270380000000000109e+03
8.400000000000000522e-02 1.813330000000000219e-01 4.071520000000000294e+01 1.445475000000000136e+02 2.271590000000000146e+03
8.500000000000000611e-02 1.814744999999999830e-01 4.174589999999999890e+01 1.485264999999999986e+02 2.272720000000000255e+03
8.600000000000000699e-02 1.816025000000000000e-01 4.258559999999999945e+01 1.519560000000000173e+02 2.273735000000000127e+03
8.700000000000000788e-02 1.817135000000000000e-01 4.320369999999999777e+01 1.547644999999999982e+02 2.274625000000000000e+03
8.800000000000000877e-02 1.818059999999999954e-01 4.358004999999999995e+01 1.569100000000000250e+02 2.275369999999999891e+03
8.899999999999999578e-02 1.818779999999999841e-01 4.370565000000000566e+01 1.583834999999999980e+02 2.275960000000000036e+03
8.999999999999999667e-02 1.819299999999999806e-01 4.358320000000000505e+01 1.592049999999999841e+02 2.276385000000000218e+03
9.099999999999999756e-02 1.819624999999999992e-01 4.322605000000000075e+01 1.594245000000000232e+02 2.276654999999999745e+03
9.199999999999999845e-02 1.819759999999999989e-01 4.265744999999999720e+01 1.591129999999999995e+02 2.276784999999999854e+03
9.299999999999999933e-02 1.819735000000000102e-01 4.190824999999999534e+01 1.583605000000000018e+02 2.276775000000000091e+03
9.400000000000000022e-02 1.819569999999999799e-01 4.101525000000000176e+01 1.572665000000000077e+02 2.276664999999999964e+03
9.500000000000000111e-02 1.819299999999999806e-01 4.001874999999999716e+01 1.559375000000000000e+02 2.276460000000000036e+03
9.600000000000000200e-02 1.818950000000000011e-01 3.896009999999999707e+01 1.544780000000000086e+02 2.276190000000000055e+03
9.700000000000000289e-02 1.818555000000000033e-01 3.787994999999999379e+01 1.529875000000000114e+02 2.275880000000000109e+03
9.800000000000000377e-02 1.818140000000000034e-01 3.681574999999999420e+01 1.515540000000000020e+02 2.275560000000000400e+03
9.900000000000000466e-02 1.817739999999999911e-01 3.580019999999999669e+01 1.502520000000000095e+02 2.275244999999999891e+03
1.000000000000000056e-01 1.817364999999999953e-01 3.485970000000000368e+01 1.491394999999999982e+02 2.274944999999999709e+03
1.010000000000000064e-01 1.817040000000000044e-01 3.401344999999999885e+01 1.482529999999999859e+02 2.274684999999999945e+03
1.020000000000000073e-01 1.816780000000000062e-01 3.327250000000000085e+01 1.476094999999999970e+02 2.274474999999999909e+03
1.030000000000000082e-01 1.816579999999999862e-01 3.263965000000000316e+01 1.472055000000000007e+02 2.274309999999999945e+03
1.040000000000000091e-01 1.816450000000000009e-01 3.210960000000000036e+01 1.470165000000000077e+02 2.274199999999999818e+03
1.050000000000000100e-01 1.816375000000000073e-01 3.166980000000000217e+01 1.470020000000000095e+02 2.274135000000000218e+03
1.059999999999999970e-01 1.816349999999999909e-01 3.130134999999999934e+01 1.471065000000000111e+02 2.274105000000000018e+03
1.069999999999999979e-01 1.816355000000000053e-01 3.098075000000000045e+01 1.472640000000000100e+02 2.274105000000000018e+03
1.079999999999999988e-01 1.816375000000000073e-01 3.068134999999999835e+01 1.474019999999999868e+02 2.274114999999999782e+03
1.089999999999999997e-01 1.816379999999999939e-01 3.037559999999999860e+01 1.474495000000000005e+02 2.274114999999999782e+03
1.100000000000000006e-01 1.816360000000000197e-01 3.003654999999999831e+01 1.473379999999999939e+02 2.274099999999999909e+03
1.110000000000000014e-01 1.816294999999999993e-01 2.964020000000000010e+01 1.470095000000000027e+02 2.274045000000000073e+03
1.120000000000000023e-01 1.816159999999999997e-01 2.916660000000000252e+01 1.464189999999999827e+02 2.273940000000000055e+03
1.130000000000000032e-01 1.815950000000000064e-01 2.860160000000000124e+01 1.455369999999999777e+02 2.273774999999999636e+03
1.140000000000000041e-01 1.815649999999999764e-01 2.793759999999999977e+01 1.443520000000000039e+02 2.273539999999999964e+03
1.150000000000000050e-01 1.815259999999999929e-01 2.717409999999999926e+01 1.428745000000000118e+02 2.273239999999999782e+03
1.160000000000000059e-01 1.814790000000000014e-01 2.631775000000000020e+01 1.411305000000000121e+02 2.272869999999999891e+03
1.170000000000000068e-01 1.814235000000000153e-01 2.538179999999999836e+01 1.391645000000000039e+02 2.272440000000000055e+03
1.180000000000000077e-01 1.813619999999999954e-01 2.438510000000000133e+01 1.370339999999999918e+02 2.271954999999999927e+03
1.190000000000000085e-01 1.812949999999999839e-01 2.335109999999999886e+01 1.348064999999999998e+02 2.271430000000000291e+03
1.200000000000000094e-01 1.812259999999999982e-01 2.230590000000000117e+01 1.325550000000000068e+02 2.270885000000000218e+03
1.209999999999999964e-01 1.811554999999999971e-01 2.127714999999999890e+01 1.303550000000000182e+02 2.270335000000000036e+03
1.219999999999999973e-01 1.810869999999999980e-01 2.029180000000000206e+01 1.282764999999999986e+02 2.269789999999999964e+03
1.229999999999999982e-01 1.810220000000000162e-01 1.937484999999999857e+01 1.263824999999999932e+02 2.269274999999999636e+03
1.239999999999999991e-01 1.809624999999999984e-01 1.854795000000000016e+01 1.247269999999999897e+02 2.268800000000000182e+03
1.250000000000000000e-01 1.809095000000000009e-01 1.782835000000000036e+01 1.233485000000000014e+02 2.268380000000000109e+03
1.260000000000000009e-01 1.808655000000000124e-01 1.722810000000000130e+01 1.222734999999999985e+02 2.268024999999999636e+03
1.270000000000000018e-01 1.808299999999999907e-01 1.675349999999999895e+01 1.215105000000000075e+02 2.267739999999999782e+03
1.280000000000000027e-01 1.808040000000000203e-01 1.640534999999999854e+01 1.210564999999999998e+02 2.267525000000000091e+03
1.290000000000000036e-01 1.807870000000000033e-01 1.617909999999999826e+01 1.208925000000000125e+02 2.267385000000000218e+03
1.300000000000000044e-01 1.807794999999999819e-01 1.606540000000000035e+01 1.209894999999999925e+02 2.267315000000000055e+03
1.310000000000000053e-01 1.807789999999999953e-01 1.605059999999999931e+01 1.213089999999999975e+02 2.267304999999999836e+03
1.320000000000000062e-01 1.807860000000000023e-01 1.611829999999999785e+01 1.218054999999999950e+02 2.267350000000000364e+03
1.330000000000000071e-01 1.807980000000000143e-01 1.624970000000000070e+01 1.224300000000000068e+02 2.267444999999999709e+03
1.340000000000000080e-01 1.808150000000000035e-01 1.642499999999999716e+01 1.231324999999999932e+02 2.267565000000000055e+03
1.350000000000000089e-01 1.808339999999999947e-01 1.662429999999999808e+01 1.238650000000000091e+02 2.267715000000000146e+03
1.360000000000000098e-01 1.808540000000000147e-01 1.682870000000000132e+01 1.245810000000000031e+02 2.267869999999999891e+03
1.370000000000000107e-01 1.808744999999999936e-01 1.702074999999999960e+01 1.252409999999999997e+02 2.268025000000000091e+03
1.380000000000000115e-01 1.808934999999999849e-01 1.718570000000000064e+01 1.258125000000000000e+02 2.268175000000000182e+03
1.390000000000000124e-01 1.809100000000000152e-01 1.731159999999999854e+01 1.262704999999999984e+02 2.268309999999999945e+03
1.400000000000000133e-01 1.809235000000000149e-01 1.738990000000000080e+01 1.265999999999999943e+02 2.268414999999999964e+03
1.410000000000000142e-01 1.809330000000000105e-01 1.741570000000000107e+01 1.267940000000000111e+02 2.268494999999999891e+03
1.420000000000000151e-01 1.809390000000000165e-01 1.738759999999999906e+01 1.268534999999999968e+02 2.268545000000000073e+03
1.430000000000000160e-01 1.809410000000000185e-01 1.730760000000000076e+01 1.267895000000000039e+02 2.268565000000000055e+03
1.440000000000000169e-01 1.809399999999999897e-01 1.718070000000000164e+01 1.266189999999999998e+02 2.268555000000000291e+03
1.450000000000000178e-01 1.809354999999999991e-01 1.701435000000000031e+01 1.263635000000000019e+02 2.268525000000000091e+03
1.459999999999999909e-01 1.809284999999999921e-01 1.681794999999999973e+01 1.260494999999999948e+02 2.268475000000000364e+03
1.469999999999999918e-01 1.809200000000000252e-01 1.660184999999999889e+01 1.257044999999999959e+02 2.268409999999999854e+03
1.479999999999999927e-01 1.809105000000000019e-01 1.637695000000000078e+01 1.253565000000000111e+02 2.268335000000000036e+03
1.489999999999999936e-01 1.809009999999999785e-01 1.615364999999999895e+01 1.250310000000000059e+02 2.268260000000000218e+03
1.499999999999999944e-01 1.808919999999999972e-01 1.594150000000000134e+01 1.247489999999999952e+02 2.268190000000000055e+03
1.509999999999999953e-01 1.808839999999999892e-01 1.574854999999999983e+01 1.245289999999999964e+02 2.268130000000000109e+03
1.519999999999999962e-01 1.808774999999999966e-01 1.558084999999999809e+01 1.243824999999999932e+02 2.268074999999999818e+03
1.529999999999999971e-01 1.808734999999999926e-01 1.544249999999999901e+01 1.243155000000000001e+02 2.268045000000000073e+03
1.539999999999999980e-01 1.808719999999999772e-01 1.533520000000000039e+01 1.243290000000000077e+02 2.268029999999999745e+03
1.549999999999999989e-01 1.808719999999999772e-01 1.525870000000000104e+01 1.244170000000000016e+02 2.268029999999999745e+03
1.559999999999999998e-01 1.808750000000000080e-01 1.521049999999999969e+01 1.245705000000000098e+02 2.268050000000000182e+03
1.570000000000000007e-01 1.808794999999999986e-01 1.518679999999999986e+01 1.247759999999999962e+02 2.268085000000000036e+03
1.580000000000000016e-01 1.808855000000000046e-01 1.518210000000000015e+01 1.250169999999999959e+02 2.268130000000000109e+03
1.590000000000000024e-01 1.808925000000000116e-01 1.519030000000000058e+01 1.252764999999999986e+02 2.268180000000000291e+03
