# t [s], A [cm^2], U [cm/s], P [cPa], c [cm/s]
1.000000000000000021e-03 6.821340000000000181e-01 6.371699999999994035e-03 9.682914999999999850e+01 1.713545000000000073e+03
2.000000000000000042e-03 6.821215000000000472e-01 -4.565595000000000417e-03 9.679554999999999154e+01 1.713539999999999964e+03
3.000000000000000062e-03 6.821749999999999758e-01 8.943234999999999379e-02 9.690234999999999843e+01 1.713565000000000055e+03
4.000000000000000083e-03 6.822259999999999991e-01 1.912787499999999974e-01 9.703300000000000125e+01 1.713599999999999909e+03
5.000000000000000104e-03 6.821954999999999547e-01 1.658805000000000140e-01 9.696690000000000964e+01 1.713585000000000036e+03
6.000000000000000125e-03 6.821234999999999937e-01 6.480500000000000149e-02 9.672655000000000314e+01 1.713530000000000200e+03
7.000000000000000146e-03 6.820665000000000200e-01 -1.932600000000000984e-02 9.644370000000000687e+01 1.713464999999999918e+03
8.000000000000000167e-03 6.819759999999999156e-01 -1.746549999999999492e-01 9.602814999999999657e+01 1.713365000000000009e+03
9.000000000000001055e-03 6.818234999999999157e-01 -4.573800000000001198e-01 9.538389999999999702e+01 1.713220000000000027e+03
1.000000000000000194e-02 6.816065000000000040e-01 -8.709299999999999820e-01 9.446760000000000446e+01 1.713005000000000109e+03
1.099999999999999936e-02 6.813020000000000742e-01 -1.445800000000000196e+00 9.319804999999999495e+01 1.712710000000000036e+03
1.200000000000000025e-02 6.809000000000000608e-01 -2.181014999999999926e+00 9.152464999999999407e+01 1.712315000000000055e+03
1.300000000000000114e-02 6.804485000000000117e-01 -2.971619999999999706e+00 8.954385000000000616e+01 1.711829999999999927e+03
1.400000000000000203e-02 6.800254999999999495e-01 -3.644112999999999936e+00 8.748519999999999186e+01 1.711315000000000055e+03
1.499999999999999944e-02 6.796919999999999629e-01 -4.053376349999999739e+00 8.558644999999999925e+01 1.710815000000000055e+03
1.600000000000000033e-02 6.794584999999999653e-01 -4.146077500000000526e+00 8.398279999999999745e+01 1.710365000000000009e+03
1.700000000000000122e-02 6.792934999999999945e-01 -3.962260000000000115e+00 8.267144999999999300e+01 1.709965000000000146e+03
1.800000000000000211e-02 6.791445000000000398e-01 -3.597599999999999909e+00 8.154330000000000211e+01 1.709610000000000127e+03
1.900000000000000300e-02 6.789629999999999832e-01 -3.155400999999999900e+00 8.044679999999999609e+01 1.709264999999999873e+03
2.000000000000000042e-02 6.787210000000000187e-01 -2.707662000000000013e+00 7.925319999999999254e+01 1.708889999999999873e+03
2.100000000000000130e-02 6.784189999999999943e-01 -2.275926500000000186e+00 7.790180000000000859e+01 1.708490000000000009e+03
2.200000000000000219e-02 6.780794999999999462e-01 -1.835749999999999993e+00 7.641110000000000468e+01 1.708055000000000064e+03
2.299999999999999961e-02 6.777345000000000175e-01 -1.340185000000000182e+00 7.485580000000000211e+01 1.707599999999999909e+03
2.400000000000000050e-02 6.774099999999999566e-01 -7.501200000000001200e-01 7.332404999999999973e+01 1.707150000000000091e+03
2.500000000000000139e-02 6.771145000000000636e-01 -5.831499999999989470e-02 7.187470000000000425e+01 1.706715000000000146e+03
2.600000000000000228e-02 6.768385000000000096e-01 7.006649999999998712e-01 7.050999999999999091e+01 1.706295000000000073e+03
2.700000000000000316e-02 6.765535000000000299e-01 1.455145000000000133e+00 6.916989999999999839e+01 1.705884999999999991e+03
2.800000000000000058e-02 6.762250000000000760e-01 2.112384999999999735e+00 6.774679999999999325e+01 1.705460000000000036e+03
2.900000000000000147e-02 6.758204999999999352e-01 2.580975000000000463e+00 6.611485000000000412e+01 1.704990000000000009e+03
3.000000000000000236e-02 6.753184999999999327e-01 2.793985000000000163e+00 6.416729999999999734e+01 1.704454999999999927e+03
3.099999999999999978e-02 6.747175000000000811e-01 2.726460000000000328e+00 6.185009999999999764e+01 1.703835000000000036e+03
3.200000000000000067e-02 6.740379999999999150e-01 2.401434999999999764e+00 5.918234999999999957e+01 1.703134999999999991e+03
3.300000000000000155e-02 6.733139999999999681e-01 1.882465000000000277e+00 5.625585000000000235e+01 1.702369999999999891e+03
3.400000000000000244e-02 6.725915000000000088e-01 1.256584999999999841e+00 5.321595000000000653e+01 1.701569999999999936e+03
3.500000000000000333e-02 6.719104999999999661e-01 6.140599999999993841e-01 5.023189999999999600e+01 1.700775000000000091e+03
3.600000000000000422e-02 6.713069999999999871e-01 3.256499999999995509e-02 4.746770000000000067e+01 1.700019999999999982e+03
3.700000000000000511e-02 6.708039999999999559e-01 -4.320700000000003982e-01 4.505939999999999657e+01 1.699344999999999800e+03
3.799999999999999906e-02 6.704124999999999668e-01 -7.477000000000000313e-01 4.310329999999999728e+01 1.698769999999999982e+03
3.899999999999999994e-02 6.701360000000000650e-01 -9.022900000000000365e-01 4.165380000000000393e+01 1.698325000000000045e+03
4.000000000000000083e-02 6.699694999999999956e-01 -8.971050000000000413e-01 4.072865000000000180e+01 1.698009999999999991e+03
4.100000000000000172e-02 6.699079999999999480e-01 -7.390484999999999971e-01 4.031969999999999743e+01 1.697829999999999927e+03
4.200000000000000261e-02 6.699455000000000826e-01 -4.341595000000000315e-01 4.040494999999999948e+01 1.697785000000000082e+03
4.300000000000000350e-02 6.700770000000000337e-01 1.637999999999995016e-02 4.095855000000000246e+01 1.697865000000000009e+03
4.400000000000000439e-02 6.703010000000000357e-01 6.168249999999999567e-01 4.195765000000000100e+01 1.698069999999999936e+03
4.499999999999999833e-02 6.706159999999999899e-01 1.374559999999999782e+00 4.338365000000000293e+01 1.698394999999999982e+03
4.599999999999999922e-02 6.710205000000000197e-01 2.295874999999999666e+00 4.521975000000000477e+01 1.698835000000000036e+03
4.700000000000000011e-02 6.715109999999999690e-01 3.381694999999999673e+00 4.744559999999999889e+01 1.699384999999999991e+03
4.800000000000000100e-02 6.720800000000000107e-01 4.624284999999999535e+00 5.003305000000000291e+01 1.700029999999999973e+03
4.900000000000000189e-02 6.727170000000000094e-01 6.006120000000000125e+00 5.294180000000000064e+01 1.700764999999999873e+03
5.000000000000000278e-02 6.734084999999999654e-01 7.500351000000000212e+00 5.611959999999999837e+01 1.701585000000000036e+03
5.100000000000000366e-02 6.741384999999999739e-01 9.073578499999999991e+00 5.950345000000000084e+01 1.702470000000000027e+03
5.200000000000000455e-02 6.748899999999999899e-01 1.068885500000000022e+01 6.302420000000000755e+01 1.703400000000000091e+03
5.300000000000000544e-02 6.756474999999999564e-01 1.230943500000000057e+01 6.661145000000000493e+01 1.704355000000000018e+03
5.399999999999999939e-02 6.763980000000000548e-01 1.390192500000000031e+01 7.019910000000000139e+01 1.705325000000000045e+03
5.500000000000000028e-02 6.771300000000000097e-01 1.543871000000000038e+01 7.373040000000000305e+01 1.706295000000000073e+03
5.600000000000000117e-02 6.778370000000000228e-01 1.689905000000000257e+01 7.716089999999999804e+01 1.707250000000000000e+03
5.700000000000000205e-02 6.785145000000000204e-01 1.826930000000000121e+01 8.046020000000000039e+01 1.708174999999999955e+03
5.800000000000000294e-02 6.791610000000000147e-01 1.954250000000000043e+01 8.361204999999999643e+01 1.709070000000000164e+03
5.900000000000000383e-02 6.797785000000000633e-01 2.071730000000000160e+01 8.661279999999999291e+01 1.709934999999999945e+03
6.000000000000000472e-02 6.803695000000000714e-01 2.179625000000000057e+01 8.946930000000000405e+01 1.710755000000000109e+03
6.099999999999999867e-02 6.809374999999999734e-01 2.278500000000000014e+01 9.219599999999999795e+01 1.711549999999999955e+03
6.199999999999999956e-02 6.814879999999999827e-01 2.369084999999999752e+01 9.481229999999999336e+01 1.712309999999999945e+03
6.300000000000000044e-02 6.820245000000000335e-01 2.452159999999999940e+01 9.734014999999999418e+01 1.713049999999999955e+03
6.400000000000000133e-02 6.825510000000000188e-01 2.528474999999999895e+01 9.979929999999998813e+01 1.713769999999999982e+03
6.500000000000000222e-02 6.830709999999999837e-01 2.598669999999999902e+01 1.022085000000000008e+02 1.714470000000000027e+03
6.600000000000000311e-02 6.835865000000000968e-01 2.663210000000000122e+01 1.045798499999999933e+02 1.715159999999999854e+03
6.700000000000000400e-02 6.840964999999999963e-01 2.722329999999999828e+01 1.069210000000000065e+02 1.715840000000000146e+03
6.800000000000000488e-02 6.846010000000000151e-01 2.776030000000000086e+01 1.092305000000000064e+02 1.716509999999999991e+03
6.900000000000000577e-02 6.850974999999999149e-01 2.824099999999999966e+01 1.115030000000000001e+02 1.717174999999999955e+03
7.000000000000000666e-02 6.855824999999999836e-01 2.866134999999999877e+01 1.137249999999999943e+02 1.717825000000000045e+03
7.100000000000000755e-02 6.860505000000000075e-01 2.901599999999999824e+01 1.158780000000000001e+02 1.718454999999999927e+03
7.200000000000000844e-02 6.864980000000000526e-01 2.929919999999999902e+01 1.179410000000000025e+02 1.719059999999999945e+03
7.300000000000000933e-02 6.869195000000000162e-01 2.950515000000000043e+01 1.198930000000000007e+02 1.719634999999999991e+03
7.399999999999999634e-02 6.873110000000000053e-01 2.962884999999999991e+01 1.217119999999999891e+02 1.720180000000000064e+03
7.499999999999999722e-02 6.876685000000000159e-01 2.966644999999999754e+01 1.233774999999999977e+02 1.720680000000000064e+03
7.599999999999999811e-02 6.879889999999999617e-01 2.961554999999999893e+01 1.248745000000000118e+02 1.721139999999999873e+03
7.699999999999999900e-02 6.882699999999999374e-01 2.947514999999999930e+01 1.261885000000000048e+02 1.721549999999999955e+03
7.799999999999999989e-02 6.885105000000000253e-01 2.924600000000000222e+01 1.273119999999999976e+02 1.721904999999999973e+03
7.900000000000000078e-02 6.887099999999999334e-01 2.893030000000000257e+01 1.282404999999999973e+02 1.722210000000000036e+03
8.000000000000000167e-02 6.888680000000000359e-01 2.853190000000000026e+01 1.289745000000000061e+02 1.722460000000000036e+03
8.100000000000000255e-02 6.889875000000000860e-01 2.805584999999999951e+01 1.295185000000000173e+02 1.722654999999999973e+03
8.200000000000000344e-02 6.890680000000000138e-01 2.750900000000000034e+01 1.298799999999999955e+02 1.722795000000000073e+03
8.300000000000000433e-02 6.891145000000000742e-01 2.689930000000000021e+01 1.300709999999999980e+02 1.722889999999999873e+03
8.400000000000000522e-02 6.891294999999999504e-01 2.623604999999999876e+01 1.301074999999999875e+02 1.722940000000000055e+03
8.500000000000000611e-02 6.891160000000000618e-01 2.552960000000000207e+01 1.300070000000000050e+02 1.722945000000000164e+03
8.600000000000000699e-02 6.890795000000000670e-01 2.479104999999999848e+01 1.297895000000000039e+02 1.722920000000000073e+03
8.700000000000000788e-02 6.890244999999999287e-01 2.403215000000000146e+01 1.294764999999999873e+02 1.722860000000000127e+03
8.800000000000000877e-02 6.889549999999999841e-01 2.326449999999999818e+01 1.290919999999999845e+02 1.722775000000000091e+03
8.899999999999999578e-02 6.888765000000000027e-01 2.249929999999999808e+01 1.286560000000000059e+02 1.722670000000000073e+03
8.999999999999999667e-02 6.887929999999999886e-01 2.174680000000000035e+01 1.281910000000000025e+02 1.722559999999999945e+03
9.099999999999999756e-02 6.887079999999999869e-01 2.101575000000000060e+01 1.277160000000000082e+02 1.722434999999999945e+03
9.199999999999999845e-02 6.886244999999999727e-01 2.031315000000000026e+01 1.272464999999999975e+02 1.722309999999999945e+03
9.299999999999999933e-02 6.885449999999999626e-01 1.964399999999999835e+01 1.267955000000000041e+02 1.722184999999999945e+03
9.400000000000000022e-02 6.884700000000000264e-01 1.901075000000000159e+01 1.263714999999999975e+02 1.722059999999999945e+03
9.500000000000000111e-02 6.884000000000000119e-01 1.841389999999999816e+01 1.259784999999999968e+02 1.721944999999999936e+03
9.600000000000000200e-02 6.883354999999999890e-01 1.785170000000000101e+01 1.256169999999999902e+02 1.721839999999999918e+03
9.700000000000000289e-02 6.882749999999999702e-01 1.732065000000000055e+01 1.252835000000000036e+02 1.721739999999999782e+03
9.800000000000000377e-02 6.882159999999999389e-01 1.681575000000000131e+01 1.249710000000000036e+02 1.721644999999999982e+03
9.900000000000000466e-02 6.881574999999999775e-01 1.633079999999999998e+01 1.246719999999999970e+02 1.721549999999999955e+03
1.000000000000000056e-01 6.880964999999999998e-01 1.585909999999999975e+01 1.243739999999999952e+02 1.721460000000000036e+03
1.010000000000000064e-01 6.880310000000000592e-01 1.539349999999999952e+01 1.240680000000000121e+02 1.721369999999999891e+03
1.020000000000000073e-01 6.879589999999999872e-01 1.492699999999999960e+01 1.237415000000000020e+02 1.721269999999999982e+03
1.030000000000000082e-01 6.878785000000000593e-01 1.445310000000000095e+01 1.233845000000000027e+02 1.721170000000000073e+03
1.040000000000000091e-01 6.877869999999999262e-01 1.396614999999999895e+01 1.229874999999999972e+02 1.721055000000000064e+03
1.050000000000000100e-01 6.876845000000000319e-01 1.346154999999999902e+01 1.225444999999999993e+02 1.720934999999999945e+03
1.059999999999999970e-01 6.875700000000000145e-01 1.293600499999999975e+01 1.220504999999999995e+02 1.720799999999999955e+03
1.069999999999999979e-01 6.874439999999999440e-01 1.238798000000000066e+01 1.215040000000000049e+02 1.720650000000000091e+03
1.079999999999999988e-01 6.873070000000000013e-01 1.181743499999999969e+01 1.209069999999999965e+02 1.720490000000000009e+03
1.089999999999999997e-01 6.871604999999999519e-01 1.122603499999999954e+01 1.202640000000000100e+02 1.720309999999999945e+03
1.100000000000000006e-01 6.870069999999999233e-01 1.061717499999999959e+01 1.195829999999999984e+02 1.720130000000000109e+03
1.110000000000000014e-01 6.868484999999999729e-01 9.995570000000000732e+00 1.188750000000000000e+02 1.719934999999999945e+03
1.120000000000000023e-01 6.866889999999999938e-01 9.367329999999999046e+00 1.181514999999999986e+02 1.719735000000000127e+03
1.130000000000000032e-01 6.865304999999999325e-01 8.739399999999999835e+00 1.174279999999999973e+02 1.719539999999999964e+03
1.140000000000000041e-01 6.863775000000000848e-01 8.119410000000000238e+00 1.167199999999999989e+02 1.719340000000000146e+03
1.150000000000000050e-01 6.862330000000000929e-01 7.515204999999999913e+00 1.160424999999999898e+02 1.719150000000000091e+03
1.160000000000000059e-01 6.861005000000000020e-01 6.934549999999999770e+00 1.154115000000000038e+02 1.718974999999999909e+03
1.170000000000000068e-01 6.859824999999999395e-01 6.384655000000000413e+00 1.148419999999999987e+02 1.718804999999999836e+03
1.180000000000000077e-01 6.858815000000000328e-01 5.871914999999999552e+00 1.143439999999999941e+02 1.718659999999999854e+03
1.190000000000000085e-01 6.857999999999999652e-01 5.401614999999999611e+00 1.139290000000000020e+02 1.718529999999999973e+03
1.200000000000000094e-01 6.857385000000000286e-01 4.977685000000000137e+00 1.136039999999999992e+02 1.718429999999999836e+03
1.209999999999999964e-01 6.856965000000000421e-01 4.602570000000000050e+00 1.133719999999999999e+02 1.718355000000000018e+03
1.219999999999999973e-01 6.856754999999999933e-01 4.277179999999999538e+00 1.132330000000000041e+02 1.718300000000000182e+03
1.229999999999999982e-01 6.856735000000000468e-01 4.000880000000000436e+00 1.131854999999999905e+02 1.718269999999999982e+03
1.239999999999999991e-01 6.856889999999999930e-01 3.771650000000000169e+00 1.132229999999999990e+02 1.718260000000000218e+03
1.250000000000000000e-01 6.857199999999999962e-01 3.586240000000000094e+00 1.133370000000000033e+02 1.718275000000000091e+03
1.260000000000000009e-01 6.857644999999999991e-01 3.440405000000000157e+00 1.135180000000000007e+02 1.718309999999999945e+03
1.270000000000000018e-01 6.858189999999999564e-01 3.329159999999999897e+00 1.137535000000000025e+02 1.718360000000000127e+03
1.280000000000000027e-01 6.858815000000000328e-01 3.247049999999999770e+00 1.140310000000000059e+02 1.718430000000000064e+03
1.290000000000000036e-01 6.859489999999999199e-01 3.188435000000000130e+00 1.143379999999999939e+02 1.718505000000000109e+03
1.300000000000000044e-01 6.860195000000000043e-01 3.147694999999999688e+00 1.146620000000000061e+02 1.718579999999999927e+03
1.310000000000000053e-01 6.860895000000000188e-01 3.119444999999999801e+00 1.149909999999999997e+02 1.718670000000000073e+03
1.320000000000000062e-01 6.861574999999999758e-01 3.098685000000000134e+00 1.153149999999999977e+02 1.718755000000000109e+03
1.330000000000000071e-01 6.862219999999999986e-01 3.080899999999999750e+00 1.156244999999999976e+02 1.718835000000000036e+03
1.340000000000000080e-01 6.862814999999999888e-01 3.062165000000000248e+00 1.159120000000000061e+02 1.718914999999999964e+03
1.350000000000000089e-01 6.863344999999999585e-01 3.039149999999999796e+00 1.161709999999999923e+02 1.718985000000000127e+03
1.360000000000000098e-01 6.863805000000000600e-01 3.009160000000000057e+00 1.163979999999999961e+02 1.719055000000000064e+03
1.370000000000000107e-01 6.864190000000000014e-01 2.970125000000000348e+00 1.165895000000000010e+02 1.719110000000000127e+03
1.380000000000000115e-01 6.864500000000000046e-01 2.920599999999999863e+00 1.167435000000000116e+02 1.719154999999999973e+03
1.390000000000000124e-01 6.864729999999999999e-01 2.859709999999999752e+00 1.168605000000000018e+02 1.719190000000000055e+03
1.400000000000000133e-01 6.864885000000000570e-01 2.787150000000000016e+00 1.169395000000000095e+02 1.719220000000000027e+03
1.410000000000000142e-01 6.864965000000000650e-01 2.703094999999999803e+00 1.169844999999999970e+02 1.719240000000000009e+03
1.420000000000000151e-01 6.864980000000000526e-01 2.608190000000000008e+00 1.169950000000000045e+02 1.719244999999999891e+03
1.430000000000000160e-01 6.864934999999999787e-01 2.503445000000000142e+00 1.169754999999999967e+02 1.719250000000000000e+03
1.440000000000000169e-01 6.864839999999999831e-01 2.390159999999999840e+00 1.169285000000000139e+02 1.719244999999999891e+03
1.450000000000000178e-01 6.864695000000000658e-01 2.269840000000000302e+00 1.168575000000000017e+02 1.719230000000000018e+03
1.459999999999999909e-01 6.864509999999999224e-01 2.144115000000000215e+00 1.167660000000000053e+02 1.719204999999999927e+03
1.469999999999999918e-01 6.864299999999999846e-01 2.014619999999999855e+00 1.166569999999999965e+02 1.719180000000000064e+03
1.479999999999999927e-01 6.864055000000000017e-01 1.882929999999999993e+00 1.165329999999999870e+02 1.719150000000000091e+03
1.489999999999999936e-01 6.863779999999999326e-01 1.750469999999999970e+00 1.163975000000000080e+02 1.719115000000000009e+03
1.499999999999999944e-01 6.863494999999999457e-01 1.618469500000000227e+00 1.162505000000000024e+02 1.719079999999999927e+03
1.509999999999999953e-01 6.863190000000000124e-01 1.487924499999999872e+00 1.160955000000000013e+02 1.719034999999999854e+03
1.519999999999999962e-01 6.862869999999999804e-01 1.359589500000000228e+00 1.159320000000000022e+02 1.718994999999999891e+03
1.529999999999999971e-01 6.862530000000000019e-01 1.233979000000000159e+00 1.157605000000000075e+02 1.718949999999999818e+03
1.539999999999999980e-01 6.862165000000000070e-01 1.111411499999999997e+00 1.155805000000000007e+02 1.718900000000000091e+03
1.549999999999999989e-01 6.861789999999999834e-01 9.920630000000000281e-01 1.153919999999999959e+02 1.718849999999999909e+03
1.559999999999999998e-01 6.861384999999999845e-01 8.760054999999999925e-01 1.151940000000000026e+02 1.718795000000000073e+03
1.570000000000000007e-01 6.860960000000000392e-01 7.633039999999999825e-01 1.149849999999999994e+02 1.718734999999999900e+03
1.580000000000000016e-01 6.860505000000000075e-01 6.540539999999999132e-01 1.147659999999999911e+02 1.718674999999999955e+03
1.590000000000000024e-01 6.860030000000000294e-01 5.484394999999999687e-01 1.145349999999999966e+02 1.718615000000000009e+03
