# t [s], A [cm^2], U [cm/s], P [cPa], c [cm/s]
1.000000000000000021e-03 2.100825000000000053e-01 2.328719999999999957e-01 1.049669999999999987e+02 2.089750000000000000e+03
2.000000000000000042e-03 2.100299999999999945e-01 1.760422500000000001e+00 1.017342500000000030e+02 2.089354999999999563e+03
3.000000000000000062e-03 2.098764999999999936e-01 3.703480499999999953e+00 9.712854999999998995e+01 2.088260000000000218e+03
4.000000000000000083e-03 2.096600000000000130e-01 5.909152150000000603e+00 9.190139999999999532e+01 2.086750000000000000e+03
5.000000000000000104e-03 2.094229999999999980e-01 8.302640000000000242e+00 8.700724999999999909e+01 2.085100000000000364e+03
6.000000000000000125e-03 2.091909999999999881e-01 1.071749999999999936e+01 8.288230000000000075e+01 2.083514999999999873e+03
7.000000000000000146e-03 2.089734999999999787e-01 1.292258999999999958e+01 7.937935000000000230e+01 2.082050000000000182e+03
8.000000000000000167e-03 2.087729999999999864e-01 1.479228499999999968e+01 7.624039999999999395e+01 2.080724999999999909e+03
9.000000000000001055e-03 2.085950000000000026e-01 1.634544999999999959e+01 7.347739999999998872e+01 2.079574999999999818e+03
1.000000000000000194e-02 2.084439999999999904e-01 1.762440000000000140e+01 7.118769999999999243e+01 2.078604999999999563e+03
1.099999999999999936e-02 2.083204999999999918e-01 1.865299999999999869e+01 6.937950000000000728e+01 2.077815000000000055e+03
1.200000000000000025e-02 2.082225000000000048e-01 1.945244999999999891e+01 6.800724999999999909e+01 2.077204999999999927e+03
1.300000000000000114e-02 2.081469999999999987e-01 2.003219999999999956e+01 6.697980000000001155e+01 2.076739999999999782e+03
1.400000000000000203e-02 2.080875000000000086e-01 2.039545000000000030e+01 6.615980000000000416e+01 2.076380000000000109e+03
1.499999999999999944e-02 2.080400000000000027e-01 2.058455000000000013e+01 6.547469999999999857e+01 2.076099999999999909e+03
1.600000000000000033e-02 2.080064999999999831e-01 2.071345000000000169e+01 6.505375000000000796e+01 2.075909999999999854e+03
1.700000000000000122e-02 2.079960000000000142e-01 2.093670000000000186e+01 6.521325000000000216e+01 2.075859999999999673e+03
1.800000000000000211e-02 2.080190000000000095e-01 2.137290000000000134e+01 6.626820000000000732e+01 2.076019999999999982e+03
1.900000000000000300e-02 2.080810000000000159e-01 2.204030000000000200e+01 6.830960000000000321e+01 2.076414999999999964e+03
2.000000000000000042e-02 2.081749999999999989e-01 2.284454999999999814e+01 7.109850000000000136e+01 2.077025000000000091e+03
2.100000000000000130e-02 2.082884999999999875e-01 2.361935000000000073e+01 7.412869999999999493e+01 2.077760000000000218e+03
2.200000000000000219e-02 2.084004999999999885e-01 2.419350000000000023e+01 7.680885000000000673e+01 2.078500000000000000e+03
2.299999999999999961e-02 2.084940000000000127e-01 2.445190000000000197e+01 7.866724999999999568e+01 2.079130000000000109e+03
2.400000000000000050e-02 2.085559999999999914e-01 2.436800000000000210e+01 7.949389999999999645e+01 2.079565000000000055e+03
2.500000000000000139e-02 2.085845000000000060e-01 2.399984999999999857e+01 7.937444999999999595e+01 2.079774999999999636e+03
2.600000000000000228e-02 2.085845000000000060e-01 2.345730000000000004e+01 7.861639999999999873e+01 2.079800000000000182e+03
2.700000000000000316e-02 2.085674999999999890e-01 2.285600000000000165e+01 7.761009999999998854e+01 2.079704999999999927e+03
2.800000000000000058e-02 2.085445000000000215e-01 2.227720000000000056e+01 7.668359999999999843e+01 2.079554999999999836e+03
2.900000000000000147e-02 2.085224999999999995e-01 2.174725000000000108e+01 7.600475000000000136e+01 2.079409999999999854e+03
3.000000000000000236e-02 2.085039999999999949e-01 2.123989999999999867e+01 7.555559999999999832e+01 2.079289999999999964e+03
3.099999999999999978e-02 2.084880000000000067e-01 2.069684999999999775e+01 7.517595000000000027e+01 2.079185000000000400e+03
3.200000000000000067e-02 2.084675000000000000e-01 2.005740000000000123e+01 7.465085000000000548e+01 2.079055000000000291e+03
3.300000000000000155e-02 2.084374999999999978e-01 1.928719999999999857e+01 7.380850000000000932e+01 2.078869999999999891e+03
3.400000000000000244e-02 2.083949999999999969e-01 1.839724999999999966e+01 7.259850000000000136e+01 2.078599999999999909e+03
3.500000000000000333e-02 2.083409999999999984e-01 1.744754999999999967e+01 7.112564999999999316e+01 2.078255000000000109e+03
3.600000000000000422e-02 2.082824999999999815e-01 1.653464999999999918e+01 6.963079999999999359e+01 2.077875000000000000e+03
3.700000000000000511e-02 2.082284999999999831e-01 1.576665000000000028e+01 6.842549999999999955e+01 2.077525000000000091e+03
3.799999999999999906e-02 2.081910000000000149e-01 1.523489999999999966e+01 6.780369999999999209e+01 2.077275000000000091e+03
3.899999999999999994e-02 2.081780000000000019e-01 1.499024999999999963e+01 6.795814999999998918e+01 2.077170000000000073e+03
4.000000000000000083e-02 2.081949999999999912e-01 1.503125000000000000e+01 6.892830000000000723e+01 2.077264999999999873e+03
4.100000000000000172e-02 2.082394999999999941e-01 1.530545000000000044e+01 7.058979999999999677e+01 2.077534999999999854e+03
4.200000000000000261e-02 2.083069999999999922e-01 1.572210000000000107e+01 7.268439999999999657e+01 2.077954999999999927e+03
4.300000000000000350e-02 2.083865000000000023e-01 1.617145000000000010e+01 7.487720000000000198e+01 2.078460000000000036e+03
4.400000000000000439e-02 2.084654999999999980e-01 1.654449999999999932e+01 7.682335000000000491e+01 2.078974999999999909e+03
4.499999999999999833e-02 2.085329999999999961e-01 1.675035000000000096e+01 7.822865000000000180e+01 2.079414999999999964e+03
4.599999999999999922e-02 2.085785000000000000e-01 1.672664999999999935e+01 7.889130000000000109e+01 2.079725000000000364e+03
4.700000000000000011e-02 2.085960000000000036e-01 1.644335000000000235e+01 7.871989999999999554e+01 2.079850000000000364e+03
4.800000000000000100e-02 2.085819999999999896e-01 1.590029999999999966e+01 7.772835000000000605e+01 2.079775000000000091e+03
4.900000000000000189e-02 2.085380000000000011e-01 1.512025000000000041e+01 7.601295000000000357e+01 2.079500000000000000e+03
5.000000000000000278e-02 2.084670000000000134e-01 1.414014999999999844e+01 7.372030000000000882e+01 2.079055000000000291e+03
5.100000000000000366e-02 2.083740000000000037e-01 1.300292999999999921e+01 7.101505000000000223e+01 2.078460000000000036e+03
5.200000000000000455e-02 2.082640000000000047e-01 1.175148499999999885e+01 6.805414999999999281e+01 2.077750000000000000e+03
5.300000000000000544e-02 2.081430000000000224e-01 1.042564499999999938e+01 6.497214999999999918e+01 2.076965000000000146e+03
5.399999999999999939e-02 2.080159999999999787e-01 9.061605000000000132e+00 6.187669999999999959e+01 2.076144999999999982e+03
5.500000000000000028e-02 2.078869999999999885e-01 7.693385000000000140e+00 5.885350000000000392e+01 2.075300000000000182e+03
5.600000000000000117e-02 2.077594999999999859e-01 6.354980000000000295e+00 5.597509999999999764e+01 2.074469999999999800e+03
5.700000000000000205e-02 2.076375000000000026e-01 5.082189999999999763e+00 5.331069999999999709e+01 2.073670000000000073e+03
5.800000000000000294e-02 2.075239999999999863e-01 3.913490000000000357e+00 5.093370000000000175e+01 2.072929999999999836e+03
5.900000000000000383e-02 2.074225000000000096e-01 2.889605500000000049e+00 4.892444999999999311e+01 2.072260000000000218e+03
6.000000000000000472e-02 2.073375000000000079e-01 2.051721000000000128e+00 4.736860000000000070e+01 2.071690000000000055e+03
6.099999999999999867e-02 2.072714999999999974e-01 1.438849700000000009e+00 4.635120000000000573e+01 2.071250000000000000e+03
6.199999999999999956e-02 2.072284999999999822e-01 1.084716500000000083e+00 4.594865000000000066e+01 2.070954999999999927e+03
6.300000000000000044e-02 2.072120000000000073e-01 1.014817999999999998e+00 4.621975000000000477e+01 2.070824999999999818e+03
6.400000000000000133e-02 2.072239999999999915e-01 1.244157500000000027e+00 4.719849999999999568e+01 2.070885000000000218e+03
6.500000000000000222e-02 2.072650000000000048e-01 1.775919500000000095e+00 4.888954999999999984e+01 2.071130000000000109e+03
6.600000000000000311e-02 2.073364999999999791e-01 2.601233500000000198e+00 5.126655000000000229e+01 2.071569999999999709e+03
6.700000000000000400e-02 2.074360000000000093e-01 3.699945000000000039e+00 5.427425000000000210e+01 2.072194999999999709e+03
6.800000000000000488e-02 2.075619999999999965e-01 5.042150000000000354e+00 5.783235000000000525e+01 2.073000000000000000e+03
6.900000000000000577e-02 2.077105000000000201e-01 6.590309999999999668e+00 6.184244999999999948e+01 2.073949999999999818e+03
7.000000000000000666e-02 2.078785000000000216e-01 8.301679999999999282e+00 6.619450000000000500e+01 2.075034999999999854e+03
7.100000000000000755e-02 2.080615000000000103e-01 1.013088500000000103e+01 7.077465000000000828e+01 2.076210000000000036e+03
7.200000000000000844e-02 2.082545000000000091e-01 1.203227499999999850e+01 7.547214999999999918e+01 2.077470000000000255e+03
7.300000000000000933e-02 2.084535000000000138e-01 1.396263000000000076e+01 8.018574999999999875e+01 2.078764999999999873e+03
7.399999999999999634e-02 2.086540000000000061e-01 1.588279999999999959e+01 8.482880000000000109e+01 2.080079999999999927e+03
7.499999999999999722e-02 2.088535000000000252e-01 1.775990000000000180e+01 8.933375000000000909e+01 2.081389999999999873e+03
7.599999999999999811e-02 2.090480000000000116e-01 1.956804999999999950e+01 9.365430000000000632e+01 2.082675000000000182e+03
7.699999999999999900e-02 2.092364999999999919e-01 2.128924999999999912e+01 9.776529999999999632e+01 2.083920000000000073e+03
7.799999999999999989e-02 2.094174999999999787e-01 2.291319999999999979e+01 1.016632000000000033e+02 2.085125000000000000e+03
7.900000000000000078e-02 2.095914999999999861e-01 2.443665000000000020e+01 1.053619500000000073e+02 2.086279999999999745e+03
8.000000000000000167e-02 2.097585000000000144e-01 2.586225000000000307e+01 1.088890000000000100e+02 2.087385000000000218e+03
8.100000000000000255e-02 2.099185000000000079e-01 2.719695000000000107e+01 1.122800000000000011e+02 2.088460000000000036e+03
8.200000000000000344e-02 2.100739999999999830e-01 2.845035000000000025e+01 1.155755000000000052e+02 2.089494999999999891e+03
8.300000000000000433e-02 2.102255000000000096e-01 2.963309999999999889e+01 1.188110000000000070e+02 2.090510000000000218e+03
8.400000000000000522e-02 2.103750000000000064e-01 3.075544999999999973e+01 1.220194999999999936e+02 2.091510000000000218e+03
8.500000000000000611e-02 2.105234999999999745e-01 3.182605000000000217e+01 1.252229999999999990e+02 2.092505000000000109e+03
8.600000000000000699e-02 2.106709999999999972e-01 3.285105000000000075e+01 1.284345000000000141e+02 2.093494999999999891e+03
8.700000000000000788e-02 2.108185000000000198e-01 3.383375000000000199e+01 1.316545000000000130e+02 2.094480000000000018e+03
8.800000000000000877e-02 2.109659999999999869e-01 3.477450000000000330e+01 1.348745000000000118e+02 2.095470000000000255e+03
8.899999999999999578e-02 2.111124999999999807e-01 3.567060000000000031e+01 1.380755000000000052e+02 2.096454999999999927e+03
8.999999999999999667e-02 2.112585000000000157e-01 3.651709999999999923e+01 1.412334999999999923e+02 2.097429999999999836e+03
9.099999999999999756e-02 2.114015000000000200e-01 3.730649999999999977e+01 1.443154999999999859e+02 2.098390000000000327e+03
9.199999999999999845e-02 2.115405000000000202e-01 3.803000000000000114e+01 1.472895000000000039e+02 2.099324999999999818e+03
9.299999999999999933e-02 2.116750000000000020e-01 3.867764999999999986e+01 1.501195000000000164e+02 2.100234999999999673e+03
9.400000000000000022e-02 2.118030000000000190e-01 3.923914999999999509e+01 1.527704999999999984e+02 2.101094999999999800e+03
9.500000000000000111e-02 2.119230000000000003e-01 3.970409999999999684e+01 1.552110000000000127e+02 2.101900000000000091e+03
9.600000000000000200e-02 2.120340000000000003e-01 4.006309999999999860e+01 1.574099999999999966e+02 2.102649999999999636e+03
9.700000000000000289e-02 2.121339999999999892e-01 4.030755000000000621e+01 1.593444999999999823e+02 2.103329999999999927e+03
9.800000000000000377e-02 2.122229999999999950e-01 4.043095000000000283e+01 1.609929999999999950e+02 2.103940000000000055e+03
9.900000000000000466e-02 2.122995000000000021e-01 4.042880000000000251e+01 1.623435000000000059e+02 2.104460000000000036e+03
1.000000000000000056e-01 2.123629999999999962e-01 4.029925000000000068e+01 1.633894999999999982e+02 2.104895000000000437e+03
1.010000000000000064e-01 2.124135000000000051e-01 4.004325000000000045e+01 1.641324999999999932e+02 2.105250000000000000e+03
1.020000000000000073e-01 2.124510000000000010e-01 3.966490000000000293e+01 1.645815000000000055e+02 2.105510000000000218e+03
1.030000000000000082e-01 2.124759999999999982e-01 3.917104999999999393e+01 1.647529999999999859e+02 2.105689999999999600e+03
1.040000000000000091e-01 2.124889999999999834e-01 3.857155000000000200e+01 1.646705000000000041e+02 2.105789999999999964e+03
1.050000000000000100e-01 2.124909999999999854e-01 3.787865000000000038e+01 1.643634999999999877e+02 2.105809999999999945e+03
1.059999999999999970e-01 2.124830000000000052e-01 3.710644999999999527e+01 1.638640000000000043e+02 2.105769999999999982e+03
1.069999999999999979e-01 2.124670000000000170e-01 3.627039999999999509e+01 1.632094999999999914e+02 2.105670000000000073e+03
1.079999999999999988e-01 2.124439999999999940e-01 3.538660000000000139e+01 1.624370000000000118e+02 2.105519999999999982e+03
1.089999999999999997e-01 2.124150000000000205e-01 3.447124999999999773e+01 1.615829999999999984e+02 2.105329999999999927e+03
1.100000000000000006e-01 2.123824999999999741e-01 3.353995000000000459e+01 1.606809999999999832e+02 2.105119999999999891e+03
1.110000000000000014e-01 2.123474999999999946e-01 3.260679999999999978e+01 1.597630000000000052e+02 2.104885000000000218e+03
1.120000000000000023e-01 2.123109999999999997e-01 3.168475000000000108e+01 1.588539999999999850e+02 2.104644999999999982e+03
1.130000000000000032e-01 2.122745000000000049e-01 3.078425000000000011e+01 1.579755000000000109e+02 2.104400000000000091e+03
1.140000000000000041e-01 2.122379999999999822e-01 2.991365000000000052e+01 1.571419999999999959e+02 2.104159999999999854e+03
1.150000000000000050e-01 2.122034999999999894e-01 2.907874999999999943e+01 1.563625000000000114e+02 2.103925000000000182e+03
1.160000000000000059e-01 2.121709999999999985e-01 2.828255000000000052e+01 1.556390000000000100e+02 2.103699999999999818e+03
1.170000000000000068e-01 2.121395000000000086e-01 2.752575000000000216e+01 1.549699999999999989e+02 2.103489999999999782e+03
1.180000000000000077e-01 2.121099999999999930e-01 2.680640000000000001e+01 1.543455000000000155e+02 2.103284999999999854e+03
1.190000000000000085e-01 2.120819999999999927e-01 2.612044999999999817e+01 1.537524999999999977e+02 2.103099999999999909e+03
1.200000000000000094e-01 2.120549999999999935e-01 2.546199999999999974e+01 1.531739999999999782e+02 2.102914999999999964e+03
1.209999999999999964e-01 2.120285000000000086e-01 2.482354999999999734e+01 1.525905000000000200e+02 2.102730000000000018e+03
1.219999999999999973e-01 2.120009999999999950e-01 2.419664999999999822e+01 1.519799999999999898e+02 2.102545000000000073e+03
1.229999999999999982e-01 2.119719999999999938e-01 2.357244999999999990e+01 1.513210000000000264e+02 2.102345000000000255e+03
1.239999999999999991e-01 2.119409999999999905e-01 2.294214999999999804e+01 1.505925000000000011e+02 2.102140000000000327e+03
1.250000000000000000e-01 2.119070000000000120e-01 2.229739999999999966e+01 1.497760000000000105e+02 2.101909999999999854e+03
1.260000000000000009e-01 2.118694999999999884e-01 2.163100000000000023e+01 1.488559999999999945e+02 2.101654999999999745e+03
1.270000000000000018e-01 2.118269999999999875e-01 2.093735000000000213e+01 1.478209999999999980e+02 2.101375000000000000e+03
1.280000000000000027e-01 2.117799999999999960e-01 2.021269999999999811e+01 1.466659999999999968e+02 2.101060000000000400e+03
1.290000000000000036e-01 2.117279999999999995e-01 1.945539999999999736e+01 1.453899999999999864e+02 2.100720000000000255e+03
1.300000000000000044e-01 2.116709999999999980e-01 1.866615000000000180e+01 1.439979999999999905e+02 2.100335000000000036e+03
1.310000000000000053e-01 2.116095000000000059e-01 1.784809999999999874e+01 1.425020000000000095e+02 2.099925000000000182e+03
1.320000000000000062e-01 2.115434999999999954e-01 1.700650000000000261e+01 1.409194999999999993e+02 2.099489999999999782e+03
1.330000000000000071e-01 2.114739999999999953e-01 1.614884999999999948e+01 1.392710000000000150e+02 2.099025000000000091e+03
1.340000000000000080e-01 2.114015000000000200e-01 1.528420000000000023e+01 1.375815000000000055e+02 2.098550000000000182e+03
1.350000000000000089e-01 2.113279999999999881e-01 1.442309999999999981e+01 1.358810000000000002e+02 2.098054999999999836e+03
1.360000000000000098e-01 2.112539999999999973e-01 1.357665000000000077e+01 1.341974999999999909e+02 2.097559999999999945e+03
1.370000000000000107e-01 2.111799999999999788e-01 1.275639999999999930e+01 1.325604999999999905e+02 2.097069999999999709e+03
1.380000000000000115e-01 2.111085000000000045e-01 1.197366000000000064e+01 1.309989999999999952e+02 2.096590000000000146e+03
1.390000000000000124e-01 2.110404999999999920e-01 1.123885500000000093e+01 1.295380000000000109e+02 2.096130000000000109e+03
1.400000000000000133e-01 2.109759999999999969e-01 1.056128499999999981e+01 1.281990000000000123e+02 2.095699999999999818e+03
1.410000000000000142e-01 2.109165000000000068e-01 9.948505000000000820e+00 1.270000000000000000e+02 2.095304999999999836e+03
1.420000000000000151e-01 2.108629999999999949e-01 9.406204999999999927e+00 1.259530000000000030e+02 2.094940000000000055e+03
1.430000000000000160e-01 2.108160000000000034e-01 8.938029999999999475e+00 1.250639999999999930e+02 2.094619999999999891e+03
1.440000000000000169e-01 2.107755000000000045e-01 8.545574999999999477e+00 1.243350000000000080e+02 2.094340000000000146e+03
1.450000000000000178e-01 2.107410000000000116e-01 8.228229999999999933e+00 1.237625000000000028e+02 2.094114999999999782e+03
1.459999999999999909e-01 2.107140000000000124e-01 7.983534999999999826e+00 1.233395000000000010e+02 2.093920000000000073e+03
1.469999999999999918e-01 2.106925000000000048e-01 7.807285000000000252e+00 1.230525000000000091e+02 2.093769999999999982e+03
1.479999999999999927e-01 2.106770000000000032e-01 7.693839999999999790e+00 1.228884999999999934e+02 2.093664999999999964e+03
1.489999999999999936e-01 2.106669999999999932e-01 7.636430000000000717e+00 1.228300000000000125e+02 2.093590000000000146e+03
1.499999999999999944e-01 2.106615000000000015e-01 7.627444999999999808e+00 1.228589999999999947e+02 2.093545000000000073e+03
1.509999999999999953e-01 2.106600000000000139e-01 7.658789999999999765e+00 1.229569999999999936e+02 2.093529999999999745e+03
1.519999999999999962e-01 2.106609999999999872e-01 7.722170000000000201e+00 1.231055000000000064e+02 2.093529999999999745e+03
1.529999999999999971e-01 2.106649999999999912e-01 7.809400000000000119e+00 1.232880000000000109e+02 2.093555000000000291e+03
1.539999999999999980e-01 2.106699999999999962e-01 7.912644999999999484e+00 1.234874999999999972e+02 2.093585000000000036e+03
1.549999999999999989e-01 2.106764999999999888e-01 8.024625000000000341e+00 1.236905000000000001e+02 2.093625000000000000e+03
1.559999999999999998e-01 2.106830000000000092e-01 8.138814999999999245e+00 1.238840000000000003e+02 2.093670000000000073e+03
1.570000000000000007e-01 2.106899999999999884e-01 8.249575000000000102e+00 1.240585000000000093e+02 2.093715000000000146e+03
1.580000000000000016e-01 2.106965000000000088e-01 8.352274999999998784e+00 1.242059999999999889e+02 2.093755000000000109e+03
1.590000000000000024e-01 2.107009999999999994e-01 8.443310000000000315e+00 1.243220000000000027e+02 2.093784999999999854e+03
