# t [s], A [cm^2], U [cm/s], P [cPa], c [cm/s]
1.000000000000000021e-03 5.982629999999999892e-01 2.321150000000000990e-03 9.579999999999999716e+01 1.562565000000000055e+03
2.000000000000000042e-03 5.982589999999999852e-01 7.800649999999999251e-03 9.578149999999999409e+01 1.562559999999999945e+03
3.000000000000000062e-03 5.983249999999999957e-01 1.313841499999999773e-01 9.590800000000000125e+01 1.562589999999999918e+03
4.000000000000000083e-03 5.983610000000000317e-01 2.081478999999999968e-01 9.600155000000000882e+01 1.562615000000000009e+03
5.000000000000000104e-03 5.983199999999999630e-01 1.477249999999999952e-01 9.589124999999999943e+01 1.562590000000000146e+03
6.000000000000000125e-03 5.982545000000000224e-01 3.351999999999999424e-02 9.562985000000000468e+01 1.562534999999999854e+03
7.000000000000000146e-03 5.981809999999999627e-01 -1.038909999999999556e-01 9.526415000000000077e+01 1.562460000000000036e+03
8.000000000000000167e-03 5.980524999999999869e-01 -3.553699999999999637e-01 9.468780000000000996e+01 1.562329999999999927e+03
9.000000000000001055e-03 5.978499999999999925e-01 -7.546799999999999065e-01 9.381844999999999857e+01 1.562134999999999991e+03
1.000000000000000194e-02 5.975694999999999757e-01 -1.299020000000000064e+00 9.261334999999999695e+01 1.561855000000000018e+03
1.099999999999999936e-02 5.971930000000000849e-01 -2.003240000000000354e+00 9.101290000000000191e+01 1.561485000000000127e+03
1.200000000000000025e-02 5.967195000000000693e-01 -2.846095000000000041e+00 8.899805000000000632e+01 1.561005000000000109e+03
1.300000000000000114e-02 5.961935000000000429e-01 -3.716390000000000526e+00 8.667545000000001210e+01 1.560430000000000064e+03
1.400000000000000203e-02 5.956884999999999541e-01 -4.442750000000000199e+00 8.427070000000000505e+01 1.559820000000000164e+03
1.499999999999999944e-02 5.952659999999999618e-01 -4.874512499999999804e+00 8.203425000000000011e+01 1.559224999999999909e+03
1.600000000000000033e-02 5.949514999999999665e-01 -4.942915999999999421e+00 8.014019999999999300e+01 1.558680000000000064e+03
1.700000000000000122e-02 5.947290000000000632e-01 -4.673390000000000377e+00 7.863605000000001155e+01 1.558215000000000146e+03
1.800000000000000211e-02 5.945550000000000557e-01 -4.160000000000000142e+00 7.744854999999999734e+01 1.557809999999999945e+03
1.900000000000000300e-02 5.943789999999999907e-01 -3.522784999999999833e+00 7.642879999999999541e+01 1.557444999999999936e+03
2.000000000000000042e-02 5.941625000000000378e-01 -2.865035000000000220e+00 7.541419999999999391e+01 1.557095000000000027e+03
2.100000000000000130e-02 5.938885000000000414e-01 -2.244176000000000393e+00 7.428395000000000437e+01 1.556724999999999909e+03
2.200000000000000219e-02 5.935630000000000628e-01 -1.665514999999999857e+00 7.298994999999999322e+01 1.556324999999999818e+03
2.299999999999999961e-02 5.932074999999999987e-01 -1.099034999999999762e+00 7.155230000000000246e+01 1.555894999999999982e+03
2.400000000000000050e-02 5.928424999999999390e-01 -5.085450000000002468e-01 7.002779999999999916e+01 1.555434999999999945e+03
2.500000000000000139e-02 5.924819999999999531e-01 1.212949999999999307e-01 6.846949999999999648e+01 1.554970000000000027e+03
2.600000000000000228e-02 5.921224999999999961e-01 7.701649999999999885e-01 6.689520000000000266e+01 1.554494999999999891e+03
2.700000000000000316e-02 5.917449999999999655e-01 1.382064999999999877e+00 6.527250000000000796e+01 1.554005000000000109e+03
2.800000000000000058e-02 5.913239999999999608e-01 1.877394999999999925e+00 6.352450000000000330e+01 1.553485000000000127e+03
2.900000000000000147e-02 5.908290000000000486e-01 2.172095000000000109e+00 6.154925000000000068e+01 1.552920000000000073e+03
3.000000000000000236e-02 5.902395000000000280e-01 2.198504999999999932e+00 5.924930000000000518e+01 1.552275000000000091e+03
3.099999999999999978e-02 5.895464999999999733e-01 1.922769999999999868e+00 5.656175000000000352e+01 1.551545000000000073e+03
3.200000000000000067e-02 5.887594999999999912e-01 1.354269999999999641e+00 5.348109999999999786e+01 1.550724999999999909e+03
3.300000000000000155e-02 5.879050000000000109e-01 5.451399999999999579e-01 5.006954999999999956e+01 1.549825000000000045e+03
3.400000000000000244e-02 5.870214999999999739e-01 -4.199000000000001620e-01 4.645120000000000005e+01 1.548860000000000127e+03
3.500000000000000333e-02 5.861520000000000064e-01 -1.438950000000000173e+00 4.279415000000000191e+01 1.547880000000000109e+03
3.600000000000000422e-02 5.853420000000000289e-01 -2.409370000000000012e+00 3.928589999999999804e+01 1.546920000000000073e+03
3.700000000000000511e-02 5.846295000000000242e-01 -3.241029999999999855e+00 3.610869999999999891e+01 1.546029999999999973e+03
3.799999999999999906e-02 5.840435000000000487e-01 -3.864474999999999660e+00 3.341870000000000118e+01 1.545239999999999782e+03
3.899999999999999994e-02 5.836019999999999541e-01 -4.233670000000000044e+00 3.133374999999999844e+01 1.544595000000000027e+03
4.000000000000000083e-02 5.833160000000000567e-01 -4.324233999999999689e+00 2.992759999999999820e+01 1.544110000000000127e+03
4.100000000000000172e-02 5.831859999999999822e-01 -4.128989999999999938e+00 2.923225000000000051e+01 1.543809999999999945e+03
4.200000000000000261e-02 5.832085000000000186e-01 -3.652339999999999698e+00 2.924465000000000003e+01 1.543690000000000055e+03
4.300000000000000350e-02 5.833754999999999358e-01 -2.905168999999999890e+00 2.993594999999999828e+01 1.543755000000000109e+03
4.400000000000000439e-02 5.836759999999999726e-01 -1.901429999999999954e+00 3.126059999999999661e+01 1.543994999999999891e+03
4.499999999999999833e-02 5.841009999999999813e-01 -6.567549999999999777e-01 3.316340000000000288e+01 1.544400000000000091e+03
4.599999999999999922e-02 5.846370000000000733e-01 8.110349999999999504e-01 3.558380000000000365e+01 1.544949999999999818e+03
4.700000000000000011e-02 5.852714999999999446e-01 2.480410000000000448e+00 3.845745000000000147e+01 1.545639999999999873e+03
4.800000000000000100e-02 5.859894999999999410e-01 4.324624999999999275e+00 4.171605000000000274e+01 1.546440000000000055e+03
4.900000000000000189e-02 5.867750000000000465e-01 6.310570000000000235e+00 4.528685000000000116e+01 1.547340000000000146e+03
5.000000000000000278e-02 5.876105000000000356e-01 8.399374999999999147e+00 4.909265000000000612e+01 1.548319999999999936e+03
5.100000000000000366e-02 5.884765000000000690e-01 1.054777499999999968e+01 5.305325000000000557e+01 1.549360000000000127e+03
5.200000000000000455e-02 5.893555000000000321e-01 1.271057000000000059e+01 5.708785000000000309e+01 1.550430000000000064e+03
5.300000000000000544e-02 5.902300000000000324e-01 1.484373499999999879e+01 6.111905000000000143e+01 1.551519999999999982e+03
5.399999999999999939e-02 5.910849999999999715e-01 1.690691999999999950e+01 6.507644999999999413e+01 1.552614999999999782e+03
5.500000000000000028e-02 5.919075000000000308e-01 1.886635000000000062e+01 6.890089999999999293e+01 1.553684999999999945e+03
5.600000000000000117e-02 5.926905000000000090e-01 2.069610000000000127e+01 7.254715000000000202e+01 1.554720000000000027e+03
5.700000000000000205e-02 5.934289999999999843e-01 2.237899999999999778e+01 7.598595000000000255e+01 1.555715000000000146e+03
5.800000000000000294e-02 5.941210000000000102e-01 2.390664999999999907e+01 7.920444999999999425e+01 1.556664999999999964e+03
5.900000000000000383e-02 5.947700000000000209e-01 2.527850000000000108e+01 8.220499999999999829e+01 1.557555000000000064e+03
6.000000000000000472e-02 5.953789999999999916e-01 2.650115000000000265e+01 8.500370000000000914e+01 1.558400000000000091e+03
6.099999999999999867e-02 5.959565000000000001e-01 2.758650000000000091e+01 8.762760000000000105e+01 1.559200000000000045e+03
6.199999999999999956e-02 5.965089999999999559e-01 2.855059999999999931e+01 9.011175000000000068e+01 1.559964999999999918e+03
6.300000000000000044e-02 5.970459999999999656e-01 2.941219999999999857e+01 9.249594999999999345e+01 1.560695000000000164e+03
6.400000000000000133e-02 5.975759999999999961e-01 3.019149999999999778e+01 9.482210000000000605e+01 1.561409999999999854e+03
6.500000000000000222e-02 5.981084999999999319e-01 3.090879999999999939e+01 9.713105000000000189e+01 1.562115000000000009e+03
6.600000000000000311e-02 5.986494999999999456e-01 3.158359999999999701e+01 9.945950000000000557e+01 1.562815000000000055e+03
6.700000000000000400e-02 5.992055000000000575e-01 3.223310000000000031e+01 1.018395500000000027e+02 1.563529999999999973e+03
6.800000000000000488e-02 5.997820000000000373e-01 3.287149999999999750e+01 1.042944999999999993e+02 1.564259999999999991e+03
6.900000000000000577e-02 6.003799999999999137e-01 3.350894999999999868e+01 1.068395000000000010e+02 1.565009999999999991e+03
7.000000000000000666e-02 6.009995000000000198e-01 3.415084999999999837e+01 1.094765000000000015e+02 1.565775000000000091e+03
7.100000000000000755e-02 6.016384999999999650e-01 3.479765000000000441e+01 1.122005000000000052e+02 1.566575000000000045e+03
7.200000000000000844e-02 6.022910000000000208e-01 3.544464999999999577e+01 1.149929999999999950e+02 1.567384999999999991e+03
7.300000000000000933e-02 6.029519999999999325e-01 3.608289999999999509e+01 1.178259999999999934e+02 1.568204999999999927e+03
7.399999999999999634e-02 6.036110000000000086e-01 3.669939999999999714e+01 1.206659999999999968e+02 1.569035000000000082e+03
7.499999999999999722e-02 6.042594999999999494e-01 3.727855000000000274e+01 1.234710000000000036e+02 1.569849999999999909e+03
7.599999999999999811e-02 6.048884999999999401e-01 3.780299999999999727e+01 1.261975000000000051e+02 1.570655000000000200e+03
7.699999999999999900e-02 6.054859999999999687e-01 3.825525000000000375e+01 1.288000000000000114e+02 1.571429999999999836e+03
7.799999999999999989e-02 6.060440000000000271e-01 3.861834999999999951e+01 1.312365000000000066e+02 1.572164999999999964e+03
7.900000000000000078e-02 6.065544999999999964e-01 3.887744999999999607e+01 1.334685000000000059e+02 1.572845000000000027e+03
8.000000000000000167e-02 6.070100000000000495e-01 3.902029999999999887e+01 1.354639999999999986e+02 1.573465000000000146e+03
8.100000000000000255e-02 6.074074999999999891e-01 3.903804999999999836e+01 1.371990000000000123e+02 1.574019999999999982e+03
8.200000000000000344e-02 6.077425000000000743e-01 3.892555000000000121e+01 1.386574999999999989e+02 1.574505000000000109e+03
8.300000000000000433e-02 6.080145000000000133e-01 3.868184999999999718e+01 1.398335000000000150e+02 1.574904999999999973e+03
8.400000000000000522e-02 6.082254999999999745e-01 3.830995000000000061e+01 1.407300000000000182e+02 1.575230000000000018e+03
8.500000000000000611e-02 6.083769999999999456e-01 3.781660000000000110e+01 1.413575000000000159e+02 1.575485000000000127e+03
8.600000000000000699e-02 6.084739999999999593e-01 3.721205000000000496e+01 1.417359999999999900e+02 1.575664999999999964e+03
8.700000000000000788e-02 6.085234999999999950e-01 3.650959999999999894e+01 1.418894999999999982e+02 1.575780000000000200e+03
8.800000000000000877e-02 6.085310000000000441e-01 3.572489999999999810e+01 1.418499999999999943e+02 1.575829999999999927e+03
8.899999999999999578e-02 6.085045000000000037e-01 3.487529999999999575e+01 1.416510000000000105e+02 1.575835000000000036e+03
8.999999999999999667e-02 6.084519999999999929e-01 3.397914999999999708e+01 1.413285000000000196e+02 1.575789999999999964e+03
9.099999999999999756e-02 6.083809999999999496e-01 3.305514999999999759e+01 1.409200000000000159e+02 1.575720000000000027e+03
9.199999999999999845e-02 6.082994999999999930e-01 3.212134999999999962e+01 1.404599999999999795e+02 1.575630000000000109e+03
9.299999999999999933e-02 6.082149999999999501e-01 3.119454999999999956e+01 1.399819999999999993e+02 1.575519999999999982e+03
9.400000000000000022e-02 6.081324999999999648e-01 3.028994999999999749e+01 1.395144999999999982e+02 1.575410000000000082e+03
9.500000000000000111e-02 6.080575000000000285e-01 2.941989999999999839e+01 1.390824999999999818e+02 1.575300000000000182e+03
9.600000000000000200e-02 6.079939999999999234e-01 2.859429999999999694e+01 1.387035000000000196e+02 1.575195000000000164e+03
9.700000000000000289e-02 6.079440000000000399e-01 2.781960000000000122e+01 1.383915000000000077e+02 1.575110000000000127e+03
9.800000000000000377e-02 6.079080000000000039e-01 2.709929999999999950e+01 1.381514999999999986e+02 1.575039999999999964e+03
9.900000000000000466e-02 6.078870000000000662e-01 2.643350000000000222e+01 1.379834999999999923e+02 1.574980000000000018e+03
1.000000000000000056e-01 6.078784999999999883e-01 2.581940000000000168e+01 1.378824999999999932e+02 1.574940000000000055e+03
1.010000000000000064e-01 6.078794999999999060e-01 2.525150000000000006e+01 1.378369999999999891e+02 1.574909999999999854e+03
1.020000000000000073e-01 6.078869999999999552e-01 2.472204999999999941e+01 1.378319999999999936e+02 1.574894999999999982e+03
1.030000000000000082e-01 6.078974999999999795e-01 2.422169999999999845e+01 1.378499999999999943e+02 1.574889999999999873e+03
1.040000000000000091e-01 6.079049999999999176e-01 2.373979999999999890e+01 1.378700000000000045e+02 1.574884999999999991e+03
1.050000000000000100e-01 6.079064999999999053e-01 2.326545000000000130e+01 1.378709999999999809e+02 1.574880000000000109e+03
1.059999999999999970e-01 6.078970000000000207e-01 2.278775000000000261e+01 1.378340000000000032e+02 1.574860000000000127e+03
1.069999999999999979e-01 6.078725000000000378e-01 2.229645000000000010e+01 1.377384999999999877e+02 1.574829999999999927e+03
1.079999999999999988e-01 6.078304999999999403e-01 2.178239999999999910e+01 1.375685000000000002e+02 1.574784999999999854e+03
1.089999999999999997e-01 6.077669999999999462e-01 2.123845000000000027e+01 1.373110000000000070e+02 1.574720000000000027e+03
1.100000000000000006e-01 6.076809999999999157e-01 2.065925000000000011e+01 1.369579999999999984e+02 1.574625000000000000e+03
1.110000000000000014e-01 6.075725000000000708e-01 2.004169999999999874e+01 1.365035000000000025e+02 1.574509999999999991e+03
1.120000000000000023e-01 6.074420000000000375e-01 1.938524999999999920e+01 1.359484999999999957e+02 1.574365000000000009e+03
1.130000000000000032e-01 6.072899999999999965e-01 1.869174999999999898e+01 1.352980000000000018e+02 1.574195000000000164e+03
1.140000000000000041e-01 6.071200000000001040e-01 1.796539999999999893e+01 1.345614999999999952e+02 1.574000000000000000e+03
1.150000000000000050e-01 6.069345000000000434e-01 1.721259999999999835e+01 1.337529999999999859e+02 1.573789999999999964e+03
1.160000000000000059e-01 6.067385000000000694e-01 1.644170000000000087e+01 1.328884999999999934e+02 1.573549999999999955e+03
1.170000000000000068e-01 6.065355000000000052e-01 1.566234999999999999e+01 1.319879999999999995e+02 1.573309999999999945e+03
1.180000000000000077e-01 6.063309999999999533e-01 1.488545000000000051e+01 1.310734999999999957e+02 1.573054999999999836e+03
1.190000000000000085e-01 6.061294999999999877e-01 1.412240500000000054e+01 1.301664999999999850e+02 1.572804999999999836e+03
1.200000000000000094e-01 6.059364999999999890e-01 1.338476999999999961e+01 1.292899999999999920e+02 1.572559999999999945e+03
1.209999999999999964e-01 6.057565000000000310e-01 1.268350500000000025e+01 1.284639999999999986e+02 1.572320000000000164e+03
1.219999999999999973e-01 6.055930000000000479e-01 1.202874500000000069e+01 1.277085000000000008e+02 1.572099999999999909e+03
1.229999999999999982e-01 6.054494999999999738e-01 1.142929999999999957e+01 1.270399999999999920e+02 1.571894999999999982e+03
1.239999999999999991e-01 6.053290000000000060e-01 1.089215499999999892e+01 1.264705000000000013e+02 1.571719999999999800e+03
1.250000000000000000e-01 6.052334999999999798e-01 1.042238000000000042e+01 1.260095000000000027e+02 1.571565000000000055e+03
1.260000000000000009e-01 6.051625000000000476e-01 1.002299499999999988e+01 1.256620000000000061e+02 1.571445000000000164e+03
1.270000000000000018e-01 6.051165000000000571e-01 9.694614999999998872e+00 1.254279999999999973e+02 1.571355000000000018e+03
1.280000000000000027e-01 6.050950000000000495e-01 9.435945000000000249e+00 1.253050000000000068e+02 1.571289999999999964e+03
1.290000000000000036e-01 6.050949999999999385e-01 9.243555000000000632e+00 1.252849999999999966e+02 1.571259999999999991e+03
1.300000000000000044e-01 6.051149999999999585e-01 9.112344999999999473e+00 1.253575000000000017e+02 1.571255000000000109e+03
1.310000000000000053e-01 6.051520000000000232e-01 9.035724999999999341e+00 1.255099999999999909e+02 1.571269999999999982e+03
1.320000000000000062e-01 6.052014999999999478e-01 9.006009999999999849e+00 1.257280000000000086e+02 1.571309999999999945e+03
1.330000000000000071e-01 6.052610000000000490e-01 9.014765000000000583e+00 1.259945000000000022e+02 1.571359999999999900e+03
1.340000000000000080e-01 6.053264999999999896e-01 9.053184999999999150e+00 1.262944999999999993e+02 1.571429999999999836e+03
1.350000000000000089e-01 6.053945000000000576e-01 9.112429999999999808e+00 1.266109999999999900e+02 1.571500000000000000e+03
1.360000000000000098e-01 6.054625000000000146e-01 9.183984999999999843e+00 1.269300000000000068e+02 1.571579999999999927e+03
1.370000000000000107e-01 6.055269999999999264e-01 9.259895000000000209e+00 1.272369999999999948e+02 1.571654999999999973e+03
1.380000000000000115e-01 6.055850000000000399e-01 9.333045000000000258e+00 1.275204999999999984e+02 1.571730000000000018e+03
1.390000000000000124e-01 6.056365000000000220e-01 9.397275000000000489e+00 1.277719999999999914e+02 1.571799999999999955e+03
1.400000000000000133e-01 6.056785000000000085e-01 9.447610000000000952e+00 1.279839999999999947e+02 1.571860000000000127e+03
1.410000000000000142e-01 6.057109999999999994e-01 9.480264999999999276e+00 1.281514999999999986e+02 1.571909999999999854e+03
1.420000000000000151e-01 6.057334999999999248e-01 9.492725000000000080e+00 1.282740000000000009e+02 1.571950000000000045e+03
1.430000000000000160e-01 6.057455000000000478e-01 9.483484999999999943e+00 1.283485000000000014e+02 1.571974999999999909e+03
1.440000000000000169e-01 6.057485000000000230e-01 9.452460000000000306e+00 1.283799999999999955e+02 1.571990000000000009e+03
1.450000000000000178e-01 6.057434999999999903e-01 9.400420000000000442e+00 1.283700000000000045e+02 1.571994999999999891e+03
1.459999999999999909e-01 6.057310000000000194e-01 9.329019999999999868e+00 1.283249999999999886e+02 1.571990000000000009e+03
1.469999999999999918e-01 6.057129999999999459e-01 9.240800000000000125e+00 1.282504999999999882e+02 1.571980000000000018e+03
1.479999999999999927e-01 6.056904999999999095e-01 9.138754999999999740e+00 1.281539999999999964e+02 1.571954999999999927e+03
1.489999999999999936e-01 6.056654999999999678e-01 9.026370000000000005e+00 1.280414999999999850e+02 1.571934999999999945e+03
1.499999999999999944e-01 6.056390000000000384e-01 8.907215000000000771e+00 1.279205000000000041e+02 1.571904999999999973e+03
1.509999999999999953e-01 6.056129999999999569e-01 8.785015000000001351e+00 1.277985000000000042e+02 1.571880000000000109e+03
1.519999999999999962e-01 6.055889999999999329e-01 8.663330000000000197e+00 1.276814999999999998e+02 1.571845000000000027e+03
1.529999999999999971e-01 6.055675000000000363e-01 8.545299999999999230e+00 1.275749999999999886e+02 1.571820000000000164e+03
1.539999999999999980e-01 6.055494999999999628e-01 8.433835000000000193e+00 1.274819999999999993e+02 1.571795000000000073e+03
1.549999999999999989e-01 6.055355000000000043e-01 8.331089999999999662e+00 1.274065000000000083e+02 1.571775000000000091e+03
1.559999999999999998e-01 6.055260000000000087e-01 8.238765000000000782e+00 1.273509999999999991e+02 1.571759999999999991e+03
1.570000000000000007e-01 6.055209999999999759e-01 8.157835000000000392e+00 1.273139999999999930e+02 1.571750000000000000e+03
1.580000000000000016e-01 6.055200000000000582e-01 8.088649999999999451e+00 1.272965000000000089e+02 1.571740000000000009e+03
1.590000000000000024e-01 6.055230000000000334e-01 8.030934999999999491e+00 1.272949999999999875e+02 1.571735000000000127e+03
