# t [s], A [cm^2], U [cm/s], P [cPa], c [cm/s]
1.000000000000000021e-03 7.488719999999999821e-01 4.235499999999996212e-03 1.007049999999999983e+02 1.624815000000000055e+03
2.000000000000000042e-03 7.488645000000000440e-01 7.121800000000000179e-03 1.006804999999999950e+02 1.624809999999999945e+03
3.000000000000000062e-03 7.489529999999999799e-01 1.456719499999999945e-01 1.008297500000000042e+02 1.624839999999999918e+03
4.000000000000000083e-03 7.489915000000000322e-01 2.242494999999999905e-01 1.009196499999999901e+02 1.624865000000000009e+03
5.000000000000000104e-03 7.489194999999999602e-01 1.404745000000000299e-01 1.007504999999999882e+02 1.624829999999999927e+03
6.000000000000000125e-03 7.488230000000000164e-01 9.816000000000046910e-03 1.004205000000000041e+02 1.624764999999999873e+03
7.000000000000000146e-03 7.487139999999999906e-01 -1.536149999999999460e-01 9.997104999999999109e+01 1.624670000000000073e+03
8.000000000000000167e-03 7.485170000000000989e-01 -4.684149999999999148e-01 9.925194999999999368e+01 1.624525000000000091e+03
9.000000000000001055e-03 7.482230000000000825e-01 -9.493650000000000144e-01 9.819044999999999845e+01 1.624299999999999955e+03
1.000000000000000194e-02 7.478234999999999744e-01 -1.592919999999999892e+00 9.673969999999999914e+01 1.623994999999999891e+03
1.099999999999999936e-02 7.472889999999999810e-01 -2.422409999999999730e+00 9.481864999999999100e+01 1.623585000000000036e+03
1.200000000000000025e-02 7.466334999999999500e-01 -3.387585000000000512e+00 9.243399999999999750e+01 1.623059999999999945e+03
1.300000000000000114e-02 7.459465000000000678e-01 -4.312934999999999519e+00 8.978395000000000437e+01 1.622460000000000036e+03
1.400000000000000203e-02 7.453425000000000189e-01 -4.976129999999999498e+00 8.719184999999998809e+01 1.621845000000000027e+03
1.499999999999999944e-02 7.448939999999999451e-01 -5.225031500000000051e+00 8.494814999999999827e+01 1.621284999999999854e+03
1.600000000000000033e-02 7.446015000000000272e-01 -5.036030000000000229e+00 8.318840000000000146e+01 1.620804999999999836e+03
1.700000000000000122e-02 7.444070000000000409e-01 -4.501269999999999882e+00 8.186525000000000318e+01 1.620409999999999854e+03
1.800000000000000211e-02 7.442260000000000542e-01 -3.775364999999999860e+00 8.079525000000001000e+01 1.620065000000000055e+03
1.900000000000000300e-02 7.439845000000000486e-01 -3.010875500000000038e+00 7.974674999999999159e+01 1.619735000000000127e+03
2.000000000000000042e-02 7.436434999999999018e-01 -2.304817499999999963e+00 7.853209999999999980e+01 1.619380000000000109e+03
2.100000000000000130e-02 7.432090000000000085e-01 -1.675729999999999942e+00 7.706999999999999318e+01 1.618974999999999909e+03
2.200000000000000219e-02 7.427194999999999769e-01 -1.079855000000000009e+00 7.539189999999999259e+01 1.618530000000000200e+03
2.299999999999999961e-02 7.422195000000000320e-01 -4.542899999999998606e-01 7.359664999999999679e+01 1.618059999999999945e+03
2.400000000000000050e-02 7.417385000000000783e-01 2.379500000000001059e-01 7.178379999999999939e+01 1.617570000000000164e+03
2.500000000000000139e-02 7.412760000000000460e-01 9.808250000000002800e-01 6.999824999999999875e+01 1.617090000000000146e+03
2.600000000000000228e-02 7.408034999999999481e-01 1.702214999999999812e+00 6.820349999999999113e+01 1.616599999999999909e+03
2.700000000000000316e-02 7.402725000000000000e-01 2.290835000000000399e+00 6.628780000000000427e+01 1.616089999999999918e+03
2.800000000000000058e-02 7.396309999999999274e-01 2.625215000000000298e+00 6.409575000000000955e+01 1.615525000000000091e+03
2.900000000000000147e-02 7.388399999999999412e-01 2.606349999999999500e+00 6.147545000000000215e+01 1.614869999999999891e+03
3.000000000000000236e-02 7.378830000000000666e-01 2.185635000000000439e+00 5.832784999999999798e+01 1.614110000000000127e+03
3.099999999999999978e-02 7.367785000000000029e-01 1.379650000000000709e+00 5.464430000000000121e+01 1.613235000000000127e+03
3.200000000000000067e-02 7.355730000000000324e-01 2.675999999999998380e-01 5.051989999999999981e+01 1.612255000000000109e+03
3.300000000000000155e-02 7.343334999999999724e-01 -1.026949999999999363e+00 4.614005000000000223e+01 1.611220000000000027e+03
3.400000000000000244e-02 7.331339999999999524e-01 -2.361934999999999896e+00 4.174685000000000201e+01 1.610159999999999854e+03
3.500000000000000333e-02 7.320420000000000815e-01 -3.602244999999999919e+00 3.759815000000000396e+01 1.609134999999999991e+03
3.600000000000000422e-02 7.311125000000000540e-01 -4.637785000000000046e+00 3.392940000000000111e+01 1.608199999999999818e+03
3.700000000000000511e-02 7.303804999999999881e-01 -5.392144999999999300e+00 3.092680000000000007e+01 1.607404999999999973e+03
3.799999999999999906e-02 7.298660000000000148e-01 -5.823182499999999706e+00 2.871320000000000050e+01 1.606780000000000200e+03
3.899999999999999994e-02 7.295709999999999695e-01 -5.917094999999999771e+00 2.734734999999999872e+01 1.606340000000000146e+03
4.000000000000000083e-02 7.294884999999999842e-01 -5.679705000000000226e+00 2.683245000000000147e+01 1.606099999999999909e+03
4.100000000000000172e-02 7.296050000000000590e-01 -5.127369999999999983e+00 2.713100000000000023e+01 1.606059999999999945e+03
4.200000000000000261e-02 7.299029999999999685e-01 -4.279872499999999746e+00 2.818080000000000140e+01 1.606200000000000045e+03
4.300000000000000350e-02 7.303660000000000707e-01 -3.156954999999999956e+00 2.990784999999999982e+01 1.606514999999999873e+03
4.400000000000000439e-02 7.309769999999999879e-01 -1.778405000000000236e+00 3.223449999999999704e+01 1.606990000000000009e+03
4.499999999999999833e-02 7.317175000000000207e-01 -1.667200000000002014e-01 3.508174999999999955e+01 1.607599999999999909e+03
4.599999999999999922e-02 7.325684999999999558e-01 1.649410000000000043e+00 3.836795000000000044e+01 1.608325000000000045e+03
4.700000000000000011e-02 7.335065000000000612e-01 3.632524999999999782e+00 4.200625000000000142e+01 1.609154999999999973e+03
4.800000000000000100e-02 7.345064999999999511e-01 5.736034999999999329e+00 4.590295000000000414e+01 1.610059999999999945e+03
4.900000000000000189e-02 7.355404999999999305e-01 7.905785000000000728e+00 4.995809999999999462e+01 1.611019999999999982e+03
5.000000000000000278e-02 7.365809999999999302e-01 1.008388150000000039e+01 5.406880000000000308e+01 1.612005000000000109e+03
5.100000000000000366e-02 7.376015000000000210e-01 1.221316500000000005e+01 5.813495000000000346e+01 1.613000000000000000e+03
5.200000000000000455e-02 7.385794999999999444e-01 1.424170499999999961e+01 6.206555000000000177e+01 1.613980000000000018e+03
5.300000000000000544e-02 7.394970000000000709e-01 1.612679500000000132e+01 6.578480000000000416e+01 1.614925000000000182e+03
5.399999999999999939e-02 7.403425000000000145e-01 1.783739999999999881e+01 6.923699999999999477e+01 1.615815000000000055e+03
5.500000000000000028e-02 7.411119999999999930e-01 1.935490000000000066e+01 7.238934999999999320e+01 1.616644999999999982e+03
5.600000000000000117e-02 7.418050000000000477e-01 2.067289999999999850e+01 7.523199999999999932e+01 1.617409999999999854e+03
5.700000000000000205e-02 7.424280000000000879e-01 2.179595000000000127e+01 7.777635000000000787e+01 1.618110000000000127e+03
5.800000000000000294e-02 7.429900000000000393e-01 2.273709999999999809e+01 8.005180000000000007e+01 1.618744999999999891e+03
5.900000000000000383e-02 7.435034999999999838e-01 2.351644999999999897e+01 8.210175000000000978e+01 1.619320000000000164e+03
6.000000000000000472e-02 7.439824999999999910e-01 2.415869999999999962e+01 8.397894999999999754e+01 1.619860000000000127e+03
6.099999999999999867e-02 7.444414999999999782e-01 2.469154999999999944e+01 8.574145000000000039e+01 1.620360000000000127e+03
6.199999999999999956e-02 7.448955000000000437e-01 2.514430000000000121e+01 8.744880000000000564e+01 1.620839999999999918e+03
6.300000000000000044e-02 7.453579999999999650e-01 2.554630000000000223e+01 8.915844999999998777e+01 1.621320000000000164e+03
6.400000000000000133e-02 7.458420000000000050e-01 2.592524999999999835e+01 9.092255000000000109e+01 1.621804999999999836e+03
6.500000000000000222e-02 7.463570000000000482e-01 2.630590000000000117e+01 9.278489999999999327e+01 1.622299999999999955e+03
6.600000000000000311e-02 7.469105000000000327e-01 2.670810000000000173e+01 9.477824999999999989e+01 1.622829999999999927e+03
6.700000000000000400e-02 7.475050000000000860e-01 2.714565000000000339e+01 9.692164999999999964e+01 1.623389999999999873e+03
6.800000000000000488e-02 7.481409999999999449e-01 2.762510000000000332e+01 9.921904999999999575e+01 1.623974999999999909e+03
6.900000000000000577e-02 7.488124999999999920e-01 2.814535000000000053e+01 1.016593500000000034e+02 1.624599999999999909e+03
7.000000000000000666e-02 7.495110000000000383e-01 2.869794999999999874e+01 1.042145000000000010e+02 1.625250000000000000e+03
7.100000000000000755e-02 7.502254999999999896e-01 2.926780000000000115e+01 1.068449999999999989e+02 1.625920000000000073e+03
7.200000000000000844e-02 7.509405000000000108e-01 2.983484999999999587e+01 1.095000000000000000e+02 1.626599999999999909e+03
7.300000000000000933e-02 7.516410000000000036e-01 3.037565000000000026e+01 1.121214999999999975e+02 1.627279999999999973e+03
7.399999999999999634e-02 7.523115000000000219e-01 3.086534999999999940e+01 1.146504999999999939e+02 1.627940000000000055e+03
7.499999999999999722e-02 7.529364999999998975e-01 3.127944999999999709e+01 1.170260000000000105e+02 1.628570000000000164e+03
7.599999999999999811e-02 7.535030000000000339e-01 3.159584999999999866e+01 1.191949999999999932e+02 1.629144999999999982e+03
7.699999999999999900e-02 7.540004999999999624e-01 3.179574999999999818e+01 1.211119999999999948e+02 1.629675000000000182e+03
7.799999999999999989e-02 7.544210000000000083e-01 3.186495000000000033e+01 1.227409999999999997e+02 1.630134999999999991e+03
7.900000000000000078e-02 7.547595000000000276e-01 3.179440000000000310e+01 1.240594999999999999e+02 1.630519999999999982e+03
8.000000000000000167e-02 7.550149999999999917e-01 3.158084999999999809e+01 1.250569999999999879e+02 1.630825000000000045e+03
8.100000000000000255e-02 7.551885000000000403e-01 3.122639999999999816e+01 1.257349999999999994e+02 1.631059999999999945e+03
8.200000000000000344e-02 7.552849999999999842e-01 3.073845000000000027e+01 1.261094999999999970e+02 1.631210000000000036e+03
8.300000000000000433e-02 7.553125000000000533e-01 3.012924999999999898e+01 1.262040000000000077e+02 1.631295000000000073e+03
8.400000000000000522e-02 7.552794999999999925e-01 2.941510000000000247e+01 1.260540000000000020e+02 1.631309999999999945e+03
8.500000000000000611e-02 7.551965000000000483e-01 2.861549999999999727e+01 1.256990000000000123e+02 1.631269999999999982e+03
8.600000000000000699e-02 7.550760000000000804e-01 2.775220000000000198e+01 1.251850000000000023e+02 1.631184999999999945e+03
8.700000000000000788e-02 7.549295000000000311e-01 2.684799999999999898e+01 1.245584999999999951e+02 1.631065000000000055e+03
8.800000000000000877e-02 7.547690000000000232e-01 2.592595000000000027e+01 1.238679999999999950e+02 1.630920000000000073e+03
8.899999999999999578e-02 7.546064999999999579e-01 2.500800000000000267e+01 1.231574999999999989e+02 1.630764999999999873e+03
8.999999999999999667e-02 7.544509999999999827e-01 2.411424999999999841e+01 1.224675000000000011e+02 1.630610000000000127e+03
9.099999999999999756e-02 7.543104999999999949e-01 2.326190000000000069e+01 1.218329999999999984e+02 1.630454999999999927e+03
9.199999999999999845e-02 7.541925000000000434e-01 2.246470000000000056e+01 1.212814999999999941e+02 1.630315000000000055e+03
9.299999999999999933e-02 7.540999999999999925e-01 2.173235000000000028e+01 1.208315000000000055e+02 1.630194999999999936e+03
9.400000000000000022e-02 7.540350000000000108e-01 2.107039999999999935e+01 1.204939999999999998e+02 1.630099999999999909e+03
9.500000000000000111e-02 7.539979999999999460e-01 2.048024999999999807e+01 1.202699999999999960e+02 1.630029999999999973e+03
9.600000000000000200e-02 7.539865000000000039e-01 1.995884999999999820e+01 1.201544999999999987e+02 1.629985000000000127e+03
9.700000000000000289e-02 7.539959999999999996e-01 1.949985000000000213e+01 1.201329999999999956e+02 1.629960000000000036e+03
9.800000000000000377e-02 7.540210000000000523e-01 1.909349999999999881e+01 1.201864999999999952e+02 1.629954999999999927e+03
9.900000000000000466e-02 7.540554999999999897e-01 1.872769999999999868e+01 1.202895000000000039e+02 1.629965000000000146e+03
1.000000000000000056e-01 7.540919999999999845e-01 1.838834999999999908e+01 1.204154999999999944e+02 1.629984999999999900e+03
1.010000000000000064e-01 7.541229999999999878e-01 1.806070000000000064e+01 1.205349999999999966e+02 1.630005000000000109e+03
1.020000000000000073e-01 7.541415000000000202e-01 1.772964999999999947e+01 1.206184999999999974e+02 1.630014999999999873e+03
1.030000000000000082e-01 7.541400000000000325e-01 1.738095000000000212e+01 1.206394999999999982e+02 1.630019999999999982e+03
1.040000000000000091e-01 7.541130000000000333e-01 1.700185000000000102e+01 1.205720000000000027e+02 1.630005000000000109e+03
1.050000000000000100e-01 7.540565000000000184e-01 1.658164999999999978e+01 1.203975000000000080e+02 1.629965000000000146e+03
1.059999999999999970e-01 7.539670000000000538e-01 1.611260000000000048e+01 1.201015000000000015e+02 1.629894999999999982e+03
1.069999999999999979e-01 7.538430000000000408e-01 1.558985000000000021e+01 1.196759999999999877e+02 1.629804999999999836e+03
1.079999999999999988e-01 7.536855000000000082e-01 1.501235000000000142e+01 1.191200000000000045e+02 1.629674999999999955e+03
1.089999999999999997e-01 7.534965000000000135e-01 1.438220000000000098e+01 1.184389999999999930e+02 1.629514999999999873e+03
1.100000000000000006e-01 7.532799999999999496e-01 1.370507000000000097e+01 1.176454999999999984e+02 1.629329999999999927e+03
1.110000000000000014e-01 7.530405000000000015e-01 1.298971500000000034e+01 1.167574999999999932e+02 1.629125000000000000e+03
1.120000000000000023e-01 7.527859999999999552e-01 1.224751000000000012e+01 1.157985000000000042e+02 1.628894999999999982e+03
1.130000000000000032e-01 7.525224999999999831e-01 1.149201000000000050e+01 1.147959999999999923e+02 1.628654999999999973e+03
1.140000000000000041e-01 7.522584999999999411e-01 1.073821500000000029e+01 1.137800000000000011e+02 1.628400000000000091e+03
1.150000000000000050e-01 7.520020000000000593e-01 1.000174999999999947e+01 1.127810000000000059e+02 1.628154999999999973e+03
1.160000000000000059e-01 7.517610000000000126e-01 9.298135000000000261e+00 1.118294999999999959e+02 1.627909999999999854e+03
1.170000000000000068e-01 7.515425000000000022e-01 8.642089999999999606e+00 1.109549999999999983e+02 1.627680000000000064e+03
1.180000000000000077e-01 7.513520000000000199e-01 8.046644999999999825e+00 1.101819999999999879e+02 1.627480000000000018e+03
1.190000000000000085e-01 7.511955000000000160e-01 7.522774999999999324e+00 1.095319999999999965e+02 1.627299999999999955e+03
1.200000000000000094e-01 7.510755000000000070e-01 7.078714999999998980e+00 1.090200000000000102e+02 1.627150000000000091e+03
1.209999999999999964e-01 7.509939999999999394e-01 6.719694999999999752e+00 1.086560000000000059e+02 1.627039999999999964e+03
1.219999999999999973e-01 7.509519999999999529e-01 6.447824999999999918e+00 1.084435000000000002e+02 1.626960000000000036e+03
1.229999999999999982e-01 7.509474999999999900e-01 6.262069999999999581e+00 1.083780000000000001e+02 1.626920000000000073e+03
1.239999999999999991e-01 7.509775000000000755e-01 6.158440000000000580e+00 1.084534999999999911e+02 1.626909999999999854e+03
1.250000000000000000e-01 7.510384999999999422e-01 6.130314999999999515e+00 1.086544999999999987e+02 1.626934999999999945e+03
1.260000000000000009e-01 7.511255000000000015e-01 6.168845000000000134e+00 1.089639999999999986e+02 1.626990000000000009e+03
1.270000000000000018e-01 7.512324999999999697e-01 6.263490000000000002e+00 1.093610000000000042e+02 1.627065000000000055e+03
1.280000000000000027e-01 7.513539999999999663e-01 6.402479999999999727e+00 1.098230000000000075e+02 1.627164999999999964e+03
1.290000000000000036e-01 7.514834999999999710e-01 6.573459999999999859e+00 1.103265000000000100e+02 1.627275000000000091e+03
1.300000000000000044e-01 7.516160000000000618e-01 6.763939999999999841e+00 1.108474999999999966e+02 1.627389999999999873e+03
1.310000000000000053e-01 7.517454999999999554e-01 6.961850000000000094e+00 1.113654999999999973e+02 1.627509999999999991e+03
1.320000000000000062e-01 7.518675000000000219e-01 7.155965000000000131e+00 1.118599999999999994e+02 1.627625000000000000e+03
1.330000000000000071e-01 7.519770000000000065e-01 7.336275000000000546e+00 1.123145000000000095e+02 1.627740000000000009e+03
1.340000000000000080e-01 7.520719999999999628e-01 7.494279999999999831e+00 1.127145000000000010e+02 1.627845000000000027e+03
1.350000000000000089e-01 7.521499999999999853e-01 7.623205000000000453e+00 1.130499999999999972e+02 1.627930000000000064e+03
1.360000000000000098e-01 7.522094999999999754e-01 7.718130000000000379e+00 1.133155000000000001e+02 1.628005000000000109e+03
1.370000000000000107e-01 7.522504999999999331e-01 7.776050000000000573e+00 1.135070000000000050e+02 1.628059999999999945e+03
1.380000000000000115e-01 7.522729999999999695e-01 7.795835000000000292e+00 1.136260000000000048e+02 1.628099999999999909e+03
1.390000000000000124e-01 7.522790000000000310e-01 7.778124999999999289e+00 1.136760000000000019e+02 1.628125000000000000e+03
1.400000000000000133e-01 7.522705000000000641e-01 7.725175000000000125e+00 1.136634999999999991e+02 1.628134999999999991e+03
1.410000000000000142e-01 7.522489999999999455e-01 7.640670000000000073e+00 1.135974999999999966e+02 1.628125000000000000e+03
1.420000000000000151e-01 7.522174999999999834e-01 7.529420000000000002e+00 1.134885000000000019e+02 1.628115000000000009e+03
1.430000000000000160e-01 7.521795000000000009e-01 7.397095000000000198e+00 1.133474999999999966e+02 1.628085000000000036e+03
1.440000000000000169e-01 7.521379999999999733e-01 7.249919999999999476e+00 1.131880000000000024e+02 1.628055000000000064e+03
1.450000000000000178e-01 7.520964999999999456e-01 7.094334999999999170e+00 1.130200000000000102e+02 1.628019999999999982e+03
1.459999999999999909e-01 7.520569999999999755e-01 6.936690000000000467e+00 1.128559999999999945e+02 1.627985000000000127e+03
1.469999999999999918e-01 7.520219999999999683e-01 6.782944999999999780e+00 1.127059999999999889e+02 1.627950000000000045e+03
1.479999999999999927e-01 7.519940000000000513e-01 6.638410000000000366e+00 1.125780000000000030e+02 1.627920000000000073e+03
1.489999999999999936e-01 7.519744999999999902e-01 6.507514999999999716e+00 1.124795000000000016e+02 1.627894999999999982e+03
1.499999999999999944e-01 7.519635000000000069e-01 6.393639999999999546e+00 1.124140000000000015e+02 1.627875000000000000e+03
1.509999999999999953e-01 7.519625000000000892e-01 6.299034999999999940e+00 1.123849999999999909e+02 1.627869999999999891e+03
1.519999999999999962e-01 7.519705000000000972e-01 6.224779999999999980e+00 1.123909999999999911e+02 1.627865000000000009e+03
1.529999999999999971e-01 7.519865000000000022e-01 6.170799999999999841e+00 1.124304999999999950e+02 1.627869999999999891e+03
1.539999999999999980e-01 7.520100000000000673e-01 6.135989999999999611e+00 1.125000000000000000e+02 1.627884999999999991e+03
1.549999999999999989e-01 7.520385000000000542e-01 6.118330000000000268e+00 1.125929999999999893e+02 1.627900000000000091e+03
1.559999999999999998e-01 7.520705000000000862e-01 6.115064999999999529e+00 1.127034999999999911e+02 1.627929999999999836e+03
1.570000000000000007e-01 7.521039999999999948e-01 6.122935000000000016e+00 1.128224999999999909e+02 1.627950000000000045e+03
1.580000000000000016e-01 7.521375000000000144e-01 6.138365000000000293e+00 1.129439999999999884e+02 1.627980000000000018e+03
1.590000000000000024e-01 7.521685000000000176e-01 6.157700000000000173e+00 1.130604999999999905e+02 1.628005000000000109e+03
