# t [s], A [cm^2], U [cm/s], P [cPa], c [cm/s]
1.000000000000000021e-03 5.874580000000000357e-01 4.119100000000000539e-03 1.036129999999999995e+02 1.496069999999999936e+03
2.000000000000000042e-03 5.874489999999999990e-01 -9.679969999999999547e-04 1.035955000000000013e+02 1.496065000000000055e+03
3.000000000000000062e-03 5.874789999999999734e-01 4.743705000000000838e-02 1.036419999999999959e+02 1.496079999999999927e+03
4.000000000000000083e-03 5.875299999999999967e-01 1.335435500000000109e-01 1.037475000000000023e+02 1.496115000000000009e+03
5.000000000000000104e-03 5.875405000000000211e-01 1.589175500000000185e-01 1.037800000000000011e+02 1.496119999999999891e+03
6.000000000000000125e-03 5.875044999999999851e-01 1.066649999999999820e-01 1.036885000000000048e+02 1.496105000000000018e+03
7.000000000000000146e-03 5.874610000000000110e-01 3.846450000000001257e-02 1.035279999999999916e+02 1.496065000000000055e+03
8.000000000000000167e-03 5.874190000000000245e-01 -3.092850000000002542e-02 1.033255000000000052e+02 1.496014999999999873e+03
9.000000000000001055e-03 5.873515000000000263e-01 -1.535789999999999655e-01 1.030279999999999916e+02 1.495940000000000055e+03
1.000000000000000194e-02 5.872414999999999718e-01 -3.592199999999999838e-01 1.025844999999999914e+02 1.495829999999999927e+03
1.099999999999999936e-02 5.870845000000000091e-01 -6.546950000000000269e-01 1.019645000000000010e+02 1.495675000000000182e+03
1.200000000000000025e-02 5.868685000000000151e-01 -1.053199999999999914e+00 1.011242500000000035e+02 1.495454999999999927e+03
1.300000000000000114e-02 5.865849999999999120e-01 -1.557600000000000318e+00 1.000306500000000085e+02 1.495175000000000182e+03
1.400000000000000203e-02 5.862475000000000325e-01 -2.129220000000000113e+00 9.869814999999999827e+01 1.494820000000000164e+03
1.499999999999999944e-02 5.858894999999999520e-01 -2.686919999999999753e+00 9.720449999999999591e+01 1.494414999999999964e+03
1.600000000000000033e-02 5.855495000000000561e-01 -3.137715000000000032e+00 9.566405000000000314e+01 1.493974999999999909e+03
1.700000000000000122e-02 5.852545000000000108e-01 -3.411707000000000267e+00 9.418084999999999241e+01 1.493539999999999964e+03
1.800000000000000211e-02 5.850100000000000300e-01 -3.480438499999999991e+00 9.282099999999999795e+01 1.493115000000000009e+03
1.900000000000000300e-02 5.848035000000000316e-01 -3.356157999999999753e+00 9.159799999999999898e+01 1.492720000000000027e+03
2.000000000000000042e-02 5.846139999999999670e-01 -3.078768499999999797e+00 9.048230000000000928e+01 1.492335000000000036e+03
2.100000000000000130e-02 5.844175000000000342e-01 -2.698594500000000007e+00 8.941884999999999195e+01 1.491965000000000146e+03
2.200000000000000219e-02 5.841959999999999376e-01 -2.260624999999999662e+00 8.834810000000000230e+01 1.491590000000000146e+03
2.299999999999999961e-02 5.839404999999999735e-01 -1.793689999999999785e+00 8.722489999999999100e+01 1.491195000000000164e+03
2.400000000000000050e-02 5.836529999999999774e-01 -1.306620000000000115e+00 8.602889999999999304e+01 1.490789999999999964e+03
2.500000000000000139e-02 5.833435000000000148e-01 -7.916149999999999576e-01 8.476640000000000441e+01 1.490365000000000009e+03
2.600000000000000228e-02 5.830244999999999456e-01 -2.330549999999997901e-01 8.346274999999999977e+01 1.489920000000000073e+03
2.700000000000000316e-02 5.827069999999999750e-01 3.819299999999996587e-01 8.214965000000000828e+01 1.489474999999999909e+03
2.800000000000000058e-02 5.823970000000000535e-01 1.054759999999999920e+00 8.085179999999999723e+01 1.489029999999999973e+03
2.900000000000000147e-02 5.820920000000000538e-01 1.770919999999999828e+00 7.957720000000000482e+01 1.488590000000000146e+03
3.000000000000000236e-02 5.817839999999999678e-01 2.500340000000000007e+00 7.831324999999999648e+01 1.488144999999999982e+03
3.099999999999999978e-02 5.814590000000000591e-01 3.201869999999999550e+00 7.702875000000000227e+01 1.487704999999999927e+03
3.200000000000000067e-02 5.811034999999999950e-01 3.830435000000000478e+00 7.568064999999999998e+01 1.487244999999999891e+03
3.300000000000000155e-02 5.807054999999999856e-01 4.345244999999999358e+00 7.422419999999999618e+01 1.486764999999999873e+03
3.400000000000000244e-02 5.802579999999999405e-01 4.717459999999999987e+00 7.262420000000000186e+01 1.486244999999999891e+03
3.500000000000000333e-02 5.797615000000000407e-01 4.935249999999999915e+00 7.086445000000000505e+01 1.485684999999999945e+03
3.600000000000000422e-02 5.792249999999999899e-01 5.005905000000000271e+00 6.895369999999999777e+01 1.485095000000000027e+03
3.700000000000000511e-02 5.786634999999999973e-01 4.953959999999999475e+00 6.692645000000000266e+01 1.484469999999999800e+03
3.799999999999999906e-02 5.780960000000000543e-01 4.816164999999999807e+00 6.483950000000000102e+01 1.483829999999999927e+03
3.899999999999999994e-02 5.775460000000000038e-01 4.635225000000000151e+00 6.276370000000000005e+01 1.483184999999999945e+03
4.000000000000000083e-02 5.770314999999999195e-01 4.453720000000000567e+00 6.077585000000000548e+01 1.482565000000000055e+03
4.100000000000000172e-02 5.765704999999999858e-01 4.308984999999999843e+00 5.894980000000000331e+01 1.481980000000000018e+03
4.200000000000000261e-02 5.761760000000000215e-01 4.230599999999999916e+00 5.735004999999999598e+01 1.481460000000000036e+03
4.300000000000000350e-02 5.758569999999999522e-01 4.239465000000000039e+00 5.602790000000000248e+01 1.481014999999999873e+03
4.400000000000000439e-02 5.756179999999999630e-01 4.348628999999999856e+00 5.501989999999999981e+01 1.480650000000000091e+03
4.499999999999999833e-02 5.754624999999999879e-01 4.565420000000000478e+00 5.434884999999999877e+01 1.480384999999999991e+03
4.599999999999999922e-02 5.753900000000000681e-01 4.893510000000000026e+00 5.402609999999999957e+01 1.480224999999999909e+03
4.700000000000000011e-02 5.754004999999999814e-01 5.335164999999999935e+00 5.405445000000000277e+01 1.480164999999999964e+03
4.800000000000000100e-02 5.754930000000000323e-01 5.892744999999999678e+00 5.443124999999999858e+01 1.480210000000000036e+03
4.900000000000000189e-02 5.756665000000000809e-01 6.569335000000000591e+00 5.515099999999999625e+01 1.480365000000000009e+03
5.000000000000000278e-02 5.759205000000000574e-01 7.368535000000000501e+00 5.620619999999999550e+01 1.480619999999999891e+03
5.100000000000000366e-02 5.762534999999999741e-01 8.293449999999999989e+00 5.758809999999999718e+01 1.480980000000000018e+03
5.200000000000000455e-02 5.766640000000000654e-01 9.345480000000000231e+00 5.928570000000000562e+01 1.481440000000000055e+03
5.300000000000000544e-02 5.771479999999999944e-01 1.052299000000000007e+01 6.128489999999999327e+01 1.481994999999999891e+03
5.399999999999999939e-02 5.777004999999999502e-01 1.182026999999999894e+01 6.356714999999999804e+01 1.482644999999999982e+03
5.500000000000000028e-02 5.783154999999999824e-01 1.322729999999999961e+01 6.610894999999999300e+01 1.483375000000000000e+03
5.600000000000000117e-02 5.789849999999999719e-01 1.472958999999999818e+01 6.888124999999999432e+01 1.484180000000000064e+03
5.700000000000000205e-02 5.796989999999999643e-01 1.630905500000000075e+01 7.185034999999999172e+01 1.485054999999999836e+03
5.800000000000000294e-02 5.804489999999999927e-01 1.794518499999999861e+01 7.497889999999999588e+01 1.485985000000000127e+03
5.900000000000000383e-02 5.812239999999999629e-01 1.961599999999999966e+01 7.822724999999999795e+01 1.486969999999999800e+03
6.000000000000000472e-02 5.820144999999999902e-01 2.129980000000000118e+01 8.155584999999999241e+01 1.487980000000000018e+03
6.099999999999999867e-02 5.828119999999999967e-01 2.297574999999999790e+01 8.492670000000001096e+01 1.489014999999999873e+03
6.199999999999999956e-02 5.836080000000000156e-01 2.462559999999999860e+01 8.830514999999999759e+01 1.490070000000000164e+03
6.300000000000000044e-02 5.843969999999999443e-01 2.623365000000000080e+01 9.166105000000000302e+01 1.491125000000000000e+03
6.400000000000000133e-02 5.851744999999999308e-01 2.778734999999999999e+01 9.497050000000000125e+01 1.492175000000000182e+03
6.500000000000000222e-02 5.859360000000000124e-01 2.927745000000000175e+01 9.821479999999999677e+01 1.493215000000000146e+03
6.600000000000000311e-02 5.866799999999999793e-01 3.069735000000000014e+01 1.013815500000000043e+02 1.494235000000000127e+03
6.700000000000000400e-02 5.874059999999999837e-01 3.204319999999999879e+01 1.044636500000000012e+02 1.495235000000000127e+03
6.800000000000000488e-02 5.881144999999999845e-01 3.331329999999999814e+01 1.074595999999999947e+02 1.496219999999999800e+03
6.900000000000000577e-02 5.888054999999999817e-01 3.450739999999999696e+01 1.103700000000000045e+02 1.497174999999999955e+03
7.000000000000000666e-02 5.894805000000000739e-01 3.562644999999999840e+01 1.131984999999999957e+02 1.498115000000000009e+03
7.100000000000000755e-02 5.901410000000000267e-01 3.667215000000000202e+01 1.159514999999999958e+02 1.499029999999999973e+03
7.200000000000000844e-02 5.907875000000000210e-01 3.764610000000000412e+01 1.186355000000000075e+02 1.499925000000000182e+03
7.300000000000000933e-02 5.914224999999999621e-01 3.855025000000000546e+01 1.212555000000000121e+02 1.500804999999999836e+03
7.399999999999999634e-02 5.920444999999999736e-01 3.938575000000000159e+01 1.238170000000000073e+02 1.501659999999999854e+03
7.499999999999999722e-02 5.926555000000000017e-01 4.015330000000000155e+01 1.263209999999999980e+02 1.502505000000000109e+03
7.599999999999999811e-02 5.932545000000000179e-01 4.085300000000000153e+01 1.287694999999999936e+02 1.503329999999999927e+03
7.699999999999999900e-02 5.938404999999999934e-01 4.148389999999999844e+01 1.311605000000000132e+02 1.504134999999999991e+03
7.799999999999999989e-02 5.944119999999999404e-01 4.204460000000000264e+01 1.334884999999999877e+02 1.504925000000000182e+03
7.900000000000000078e-02 5.949664999999999537e-01 4.253305000000000291e+01 1.357475000000000023e+02 1.505690000000000055e+03
8.000000000000000167e-02 5.955019999999999758e-01 4.294670000000000698e+01 1.379290000000000020e+02 1.506434999999999945e+03
8.100000000000000255e-02 5.960164999999999491e-01 4.328310000000000457e+01 1.400224999999999795e+02 1.507154999999999973e+03
8.200000000000000344e-02 5.965065000000000506e-01 4.353979999999999961e+01 1.420180000000000007e+02 1.507845000000000027e+03
8.300000000000000433e-02 5.969700000000000006e-01 4.371470000000000056e+01 1.439050000000000011e+02 1.508500000000000000e+03
8.400000000000000522e-02 5.974040000000000461e-01 4.380610000000000070e+01 1.456734999999999900e+02 1.509119999999999891e+03
8.500000000000000611e-02 5.978075000000000472e-01 4.381329999999999814e+01 1.473139999999999930e+02 1.509695000000000164e+03
8.600000000000000699e-02 5.981784999999999464e-01 4.373619999999999663e+01 1.488190000000000168e+02 1.510230000000000018e+03
8.700000000000000788e-02 5.985160000000000480e-01 4.357554999999999978e+01 1.501840000000000259e+02 1.510730000000000018e+03
8.800000000000000877e-02 5.988184999999999203e-01 4.333310000000000173e+01 1.514035000000000082e+02 1.511174999999999955e+03
8.899999999999999578e-02 5.990865000000000773e-01 4.301125000000000398e+01 1.524759999999999991e+02 1.511579999999999927e+03
8.999999999999999667e-02 5.993195000000000050e-01 4.261345000000000027e+01 1.534025000000000034e+02 1.511934999999999945e+03
9.099999999999999756e-02 5.995190000000000241e-01 4.214385000000000048e+01 1.541845000000000141e+02 1.512240000000000009e+03
9.199999999999999845e-02 5.996854999999999825e-01 4.160734999999999673e+01 1.548269999999999982e+02 1.512500000000000000e+03
9.299999999999999933e-02 5.998204999999999787e-01 4.100950000000000273e+01 1.553349999999999795e+02 1.512715000000000146e+03
9.400000000000000022e-02 5.999259999999999593e-01 4.035644999999999527e+01 1.557160000000000082e+02 1.512894999999999982e+03
9.500000000000000111e-02 6.000035000000000229e-01 3.965500000000000114e+01 1.559795000000000016e+02 1.513029999999999973e+03
9.600000000000000200e-02 6.000564999999999927e-01 3.891214999999999691e+01 1.561349999999999909e+02 1.513125000000000000e+03
9.700000000000000289e-02 6.000864999999999672e-01 3.813555000000000206e+01 1.561924999999999955e+02 1.513184999999999945e+03
9.800000000000000377e-02 6.000959999999999628e-01 3.733270000000000266e+01 1.561649999999999920e+02 1.513214999999999918e+03
9.900000000000000466e-02 6.000890000000000946e-01 3.651129999999999853e+01 1.560640000000000214e+02 1.513215000000000146e+03
1.000000000000000056e-01 6.000674999999999759e-01 3.567889999999999873e+01 1.559014999999999986e+02 1.513195000000000164e+03
1.010000000000000064e-01 6.000339999999999563e-01 3.484259999999999735e+01 1.556889999999999930e+02 1.513155000000000200e+03
1.020000000000000073e-01 5.999919999999999698e-01 3.400894999999999868e+01 1.554379999999999882e+02 1.513095000000000027e+03
1.030000000000000082e-01 5.999430000000000041e-01 3.318380000000000507e+01 1.551585000000000036e+02 1.513025000000000091e+03
1.040000000000000091e-01 5.998890000000000056e-01 3.237219999999999942e+01 1.548595000000000255e+02 1.512944999999999936e+03
1.050000000000000100e-01 5.998315000000000730e-01 3.157789999999999964e+01 1.545489999999999782e+02 1.512855000000000018e+03
1.059999999999999970e-01 5.997715000000000130e-01 3.080379999999999896e+01 1.542325000000000159e+02 1.512759999999999991e+03
1.069999999999999979e-01 5.997110000000001051e-01 3.005149999999999721e+01 1.539134999999999991e+02 1.512664999999999964e+03
1.079999999999999988e-01 5.996485000000000287e-01 2.932144999999999868e+01 1.535954999999999870e+02 1.512565000000000055e+03
1.089999999999999997e-01 5.995850000000000346e-01 2.861299999999999955e+01 1.532775000000000034e+02 1.512465000000000146e+03
1.100000000000000006e-01 5.995200000000000529e-01 2.792460000000000164e+01 1.529594999999999914e+02 1.512360000000000127e+03
1.110000000000000014e-01 5.994520000000000959e-01 2.725390000000000157e+01 1.526380000000000052e+02 1.512259999999999991e+03
1.120000000000000023e-01 5.993805000000000938e-01 2.659765000000000157e+01 1.523089999999999975e+02 1.512150000000000091e+03
1.130000000000000032e-01 5.993040000000000589e-01 2.595240000000000080e+01 1.519680000000000177e+02 1.512034999999999854e+03
1.140000000000000041e-01 5.992219999999999214e-01 2.531430000000000291e+01 1.516100000000000136e+02 1.511920000000000073e+03
1.150000000000000050e-01 5.991329999999999156e-01 2.467934999999999945e+01 1.512289999999999850e+02 1.511789999999999964e+03
1.160000000000000059e-01 5.990349999999999842e-01 2.404380000000000095e+01 1.508195000000000050e+02 1.511659999999999854e+03
1.170000000000000068e-01 5.989280000000000159e-01 2.340395000000000181e+01 1.503774999999999977e+02 1.511514999999999873e+03
1.180000000000000077e-01 5.988105000000000233e-01 2.275659999999999883e+01 1.498979999999999961e+02 1.511365000000000009e+03
1.190000000000000085e-01 5.986815000000000886e-01 2.209915000000000163e+01 1.493774999999999977e+02 1.511199999999999818e+03
1.200000000000000094e-01 5.985424999999999773e-01 2.142945000000000277e+01 1.488135000000000048e+02 1.511025000000000091e+03
1.209999999999999964e-01 5.983914999999999651e-01 2.074624999999999986e+01 1.482060000000000173e+02 1.510835000000000036e+03
1.219999999999999973e-01 5.982294999999999696e-01 2.004899999999999949e+01 1.475534999999999854e+02 1.510630000000000109e+03
1.229999999999999982e-01 5.980570000000000608e-01 1.933805000000000263e+01 1.468589999999999804e+02 1.510410000000000082e+03
1.239999999999999991e-01 5.978755000000000042e-01 1.861439999999999984e+01 1.461250000000000000e+02 1.510174999999999955e+03
1.250000000000000000e-01 5.976855000000000917e-01 1.788009999999999877e+01 1.453559999999999945e+02 1.509940000000000055e+03
1.260000000000000009e-01 5.974895000000000067e-01 1.713790000000000191e+01 1.445570000000000164e+02 1.509690000000000055e+03
1.270000000000000018e-01 5.972880000000000411e-01 1.639099999999999824e+01 1.437355000000000018e+02 1.509429999999999836e+03
1.280000000000000027e-01 5.970834999999999892e-01 1.564364999999999917e+01 1.428985000000000127e+02 1.509164999999999964e+03
1.290000000000000036e-01 5.968784999999999785e-01 1.490017500000000084e+01 1.420540000000000020e+02 1.508894999999999982e+03
1.300000000000000044e-01 5.966750000000000664e-01 1.416537500000000094e+01 1.412119999999999891e+02 1.508625000000000000e+03
1.310000000000000053e-01 5.964755000000000473e-01 1.344427499999999931e+01 1.403799999999999955e+02 1.508355000000000018e+03
1.320000000000000062e-01 5.962804999999999911e-01 1.274186000000000085e+01 1.395679999999999836e+02 1.508095000000000027e+03
1.330000000000000071e-01 5.960944999999999716e-01 1.206297499999999978e+01 1.387839999999999918e+02 1.507840000000000146e+03
1.340000000000000080e-01 5.959170000000000300e-01 1.141208999999999918e+01 1.380355000000000132e+02 1.507589999999999918e+03
1.350000000000000089e-01 5.957510000000000305e-01 1.079326499999999989e+01 1.373294999999999959e+02 1.507355000000000018e+03
1.360000000000000098e-01 5.955970000000000431e-01 1.020998999999999945e+01 1.366725000000000136e+02 1.507134999999999991e+03
1.370000000000000107e-01 5.954565000000000552e-01 9.665029999999999788e+00 1.360685000000000002e+02 1.506930000000000064e+03
1.380000000000000115e-01 5.953300000000000258e-01 9.160375000000000156e+00 1.355199999999999818e+02 1.506740000000000009e+03
1.390000000000000124e-01 5.952165000000000372e-01 8.697105000000000530e+00 1.350300000000000011e+02 1.506565000000000055e+03
1.400000000000000133e-01 5.951174999999999660e-01 8.275584999999999525e+00 1.345969999999999800e+02 1.506409999999999854e+03
1.410000000000000142e-01 5.950320000000000054e-01 7.895374999999999588e+00 1.342205000000000155e+02 1.506269999999999982e+03
1.420000000000000151e-01 5.949584999999999457e-01 7.555270000000000152e+00 1.338979999999999961e+02 1.506150000000000091e+03
1.430000000000000160e-01 5.948964999999999392e-01 7.253334999999999866e+00 1.336254999999999882e+02 1.506039999999999964e+03
1.440000000000000169e-01 5.948444999999999983e-01 6.987164999999999182e+00 1.333974999999999795e+02 1.505949999999999818e+03
1.450000000000000178e-01 5.948014999999999830e-01 6.753870000000000040e+00 1.332085000000000150e+02 1.505869999999999891e+03
1.459999999999999909e-01 5.947655000000000580e-01 6.550280000000000769e+00 1.330529999999999973e+02 1.505805000000000064e+03
1.469999999999999918e-01 5.947350000000000136e-01 6.373005000000000031e+00 1.329244999999999948e+02 1.505744999999999891e+03
1.479999999999999927e-01 5.947084999999999733e-01 6.218609999999999971e+00 1.328164999999999907e+02 1.505700000000000045e+03
1.489999999999999936e-01 5.946854999999999780e-01 6.083695000000000519e+00 1.327230000000000132e+02 1.505654999999999973e+03
1.499999999999999944e-01 5.946640000000000814e-01 5.964970000000000105e+00 1.326384999999999934e+02 1.505615000000000009e+03
1.509999999999999953e-01 5.946424999999999628e-01 5.859350000000000058e+00 1.325575000000000045e+02 1.505579999999999927e+03
1.519999999999999962e-01 5.946204999999999963e-01 5.764025000000000176e+00 1.324759999999999991e+02 1.505549999999999955e+03
1.529999999999999971e-01 5.945975000000000010e-01 5.676444999999999297e+00 1.323905000000000030e+02 1.505509999999999991e+03
1.539999999999999980e-01 5.945719999999999894e-01 5.594375000000000320e+00 1.322975000000000136e+02 1.505474999999999909e+03
1.549999999999999989e-01 5.945445000000000313e-01 5.515905000000000058e+00 1.321945000000000050e+02 1.505434999999999945e+03
1.559999999999999998e-01 5.945139999999999869e-01 5.439434999999999576e+00 1.320805000000000007e+02 1.505394999999999982e+03
1.570000000000000007e-01 5.944810000000000372e-01 5.363659999999999428e+00 1.319540000000000077e+02 1.505355000000000018e+03
1.580000000000000016e-01 5.944445000000000423e-01 5.287570000000000547e+00 1.318154999999999859e+02 1.505309999999999945e+03
1.590000000000000024e-01 5.944059999999999899e-01 5.210435000000000372e+00 1.316639999999999873e+02 1.505259999999999991e+03
