# t [s], A [cm^2], U [cm/s], P [cPa], c [cm/s]
1.000000000000000021e-03 1.430564999999999753e-01 2.621244999999999825e-01 8.900939999999999941e+01 1.838299999999999955e+03
2.000000000000000042e-03 1.430365000000000109e-01 1.596217500000000067e+00 8.636260000000000048e+01 1.838105000000000018e+03
3.000000000000000062e-03 1.429564999999999864e-01 3.231219500000000355e+00 8.292824999999999136e+01 1.837384999999999991e+03
4.000000000000000083e-03 1.428355000000000041e-01 5.043144499999999475e+00 7.909049999999999159e+01 1.836295000000000073e+03
5.000000000000000104e-03 1.426935000000000009e-01 6.989295000000000258e+00 7.545525000000000659e+01 1.835045000000000073e+03
6.000000000000000125e-03 1.425480000000000080e-01 8.983929999999999083e+00 7.235144999999999982e+01 1.833759999999999991e+03
7.000000000000000146e-03 1.424064999999999914e-01 1.089324000000000048e+01 6.975915000000000532e+01 1.832529999999999973e+03
8.000000000000000167e-03 1.422714999999999952e-01 1.260820999999999970e+01 6.749184999999999945e+01 1.831380000000000109e+03
9.000000000000001055e-03 1.421459999999999946e-01 1.410213500000000053e+01 6.544885000000000730e+01 1.830325000000000045e+03
1.000000000000000194e-02 1.420329999999999926e-01 1.539785000000000004e+01 6.365649999999999409e+01 1.829369999999999891e+03
1.099999999999999936e-02 1.419325000000000170e-01 1.651430000000000220e+01 6.214560000000000173e+01 1.828545000000000073e+03
1.200000000000000025e-02 1.418470000000000009e-01 1.745799999999999841e+01 6.089690000000000225e+01 1.827845000000000027e+03
1.300000000000000114e-02 1.417740000000000111e-01 1.823325000000000173e+01 5.986560000000000059e+01 1.827255000000000109e+03
1.400000000000000203e-02 1.417124999999999913e-01 1.884345000000000070e+01 5.899665000000000248e+01 1.826760000000000218e+03
1.499999999999999944e-02 1.416600000000000081e-01 1.929435000000000144e+01 5.823154999999999859e+01 1.826345000000000027e+03
1.600000000000000033e-02 1.416145000000000043e-01 1.960940000000000083e+01 5.754210000000000491e+01 1.825994999999999891e+03
1.700000000000000122e-02 1.415770000000000084e-01 1.984174999999999756e+01 5.697579999999999956e+01 1.825704999999999927e+03
1.800000000000000211e-02 1.415490000000000081e-01 2.006909999999999883e+01 5.666509999999999536e+01 1.825494999999999891e+03
1.900000000000000300e-02 1.415334999999999788e-01 2.036829999999999785e+01 5.677740000000000009e+01 1.825384999999999991e+03
2.000000000000000042e-02 1.415359999999999951e-01 2.078620000000000090e+01 5.743379999999999797e+01 1.825414999999999964e+03
2.100000000000000130e-02 1.415575000000000028e-01 2.132184999999999775e+01 5.864180000000000348e+01 1.825595000000000027e+03
2.200000000000000219e-02 1.415965000000000140e-01 2.192730000000000246e+01 6.027490000000000236e+01 1.825920000000000073e+03
2.299999999999999961e-02 1.416470000000000229e-01 2.252474999999999739e+01 6.210289999999999822e+01 1.826344999999999800e+03
2.400000000000000050e-02 1.417045000000000110e-01 2.303059999999999974e+01 6.385609999999999786e+01 1.826819999999999936e+03
2.500000000000000139e-02 1.417589999999999961e-01 2.337825000000000131e+01 6.529540000000000077e+01 1.827289999999999964e+03
2.600000000000000228e-02 1.418065000000000020e-01 2.353269999999999840e+01 6.626695000000000846e+01 1.827695000000000164e+03
2.700000000000000316e-02 1.418419999999999959e-01 2.349465000000000003e+01 6.672695000000000221e+01 1.828005000000000109e+03
2.800000000000000058e-02 1.418639999999999901e-01 2.329395000000000238e+01 6.673355000000000814e+01 1.828204999999999927e+03
2.900000000000000147e-02 1.418745000000000145e-01 2.297654999999999959e+01 6.641335000000000832e+01 1.828304999999999836e+03
3.000000000000000236e-02 1.418750000000000011e-01 2.258905000000000030e+01 6.591534999999998945e+01 1.828324999999999818e+03
3.099999999999999978e-02 1.418695000000000095e-01 2.216709999999999781e+01 6.536730000000000018e+01 1.828289999999999964e+03
3.200000000000000067e-02 1.418609999999999871e-01 2.172854999999999848e+01 6.484735000000000582e+01 1.828224999999999909e+03
3.300000000000000155e-02 1.418504999999999905e-01 2.127360000000000184e+01 6.437539999999999907e+01 1.828140000000000100e+03
3.400000000000000244e-02 1.418389999999999929e-01 2.079079999999999728e+01 6.392300000000000182e+01 1.828049999999999955e+03
3.500000000000000333e-02 1.418250000000000066e-01 2.026520000000000010e+01 6.343670000000000186e+01 1.827934999999999945e+03
3.600000000000000422e-02 1.418085000000000040e-01 1.968719999999999715e+01 6.286530000000000484e+01 1.827805000000000064e+03
3.700000000000000511e-02 1.417884999999999840e-01 1.905934999999999846e+01 6.218404999999999916e+01 1.827640000000000100e+03
3.799999999999999906e-02 1.417645000000000155e-01 1.839930000000000021e+01 6.140930000000000177e+01 1.827454999999999927e+03
3.899999999999999994e-02 1.417384999999999895e-01 1.773845000000000027e+01 6.060085000000000122e+01 1.827240000000000009e+03
4.000000000000000083e-02 1.417120000000000046e-01 1.711739999999999995e+01 5.985184999999999889e+01 1.827025000000000091e+03
4.100000000000000172e-02 1.416880000000000084e-01 1.657799999999999940e+01 5.926970000000000027e+01 1.826824999999999818e+03
4.200000000000000261e-02 1.416689999999999894e-01 1.615549999999999997e+01 5.895220000000000482e+01 1.826664999999999964e+03
4.300000000000000350e-02 1.416589999999999794e-01 1.587170000000000059e+01 5.896614999999999895e+01 1.826575000000000045e+03
4.400000000000000439e-02 1.416585000000000205e-01 1.573050000000000104e+01 5.933190000000000452e+01 1.826565000000000055e+03
4.499999999999999833e-02 1.416695000000000038e-01 1.571760000000000090e+01 6.001794999999999902e+01 1.826644999999999982e+03
4.599999999999999922e-02 1.416890000000000094e-01 1.580259999999999998e+01 6.094575000000000387e+01 1.826799999999999955e+03
4.700000000000000011e-02 1.417169999999999819e-01 1.594389999999999930e+01 6.200184999999999746e+01 1.827025000000000091e+03
4.800000000000000100e-02 1.417484999999999995e-01 1.609479999999999933e+01 6.305589999999999407e+01 1.827279999999999973e+03
4.900000000000000189e-02 1.417809999999999904e-01 1.620924999999999727e+01 6.397854999999999848e+01 1.827545000000000073e+03
5.000000000000000278e-02 1.418099999999999916e-01 1.624735000000000085e+01 6.465794999999999959e+01 1.827784999999999854e+03
5.100000000000000366e-02 1.418320000000000136e-01 1.617825000000000202e+01 6.501099999999999568e+01 1.827960000000000036e+03
5.200000000000000455e-02 1.418444999999999845e-01 1.598219999999999885e+01 6.498894999999998845e+01 1.828069999999999936e+03
5.300000000000000544e-02 1.418459999999999999e-01 1.565040000000000120e+01 6.457779999999999632e+01 1.828085000000000036e+03
5.399999999999999939e-02 1.418349999999999889e-01 1.518379999999999974e+01 6.379359999999999786e+01 1.828000000000000000e+03
5.500000000000000028e-02 1.418115000000000070e-01 1.459080000000000155e+01 6.267510000000000048e+01 1.827815000000000055e+03
5.600000000000000117e-02 1.417769999999999864e-01 1.388545000000000051e+01 6.127599999999999625e+01 1.827534999999999854e+03
5.700000000000000205e-02 1.417325000000000113e-01 1.308520000000000039e+01 5.965699999999999648e+01 1.827174999999999955e+03
5.800000000000000294e-02 1.416795000000000138e-01 1.220937499999999964e+01 5.787985000000000468e+01 1.826735000000000127e+03
5.900000000000000383e-02 1.416195000000000093e-01 1.127860499999999888e+01 5.600405000000000655e+01 1.826244999999999891e+03
6.000000000000000472e-02 1.415544999999999998e-01 1.031396999999999942e+01 5.408514999999999873e+01 1.825715000000000146e+03
6.099999999999999867e-02 1.414874999999999883e-01 9.337340000000001083e+00 5.217499999999999716e+01 1.825155000000000200e+03
6.199999999999999956e-02 1.414190000000000169e-01 8.371565000000000367e+00 5.032305000000000206e+01 1.824590000000000146e+03
6.300000000000000044e-02 1.413510000000000044e-01 7.440335000000000143e+00 4.857809999999999917e+01 1.824030000000000200e+03
6.400000000000000133e-02 1.412855000000000083e-01 6.568514999999999660e+00 4.698895000000000266e+01 1.823485000000000127e+03
6.500000000000000222e-02 1.412249999999999894e-01 5.781439999999999912e+00 4.560529999999999973e+01 1.822985000000000127e+03
6.600000000000000311e-02 1.411704999999999766e-01 5.104635000000000034e+00 4.447700000000000387e+01 1.822535000000000082e+03
6.700000000000000400e-02 1.411244999999999861e-01 4.562755000000000116e+00 4.365269999999999584e+01 1.822144999999999982e+03
6.800000000000000488e-02 1.410890000000000200e-01 4.178634999999999877e+00 4.317745000000000033e+01 1.821844999999999800e+03
6.900000000000000577e-02 1.410655000000000103e-01 3.972175000000000011e+00 4.309059999999999491e+01 1.821634999999999991e+03
7.000000000000000666e-02 1.410549999999999859e-01 3.959299999999999820e+00 4.342314999999999969e+01 1.821545000000000073e+03
7.100000000000000755e-02 1.410589999999999899e-01 4.151144999999999641e+00 4.419545000000000101e+01 1.821565000000000055e+03
7.200000000000000844e-02 1.410784999999999956e-01 4.553415000000000212e+00 4.541580000000000439e+01 1.821710000000000036e+03
7.300000000000000933e-02 1.411140000000000172e-01 5.166150000000000020e+00 4.707970000000000255e+01 1.821994999999999891e+03
7.399999999999999634e-02 1.411660000000000137e-01 5.983699999999999797e+00 4.917000000000000171e+01 1.822409999999999854e+03
7.499999999999999722e-02 1.412335000000000118e-01 6.995120000000000005e+00 5.165769999999999840e+01 1.822954999999999927e+03
7.599999999999999811e-02 1.413159999999999972e-01 8.184730000000000061e+00 5.450374999999999659e+01 1.823625000000000000e+03
7.699999999999999900e-02 1.414120000000000099e-01 9.532980000000000231e+00 5.766124999999999545e+01 1.824404999999999973e+03
7.799999999999999989e-02 1.415210000000000079e-01 1.101731999999999978e+01 6.107779999999999632e+01 1.825295000000000073e+03
7.900000000000000078e-02 1.416399999999999881e-01 1.261340500000000020e+01 6.469825000000000159e+01 1.826275000000000091e+03
8.000000000000000167e-02 1.417680000000000051e-01 1.429594999999999949e+01 6.846755000000000280e+01 1.827329999999999927e+03
8.100000000000000255e-02 1.419039999999999746e-01 1.603990000000000293e+01 7.233295000000001096e+01 1.828450000000000045e+03
8.200000000000000344e-02 1.420440000000000036e-01 1.782140000000000057e+01 7.624639999999999418e+01 1.829615000000000009e+03
8.300000000000000433e-02 1.421879999999999811e-01 1.961849999999999739e+01 8.016614999999998759e+01 1.830809999999999945e+03
8.400000000000000522e-02 1.423339999999999883e-01 2.141179999999999950e+01 8.405809999999999604e+01 1.832025000000000091e+03
8.500000000000000611e-02 1.424805000000000099e-01 2.318499999999999872e+01 8.789624999999999488e+01 1.833250000000000000e+03
8.600000000000000699e-02 1.426270000000000038e-01 2.492495000000000260e+01 9.166325000000000500e+01 1.834469999999999800e+03
8.700000000000000788e-02 1.427720000000000100e-01 2.662170000000000059e+01 9.534924999999999784e+01 1.835694999999999936e+03
8.800000000000000877e-02 1.429150000000000142e-01 2.826859999999999928e+01 9.895224999999999227e+01 1.836900000000000091e+03
8.899999999999999578e-02 1.430564999999999753e-01 2.986145000000000138e+01 1.024747500000000002e+02 1.838090000000000146e+03
8.999999999999999667e-02 1.431959999999999900e-01 3.139844999999999686e+01 1.059240499999999940e+02 1.839264999999999873e+03
9.099999999999999756e-02 1.433329999999999882e-01 3.287944999999999851e+01 1.093104999999999905e+02 1.840420000000000073e+03
9.199999999999999845e-02 1.434679999999999844e-01 3.430554999999999666e+01 1.126440000000000055e+02 1.841565000000000055e+03
9.299999999999999933e-02 1.436020000000000074e-01 3.567839999999999634e+01 1.159350000000000023e+02 1.842704999999999927e+03
9.400000000000000022e-02 1.437340000000000007e-01 3.699965000000000259e+01 1.191910000000000025e+02 1.843824999999999818e+03
9.500000000000000111e-02 1.438650000000000206e-01 3.827084999999999582e+01 1.224184999999999945e+02 1.844940000000000055e+03
9.600000000000000200e-02 1.439949999999999841e-01 3.949285000000000423e+01 1.256179999999999950e+02 1.846039999999999964e+03
9.700000000000000289e-02 1.441235000000000155e-01 4.066550000000000153e+01 1.287889999999999873e+02 1.847139999999999873e+03
9.800000000000000377e-02 1.442510000000000181e-01 4.178790000000000049e+01 1.319259999999999877e+02 1.848230000000000018e+03
9.900000000000000466e-02 1.443774999999999920e-01 4.285790000000000077e+01 1.350194999999999936e+02 1.849305000000000064e+03
1.000000000000000056e-01 1.445020000000000193e-01 4.387265000000000015e+01 1.380590000000000259e+02 1.850369999999999891e+03
1.010000000000000064e-01 1.446244999999999892e-01 4.482824999999999704e+01 1.410294999999999845e+02 1.851425000000000182e+03
1.020000000000000073e-01 1.447450000000000125e-01 4.571999999999999886e+01 1.439155000000000086e+02 1.852454999999999927e+03
1.030000000000000082e-01 1.448619999999999908e-01 4.654305000000000092e+01 1.466999999999999886e+02 1.853454999999999927e+03
1.040000000000000091e-01 1.449755000000000071e-01 4.729175000000000040e+01 1.493659999999999854e+02 1.854430000000000064e+03
1.050000000000000100e-01 1.450845000000000051e-01 4.796075000000000443e+01 1.518960000000000150e+02 1.855369999999999891e+03
1.059999999999999970e-01 1.451890000000000125e-01 4.854464999999999719e+01 1.542729999999999961e+02 1.856269999999999982e+03
1.069999999999999979e-01 1.452880000000000005e-01 4.903834999999999411e+01 1.564830000000000041e+02 1.857119999999999891e+03
1.079999999999999988e-01 1.453805000000000236e-01 4.943750000000000000e+01 1.585115000000000123e+02 1.857920000000000073e+03
1.089999999999999997e-01 1.454674999999999996e-01 4.973839999999999861e+01 1.603480000000000132e+02 1.858670000000000073e+03
1.100000000000000006e-01 1.455464999999999953e-01 4.993840000000000146e+01 1.619834999999999923e+02 1.859355000000000018e+03
1.110000000000000014e-01 1.456184999999999841e-01 5.003594999999999970e+01 1.634130000000000109e+02 1.859980000000000018e+03
1.120000000000000023e-01 1.456824999999999926e-01 5.003095000000000425e+01 1.646334999999999980e+02 1.860539999999999964e+03
1.130000000000000032e-01 1.457390000000000074e-01 4.992449999999999477e+01 1.656454999999999984e+02 1.861034999999999854e+03
1.140000000000000041e-01 1.457875000000000143e-01 4.971925000000000239e+01 1.664529999999999745e+02 1.861464999999999918e+03
1.150000000000000050e-01 1.458284999999999998e-01 4.941934999999999434e+01 1.670634999999999764e+02 1.861824999999999818e+03
1.160000000000000059e-01 1.458619999999999917e-01 4.903029999999999688e+01 1.674879999999999995e+02 1.862115000000000009e+03
1.170000000000000068e-01 1.458879999999999899e-01 4.855889999999999418e+01 1.677390000000000043e+02 1.862349999999999909e+03
1.180000000000000077e-01 1.459070000000000089e-01 4.801309999999999434e+01 1.678324999999999818e+02 1.862519999999999982e+03
1.190000000000000085e-01 1.459195000000000075e-01 4.740160000000000196e+01 1.677860000000000014e+02 1.862639999999999873e+03
1.200000000000000094e-01 1.459270000000000012e-01 4.673395000000000010e+01 1.676184999999999832e+02 1.862710000000000036e+03
1.209999999999999964e-01 1.459289999999999754e-01 4.601989999999999981e+01 1.673485000000000014e+02 1.862735000000000127e+03
1.219999999999999973e-01 1.459260000000000002e-01 4.526930000000000121e+01 1.669959999999999809e+02 1.862715000000000146e+03
1.229999999999999982e-01 1.459199999999999942e-01 4.449184999999999945e+01 1.665794999999999959e+02 1.862670000000000073e+03
1.239999999999999991e-01 1.459104999999999985e-01 4.369660000000000366e+01 1.661150000000000091e+02 1.862595000000000027e+03
1.250000000000000000e-01 1.458984999999999865e-01 4.289204999999999757e+01 1.656184999999999832e+02 1.862490000000000009e+03
1.260000000000000009e-01 1.458845000000000003e-01 4.208565000000000111e+01 1.651024999999999920e+02 1.862375000000000000e+03
1.270000000000000018e-01 1.458685000000000120e-01 4.128374999999999773e+01 1.645785000000000196e+02 1.862240000000000009e+03
1.280000000000000027e-01 1.458524999999999960e-01 4.049164999999999992e+01 1.640539999999999736e+02 1.862099999999999909e+03
1.290000000000000036e-01 1.458344999999999780e-01 3.971305000000000263e+01 1.635339999999999918e+02 1.861954999999999927e+03
1.300000000000000044e-01 1.458174999999999888e-01 3.895085000000000264e+01 1.630204999999999984e+02 1.861804999999999836e+03
1.310000000000000053e-01 1.457990000000000119e-01 3.820629999999999882e+01 1.625144999999999982e+02 1.861644999999999982e+03
1.320000000000000062e-01 1.457809999999999939e-01 3.747970000000000113e+01 1.620134999999999934e+02 1.861490000000000009e+03
1.330000000000000071e-01 1.457625000000000171e-01 3.677025000000000432e+01 1.615140000000000100e+02 1.861329999999999927e+03
1.340000000000000080e-01 1.457440000000000124e-01 3.607634999999999792e+01 1.610099999999999909e+02 1.861170000000000073e+03
1.350000000000000089e-01 1.457249999999999934e-01 3.539535000000000053e+01 1.604945000000000164e+02 1.861005000000000109e+03
1.360000000000000098e-01 1.457050000000000012e-01 3.472444999999999737e+01 1.599604999999999961e+02 1.860829999999999927e+03
1.370000000000000107e-01 1.456850000000000089e-01 3.406010000000000559e+01 1.593994999999999891e+02 1.860654999999999973e+03
1.380000000000000115e-01 1.456629999999999869e-01 3.339874999999999972e+01 1.588050000000000068e+02 1.860470000000000027e+03
1.390000000000000124e-01 1.456405000000000061e-01 3.273680000000000234e+01 1.581675000000000182e+02 1.860269999999999982e+03
1.400000000000000133e-01 1.456159999999999954e-01 3.207075000000000387e+01 1.574819999999999993e+02 1.860059999999999945e+03
1.410000000000000142e-01 1.455899999999999972e-01 3.139759999999999707e+01 1.567425000000000068e+02 1.859835000000000036e+03
1.420000000000000151e-01 1.455615000000000103e-01 3.071454999999999913e+01 1.559449999999999932e+02 1.859594999999999800e+03
1.430000000000000160e-01 1.455319999999999947e-01 3.001970000000000027e+01 1.550865000000000009e+02 1.859335000000000036e+03
1.440000000000000169e-01 1.454989999999999895e-01 2.931154999999999688e+01 1.541650000000000205e+02 1.859059999999999945e+03
1.450000000000000178e-01 1.454644999999999966e-01 2.858970000000000056e+01 1.531825000000000045e+02 1.858759999999999991e+03
1.459999999999999909e-01 1.454274999999999873e-01 2.785425000000000040e+01 1.521409999999999911e+02 1.858445000000000164e+03
1.469999999999999918e-01 1.453885000000000038e-01 2.710645000000000238e+01 1.510455000000000041e+02 1.858110000000000127e+03
1.479999999999999927e-01 1.453474999999999906e-01 2.634810000000000230e+01 1.499019999999999868e+02 1.857759999999999991e+03
1.489999999999999936e-01 1.453039999999999887e-01 2.558205000000000240e+01 1.487169999999999845e+02 1.857389999999999873e+03
1.499999999999999944e-01 1.452594999999999859e-01 2.481170000000000186e+01 1.475020000000000095e+02 1.857005000000000109e+03
1.509999999999999953e-01 1.452134999999999954e-01 2.404115000000000180e+01 1.462655000000000030e+02 1.856615000000000009e+03
1.519999999999999962e-01 1.451664999999999761e-01 2.327505000000000024e+01 1.450194999999999936e+02 1.856215000000000146e+03
1.529999999999999971e-01 1.451189999999999980e-01 2.251820000000000022e+01 1.437755000000000223e+02 1.855804999999999836e+03
1.539999999999999980e-01 1.450710000000000055e-01 2.177579999999999671e+01 1.425465000000000089e+02 1.855400000000000091e+03
1.549999999999999989e-01 1.450234999999999996e-01 2.105304999999999893e+01 1.413425000000000011e+02 1.854994999999999891e+03
1.559999999999999998e-01 1.449770000000000225e-01 2.035480000000000089e+01 1.401765000000000043e+02 1.854595000000000027e+03
1.570000000000000007e-01 1.449309999999999765e-01 1.968584999999999852e+01 1.390584999999999809e+02 1.854204999999999927e+03
1.580000000000000016e-01 1.448869999999999880e-01 1.905039999999999978e+01 1.379960000000000093e+02 1.853820000000000164e+03
1.590000000000000024e-01 1.448440000000000005e-01 1.845210000000000150e+01 1.369979999999999905e+02 1.853454999999999927e+03
