# t [s], A [cm^2], U [cm/s], P [cPa], c [cm/s]
1.000000000000000021e-03 1.750964999999999883e-01 3.355023999999999784e-01 9.319870000000000232e+01 2.302010000000000218e+03
2.000000000000000042e-03 1.750474999999999948e-01 1.788953500000000085e+00 8.960814999999999486e+01 2.301545000000000073e+03
3.000000000000000062e-03 1.749269999999999992e-01 3.583253999999999717e+00 8.464555000000000007e+01 2.300440000000000055e+03
4.000000000000000083e-03 1.747715000000000241e-01 5.619335500000000039e+00 7.949500000000000455e+01 2.299034999999999854e+03
5.000000000000000104e-03 1.746125000000000038e-01 7.795205000000000162e+00 7.515045000000000641e+01 2.297605000000000018e+03
6.000000000000000125e-03 1.744645000000000223e-01 9.855904999999999916e+00 7.167484999999999218e+01 2.296295000000000073e+03
7.000000000000000146e-03 1.743270000000000097e-01 1.158504500000000093e+01 6.860980000000000700e+01 2.295105000000000018e+03
8.000000000000000167e-03 1.742039999999999977e-01 1.298661000000000065e+01 6.587669999999999959e+01 2.294064999999999600e+03
9.000000000000001055e-03 1.741010000000000058e-01 1.412124999999999986e+01 6.364050000000000296e+01 2.293199999999999818e+03
1.000000000000000194e-02 1.740174999999999916e-01 1.501004999999999967e+01 6.191359999999999530e+01 2.292510000000000218e+03
1.099999999999999936e-02 1.739529999999999965e-01 1.566495000000000104e+01 6.061014999999999731e+01 2.291985000000000127e+03
1.200000000000000025e-02 1.739020000000000010e-01 1.608330000000000126e+01 5.957645000000000124e+01 2.291574999999999818e+03
1.300000000000000114e-02 1.738600000000000145e-01 1.627445000000000164e+01 5.863575000000000159e+01 2.291244999999999891e+03
1.400000000000000203e-02 1.738254999999999939e-01 1.633804999999999907e+01 5.783630000000000138e+01 2.290980000000000018e+03
1.499999999999999944e-02 1.738055000000000017e-01 1.647379999999999711e+01 5.760304999999999609e+01 2.290835000000000036e+03
1.600000000000000033e-02 1.738135000000000097e-01 1.687600000000000122e+01 5.850690000000000168e+01 2.290909999999999854e+03
1.700000000000000122e-02 1.738574999999999982e-01 1.760464999999999947e+01 6.082115000000000293e+01 2.291269999999999982e+03
1.800000000000000211e-02 1.739330000000000043e-01 1.853914999999999935e+01 6.424394999999999811e+01 2.291909999999999854e+03
1.900000000000000300e-02 1.740280000000000160e-01 1.943744999999999834e+01 6.797714999999999463e+01 2.292704999999999927e+03
2.000000000000000042e-02 1.741185000000000094e-01 2.005189999999999984e+01 7.107550000000000523e+01 2.293489999999999782e+03
2.100000000000000130e-02 1.741870000000000085e-01 2.023219999999999885e+01 7.284239999999999782e+01 2.294099999999999909e+03
2.200000000000000219e-02 1.742230000000000167e-01 1.997225000000000250e+01 7.307470000000000709e+01 2.294430000000000291e+03
2.299999999999999961e-02 1.742259999999999920e-01 1.938775000000000048e+01 7.206775000000000375e+01 2.294484999999999673e+03
2.400000000000000050e-02 1.742049999999999987e-01 1.864690000000000225e+01 7.041134999999999877e+01 2.294329999999999927e+03
2.500000000000000139e-02 1.741734999999999811e-01 1.789215000000000089e+01 6.870009999999999195e+01 2.294064999999999600e+03
2.600000000000000228e-02 1.741404999999999759e-01 1.718914999999999793e+01 6.729714999999998781e+01 2.293784999999999854e+03
2.700000000000000316e-02 1.741105000000000014e-01 1.651849999999999952e+01 6.624190000000000111e+01 2.293534999999999854e+03
2.800000000000000058e-02 1.740825000000000011e-01 1.580669999999999931e+01 6.531210000000000093e+01 2.293295000000000073e+03
2.900000000000000147e-02 1.740514999999999979e-01 1.497569999999999979e+01 6.418735000000000923e+01 2.293034999999999854e+03
3.000000000000000236e-02 1.740109999999999990e-01 1.399135000000000062e+01 6.263555000000000206e+01 2.292699999999999818e+03
3.099999999999999978e-02 1.739600000000000035e-01 1.289109999999999978e+01 6.064900000000000091e+01 2.292269999999999982e+03
3.200000000000000067e-02 1.739014999999999866e-01 1.178262499999999946e+01 5.848069999999999879e+01 2.291784999999999854e+03
3.300000000000000155e-02 1.738449999999999995e-01 1.081334999999999980e+01 5.657144999999999868e+01 2.291300000000000182e+03
3.400000000000000244e-02 1.738010000000000110e-01 1.012357499999999888e+01 5.539889999999999759e+01 2.290920000000000073e+03
3.500000000000000333e-02 1.737795000000000034e-01 9.801784999999998860e+00 5.531060000000000088e+01 2.290724999999999909e+03
3.600000000000000422e-02 1.737869999999999970e-01 9.857459999999999667e+00 5.640404999999999802e+01 2.290765000000000327e+03
3.700000000000000511e-02 1.738230000000000053e-01 1.021913500000000141e+01 5.849129999999999541e+01 2.291045000000000073e+03
3.799999999999999906e-02 1.738800000000000068e-01 1.075442999999999927e+01 6.115049999999999386e+01 2.291514999999999873e+03
3.899999999999999994e-02 1.739470000000000183e-01 1.130280000000000129e+01 6.383579999999999899e+01 2.292064999999999600e+03
4.000000000000000083e-02 1.740105000000000124e-01 1.171020000000000039e+01 6.600585000000000946e+01 2.292605000000000018e+03
4.100000000000000172e-02 1.740579999999999905e-01 1.185620000000000118e+01 6.723300000000000409e+01 2.293010000000000218e+03
4.200000000000000261e-02 1.740800000000000125e-01 1.166880000000000095e+01 6.726945000000000618e+01 2.293210000000000036e+03
4.300000000000000350e-02 1.740714999999999901e-01 1.112662500000000065e+01 6.606149999999999523e+01 2.293154999999999745e+03
4.400000000000000439e-02 1.740315000000000056e-01 1.024998000000000076e+01 6.372055000000000291e+01 2.292835000000000036e+03
4.499999999999999833e-02 1.739634999999999931e-01 9.087329999999999686e+00 6.046604999999999563e+01 2.292265000000000327e+03
4.599999999999999922e-02 1.738709999999999978e-01 7.700575000000000614e+00 5.656319999999999482e+01 2.291500000000000000e+03
4.700000000000000011e-02 1.737615000000000132e-01 6.154099999999999682e+00 5.227120000000000033e+01 2.290579999999999927e+03
4.800000000000000100e-02 1.736409999999999898e-01 4.508622999999999159e+00 4.781255000000000166e+01 2.289564999999999600e+03
4.900000000000000189e-02 1.735140000000000016e-01 2.820114999999999927e+00 4.336514999999999986e+01 2.288494999999999891e+03
5.000000000000000278e-02 1.733870000000000133e-01 1.141679999999999806e+00 3.907040000000000646e+01 2.287414999999999964e+03
5.100000000000000366e-02 1.732630000000000003e-01 -4.734350000000000502e-01 3.504995000000000260e+01 2.286359999999999673e+03
5.200000000000000455e-02 1.731455000000000077e-01 -1.969719999999999915e+00 3.142154999999999632e+01 2.285359999999999673e+03
5.300000000000000544e-02 1.730395000000000127e-01 -3.289193500000000103e+00 2.830829999999999913e+01 2.284460000000000036e+03
5.399999999999999939e-02 1.729490000000000194e-01 -4.373565000000000147e+00 2.583930000000000149e+01 2.283680000000000291e+03
5.500000000000000028e-02 1.728775000000000173e-01 -5.168169999999999931e+00 2.414114999999999966e+01 2.283055000000000291e+03
5.600000000000000117e-02 1.728279999999999816e-01 -5.626859999999999751e+00 2.332450000000000045e+01 2.282625000000000000e+03
5.700000000000000205e-02 1.728049999999999864e-01 -5.716680000000000206e+00 2.346885000000000332e+01 2.282400000000000091e+03
5.800000000000000294e-02 1.728089999999999904e-01 -5.421419999999999462e+00 2.460995000000000132e+01 2.282414999999999964e+03
5.900000000000000383e-02 1.728415000000000090e-01 -4.743364999999999831e+00 2.673299999999999699e+01 2.282659999999999854e+03
6.000000000000000472e-02 1.729020000000000001e-01 -3.703244999999999898e+00 2.977145000000000152e+01 2.283150000000000091e+03
6.099999999999999867e-02 1.729884999999999895e-01 -2.338365500000000097e+00 3.361284999999999457e+01 2.283855000000000018e+03
6.199999999999999956e-02 1.730975000000000152e-01 -6.995049999999998214e-01 3.810845000000000482e+01 2.284760000000000218e+03
6.300000000000000044e-02 1.732255000000000045e-01 1.152999999999999803e+00 4.308594999999999686e+01 2.285824999999999818e+03
6.400000000000000133e-02 1.733669999999999933e-01 3.153630999999999851e+00 4.836360000000000525e+01 2.287010000000000218e+03
6.500000000000000222e-02 1.735180000000000056e-01 5.236089999999999911e+00 5.376370000000000005e+01 2.288279999999999745e+03
6.600000000000000311e-02 1.736729999999999940e-01 7.337534999999999918e+00 5.912484999999999502e+01 2.289595000000000255e+03
6.700000000000000400e-02 1.738280000000000103e-01 9.402359999999999829e+00 6.431289999999999907e+01 2.290914999999999964e+03
6.800000000000000488e-02 1.739789999999999948e-01 1.138517500000000027e+01 6.922814999999999941e+01 2.292204999999999927e+03
6.900000000000000577e-02 1.741240000000000010e-01 1.325277999999999956e+01 7.381004999999998972e+01 2.293449999999999818e+03
7.000000000000000666e-02 1.742609999999999992e-01 1.498495000000000132e+01 7.803725000000000023e+01 2.294625000000000000e+03
7.100000000000000755e-02 1.743890000000000162e-01 1.657394999999999996e+01 8.192445000000000732e+01 2.295730000000000018e+03
7.200000000000000844e-02 1.745090000000000252e-01 1.802289999999999992e+01 8.551519999999999300e+01 2.296764999999999873e+03
7.300000000000000933e-02 1.746209999999999984e-01 1.934345000000000070e+01 8.887274999999999636e+01 2.297739999999999782e+03
7.399999999999999634e-02 1.747274999999999801e-01 2.055264999999999986e+01 9.206980000000000075e+01 2.298670000000000073e+03
7.499999999999999722e-02 1.748299999999999854e-01 2.167014999999999958e+01 9.517810000000000059e+01 2.299555000000000291e+03
7.599999999999999811e-02 1.749294999999999878e-01 2.271535000000000082e+01 9.826139999999999475e+01 2.300425000000000182e+03
7.699999999999999900e-02 1.750295000000000045e-01 2.370539999999999736e+01 1.013670000000000044e+02 2.301289999999999964e+03
7.799999999999999989e-02 1.751290000000000069e-01 2.465330000000000155e+01 1.045240000000000009e+02 2.302154999999999745e+03
7.900000000000000078e-02 1.752294999999999825e-01 2.556745000000000090e+01 1.077415000000000020e+02 2.303029999999999745e+03
8.000000000000000167e-02 1.753315000000000012e-01 2.645080000000000098e+01 1.110109999999999957e+02 2.303914999999999964e+03
8.100000000000000255e-02 1.754340000000000066e-01 2.730140000000000100e+01 1.143059999999999974e+02 2.304805000000000291e+03
8.200000000000000344e-02 1.755375000000000130e-01 2.811270000000000024e+01 1.175879999999999939e+02 2.305694999999999709e+03
8.300000000000000433e-02 1.756395000000000040e-01 2.887440000000000140e+01 1.208089999999999975e+02 2.306585000000000036e+03
8.400000000000000522e-02 1.757390000000000063e-01 2.957325000000000159e+01 1.239159999999999968e+02 2.307449999999999818e+03
8.500000000000000611e-02 1.758349999999999913e-01 3.019409999999999883e+01 1.268514999999999873e+02 2.308284999999999854e+03
8.600000000000000699e-02 1.759255000000000124e-01 3.072090000000000032e+01 1.295604999999999905e+02 2.309074999999999818e+03
8.700000000000000788e-02 1.760089999999999988e-01 3.113814999999999955e+01 1.319925000000000068e+02 2.309805000000000291e+03
8.800000000000000877e-02 1.760845000000000049e-01 3.143140000000000001e+01 1.341020000000000039e+02 2.310465000000000146e+03
8.899999999999999578e-02 1.761500000000000010e-01 3.158854999999999791e+01 1.358525000000000205e+02 2.311045000000000073e+03
8.999999999999999667e-02 1.762055000000000149e-01 3.160115000000000052e+01 1.372189999999999941e+02 2.311529999999999745e+03
9.099999999999999756e-02 1.762489999999999890e-01 3.146459999999999724e+01 1.381899999999999977e+02 2.311920000000000073e+03
9.199999999999999845e-02 1.762814999999999799e-01 3.117914999999999992e+01 1.387649999999999864e+02 2.312215000000000146e+03
9.299999999999999933e-02 1.763020000000000143e-01 3.074984999999999857e+01 1.389600000000000080e+02 2.312404999999999745e+03
9.400000000000000022e-02 1.763119999999999965e-01 3.018650000000000233e+01 1.388034999999999854e+02 2.312500000000000000e+03
9.500000000000000111e-02 1.763109999999999955e-01 2.950314999999999799e+01 1.383340000000000032e+02 2.312505000000000109e+03
9.600000000000000200e-02 1.763014999999999999e-01 2.871770000000000067e+01 1.375995000000000061e+02 2.312430000000000291e+03
9.700000000000000289e-02 1.762839999999999963e-01 2.785034999999999883e+01 1.366544999999999845e+02 2.312284999999999854e+03
9.800000000000000377e-02 1.762600000000000000e-01 2.692320000000000135e+01 1.355575000000000045e+02 2.312085000000000036e+03
9.900000000000000466e-02 1.762309999999999988e-01 2.595870000000000033e+01 1.343634999999999877e+02 2.311845000000000255e+03
1.000000000000000056e-01 1.761989999999999945e-01 2.497869999999999990e+01 1.331274999999999977e+02 2.311569999999999709e+03
1.010000000000000064e-01 1.761655000000000026e-01 2.400349999999999895e+01 1.318979999999999961e+02 2.311284999999999854e+03
1.020000000000000073e-01 1.761314999999999964e-01 2.305105000000000004e+01 1.307150000000000034e+02 2.310994999999999891e+03
1.030000000000000082e-01 1.760990000000000055e-01 2.213595000000000113e+01 1.296100000000000136e+02 2.310710000000000036e+03
1.040000000000000091e-01 1.760670000000000013e-01 2.126930000000000121e+01 1.286045000000000016e+02 2.310430000000000291e+03
1.050000000000000100e-01 1.760380000000000000e-01 2.045805000000000007e+01 1.277079999999999984e+02 2.310180000000000291e+03
1.059999999999999970e-01 1.760120000000000018e-01 1.970499999999999829e+01 1.269215000000000089e+02 2.309944999999999709e+03
1.069999999999999979e-01 1.759884999999999922e-01 1.900890000000000057e+01 1.262325000000000017e+02 2.309739999999999782e+03
1.079999999999999988e-01 1.759664999999999979e-01 1.836469999999999914e+01 1.256219999999999999e+02 2.309550000000000182e+03
1.089999999999999997e-01 1.759475000000000067e-01 1.776405000000000101e+01 1.250635000000000048e+02 2.309375000000000000e+03
1.100000000000000006e-01 1.759290000000000020e-01 1.719610000000000127e+01 1.245229999999999961e+02 2.309210000000000036e+03
1.110000000000000014e-01 1.759109999999999840e-01 1.664840000000000231e+01 1.239650000000000034e+02 2.309055000000000291e+03
1.120000000000000023e-01 1.758919999999999928e-01 1.610745000000000005e+01 1.233545000000000016e+02 2.308885000000000218e+03
1.130000000000000032e-01 1.758720000000000006e-01 1.556010000000000026e+01 1.226550000000000011e+02 2.308704999999999927e+03
1.140000000000000041e-01 1.758485000000000187e-01 1.499430000000000085e+01 1.218379999999999939e+02 2.308505000000000109e+03
1.150000000000000050e-01 1.758219999999999783e-01 1.439995000000000047e+01 1.208795000000000073e+02 2.308274999999999636e+03
1.160000000000000059e-01 1.757910000000000028e-01 1.376965000000000039e+01 1.197650000000000006e+02 2.308010000000000218e+03
1.170000000000000068e-01 1.757565000000000099e-01 1.309929999999999950e+01 1.184894999999999925e+02 2.307704999999999927e+03
1.180000000000000077e-01 1.757170000000000121e-01 1.238844999999999885e+01 1.170575000000000045e+02 2.307369999999999891e+03
1.190000000000000085e-01 1.756725000000000092e-01 1.164034000000000013e+01 1.154850000000000136e+02 2.306994999999999891e+03
1.200000000000000094e-01 1.756254999999999900e-01 1.086177999999999955e+01 1.137974999999999994e+02 2.306585000000000036e+03
1.209999999999999964e-01 1.755740000000000078e-01 1.006268500000000010e+01 1.120269999999999868e+02 2.306144999999999982e+03
1.219999999999999973e-01 1.755214999999999970e-01 9.255499999999999616e+00 1.102120000000000033e+02 2.305690000000000055e+03
1.229999999999999982e-01 1.754674999999999985e-01 8.454470000000000596e+00 1.083954999999999984e+02 2.305220000000000255e+03
1.239999999999999991e-01 1.754129999999999856e-01 7.674705000000000332e+00 1.066214999999999975e+02 2.304755000000000109e+03
1.250000000000000000e-01 1.753600000000000159e-01 6.931205000000000283e+00 1.049314999999999998e+02 2.304295000000000073e+03
1.260000000000000009e-01 1.753099999999999936e-01 6.238084999999999880e+00 1.033635000000000019e+02 2.303859999999999673e+03
1.270000000000000018e-01 1.752630000000000021e-01 5.607759999999999856e+00 1.019492999999999938e+02 2.303454999999999927e+03
1.280000000000000027e-01 1.752199999999999869e-01 5.050295000000000201e+00 1.007141000000000020e+02 2.303085000000000036e+03
1.290000000000000036e-01 1.751820000000000044e-01 4.573014999999999830e+00 9.967359999999999332e+01 2.302750000000000000e+03
1.300000000000000044e-01 1.751500000000000001e-01 4.180229999999999890e+00 9.883559999999999945e+01 2.302470000000000255e+03
1.310000000000000053e-01 1.751240000000000019e-01 3.873180000000000067e+00 9.819944999999999879e+01 2.302234999999999673e+03
1.320000000000000062e-01 1.751030000000000086e-01 3.650164999999999882e+00 9.775695000000000334e+01 2.302050000000000182e+03
1.330000000000000071e-01 1.750879999999999936e-01 3.506804999999999950e+00 9.749299999999999500e+01 2.301914999999999964e+03
1.340000000000000080e-01 1.750780000000000114e-01 3.436420000000000030e+00 9.738734999999999786e+01 2.301820000000000164e+03
1.350000000000000089e-01 1.750725000000000198e-01 3.430435000000000123e+00 9.741599999999999682e+01 2.301769999999999982e+03
1.360000000000000098e-01 1.750710000000000044e-01 3.478930000000000078e+00 9.755235000000000412e+01 2.301750000000000000e+03
1.370000000000000107e-01 1.750729999999999786e-01 3.571070000000000189e+00 9.776869999999999550e+01 2.301760000000000218e+03
1.380000000000000115e-01 1.750769999999999826e-01 3.695654999999999912e+00 9.803759999999999764e+01 2.301789999999999964e+03
1.390000000000000124e-01 1.750829999999999886e-01 3.841565000000000119e+00 9.833265000000000100e+01 2.301835000000000036e+03
1.400000000000000133e-01 1.750895000000000090e-01 3.998170000000000002e+00 9.862995000000000800e+01 2.301890000000000327e+03
1.410000000000000142e-01 1.750964999999999883e-01 4.155749999999999389e+00 9.890834999999999866e+01 2.301949999999999818e+03
1.420000000000000151e-01 1.751034999999999953e-01 4.305794999999999817e+00 9.915030000000000143e+01 2.302010000000000218e+03
1.430000000000000160e-01 1.751095000000000013e-01 4.441264999999999574e+00 9.934239999999999782e+01 2.302059999999999945e+03
1.440000000000000169e-01 1.751139999999999919e-01 4.556784999999999641e+00 9.947549999999999670e+01 2.302100000000000364e+03
1.450000000000000178e-01 1.751174999999999815e-01 4.648719999999999963e+00 9.954525000000001000e+01 2.302125000000000000e+03
1.459999999999999909e-01 1.751189999999999969e-01 4.715189999999999770e+00 9.955109999999999104e+01 2.302140000000000327e+03
1.469999999999999918e-01 1.751185000000000103e-01 4.756009999999999849e+00 9.949644999999999584e+01 2.302140000000000327e+03
1.479999999999999927e-01 1.751169999999999949e-01 4.772484999999999644e+00 9.938835000000000264e+01 2.302130000000000109e+03
1.489999999999999936e-01 1.751139999999999919e-01 4.767174999999999940e+00 9.923619999999999663e+01 2.302105000000000018e+03
1.499999999999999944e-01 1.751099999999999879e-01 4.743579999999999686e+00 9.905119999999999436e+01 2.302070000000000164e+03
1.509999999999999953e-01 1.751044999999999963e-01 4.705809999999999604e+00 9.884544999999999959e+01 2.302030000000000200e+03
1.519999999999999962e-01 1.750990000000000046e-01 4.658195000000000086e+00 9.863065000000000282e+01 2.301980000000000018e+03
1.529999999999999971e-01 1.750929999999999986e-01 4.604950000000000543e+00 9.841740000000000066e+01 2.301930000000000291e+03
1.539999999999999980e-01 1.750869999999999926e-01 4.549884999999999735e+00 9.821449999999998681e+01 2.301885000000000218e+03
1.549999999999999989e-01 1.750815000000000010e-01 4.496129999999999960e+00 9.802834999999998900e+01 2.301829999999999927e+03
1.559999999999999998e-01 1.750760000000000094e-01 4.446004999999999541e+00 9.786260000000000048e+01 2.301789999999999964e+03
1.570000000000000007e-01 1.750714999999999910e-01 4.400909999999999656e+00 9.771819999999999595e+01 2.301744999999999891e+03
1.580000000000000016e-01 1.750670000000000004e-01 4.361354999999999649e+00 9.759345000000000425e+01 2.301710000000000036e+03
1.590000000000000024e-01 1.750635000000000108e-01 4.327020000000000088e+00 9.748460000000000036e+01 2.301680000000000291e+03
