# t [s], A [cm^2], U [cm/s], P [cPa], c [cm/s]
1.000000000000000021e-03 4.748160000000000158e-01 2.354049999999996423e-03 9.772344999999999970e+01 1.661934999999999945e+03
2.000000000000000042e-03 4.748164999999999747e-01 1.915369999999999920e-02 9.770959999999999468e+01 1.661929999999999836e+03
3.000000000000000062e-03 4.748764999999999792e-01 1.740871500000000238e-01 9.788190000000000168e+01 1.661974999999999909e+03
4.000000000000000083e-03 4.748900000000000343e-01 2.267109999999999959e-01 9.794114999999999327e+01 1.661994999999999891e+03
5.000000000000000104e-03 4.748375000000000234e-01 1.157755000000000312e-01 9.771680000000000632e+01 1.661945000000000164e+03
6.000000000000000125e-03 4.747770000000000046e-01 -2.932249999999997359e-02 9.733214999999999861e+01 1.661860000000000127e+03
7.000000000000000146e-03 4.746909999999999741e-01 -2.499750000000000583e-01 9.676009999999999422e+01 1.661724999999999909e+03
8.000000000000000167e-03 4.745400000000000174e-01 -6.490099999999999758e-01 9.584199999999999875e+01 1.661505000000000109e+03
9.000000000000001055e-03 4.743220000000000214e-01 -1.223335000000000061e+00 9.451654999999999518e+01 1.661199999999999818e+03
1.000000000000000194e-02 4.740250000000000297e-01 -1.984960000000000058e+00 9.271545000000000414e+01 1.660759999999999991e+03
1.099999999999999936e-02 4.736345000000000138e-01 -2.942379999999999995e+00 9.037004999999999200e+01 1.660184999999999945e+03
1.200000000000000025e-02 4.731805000000000039e-01 -3.984405000000000197e+00 8.757479999999999620e+01 1.659474999999999909e+03
1.300000000000000114e-02 4.727395000000000347e-01 -4.880099999999999660e+00 8.464035000000001219e+01 1.658700000000000045e+03
1.400000000000000203e-02 4.723829999999999973e-01 -5.403796999999999962e+00 8.195369999999999777e+01 1.657954999999999927e+03
1.499999999999999944e-02 4.721405000000000185e-01 -5.450089999999999435e+00 7.978884999999999650e+01 1.657305000000000064e+03
1.600000000000000033e-02 4.719924999999999815e-01 -5.062935000000000407e+00 7.820624999999999716e+01 1.656775000000000091e+03
1.700000000000000122e-02 4.718870000000000564e-01 -4.392794999999999561e+00 7.706260000000000332e+01 1.656340000000000146e+03
1.800000000000000211e-02 4.717685000000000350e-01 -3.622555000000000192e+00 7.609759999999999991e+01 1.655965000000000146e+03
1.900000000000000300e-02 4.715949999999999864e-01 -2.894838500000000092e+00 7.504994999999999550e+01 1.655579999999999927e+03
2.000000000000000042e-02 4.713570000000000260e-01 -2.267916000000000043e+00 7.375554999999999950e+01 1.655150000000000091e+03
2.100000000000000130e-02 4.710705000000000031e-01 -1.716899999999999871e+00 7.218690000000000850e+01 1.654664999999999964e+03
2.200000000000000219e-02 4.707635000000000014e-01 -1.174504999999999910e+00 7.042324999999999591e+01 1.654134999999999991e+03
2.299999999999999961e-02 4.704599999999999893e-01 -5.847950000000001758e-01 6.857739999999999725e+01 1.653575000000000045e+03
2.400000000000000050e-02 4.701660000000000283e-01 5.778999999999978598e-02 6.672310000000000230e+01 1.653009999999999991e+03
2.500000000000000139e-02 4.698689999999999811e-01 6.964800000000002100e-01 6.485120000000000573e+01 1.652430000000000064e+03
2.600000000000000228e-02 4.695399999999999574e-01 1.225579999999999892e+00 6.286480000000000246e+01 1.651820000000000164e+03
2.700000000000000316e-02 4.691480000000000095e-01 1.520364999999999966e+00 6.060779999999999745e+01 1.651144999999999982e+03
2.800000000000000058e-02 4.686629999999999407e-01 1.473070000000000324e+00 5.791494999999999749e+01 1.650375000000000000e+03
2.900000000000000147e-02 4.680729999999999613e-01 1.024884999999999824e+00 5.466890000000000072e+01 1.649474999999999909e+03
3.000000000000000236e-02 4.673859999999999681e-01 1.847649999999996240e-01 5.084550000000000125e+01 1.648434999999999945e+03
3.099999999999999978e-02 4.666285000000000016e-01 -9.703499999999998238e-01 4.653490000000000038e+01 1.647269999999999982e+03
3.200000000000000067e-02 4.658434999999999659e-01 -2.312954999999999650e+00 4.193135000000000190e+01 1.646019999999999982e+03
3.300000000000000155e-02 4.650784999999999503e-01 -3.691850000000000076e+00 3.729910000000000281e+01 1.644744999999999891e+03
3.400000000000000244e-02 4.643810000000000437e-01 -4.959904999999999120e+00 3.292705000000000126e+01 1.643509999999999991e+03
3.500000000000000333e-02 4.637884999999999924e-01 -5.994979999999999976e+00 2.908460000000000178e+01 1.642384999999999991e+03
3.600000000000000422e-02 4.633275000000000032e-01 -6.710838499999999485e+00 2.598879999999999768e+01 1.641429999999999836e+03
3.700000000000000511e-02 4.630140000000000366e-01 -7.058860000000000134e+00 2.378580000000000183e+01 1.640695000000000164e+03
3.799999999999999906e-02 4.628510000000000124e-01 -7.022774999999999324e+00 2.254739999999999966e+01 1.640200000000000045e+03
3.899999999999999994e-02 4.628345000000000375e-01 -6.609284999999999854e+00 2.227980000000000160e+01 1.639970000000000027e+03
4.000000000000000083e-02 4.629554999999999643e-01 -5.838390000000000413e+00 2.293945000000000078e+01 1.639990000000000009e+03
4.100000000000000172e-02 4.632020000000000026e-01 -4.735843649999999627e+00 2.445080000000000098e+01 1.640250000000000000e+03
4.200000000000000261e-02 4.635610000000000008e-01 -3.329229999999999912e+00 2.672194999999999965e+01 1.640744999999999891e+03
4.300000000000000350e-02 4.640185000000000004e-01 -1.647850000000000037e+00 2.965370000000000061e+01 1.641425000000000182e+03
4.400000000000000439e-02 4.645599999999999730e-01 2.749850000000000350e-01 3.314365000000000094e+01 1.642289999999999964e+03
4.499999999999999833e-02 4.651699999999999724e-01 2.399055000000000160e+00 3.708605000000000018e+01 1.643295000000000073e+03
4.599999999999999922e-02 4.658315000000000095e-01 4.675620000000000331e+00 4.137024999999999864e+01 1.644414999999999964e+03
4.700000000000000011e-02 4.665245000000000086e-01 7.047744999999999038e+00 4.588060000000000116e+01 1.645619999999999891e+03
4.800000000000000100e-02 4.672315000000000218e-01 9.453148000000000550e+00 5.049869999999999948e+01 1.646875000000000000e+03
4.900000000000000189e-02 4.679324999999999735e-01 1.182849500000000020e+01 5.510810000000000741e+01 1.648154999999999973e+03
5.000000000000000278e-02 4.686115000000000141e-01 1.411451499999999903e+01 5.960105000000000075e+01 1.649425000000000182e+03
5.100000000000000366e-02 4.692549999999999777e-01 1.626038499999999942e+01 6.388564999999999827e+01 1.650664999999999964e+03
5.200000000000000455e-02 4.698539999999999939e-01 1.822739999999999938e+01 6.789180000000000348e+01 1.651845000000000027e+03
5.300000000000000544e-02 4.704030000000000156e-01 1.999089999999999989e+01 7.157544999999998936e+01 1.652954999999999927e+03
5.399999999999999939e-02 4.709020000000000428e-01 2.154030000000000200e+01 7.492019999999999413e+01 1.653980000000000018e+03
5.500000000000000028e-02 4.713539999999999397e-01 2.287825000000000131e+01 7.793565000000000964e+01 1.654929999999999836e+03
5.600000000000000117e-02 4.717649999999999899e-01 2.401810000000000045e+01 8.065415000000000134e+01 1.655799999999999955e+03
5.700000000000000205e-02 4.721450000000000369e-01 2.498199999999999932e+01 8.312590000000000146e+01 1.656594999999999800e+03
5.800000000000000294e-02 4.725020000000000331e-01 2.579769999999999897e+01 8.541325000000000500e+01 1.657339999999999918e+03
5.900000000000000383e-02 4.728470000000000173e-01 2.649670000000000059e+01 8.758500000000000796e+01 1.658050000000000182e+03
6.000000000000000472e-02 4.731909999999999727e-01 2.711200000000000188e+01 8.971154999999998836e+01 1.658735000000000127e+03
6.099999999999999867e-02 4.735440000000000205e-01 2.767634999999999934e+01 9.186009999999998854e+01 1.659424999999999955e+03
6.199999999999999956e-02 4.739130000000000287e-01 2.822030000000000172e+01 9.409074999999999989e+01 1.660119999999999891e+03
6.300000000000000044e-02 4.743070000000000341e-01 2.877094999999999914e+01 9.645279999999999632e+01 1.660844999999999800e+03
6.400000000000000133e-02 4.747289999999999566e-01 2.934940000000000282e+01 9.898205000000000098e+01 1.661610000000000127e+03
6.500000000000000222e-02 4.751815000000000344e-01 2.997019999999999840e+01 1.016976499999999959e+02 1.662414999999999964e+03
6.600000000000000311e-02 4.756635000000000169e-01 3.063935000000000031e+01 1.046009999999999991e+02 1.663275000000000091e+03
6.700000000000000400e-02 4.761720000000000397e-01 3.135439999999999827e+01 1.076749999999999972e+02 1.664179999999999836e+03
6.800000000000000488e-02 4.766994999999999982e-01 3.210415000000000418e+01 1.108845000000000027e+02 1.665125000000000000e+03
6.900000000000000577e-02 4.772374999999999812e-01 3.286990000000000123e+01 1.141784999999999997e+02 1.666095000000000027e+03
7.000000000000000666e-02 4.777755000000000196e-01 3.362709999999999866e+01 1.174939999999999998e+02 1.667070000000000164e+03
7.100000000000000755e-02 4.783024999999999638e-01 3.434704999999999586e+01 1.207595000000000027e+02 1.668039999999999964e+03
7.200000000000000844e-02 4.788059999999999539e-01 3.499954999999999927e+01 1.239000000000000057e+02 1.668990000000000009e+03
7.300000000000000933e-02 4.792755000000000210e-01 3.555514999999999759e+01 1.268429999999999893e+02 1.669884999999999991e+03
7.399999999999999634e-02 4.797009999999999885e-01 3.598714999999999975e+01 1.295240000000000009e+02 1.670719999999999800e+03
7.499999999999999722e-02 4.800744999999999596e-01 3.627335000000000065e+01 1.318865000000000123e+02 1.671474999999999909e+03
7.599999999999999811e-02 4.803905000000000536e-01 3.639730000000000132e+01 1.338899999999999864e+02 1.672130000000000109e+03
7.699999999999999900e-02 4.806464999999999765e-01 3.634935000000000116e+01 1.355074999999999932e+02 1.672684999999999945e+03
7.799999999999999989e-02 4.808405000000000040e-01 3.612685000000000457e+01 1.367314999999999827e+02 1.673130000000000109e+03
7.900000000000000078e-02 4.809755000000000003e-01 3.573389999999999844e+01 1.375685000000000002e+02 1.673469999999999800e+03
8.000000000000000167e-02 4.810544999999999960e-01 3.518115000000000236e+01 1.380395000000000039e+02 1.673695000000000164e+03
8.100000000000000255e-02 4.810839999999999561e-01 3.448514999999999731e+01 1.381795000000000186e+02 1.673825000000000045e+03
8.200000000000000344e-02 4.810699999999999976e-01 3.366694999999999993e+01 1.380339999999999918e+02 1.673869999999999891e+03
8.300000000000000433e-02 4.810225000000000195e-01 3.275119999999999720e+01 1.376560000000000059e+02 1.673835000000000036e+03
8.400000000000000522e-02 4.809489999999999599e-01 3.176500000000000057e+01 1.371020000000000039e+02 1.673740000000000009e+03
8.500000000000000611e-02 4.808594999999999953e-01 3.073614999999999853e+01 1.364314999999999998e+02 1.673599999999999909e+03
8.600000000000000699e-02 4.807615000000000083e-01 2.969229999999999947e+01 1.357015000000000100e+02 1.673434999999999945e+03
8.700000000000000788e-02 4.806635000000000213e-01 2.865934999999999988e+01 1.349650000000000034e+02 1.673250000000000000e+03
8.800000000000000877e-02 4.805729999999999724e-01 2.766029999999999944e+01 1.342690000000000055e+02 1.673075000000000045e+03
8.899999999999999578e-02 4.804945000000000466e-01 2.671444999999999936e+01 1.336519999999999868e+02 1.672900000000000091e+03
8.999999999999999667e-02 4.804319999999999702e-01 2.583660000000000068e+01 1.331415000000000077e+02 1.672755000000000109e+03
9.099999999999999756e-02 4.803884999999999961e-01 2.503640000000000043e+01 1.327570000000000050e+02 1.672634999999999991e+03
9.199999999999999845e-02 4.803644999999999721e-01 2.431844999999999857e+01 1.325039999999999907e+02 1.672545000000000073e+03
9.299999999999999933e-02 4.803585000000000216e-01 2.368205000000000027e+01 1.323810000000000002e+02 1.672490000000000009e+03
9.400000000000000022e-02 4.803689999999999904e-01 2.312184999999999846e+01 1.323745000000000118e+02 1.672460000000000036e+03
9.500000000000000111e-02 4.803920000000000412e-01 2.262835000000000107e+01 1.324635000000000105e+02 1.672465000000000146e+03
9.600000000000000200e-02 4.804230000000000445e-01 2.218850000000000122e+01 1.326195000000000164e+02 1.672485000000000127e+03
9.700000000000000289e-02 4.804570000000000229e-01 2.178694999999999737e+01 1.328115000000000236e+02 1.672519999999999982e+03
9.800000000000000377e-02 4.804889999999999994e-01 2.140655000000000285e+01 1.330045000000000073e+02 1.672565000000000055e+03
9.900000000000000466e-02 4.805130000000000234e-01 2.103004999999999924e+01 1.331639999999999873e+02 1.672599999999999909e+03
1.000000000000000056e-01 4.805239999999999512e-01 2.064045000000000130e+01 1.332554999999999836e+02 1.672619999999999891e+03
1.010000000000000064e-01 4.805184999999999595e-01 2.022250000000000014e+01 1.332504999999999882e+02 1.672619999999999891e+03
1.020000000000000073e-01 4.804930000000000034e-01 1.976324999999999932e+01 1.331234999999999786e+02 1.672585000000000036e+03
1.030000000000000082e-01 4.804450000000000109e-01 1.925285000000000224e+01 1.328580000000000041e+02 1.672519999999999982e+03
1.040000000000000091e-01 4.803720000000000212e-01 1.868509999999999849e+01 1.324420000000000073e+02 1.672414999999999964e+03
1.050000000000000100e-01 4.802760000000000362e-01 1.805760000000000076e+01 1.318745000000000118e+02 1.672269999999999982e+03
1.059999999999999970e-01 4.801575000000000149e-01 1.737209999999999965e+01 1.311614999999999895e+02 1.672085000000000036e+03
1.069999999999999979e-01 4.800195000000000434e-01 1.663439999999999941e+01 1.303165000000000191e+02 1.671860000000000127e+03
1.079999999999999988e-01 4.798649999999999860e-01 1.585369999999999990e+01 1.293609999999999900e+02 1.671605000000000018e+03
1.089999999999999997e-01 4.796995000000000564e-01 1.504234999999999900e+01 1.283215000000000146e+02 1.671315000000000055e+03
1.100000000000000006e-01 4.795264999999999667e-01 1.421541999999999994e+01 1.272295000000000016e+02 1.671014999999999873e+03
1.110000000000000014e-01 4.793530000000000291e-01 1.338927999999999940e+01 1.261200000000000045e+02 1.670700000000000045e+03
1.120000000000000023e-01 4.791839999999999988e-01 1.258144499999999866e+01 1.250289999999999964e+02 1.670390000000000100e+03
1.130000000000000032e-01 4.790250000000000341e-01 1.180912499999999987e+01 1.239909999999999997e+02 1.670085000000000036e+03
1.140000000000000041e-01 4.788805000000000422e-01 1.108854499999999987e+01 1.230390000000000015e+02 1.669800000000000182e+03
1.150000000000000050e-01 4.787560000000000149e-01 1.043419000000000096e+01 1.222015000000000100e+02 1.669545000000000073e+03
1.160000000000000059e-01 4.786524999999999808e-01 9.857884999999999565e+00 1.215014999999999930e+02 1.669319999999999936e+03
1.170000000000000068e-01 4.785745000000000138e-01 9.368365000000000720e+00 1.209555000000000007e+02 1.669139999999999873e+03
1.180000000000000077e-01 4.785214999999999885e-01 8.971030000000000726e+00 1.205739999999999981e+02 1.668994999999999891e+03
1.190000000000000085e-01 4.784945000000000448e-01 8.667494999999998839e+00 1.203574999999999875e+02 1.668900000000000091e+03
1.200000000000000094e-01 4.784915000000000140e-01 8.456034999999999968e+00 1.203025000000000091e+02 1.668849999999999909e+03
1.209999999999999964e-01 4.785114999999999785e-01 8.331524999999999181e+00 1.203965000000000032e+02 1.668845000000000027e+03
1.219999999999999973e-01 4.785504999999999898e-01 8.286020000000000607e+00 1.206229999999999905e+02 1.668875000000000000e+03
1.229999999999999982e-01 4.786055000000000170e-01 8.309194999999998998e+00 1.209600000000000080e+02 1.668940000000000055e+03
1.239999999999999991e-01 4.786730000000000151e-01 8.388989999999999725e+00 1.213834999999999980e+02 1.669030000000000200e+03
1.250000000000000000e-01 4.787484999999999657e-01 8.512245000000000061e+00 1.218670000000000044e+02 1.669140000000000100e+03
1.260000000000000009e-01 4.788274999999999615e-01 8.665314999999999657e+00 1.223834999999999980e+02 1.669269999999999982e+03
1.270000000000000018e-01 4.789070000000000271e-01 8.834730000000000416e+00 1.229080000000000013e+02 1.669404999999999973e+03
1.280000000000000027e-01 4.789824999999999777e-01 9.007709999999999440e+00 1.234170000000000016e+02 1.669545000000000073e+03
1.290000000000000036e-01 4.790514999999999635e-01 9.172644999999999271e+00 1.238894999999999982e+02 1.669670000000000073e+03
1.300000000000000044e-01 4.791124999999999412e-01 9.319514999999999105e+00 1.243085000000000093e+02 1.669795000000000073e+03
1.310000000000000053e-01 4.791624999999999912e-01 9.440145000000001119e+00 1.246620000000000061e+02 1.669900000000000091e+03
1.320000000000000062e-01 4.792009999999999881e-01 9.528389999999999915e+00 1.249410000000000025e+02 1.669990000000000009e+03
1.330000000000000071e-01 4.792274999999999729e-01 9.580235000000000056e+00 1.251410000000000053e+02 1.670055000000000064e+03
1.340000000000000080e-01 4.792420000000000013e-01 9.593840000000000146e+00 1.252620000000000005e+02 1.670099999999999909e+03
1.350000000000000089e-01 4.792449999999999766e-01 9.569295000000000329e+00 1.253085000000000093e+02 1.670125000000000000e+03
1.360000000000000098e-01 4.792385000000000117e-01 9.508554999999999424e+00 1.252865000000000038e+02 1.670134999999999991e+03
1.370000000000000107e-01 4.792235000000000245e-01 9.415174999999999628e+00 1.252060000000000031e+02 1.670125000000000000e+03
1.380000000000000115e-01 4.792020000000000168e-01 9.294069999999999609e+00 1.250780000000000030e+02 1.670105000000000018e+03
1.390000000000000124e-01 4.791765000000000052e-01 9.151040000000000063e+00 1.249155000000000086e+02 1.670069999999999936e+03
1.400000000000000133e-01 4.791480000000000183e-01 8.992554999999999410e+00 1.247319999999999993e+02 1.670025000000000091e+03
1.410000000000000142e-01 4.791189999999999616e-01 8.825229999999999464e+00 1.245400000000000063e+02 1.669980000000000018e+03
1.420000000000000151e-01 4.790915000000000035e-01 8.655625000000000568e+00 1.243520000000000039e+02 1.669934999999999945e+03
1.430000000000000160e-01 4.790665000000000062e-01 8.489869999999999806e+00 1.241785000000000139e+02 1.669884999999999991e+03
1.440000000000000169e-01 4.790464999999999862e-01 8.333349999999999369e+00 1.240285000000000082e+02 1.669849999999999909e+03
1.450000000000000178e-01 4.790309999999999846e-01 8.190414999999999779e+00 1.239085000000000036e+02 1.669809999999999945e+03
1.459999999999999909e-01 4.790214999999999890e-01 8.064420000000000144e+00 1.238234999999999957e+02 1.669789999999999964e+03
1.469999999999999918e-01 4.790169999999999706e-01 7.957435000000000258e+00 1.237734999999999985e+02 1.669769999999999982e+03
1.479999999999999927e-01 4.790179999999999438e-01 7.870305000000000106e+00 1.237595000000000027e+02 1.669760000000000218e+03
1.489999999999999936e-01 4.790240000000000054e-01 7.802740000000000009e+00 1.237775000000000034e+02 1.669764999999999873e+03
1.499999999999999944e-01 4.790339999999999598e-01 7.753375000000000128e+00 1.238224999999999909e+02 1.669769999999999982e+03
1.509999999999999953e-01 4.790464999999999862e-01 7.719990000000001018e+00 1.238890000000000100e+02 1.669784999999999854e+03
1.519999999999999962e-01 4.790605000000000002e-01 7.699645000000000294e+00 1.239689999999999941e+02 1.669805000000000064e+03
1.529999999999999971e-01 4.790749999999999731e-01 7.688985000000000625e+00 1.240540000000000020e+02 1.669825000000000045e+03
1.539999999999999980e-01 4.790885000000000282e-01 7.684390000000000498e+00 1.241364999999999981e+02 1.669840000000000146e+03
1.549999999999999989e-01 4.791004999999999847e-01 7.682249999999999801e+00 1.242094999999999914e+02 1.669860000000000127e+03
1.559999999999999998e-01 4.791090000000000071e-01 7.679174999999999862e+00 1.242660000000000053e+02 1.669875000000000000e+03
1.570000000000000007e-01 4.791139999999999843e-01 7.672140000000000626e+00 1.243004999999999995e+02 1.669889999999999873e+03
1.580000000000000016e-01 4.791140000000000398e-01 7.658699999999999619e+00 1.243085000000000093e+02 1.669894999999999982e+03
1.590000000000000024e-01 4.791099999999999803e-01 7.637064999999999770e+00 1.242879999999999967e+02 1.669884999999999991e+03
