# t [s], A [cm^2], U [cm/s], P [cPa], c [cm/s]
1.000000000000000021e-03 1.304784999999999973e-01 2.659930000000000350e-01 8.615625000000000000e+01 1.884900000000000091e+03
2.000000000000000042e-03 1.304565000000000030e-01 1.588187500000000085e+00 8.349545000000000528e+01 1.884650000000000091e+03
3.000000000000000062e-03 1.303799999999999959e-01 3.207586000000000048e+00 7.997344999999999970e+01 1.883820000000000164e+03
4.000000000000000083e-03 1.302679999999999949e-01 5.007090999999999958e+00 7.606710000000001060e+01 1.882619999999999891e+03
5.000000000000000104e-03 1.301394999999999913e-01 6.942815000000000403e+00 7.243080000000000496e+01 1.881264999999999873e+03
6.000000000000000125e-03 1.300109999999999877e-01 8.914524999999999366e+00 6.938569999999999993e+01 1.879909999999999854e+03
7.000000000000000146e-03 1.298875000000000168e-01 1.076933499999999988e+01 6.685790000000000077e+01 1.878630000000000109e+03
8.000000000000000167e-03 1.297709999999999975e-01 1.239777000000000129e+01 6.462645000000000550e+01 1.877450000000000045e+03
9.000000000000001055e-03 1.296644999999999881e-01 1.379080500000000065e+01 6.261744999999999806e+01 1.876375000000000000e+03
1.000000000000000194e-02 1.295695000000000041e-01 1.498094999999999999e+01 6.088684999999999548e+01 1.875430000000000064e+03
1.099999999999999936e-02 1.294879999999999920e-01 1.598629999999999995e+01 5.946124999999999261e+01 1.874630000000000109e+03
1.200000000000000025e-02 1.294195000000000206e-01 1.681405000000000172e+01 5.831025000000000347e+01 1.873960000000000036e+03
1.300000000000000114e-02 1.293624999999999914e-01 1.747074999999999889e+01 5.738360000000000127e+01 1.873410000000000082e+03
1.400000000000000203e-02 1.293150000000000133e-01 1.795929999999999893e+01 5.661605000000000132e+01 1.872965000000000146e+03
1.499999999999999944e-02 1.292755000000000154e-01 1.828804999999999836e+01 5.593959999999999866e+01 1.872595000000000027e+03
1.600000000000000033e-02 1.292415000000000092e-01 1.849434999999999718e+01 5.534380000000000166e+01 1.872289999999999964e+03
1.700000000000000122e-02 1.292154999999999831e-01 1.865579999999999927e+01 5.493115000000000236e+01 1.872054999999999836e+03
1.800000000000000211e-02 1.292000000000000093e-01 1.887099999999999866e+01 5.489990000000000236e+01 1.871920000000000073e+03
1.900000000000000300e-02 1.291999999999999815e-01 1.921954999999999814e+01 5.544835000000000491e+01 1.871934999999999945e+03
2.000000000000000042e-02 1.292195000000000149e-01 1.972650000000000148e+01 5.666235000000000355e+01 1.872130000000000109e+03
2.100000000000000130e-02 1.292570000000000108e-01 2.035105000000000075e+01 5.845004999999999740e+01 1.872500000000000000e+03
2.200000000000000219e-02 1.293080000000000063e-01 2.100124999999999886e+01 6.055464999999999520e+01 1.873009999999999991e+03
2.299999999999999961e-02 1.293670000000000098e-01 2.156600000000000250e+01 6.263074999999999903e+01 1.873595000000000027e+03
2.400000000000000050e-02 1.294234999999999969e-01 2.194940000000000069e+01 6.434620000000001028e+01 1.874164999999999964e+03
2.500000000000000139e-02 1.294710000000000027e-01 2.209635000000000105e+01 6.547165000000001100e+01 1.874654999999999973e+03
2.600000000000000228e-02 1.295044999999999946e-01 2.200195000000000078e+01 6.592959999999999354e+01 1.875005000000000109e+03
2.700000000000000316e-02 1.295229999999999992e-01 2.170539999999999736e+01 6.579290000000000305e+01 1.875210000000000036e+03
2.800000000000000058e-02 1.295275000000000176e-01 2.127145000000000152e+01 6.524074999999999136e+01 1.875269999999999982e+03
2.900000000000000147e-02 1.295215000000000116e-01 2.076810000000000045e+01 6.449030000000000484e+01 1.875230000000000018e+03
3.000000000000000236e-02 1.295105000000000006e-01 2.024685000000000201e+01 6.372955000000000325e+01 1.875130000000000109e+03
3.099999999999999978e-02 1.294970000000000010e-01 1.973264999999999958e+01 6.307110000000000127e+01 1.875000000000000000e+03
3.200000000000000067e-02 1.294839999999999880e-01 1.922319999999999851e+01 6.253735000000000355e+01 1.874875000000000000e+03
3.300000000000000155e-02 1.294710000000000027e-01 1.869740000000000180e+01 6.207550000000000523e+01 1.874750000000000000e+03
3.400000000000000244e-02 1.294575000000000031e-01 1.812800000000000011e+01 6.159275000000000233e+01 1.874615000000000009e+03
3.500000000000000333e-02 1.294410000000000005e-01 1.749549999999999983e+01 6.099969999999999715e+01 1.874460000000000036e+03
3.600000000000000422e-02 1.294214999999999949e-01 1.679820000000000135e+01 6.024779999999999802e+01 1.874264999999999873e+03
3.700000000000000511e-02 1.293970000000000120e-01 1.605724999999999980e+01 5.935224999999999795e+01 1.874035000000000082e+03
3.799999999999999906e-02 1.293694999999999984e-01 1.531449999999999889e+01 5.839515000000000100e+01 1.873769999999999982e+03
3.899999999999999994e-02 1.293420000000000125e-01 1.462485000000000035e+01 5.750925000000000153e+01 1.873500000000000000e+03
4.000000000000000083e-02 1.293179999999999885e-01 1.404485000000000028e+01 5.684664999999999679e+01 1.873255000000000109e+03
4.100000000000000172e-02 1.292999999999999983e-01 1.362020000000000053e+01 5.654234999999999900e+01 1.873074999999999818e+03
4.200000000000000261e-02 1.292920000000000180e-01 1.337594999999999956e+01 5.668124999999999858e+01 1.872990000000000009e+03
4.300000000000000350e-02 1.292969999999999953e-01 1.331135000000000090e+01 5.727750000000000341e+01 1.873019999999999982e+03
4.400000000000000439e-02 1.293130000000000113e-01 1.339979999999999905e+01 5.826980000000000359e+01 1.873170000000000073e+03
4.499999999999999833e-02 1.293394999999999961e-01 1.359375000000000000e+01 5.953164999999999907e+01 1.873424999999999955e+03
4.599999999999999922e-02 1.293735000000000024e-01 1.383269999999999911e+01 6.089405000000000001e+01 1.873750000000000000e+03
4.700000000000000011e-02 1.294099999999999973e-01 1.405245000000000033e+01 6.217305000000000348e+01 1.874105000000000018e+03
4.800000000000000100e-02 1.294445000000000179e-01 1.419345000000000034e+01 6.319715000000000060e+01 1.874445000000000164e+03
4.900000000000000189e-02 1.294724999999999904e-01 1.420775000000000077e+01 6.382949999999999591e+01 1.874720000000000027e+03
5.000000000000000278e-02 1.294899999999999940e-01 1.406250000000000000e+01 6.398130000000000450e+01 1.874894999999999982e+03
5.100000000000000366e-02 1.294945000000000124e-01 1.374139999999999873e+01 6.361594999999999800e+01 1.874954999999999927e+03
5.200000000000000455e-02 1.294855000000000034e-01 1.324319999999999986e+01 6.274544999999999817e+01 1.874865000000000009e+03
5.300000000000000544e-02 1.294619999999999937e-01 1.257874999999999943e+01 6.141989999999999839e+01 1.874639999999999873e+03
5.399999999999999939e-02 1.294249999999999845e-01 1.176781500000000058e+01 5.971504999999999797e+01 1.874284999999999854e+03
5.500000000000000028e-02 1.293770000000000198e-01 1.083539999999999992e+01 5.771934999999999860e+01 1.873815000000000055e+03
5.600000000000000117e-02 1.293194999999999761e-01 9.809104999999998853e+00 5.552320000000000277e+01 1.873250000000000000e+03
5.700000000000000205e-02 1.292539999999999800e-01 8.717320000000000846e+00 5.321200000000000330e+01 1.872610000000000127e+03
5.800000000000000294e-02 1.291845000000000077e-01 7.588510000000000311e+00 5.086319999999999908e+01 1.871924999999999955e+03
5.900000000000000383e-02 1.291120000000000045e-01 6.451060000000000016e+00 4.854564999999999486e+01 1.871204999999999927e+03
6.000000000000000472e-02 1.290385000000000004e-01 5.333585000000000242e+00 4.632189999999999941e+01 1.870485000000000127e+03
6.099999999999999867e-02 1.289675000000000127e-01 4.265274999999999928e+00 4.425090000000000146e+01 1.869779999999999973e+03
6.199999999999999956e-02 1.289005000000000012e-01 3.276063499999999795e+00 4.239045000000000130e+01 1.869105000000000018e+03
6.300000000000000044e-02 1.288380000000000081e-01 2.396384825000000163e+00 4.079834999999999923e+01 1.868494999999999891e+03
6.400000000000000133e-02 1.287844999999999962e-01 1.656425000000000036e+00 3.953229999999999933e+01 1.867950000000000045e+03
6.500000000000000222e-02 1.287399999999999933e-01 1.085049499999999778e+00 3.864815000000000111e+01 1.867505000000000109e+03
6.600000000000000311e-02 1.287065000000000015e-01 7.084125000000000005e-01 3.819719999999999516e+01 1.867170000000000073e+03
6.700000000000000400e-02 1.286869999999999958e-01 5.485018099999999786e-01 3.822254999999999825e+01 1.866960000000000036e+03
6.800000000000000488e-02 1.286815000000000042e-01 6.217740000000000489e-01 3.875580000000000069e+01 1.866894999999999982e+03
6.900000000000000577e-02 1.286925000000000152e-01 9.380889999999999507e-01 3.981414999999999793e+01 1.866980000000000018e+03
7.000000000000000666e-02 1.287190000000000001e-01 1.500021499999999897e+00 4.139849999999999852e+01 1.867224999999999909e+03
7.100000000000000755e-02 1.287625000000000020e-01 2.302635500000000057e+00 4.349245000000000516e+01 1.867634999999999991e+03
7.200000000000000844e-02 1.288219999999999921e-01 3.333755000000000024e+00 4.606334999999999980e+01 1.868215000000000146e+03
7.300000000000000933e-02 1.288964999999999972e-01 4.574600000000000222e+00 4.906380000000000052e+01 1.868934999999999945e+03
7.399999999999999634e-02 1.289859999999999896e-01 6.000815000000000232e+00 5.243455000000000155e+01 1.869804999999999836e+03
7.499999999999999722e-02 1.290874999999999939e-01 7.583695000000000519e+00 5.610750000000000171e+01 1.870799999999999955e+03
7.599999999999999811e-02 1.291994999999999949e-01 9.291624999999999801e+00 6.000994999999999635e+01 1.871894999999999982e+03
7.699999999999999900e-02 1.293205000000000049e-01 1.109151999999999916e+01 6.406775000000000375e+01 1.873085000000000036e+03
7.799999999999999989e-02 1.294474999999999931e-01 1.295014000000000109e+01 6.820935000000000059e+01 1.874345000000000027e+03
7.900000000000000078e-02 1.295789999999999997e-01 1.483575000000000088e+01 7.236860000000000070e+01 1.875644999999999982e+03
8.000000000000000167e-02 1.297125000000000083e-01 1.671894999999999953e+01 7.648799999999999955e+01 1.876974999999999909e+03
8.100000000000000255e-02 1.298455000000000026e-01 1.857410000000000139e+01 8.052019999999998845e+01 1.878309999999999945e+03
8.200000000000000344e-02 1.299784999999999968e-01 2.037944999999999851e+01 8.442965000000000941e+01 1.879634999999999991e+03
8.300000000000000433e-02 1.301085000000000158e-01 2.211834999999999951e+01 8.819299999999999784e+01 1.880940000000000055e+03
8.400000000000000522e-02 1.302355000000000040e-01 2.377870000000000061e+01 9.179890000000000327e+01 1.882215000000000146e+03
8.500000000000000611e-02 1.303580000000000017e-01 2.535325000000000273e+01 9.524684999999999491e+01 1.883460000000000036e+03
8.600000000000000699e-02 1.304770000000000096e-01 2.683885000000000076e+01 9.854484999999999673e+01 1.884659999999999854e+03
8.700000000000000788e-02 1.305914999999999992e-01 2.823590000000000089e+01 1.017092999999999989e+02 1.885819999999999936e+03
8.800000000000000877e-02 1.307019999999999849e-01 2.954784999999999684e+01 1.047592999999999961e+02 1.886949999999999818e+03
8.899999999999999578e-02 1.308094999999999952e-01 3.077974999999999994e+01 1.077169999999999987e+02 1.888045000000000073e+03
8.999999999999999667e-02 1.309145000000000170e-01 3.193789999999999907e+01 1.106049999999999898e+02 1.889110000000000127e+03
9.099999999999999756e-02 1.310169999999999946e-01 3.302864999999999895e+01 1.134404999999999859e+02 1.890155000000000200e+03
9.199999999999999845e-02 1.311174999999999979e-01 3.405790000000000362e+01 1.162390000000000043e+02 1.891184999999999945e+03
9.299999999999999933e-02 1.312165000000000137e-01 3.503070000000000306e+01 1.190105000000000075e+02 1.892204999999999927e+03
9.400000000000000022e-02 1.313150000000000150e-01 3.595050000000000523e+01 1.217595000000000027e+02 1.893204999999999927e+03
9.500000000000000111e-02 1.314115000000000144e-01 3.681905000000000427e+01 1.244835000000000065e+02 1.894199999999999818e+03
9.600000000000000200e-02 1.315074999999999994e-01 3.763660000000000139e+01 1.271760000000000019e+02 1.895184999999999945e+03
9.700000000000000289e-02 1.316025000000000111e-01 3.840144999999999698e+01 1.298245000000000005e+02 1.896150000000000091e+03
9.800000000000000377e-02 1.316950000000000065e-01 3.911064999999999969e+01 1.324134999999999991e+02 1.897110000000000127e+03
9.900000000000000466e-02 1.317865000000000009e-01 3.975974999999999682e+01 1.349244999999999948e+02 1.898045000000000073e+03
1.000000000000000056e-01 1.318750000000000200e-01 4.034349999999999881e+01 1.373365000000000009e+02 1.898954999999999927e+03
1.010000000000000064e-01 1.319605000000000083e-01 4.085580000000000211e+01 1.396289999999999907e+02 1.899835000000000036e+03
1.020000000000000073e-01 1.320415000000000061e-01 4.129054999999999609e+01 1.417794999999999845e+02 1.900670000000000073e+03
1.030000000000000082e-01 1.321184999999999998e-01 4.164154999999999518e+01 1.437699999999999818e+02 1.901465000000000146e+03
1.040000000000000091e-01 1.321900000000000019e-01 4.190285000000000082e+01 1.455805000000000007e+02 1.902210000000000036e+03
1.050000000000000100e-01 1.322564999999999991e-01 4.206940000000000168e+01 1.471955000000000098e+02 1.902894999999999982e+03
1.059999999999999970e-01 1.323165000000000036e-01 4.213700000000000045e+01 1.486030000000000086e+02 1.903519999999999982e+03
1.069999999999999979e-01 1.323695000000000010e-01 4.210285000000000366e+01 1.497934999999999945e+02 1.904070000000000164e+03
1.079999999999999988e-01 1.324155000000000193e-01 4.196535000000000082e+01 1.507620000000000005e+02 1.904554999999999836e+03
1.089999999999999997e-01 1.324549999999999894e-01 4.172464999999999691e+01 1.515064999999999884e+02 1.904960000000000036e+03
1.100000000000000006e-01 1.324869999999999937e-01 4.138264999999999816e+01 1.520300000000000011e+02 1.905299999999999955e+03
1.110000000000000014e-01 1.325109999999999899e-01 4.094294999999999618e+01 1.523394999999999868e+02 1.905565000000000055e+03
1.120000000000000023e-01 1.325284999999999935e-01 4.041089999999999804e+01 1.524459999999999980e+02 1.905750000000000000e+03
1.130000000000000032e-01 1.325395000000000045e-01 3.979344999999999999e+01 1.523634999999999877e+02 1.905869999999999891e+03
1.140000000000000041e-01 1.325439999999999952e-01 3.909919999999999618e+01 1.521105000000000018e+02 1.905925000000000182e+03
1.150000000000000050e-01 1.325419999999999932e-01 3.833774999999999977e+01 1.517065000000000055e+02 1.905920000000000073e+03
1.160000000000000059e-01 1.325355000000000005e-01 3.751975000000000193e+01 1.511740000000000066e+02 1.905855000000000018e+03
1.170000000000000068e-01 1.325240000000000029e-01 3.665650000000000119e+01 1.505360000000000014e+02 1.905744999999999891e+03
1.180000000000000077e-01 1.325085000000000013e-01 3.575950000000000273e+01 1.498160000000000025e+02 1.905590000000000146e+03
1.190000000000000085e-01 1.324899999999999967e-01 3.484015000000000128e+01 1.490374999999999943e+02 1.905404999999999973e+03
1.200000000000000094e-01 1.324684999999999890e-01 3.390954999999999586e+01 1.482205000000000155e+02 1.905190000000000055e+03
1.209999999999999964e-01 1.324450000000000072e-01 3.297785000000000366e+01 1.473865000000000123e+02 1.904954999999999927e+03
1.219999999999999973e-01 1.324204999999999965e-01 3.205434999999999945e+01 1.465509999999999877e+02 1.904710000000000036e+03
1.229999999999999982e-01 1.323960000000000137e-01 3.114695000000000036e+01 1.457289999999999850e+02 1.904454999999999927e+03
1.239999999999999991e-01 1.323705000000000020e-01 3.026225000000000165e+01 1.449314999999999998e+02 1.904195000000000164e+03
1.250000000000000000e-01 1.323455000000000048e-01 2.940514999999999901e+01 1.441644999999999754e+02 1.903934999999999945e+03
1.260000000000000009e-01 1.323209999999999942e-01 2.857900000000000063e+01 1.434334999999999809e+02 1.903684999999999945e+03
1.270000000000000018e-01 1.322969999999999979e-01 2.778549999999999898e+01 1.427379999999999995e+02 1.903434999999999945e+03
1.280000000000000027e-01 1.322744999999999893e-01 2.702465000000000117e+01 1.420754999999999768e+02 1.903200000000000045e+03
1.290000000000000036e-01 1.322514999999999941e-01 2.629514999999999958e+01 1.414399999999999977e+02 1.902969999999999800e+03
1.300000000000000044e-01 1.322300000000000142e-01 2.559420000000000073e+01 1.408240000000000123e+02 1.902740000000000009e+03
1.310000000000000053e-01 1.322085000000000066e-01 2.491805000000000092e+01 1.402164999999999964e+02 1.902519999999999982e+03
1.320000000000000062e-01 1.321879999999999999e-01 2.426184999999999903e+01 1.396064999999999827e+02 1.902299999999999955e+03
1.330000000000000071e-01 1.321660000000000057e-01 2.362024999999999864e+01 1.389809999999999945e+02 1.902079999999999927e+03
1.340000000000000080e-01 1.321440000000000115e-01 2.298745000000000260e+01 1.383274999999999864e+02 1.901849999999999909e+03
1.350000000000000089e-01 1.321215000000000028e-01 2.235755000000000337e+01 1.376340000000000146e+02 1.901615000000000009e+03
1.360000000000000098e-01 1.320975000000000066e-01 2.172504999999999953e+01 1.368874999999999886e+02 1.901369999999999891e+03
1.370000000000000107e-01 1.320724999999999816e-01 2.108460000000000178e+01 1.360794999999999959e+02 1.901105000000000018e+03
1.380000000000000115e-01 1.320449999999999957e-01 2.043169999999999931e+01 1.352015000000000100e+02 1.900820000000000164e+03
1.390000000000000124e-01 1.320155000000000078e-01 1.976290000000000191e+01 1.342479999999999905e+02 1.900519999999999982e+03
1.400000000000000133e-01 1.319835000000000036e-01 1.907574999999999932e+01 1.332150000000000034e+02 1.900195000000000164e+03
1.410000000000000142e-01 1.319490000000000107e-01 1.836905000000000143e+01 1.321045000000000016e+02 1.899845000000000027e+03
1.420000000000000151e-01 1.319124999999999881e-01 1.764289999999999736e+01 1.309180000000000064e+02 1.899470000000000027e+03
1.430000000000000160e-01 1.318730000000000180e-01 1.689890000000000114e+01 1.296624999999999943e+02 1.899070000000000164e+03
1.440000000000000169e-01 1.318320000000000047e-01 1.613984999999999914e+01 1.283470000000000084e+02 1.898650000000000091e+03
1.450000000000000178e-01 1.317885000000000029e-01 1.536974999999999980e+01 1.269825000000000159e+02 1.898204999999999927e+03
1.459999999999999909e-01 1.317435000000000134e-01 1.459375000000000000e+01 1.255835000000000008e+02 1.897750000000000000e+03
1.469999999999999918e-01 1.316974999999999951e-01 1.381775000000000020e+01 1.241649999999999920e+02 1.897285000000000082e+03
1.479999999999999927e-01 1.316505000000000036e-01 1.304854999999999876e+01 1.227435000000000116e+02 1.896805000000000064e+03
1.489999999999999936e-01 1.316029999999999978e-01 1.229289999999999949e+01 1.213354999999999961e+02 1.896320000000000164e+03
1.499999999999999944e-01 1.315564999999999929e-01 1.155798500000000040e+01 1.199579999999999984e+02 1.895840000000000146e+03
1.509999999999999953e-01 1.315095000000000014e-01 1.085069000000000017e+01 1.186264999999999930e+02 1.895369999999999891e+03
1.519999999999999962e-01 1.314645000000000119e-01 1.017743499999999912e+01 1.173555000000000064e+02 1.894904999999999973e+03
1.529999999999999971e-01 1.314210000000000100e-01 9.543965000000000032e+00 1.161564999999999941e+02 1.894465000000000146e+03
1.539999999999999980e-01 1.313799999999999968e-01 8.955135000000000289e+00 1.150405000000000086e+02 1.894039999999999964e+03
1.549999999999999989e-01 1.313409999999999855e-01 8.414770000000000749e+00 1.140144999999999982e+02 1.893639999999999873e+03
1.559999999999999998e-01 1.313044999999999907e-01 7.925639999999999574e+00 1.130835000000000008e+02 1.893265000000000100e+03
1.570000000000000007e-01 1.312709999999999988e-01 7.489295000000000258e+00 1.122485000000000070e+02 1.892920000000000073e+03
1.580000000000000016e-01 1.312404999999999822e-01 7.106130000000000280e+00 1.115105000000000075e+02 1.892609999999999900e+03
1.590000000000000024e-01 1.312129999999999963e-01 6.775444999999999496e+00 1.108649999999999949e+02 1.892325000000000045e+03
