# t [s], A [cm^2], U [cm/s], P [cPa], c [cm/s]
1.000000000000000021e-03 1.855844999999999856e-01 3.654158000000000128e-01 9.279534999999999911e+01 2.225439999999999600e+03
2.000000000000000042e-03 1.855249999999999955e-01 1.912309500000000106e+00 8.909440000000000737e+01 2.224949999999999818e+03
3.000000000000000062e-03 1.853830000000000200e-01 3.816516500000000089e+00 8.397204999999999586e+01 2.223835000000000036e+03
4.000000000000000083e-03 1.852004999999999901e-01 5.978443999999999647e+00 7.869039999999999679e+01 2.222429999999999836e+03
5.000000000000000104e-03 1.850160000000000138e-01 8.285350000000001103e+00 7.426894999999998959e+01 2.221015000000000327e+03
6.000000000000000125e-03 1.848440000000000083e-01 1.045924500000000101e+01 7.073554999999998927e+01 2.219724999999999909e+03
7.000000000000000146e-03 1.846855000000000024e-01 1.227220499999999959e+01 6.759825000000000728e+01 2.218560000000000400e+03
8.000000000000000167e-03 1.845450000000000146e-01 1.373921499999999796e+01 6.479269999999999641e+01 2.217534999999999854e+03
9.000000000000001055e-03 1.844270000000000076e-01 1.492774999999999963e+01 6.249564999999999770e+01 2.216695000000000164e+03
1.000000000000000194e-02 1.843319999999999959e-01 1.586025000000000063e+01 6.070889999999999986e+01 2.216025000000000091e+03
1.099999999999999936e-02 1.842574999999999907e-01 1.655914999999999893e+01 5.935930000000000462e+01 2.215505000000000109e+03
1.200000000000000025e-02 1.842004999999999892e-01 1.703215000000000146e+01 5.832410000000000139e+01 2.215114999999999782e+03
1.300000000000000114e-02 1.841539999999999844e-01 1.728454999999999941e+01 5.742454999999999643e+01 2.214805000000000291e+03
1.400000000000000203e-02 1.841160000000000019e-01 1.740620000000000189e+01 5.666794999999999760e+01 2.214554999999999836e+03
1.499999999999999944e-02 1.840950000000000086e-01 1.760014999999999930e+01 5.645204999999999984e+01 2.214420000000000073e+03
1.600000000000000033e-02 1.841050000000000186e-01 1.807885000000000275e+01 5.736800000000000210e+01 2.214500000000000000e+03
1.700000000000000122e-02 1.841565000000000007e-01 1.891689999999999827e+01 5.973104999999999620e+01 2.214864999999999782e+03
1.800000000000000211e-02 1.842460000000000209e-01 1.998644999999999783e+01 6.324849999999999284e+01 2.215505000000000109e+03
1.900000000000000300e-02 1.843565000000000065e-01 2.101344999999999885e+01 6.706880000000001019e+01 2.216300000000000182e+03
2.000000000000000042e-02 1.844604999999999995e-01 2.170674999999999955e+01 7.014690000000000225e+01 2.217065000000000055e+03
2.100000000000000130e-02 1.845344999999999902e-01 2.188340000000000174e+01 7.169214999999999804e+01 2.217625000000000000e+03
2.200000000000000219e-02 1.845644999999999925e-01 2.153269999999999840e+01 7.147084999999999866e+01 2.217875000000000000e+03
2.299999999999999961e-02 1.845510000000000206e-01 2.079854999999999876e+01 6.983879999999999200e+01 2.217805000000000291e+03
2.400000000000000050e-02 1.845074999999999910e-01 1.989770000000000039e+01 6.751839999999999975e+01 2.217510000000000218e+03
2.500000000000000139e-02 1.844520000000000048e-01 1.902120000000000033e+01 6.525384999999999991e+01 2.217119999999999891e+03
2.600000000000000228e-02 1.843994999999999940e-01 1.826504999999999868e+01 6.351599999999999824e+01 2.216739999999999782e+03
2.700000000000000316e-02 1.843575000000000075e-01 1.761404999999999887e+01 6.237460000000000093e+01 2.216425000000000182e+03
2.800000000000000058e-02 1.843239999999999879e-01 1.697540000000000049e+01 6.155930000000000035e+01 2.216175000000000182e+03
2.900000000000000147e-02 1.842904999999999960e-01 1.623870000000000147e+01 6.064900000000000091e+01 2.215935000000000400e+03
3.000000000000000236e-02 1.842484999999999817e-01 1.533765000000000001e+01 5.929810000000000514e+01 2.215640000000000327e+03
3.099999999999999978e-02 1.841935000000000100e-01 1.428955000000000020e+01 5.741190000000000282e+01 2.215250000000000000e+03
3.200000000000000067e-02 1.841269999999999851e-01 1.320120000000000005e+01 5.521155000000000257e+01 2.214774999999999636e+03
3.300000000000000155e-02 1.840600000000000014e-01 1.223799999999999955e+01 5.316920000000000357e+01 2.214289999999999964e+03
3.400000000000000244e-02 1.840060000000000029e-01 1.156917999999999935e+01 5.184074999999999989e+01 2.213889999999999873e+03
3.500000000000000333e-02 1.839790000000000036e-01 1.131170000000000009e+01 5.166675000000000040e+01 2.213680000000000291e+03
3.600000000000000422e-02 1.839874999999999983e-01 1.149129999999999896e+01 5.281494999999999607e+01 2.213715000000000146e+03
3.700000000000000511e-02 1.840324999999999878e-01 1.203460000000000107e+01 5.511959999999999837e+01 2.214019999999999982e+03
3.799999999999999906e-02 1.841054999999999775e-01 1.278855000000000075e+01 5.812404999999999688e+01 2.214525000000000091e+03
3.899999999999999994e-02 1.841925000000000090e-01 1.355884999999999962e+01 6.120189999999999486e+01 2.215140000000000327e+03
4.000000000000000083e-02 1.842754999999999810e-01 1.415269999999999939e+01 6.370770000000000266e+01 2.215739999999999782e+03
4.100000000000000172e-02 1.843370000000000009e-01 1.441455000000000020e+01 6.511289999999999623e+01 2.216195000000000164e+03
4.200000000000000261e-02 1.843644999999999867e-01 1.424784999999999968e+01 6.509479999999999222e+01 2.216409999999999854e+03
4.300000000000000350e-02 1.843500000000000139e-01 1.362100000000000044e+01 6.356654999999999944e+01 2.216319999999999709e+03
4.400000000000000439e-02 1.842914999999999970e-01 1.255919000000000096e+01 6.065084999999999837e+01 2.215920000000000073e+03
4.499999999999999833e-02 1.841935000000000100e-01 1.112814499999999995e+01 5.661745000000000516e+01 2.215230000000000018e+03
4.599999999999999922e-02 1.840634999999999910e-01 9.415044999999999220e+00 5.180644999999999811e+01 2.214305000000000291e+03
4.700000000000000011e-02 1.839100000000000179e-01 7.512579999999999814e+00 4.656069999999999709e+01 2.213204999999999927e+03
4.800000000000000100e-02 1.837429999999999897e-01 5.508897999999999406e+00 4.118104999999999905e+01 2.212000000000000000e+03
4.900000000000000189e-02 1.835704999999999976e-01 3.483589999999999964e+00 3.590885000000000105e+01 2.210755000000000109e+03
5.000000000000000278e-02 1.834000000000000075e-01 1.508694999999999897e+00 3.093039999999999878e+01 2.209519999999999982e+03
5.100000000000000366e-02 1.832374999999999976e-01 -3.483449999999999047e-01 2.639480000000000004e+01 2.208340000000000146e+03
5.200000000000000455e-02 1.830884999999999874e-01 -2.021819999999999951e+00 2.243319999999999936e+01 2.207250000000000000e+03
5.300000000000000544e-02 1.829574999999999951e-01 -3.446809000000000012e+00 1.917275000000000063e+01 2.206295000000000073e+03
5.399999999999999939e-02 1.828494999999999981e-01 -4.560850000000000293e+00 1.674005000000000010e+01 2.205505000000000109e+03
5.500000000000000028e-02 1.827695000000000014e-01 -5.307795000000000485e+00 1.525495000000000090e+01 2.204900000000000091e+03
5.600000000000000117e-02 1.827205000000000079e-01 -5.642984999999999474e+00 1.481670000000000087e+01 2.204525000000000091e+03
5.700000000000000205e-02 1.827059999999999795e-01 -5.538264999999999993e+00 1.548815000000000097e+01 2.204394999999999982e+03
5.800000000000000294e-02 1.827280000000000015e-01 -4.985655000000000392e+00 1.728259999999999863e+01 2.204529999999999745e+03
5.900000000000000383e-02 1.827864999999999907e-01 -3.998885000000000023e+00 2.015664999999999907e+01 2.204925000000000182e+03
6.000000000000000472e-02 1.828799999999999870e-01 -2.612458500000000239e+00 2.401084999999999781e+01 2.205574999999999818e+03
6.099999999999999867e-02 1.830045000000000144e-01 -8.788450000000000983e-01 2.869764999999999944e+01 2.206444999999999709e+03
6.199999999999999956e-02 1.831564999999999999e-01 1.135839999999999961e+00 3.403394999999999726e+01 2.207525000000000091e+03
6.300000000000000044e-02 1.833295000000000063e-01 3.356600000000000250e+00 3.981640000000000157e+01 2.208760000000000218e+03
6.400000000000000133e-02 1.835169999999999857e-01 5.704449999999999577e+00 4.583630000000000138e+01 2.210105000000000018e+03
6.500000000000000222e-02 1.837130000000000152e-01 8.100929999999999964e+00 5.189279999999999404e+01 2.211519999999999982e+03
6.600000000000000311e-02 1.839109999999999912e-01 1.047239500000000056e+01 5.780474999999999852e+01 2.212954999999999927e+03
6.700000000000000400e-02 1.841055000000000053e-01 1.275365000000000038e+01 6.341969999999999885e+01 2.214375000000000000e+03
6.800000000000000488e-02 1.842914999999999970e-01 1.489139999999999908e+01 6.862205000000000155e+01 2.215734999999999673e+03
6.900000000000000577e-02 1.844659999999999911e-01 1.684684999999999988e+01 7.333790000000000475e+01 2.217019999999999982e+03
7.000000000000000666e-02 1.846260000000000123e-01 1.859714999999999918e+01 7.753849999999999909e+01 2.218194999999999709e+03
7.100000000000000755e-02 1.847710000000000186e-01 2.013615000000000066e+01 8.123910000000000764e+01 2.219269999999999982e+03
7.200000000000000844e-02 1.849010000000000098e-01 2.147295000000000087e+01 8.449474999999999625e+01 2.220239999999999782e+03
7.300000000000000933e-02 1.850185000000000024e-01 2.262995000000000090e+01 8.739209999999999923e+01 2.221114999999999782e+03
7.399999999999999634e-02 1.851249999999999840e-01 2.363915000000000077e+01 9.003880000000000905e+01 2.221909999999999854e+03
7.499999999999999722e-02 1.852245000000000141e-01 2.453840000000000288e+01 9.255099999999998772e+01 2.222654999999999745e+03
7.599999999999999811e-02 1.853204999999999991e-01 2.536690000000000111e+01 9.504104999999999848e+01 2.223364999999999782e+03
7.699999999999999900e-02 1.854149999999999965e-01 2.616165000000000163e+01 9.760689999999999600e+01 2.224069999999999709e+03
7.799999999999999989e-02 1.855120000000000102e-01 2.695405000000000229e+01 1.003235999999999990e+02 2.224795000000000073e+03
7.900000000000000078e-02 1.856140000000000012e-01 2.776760000000000161e+01 1.032380500000000012e+02 2.225545000000000073e+03
8.000000000000000167e-02 1.857209999999999972e-01 2.861629999999999896e+01 1.063665000000000020e+02 2.226335000000000036e+03
8.100000000000000255e-02 1.858339999999999992e-01 2.950459999999999994e+01 1.096970000000000027e+02 2.227170000000000073e+03
8.200000000000000344e-02 1.859525000000000206e-01 3.042725000000000080e+01 1.131905000000000001e+02 2.228039999999999964e+03
8.300000000000000433e-02 1.860755000000000048e-01 3.137089999999999890e+01 1.167870000000000061e+02 2.228949999999999818e+03
8.400000000000000522e-02 1.862010000000000054e-01 3.231515000000000271e+01 1.204110000000000014e+02 2.229875000000000000e+03
8.500000000000000611e-02 1.863270000000000204e-01 3.323489999999999611e+01 1.239770000000000039e+02 2.230795000000000073e+03
8.600000000000000699e-02 1.864494999999999902e-01 3.410190000000000055e+01 1.273975000000000080e+02 2.231704999999999927e+03
8.700000000000000788e-02 1.865664999999999962e-01 3.488734999999999786e+01 1.305865000000000009e+02 2.232574999999999818e+03
8.800000000000000877e-02 1.866764999999999952e-01 3.556350000000000477e+01 1.334669999999999845e+02 2.233389999999999873e+03
8.899999999999999578e-02 1.867755000000000110e-01 3.610575000000000045e+01 1.359739999999999895e+02 2.234130000000000109e+03
8.999999999999999667e-02 1.868620000000000003e-01 3.649399999999999977e+01 1.380564999999999998e+02 2.234775000000000091e+03
9.099999999999999756e-02 1.869345000000000034e-01 3.671405000000000030e+01 1.396829999999999927e+02 2.235324999999999818e+03
9.199999999999999845e-02 1.869925000000000059e-01 3.675844999999999629e+01 1.408414999999999964e+02 2.235760000000000218e+03
9.299999999999999933e-02 1.870350000000000068e-01 3.662669999999999959e+01 1.415374999999999943e+02 2.236090000000000146e+03
9.400000000000000022e-02 1.870625000000000204e-01 3.632554999999999978e+01 1.417959999999999923e+02 2.236300000000000182e+03
9.500000000000000111e-02 1.870755000000000057e-01 3.586809999999999832e+01 1.416585000000000036e+02 2.236414999999999964e+03
9.600000000000000200e-02 1.870755000000000057e-01 3.527315000000000111e+01 1.411795000000000186e+02 2.236420000000000073e+03
9.700000000000000289e-02 1.870645000000000224e-01 3.456390000000000384e+01 1.404230000000000018e+02 2.236355000000000018e+03
9.800000000000000377e-02 1.870439999999999880e-01 3.376680000000000348e+01 1.394585000000000150e+02 2.236215000000000146e+03
9.900000000000000466e-02 1.870165000000000022e-01 3.290970000000000084e+01 1.383584999999999923e+02 2.236014999999999873e+03
1.000000000000000056e-01 1.869844999999999979e-01 3.202085000000000292e+01 1.371920000000000073e+02 2.235779999999999745e+03
1.010000000000000064e-01 1.869494999999999907e-01 3.112709999999999866e+01 1.360240000000000009e+02 2.235524999999999636e+03
1.020000000000000073e-01 1.869139999999999968e-01 3.025300000000000011e+01 1.349114999999999895e+02 2.235269999999999982e+03
1.030000000000000082e-01 1.868799999999999906e-01 2.941960000000000264e+01 1.339010000000000105e+02 2.235019999999999982e+03
1.040000000000000091e-01 1.868485000000000007e-01 2.864339999999999975e+01 1.330269999999999868e+02 2.234784999999999854e+03
1.050000000000000100e-01 1.868210000000000148e-01 2.793614999999999782e+01 1.323104999999999905e+02 2.234579999999999927e+03
1.059999999999999970e-01 1.867979999999999918e-01 2.730389999999999873e+01 1.317604999999999791e+02 2.234404999999999745e+03
1.069999999999999979e-01 1.867800000000000016e-01 2.674734999999999729e+01 1.313689999999999998e+02 2.234265000000000327e+03
1.079999999999999988e-01 1.867665000000000020e-01 2.626174999999999926e+01 1.311175000000000068e+02 2.234159999999999854e+03
1.089999999999999997e-01 1.867564999999999920e-01 2.583749999999999858e+01 1.309764999999999873e+02 2.234079999999999927e+03
1.100000000000000006e-01 1.867499999999999993e-01 2.546079999999999899e+01 1.309035000000000082e+02 2.234029999999999745e+03
1.110000000000000014e-01 1.867455000000000087e-01 2.511484999999999701e+01 1.308539999999999850e+02 2.233989999999999782e+03
1.120000000000000023e-01 1.867409999999999903e-01 2.478069999999999951e+01 1.307760000000000105e+02 2.233954999999999927e+03
1.130000000000000032e-01 1.867360000000000131e-01 2.443894999999999840e+01 1.306200000000000045e+02 2.233914999999999964e+03
1.140000000000000041e-01 1.867274999999999907e-01 2.407069999999999865e+01 1.303375000000000057e+02 2.233849999999999909e+03
1.150000000000000050e-01 1.867150000000000198e-01 2.365889999999999915e+01 1.298890000000000100e+02 2.233760000000000218e+03
1.160000000000000059e-01 1.866974999999999885e-01 2.318975000000000009e+01 1.292415000000000020e+02 2.233630000000000109e+03
1.170000000000000068e-01 1.866730000000000056e-01 2.265330000000000155e+01 1.283760000000000048e+02 2.233449999999999818e+03
1.180000000000000077e-01 1.866415000000000157e-01 2.204429999999999978e+01 1.272844999999999942e+02 2.233224999999999909e+03
1.190000000000000085e-01 1.866035000000000055e-01 2.136244999999999905e+01 1.259740000000000038e+02 2.232944999999999709e+03
1.200000000000000094e-01 1.865580000000000016e-01 2.061274999999999835e+01 1.244639999999999986e+02 2.232614999999999782e+03
1.209999999999999964e-01 1.865065000000000195e-01 1.980469999999999686e+01 1.227860000000000014e+02 2.232235000000000127e+03
1.219999999999999973e-01 1.864494999999999902e-01 1.895214999999999961e+01 1.209830000000000041e+02 2.231824999999999818e+03
1.229999999999999982e-01 1.863889999999999991e-01 1.807225000000000037e+01 1.191030000000000086e+02 2.231380000000000109e+03
1.239999999999999991e-01 1.863259999999999916e-01 1.718435000000000201e+01 1.172015000000000100e+02 2.230920000000000073e+03
1.250000000000000000e-01 1.862630000000000119e-01 1.630900000000000105e+01 1.153329999999999984e+02 2.230449999999999818e+03
1.260000000000000009e-01 1.862000000000000044e-01 1.546664999999999957e+01 1.135520000000000067e+02 2.229989999999999782e+03
1.270000000000000018e-01 1.861404999999999865e-01 1.467644999999999911e+01 1.119070000000000107e+02 2.229550000000000182e+03
1.280000000000000027e-01 1.860855000000000148e-01 1.395534999999999926e+01 1.104394999999999953e+02 2.229139999999999873e+03
1.290000000000000036e-01 1.860359999999999792e-01 1.331735000000000113e+01 1.091814999999999998e+02 2.228775000000000091e+03
1.300000000000000044e-01 1.859930000000000194e-01 1.277265000000000050e+01 1.081554999999999893e+02 2.228449999999999818e+03
1.310000000000000053e-01 1.859580000000000122e-01 1.232770000000000010e+01 1.073729999999999905e+02 2.228184999999999945e+03
1.320000000000000062e-01 1.859300000000000119e-01 1.198470000000000013e+01 1.068354999999999961e+02 2.227974999999999909e+03
1.330000000000000071e-01 1.859105000000000063e-01 1.174194999999999922e+01 1.065330000000000013e+02 2.227824999999999818e+03
1.340000000000000080e-01 1.858980000000000077e-01 1.159420000000000073e+01 1.064484999999999957e+02 2.227725000000000364e+03
1.350000000000000089e-01 1.858930000000000027e-01 1.153294999999999959e+01 1.065564999999999998e+02 2.227675000000000182e+03
1.360000000000000098e-01 1.858940000000000037e-01 1.154745000000000132e+01 1.068274999999999864e+02 2.227680000000000291e+03
1.370000000000000107e-01 1.859005000000000241e-01 1.162490000000000023e+01 1.072274999999999920e+02 2.227720000000000255e+03
1.380000000000000115e-01 1.859115000000000073e-01 1.175124999999999886e+01 1.077220000000000084e+02 2.227800000000000182e+03
1.390000000000000124e-01 1.859254999999999936e-01 1.191205000000000069e+01 1.082750000000000057e+02 2.227894999999999982e+03
1.400000000000000133e-01 1.859419999999999962e-01 1.209305000000000163e+01 1.088530000000000086e+02 2.228014999999999873e+03
1.410000000000000142e-01 1.859589999999999854e-01 1.228059999999999974e+01 1.094240000000000066e+02 2.228135000000000218e+03
1.420000000000000151e-01 1.859760000000000024e-01 1.246239999999999881e+01 1.099620000000000033e+02 2.228260000000000218e+03
1.430000000000000160e-01 1.859925000000000050e-01 1.262785000000000046e+01 1.104445000000000050e+02 2.228385000000000218e+03
1.440000000000000169e-01 1.860080000000000067e-01 1.276834999999999987e+01 1.108545000000000016e+02 2.228494999999999891e+03
1.450000000000000178e-01 1.860205000000000053e-01 1.287754999999999939e+01 1.111804999999999950e+02 2.228590000000000146e+03
1.459999999999999909e-01 1.860310000000000019e-01 1.295165000000000077e+01 1.114174999999999898e+02 2.228664999999999964e+03
1.469999999999999918e-01 1.860390000000000099e-01 1.298910000000000053e+01 1.115660000000000025e+02 2.228724999999999909e+03
1.479999999999999927e-01 1.860439999999999872e-01 1.299089999999999989e+01 1.116324999999999932e+02 2.228765000000000327e+03
1.489999999999999936e-01 1.860465000000000035e-01 1.295974999999999966e+01 1.116264999999999930e+02 2.228789999999999964e+03
1.499999999999999944e-01 1.860469999999999902e-01 1.290034999999999954e+01 1.115635000000000048e+02 2.228795000000000073e+03
1.509999999999999953e-01 1.860459999999999892e-01 1.281869999999999976e+01 1.114594999999999914e+02 2.228784999999999854e+03
1.519999999999999962e-01 1.860435000000000005e-01 1.272149999999999892e+01 1.113329999999999984e+02 2.228769999999999982e+03
1.529999999999999971e-01 1.860399999999999832e-01 1.261574999999999847e+01 1.112014999999999958e+02 2.228750000000000000e+03
1.539999999999999980e-01 1.860364999999999935e-01 1.250854999999999961e+01 1.110824999999999960e+02 2.228725000000000364e+03
1.549999999999999989e-01 1.860339999999999772e-01 1.240605000000000047e+01 1.109904999999999973e+02 2.228704999999999927e+03
1.559999999999999998e-01 1.860315000000000163e-01 1.231370000000000076e+01 1.109364999999999952e+02 2.228684999999999945e+03
1.570000000000000007e-01 1.860304999999999875e-01 1.223559999999999981e+01 1.109279999999999973e+02 2.228680000000000291e+03
1.580000000000000016e-01 1.860304999999999875e-01 1.217454999999999998e+01 1.109699999999999989e+02 2.228685000000000400e+03
1.590000000000000024e-01 1.860330000000000039e-01 1.213180000000000014e+01 1.110620000000000118e+02 2.228695000000000164e+03
