# t [s], A [cm^2], U [cm/s], P [cPa], c [cm/s]
1.000000000000000021e-03 1.201794999999999947e-01 3.461029999999999940e-01 1.020721499999999935e+02 1.862244999999999891e+03
2.000000000000000042e-03 1.201585000000000014e-01 1.932628000000000235e+00 9.888634999999999309e+01 1.861980000000000018e+03
3.000000000000000062e-03 1.200795000000000057e-01 3.858369499999999785e+00 9.477844999999999231e+01 1.861065000000000055e+03
4.000000000000000083e-03 1.199624999999999997e-01 5.985421999999999798e+00 9.027174999999999727e+01 1.859710000000000036e+03
5.000000000000000104e-03 1.198265000000000025e-01 8.257210000000000605e+00 8.607994999999999663e+01 1.858159999999999854e+03
6.000000000000000125e-03 1.196870000000000017e-01 1.056107499999999888e+01 8.253794999999999504e+01 1.856585000000000036e+03
7.000000000000000146e-03 1.195525000000000060e-01 1.274024499999999982e+01 7.957370000000000232e+01 1.855079999999999927e+03
8.000000000000000167e-03 1.194240000000000024e-01 1.468430000000000035e+01 7.696985000000000809e+01 1.853664999999999964e+03
9.000000000000001055e-03 1.193055000000000088e-01 1.637780000000000058e+01 7.463890000000000668e+01 1.852375000000000000e+03
1.000000000000000194e-02 1.191994999999999860e-01 1.784815000000000040e+01 7.261724999999999852e+01 1.851235000000000127e+03
1.099999999999999936e-02 1.191059999999999897e-01 1.911315000000000097e+01 7.092265000000000441e+01 1.850240000000000009e+03
1.200000000000000025e-02 1.190259999999999929e-01 2.018015000000000114e+01 6.952039999999999509e+01 1.849389999999999873e+03
1.300000000000000114e-02 1.189580000000000082e-01 2.105595000000000283e+01 6.835649999999999693e+01 1.848679999999999836e+03
1.400000000000000203e-02 1.189000000000000057e-01 2.174605000000000032e+01 6.736780000000000257e+01 1.848090000000000146e+03
1.499999999999999944e-02 1.188509999999999983e-01 2.226200000000000045e+01 6.649414999999999054e+01 1.847589999999999918e+03
1.600000000000000033e-02 1.188089999999999979e-01 2.263980000000000103e+01 6.572520000000000095e+01 1.847170000000000073e+03
1.700000000000000122e-02 1.187745000000000051e-01 2.294899999999999807e+01 6.514594999999999914e+01 1.846829999999999927e+03
1.800000000000000211e-02 1.187505000000000088e-01 2.327819999999999823e+01 6.492425000000000068e+01 1.846599999999999909e+03
1.900000000000000300e-02 1.187404999999999988e-01 2.370270000000000010e+01 6.523525000000000773e+01 1.846505000000000109e+03
2.000000000000000042e-02 1.187465000000000048e-01 2.425450000000000017e+01 6.616694999999999993e+01 1.846590000000000146e+03
2.100000000000000130e-02 1.187705000000000011e-01 2.490984999999999872e+01 6.766085000000001060e+01 1.846844999999999800e+03
2.200000000000000219e-02 1.188079999999999969e-01 2.559884999999999877e+01 6.951500000000000057e+01 1.847250000000000000e+03
2.299999999999999961e-02 1.188545000000000018e-01 2.623010000000000019e+01 7.144020000000000437e+01 1.847744999999999891e+03
2.400000000000000050e-02 1.189025000000000082e-01 2.671849999999999881e+01 7.314230000000000587e+01 1.848275000000000091e+03
2.500000000000000139e-02 1.189469999999999972e-01 2.700804999999999723e+01 7.439794999999999447e+01 1.848759999999999991e+03
2.600000000000000228e-02 1.189825000000000049e-01 2.708230000000000004e+01 7.510190000000000055e+01 1.849155000000000200e+03
2.700000000000000316e-02 1.190060000000000007e-01 2.696260000000000190e+01 7.527504999999999313e+01 1.849430000000000064e+03
2.800000000000000058e-02 1.190190000000000137e-01 2.669534999999999769e+01 7.503624999999999545e+01 1.849585000000000036e+03
2.900000000000000147e-02 1.190225000000000033e-01 2.633514999999999873e+01 7.455195000000000505e+01 1.849634999999999991e+03
3.000000000000000236e-02 1.190195000000000003e-01 2.592849999999999966e+01 7.398160000000000025e+01 1.849619999999999891e+03
3.099999999999999978e-02 1.190134999999999943e-01 2.550329999999999941e+01 7.343590000000000373e+01 1.849565000000000055e+03
3.200000000000000067e-02 1.190060000000000007e-01 2.506634999999999991e+01 7.295779999999999177e+01 1.849485000000000127e+03
3.300000000000000155e-02 1.189970000000000055e-01 2.460779999999999745e+01 7.252774999999999750e+01 1.849400000000000091e+03
3.400000000000000244e-02 1.189874999999999960e-01 2.411019999999999897e+01 7.208670000000000755e+01 1.849300000000000182e+03
3.500000000000000333e-02 1.189759999999999984e-01 2.355899999999999750e+01 7.156844999999999857e+01 1.849179999999999836e+03
3.600000000000000422e-02 1.189614999999999978e-01 2.295125000000000171e+01 7.093019999999999925e+01 1.849029999999999973e+03
3.700000000000000511e-02 1.189435000000000076e-01 2.230065000000000097e+01 7.017384999999998740e+01 1.848845000000000027e+03
3.799999999999999906e-02 1.189219999999999999e-01 2.163765000000000072e+01 6.935304999999999609e+01 1.848630000000000109e+03
3.899999999999999994e-02 1.189004999999999923e-01 2.100484999999999758e+01 6.856459999999999866e+01 1.848400000000000091e+03
4.000000000000000083e-02 1.188800000000000134e-01 2.044875000000000043e+01 6.792810000000000059e+01 1.848180000000000064e+03
4.100000000000000172e-02 1.188634999999999969e-01 2.001050000000000040e+01 6.755835000000000434e+01 1.848005000000000109e+03
4.200000000000000261e-02 1.188540000000000152e-01 1.971734999999999971e+01 6.753874999999999318e+01 1.847900000000000091e+03
4.300000000000000350e-02 1.188524999999999998e-01 1.957714999999999961e+01 6.790180000000000859e+01 1.847880000000000109e+03
4.400000000000000439e-02 1.188615000000000088e-01 1.957699999999999818e+01 6.862069999999999936e+01 1.847960000000000036e+03
4.499999999999999833e-02 1.188784999999999981e-01 1.968509999999999849e+01 6.961284999999999457e+01 1.848134999999999991e+03
4.599999999999999922e-02 1.189030000000000087e-01 1.985660000000000025e+01 7.075435000000000230e+01 1.848380000000000109e+03
4.700000000000000011e-02 1.189310000000000089e-01 2.003995000000000104e+01 7.189969999999999573e+01 1.848674999999999955e+03
4.800000000000000100e-02 1.189594999999999958e-01 2.018455000000000155e+01 7.290409999999999968e+01 1.848980000000000018e+03
4.900000000000000189e-02 1.189850000000000074e-01 2.024609999999999843e+01 7.364249999999999829e+01 1.849250000000000000e+03
5.000000000000000278e-02 1.190049999999999997e-01 2.019115000000000038e+01 7.402320000000000277e+01 1.849460000000000036e+03
5.100000000000000366e-02 1.190164999999999973e-01 1.999889999999999901e+01 7.399450000000000216e+01 1.849589999999999918e+03
5.200000000000000455e-02 1.190174999999999983e-01 1.966109999999999758e+01 7.354509999999999081e+01 1.849605000000000018e+03
5.300000000000000544e-02 1.190085000000000032e-01 1.918055000000000021e+01 7.269804999999999495e+01 1.849509999999999991e+03
5.399999999999999939e-02 1.189884999999999970e-01 1.856895000000000095e+01 7.150254999999999939e+01 1.849304999999999836e+03
5.500000000000000028e-02 1.189589999999999953e-01 1.784404999999999930e+01 7.002410000000000423e+01 1.848994999999999891e+03
5.600000000000000117e-02 1.189204999999999984e-01 1.702765000000000128e+01 6.833555000000001201e+01 1.848594999999999800e+03
5.700000000000000205e-02 1.188754999999999951e-01 1.614359999999999928e+01 6.651095000000000823e+01 1.848119999999999891e+03
5.800000000000000294e-02 1.188255000000000006e-01 1.521720000000000184e+01 6.462139999999999418e+01 1.847590000000000146e+03
5.900000000000000383e-02 1.187725000000000031e-01 1.427469999999999928e+01 6.273395000000000010e+01 1.847025000000000091e+03
6.000000000000000472e-02 1.187179999999999902e-01 1.334335000000000093e+01 6.091214999999999691e+01 1.846444999999999936e+03
6.099999999999999867e-02 1.186645000000000061e-01 1.245134999999999970e+01 5.921755000000000280e+01 1.845875000000000000e+03
6.199999999999999956e-02 1.186129999999999962e-01 1.162837000000000032e+01 5.771139999999999759e+01 1.845325000000000045e+03
6.300000000000000044e-02 1.185659999999999908e-01 1.090489499999999978e+01 5.645555000000000234e+01 1.844829999999999927e+03
6.400000000000000133e-02 1.185249999999999915e-01 1.031181499999999929e+01 5.551234999999999786e+01 1.844389999999999873e+03
6.500000000000000222e-02 1.184935000000000016e-01 9.879554999999999865e+00 5.494334999999999525e+01 1.844045000000000073e+03
6.600000000000000311e-02 1.184710000000000069e-01 9.636890000000001066e+00 5.480695000000000050e+01 1.843799999999999955e+03
6.700000000000000400e-02 1.184610000000000107e-01 9.609504999999998631e+00 5.515579999999999927e+01 1.843684999999999945e+03
6.800000000000000488e-02 1.184650000000000009e-01 9.818709999999999383e+00 5.603305000000000291e+01 1.843710000000000036e+03
6.900000000000000577e-02 1.184835000000000055e-01 1.028035999999999994e+01 5.746980000000000643e+01 1.843900000000000091e+03
7.000000000000000666e-02 1.185184999999999989e-01 1.100396500000000088e+01 5.948270000000000124e+01 1.844260000000000218e+03
7.100000000000000755e-02 1.185704999999999953e-01 1.199200000000000088e+01 6.207260000000000133e+01 1.844795000000000073e+03
7.200000000000000844e-02 1.186394999999999950e-01 1.324000000000000021e+01 6.522450000000000614e+01 1.845515000000000100e+03
7.300000000000000933e-02 1.187249999999999972e-01 1.473675000000000068e+01 6.890794999999999959e+01 1.846414999999999964e+03
7.399999999999999634e-02 1.188269999999999882e-01 1.646495000000000175e+01 7.307925000000000182e+01 1.847485000000000127e+03
7.499999999999999722e-02 1.189445000000000086e-01 1.840214999999999890e+01 7.768370000000000175e+01 1.848724999999999909e+03
7.599999999999999811e-02 1.190760000000000013e-01 2.052175000000000082e+01 8.265874999999999773e+01 1.850115000000000009e+03
7.699999999999999900e-02 1.192199999999999926e-01 2.279445000000000121e+01 8.793729999999999336e+01 1.851644999999999982e+03
7.799999999999999989e-02 1.193745000000000084e-01 2.518934999999999746e+01 9.345105000000000928e+01 1.853295000000000073e+03
7.900000000000000078e-02 1.195370000000000044e-01 2.767545000000000144e+01 9.913285000000000480e+01 1.855039999999999964e+03
8.000000000000000167e-02 1.197074999999999945e-01 3.022249999999999659e+01 1.049218999999999937e+02 1.856859999999999900e+03
8.100000000000000255e-02 1.198825000000000029e-01 3.280230000000000246e+01 1.107614999999999981e+02 1.858744999999999891e+03
8.200000000000000344e-02 1.200610000000000011e-01 3.538949999999999818e+01 1.166064999999999969e+02 1.860680000000000064e+03
8.300000000000000433e-02 1.202415000000000012e-01 3.796195000000000164e+01 1.224194999999999993e+02 1.862630000000000109e+03
8.400000000000000522e-02 1.204225000000000156e-01 4.050124999999999886e+01 1.281719999999999970e+02 1.864599999999999909e+03
8.500000000000000611e-02 1.206035000000000024e-01 4.299275000000000091e+01 1.338470000000000084e+02 1.866575000000000045e+03
8.600000000000000699e-02 1.207835000000000159e-01 4.542539999999999623e+01 1.394339999999999975e+02 1.868539999999999964e+03
8.700000000000000788e-02 1.209620000000000140e-01 4.779139999999999588e+01 1.449314999999999998e+02 1.870494999999999891e+03
8.800000000000000877e-02 1.211394999999999972e-01 5.008534999999999826e+01 1.503400000000000034e+02 1.872434999999999945e+03
8.899999999999999578e-02 1.213140000000000052e-01 5.230424999999999613e+01 1.556645000000000039e+02 1.874360000000000127e+03
8.999999999999999667e-02 1.214869999999999978e-01 5.444624999999999915e+01 1.609110000000000014e+02 1.876269999999999982e+03
9.099999999999999756e-02 1.216580000000000022e-01 5.651040000000000418e+01 1.660844999999999914e+02 1.878160000000000082e+03
9.199999999999999845e-02 1.218270000000000047e-01 5.849585000000000434e+01 1.711879999999999882e+02 1.880035000000000082e+03
9.299999999999999933e-02 1.219944999999999918e-01 6.040149999999999864e+01 1.762214999999999918e+02 1.881890000000000100e+03
9.400000000000000022e-02 1.221595000000000042e-01 6.222570000000000334e+01 1.811800000000000068e+02 1.883724999999999909e+03
9.500000000000000111e-02 1.223220000000000141e-01 6.396585000000000321e+01 1.860554999999999950e+02 1.885539999999999964e+03
9.600000000000000200e-02 1.224830000000000085e-01 6.561860000000000070e+01 1.908365000000000009e+02 1.887329999999999927e+03
9.700000000000000289e-02 1.226399999999999990e-01 6.717969999999999686e+01 1.955065000000000168e+02 1.889089999999999918e+03
9.800000000000000377e-02 1.227945000000000009e-01 6.864394999999998959e+01 2.000475000000000136e+02 1.890820000000000164e+03
9.900000000000000466e-02 1.229449999999999987e-01 7.000575000000000614e+01 2.044404999999999859e+02 1.892505000000000109e+03
1.000000000000000056e-01 1.230910000000000060e-01 7.125915000000000532e+01 2.086630000000000109e+02 1.894150000000000091e+03
1.010000000000000064e-01 1.232320000000000082e-01 7.239799999999999613e+01 2.126940000000000168e+02 1.895730000000000018e+03
1.020000000000000073e-01 1.233670000000000044e-01 7.341620000000000346e+01 2.165130000000000052e+02 1.897264999999999873e+03
1.030000000000000082e-01 1.234965000000000090e-01 7.430835000000000434e+01 2.201005000000000109e+02 1.898719999999999800e+03
1.040000000000000091e-01 1.236184999999999923e-01 7.506935000000000002e+01 2.234395000000000095e+02 1.900105000000000018e+03
1.050000000000000100e-01 1.237334999999999963e-01 7.569535000000000480e+01 2.265149999999999864e+02 1.901405000000000200e+03
1.059999999999999970e-01 1.238405000000000061e-01 7.618314999999999770e+01 2.293149999999999977e+02 1.902625000000000000e+03
1.069999999999999979e-01 1.239390000000000075e-01 7.653120000000001255e+01 2.318315000000000055e+02 1.903744999999999891e+03
1.079999999999999988e-01 1.240295000000000147e-01 7.673924999999999841e+01 2.340575000000000045e+02 1.904775000000000091e+03
1.089999999999999997e-01 1.241104999999999986e-01 7.680854999999999677e+01 2.359934999999999832e+02 1.905704999999999927e+03
1.100000000000000006e-01 1.241825000000000012e-01 7.674199999999999022e+01 2.376409999999999911e+02 1.906535000000000082e+03
1.110000000000000014e-01 1.242459999999999953e-01 7.654425000000000523e+01 2.390070000000000050e+02 1.907264999999999873e+03
1.120000000000000023e-01 1.242999999999999938e-01 7.622175000000000011e+01 2.401025000000000205e+02 1.907894999999999982e+03
1.130000000000000032e-01 1.243464999999999987e-01 7.578215000000000146e+01 2.409404999999999859e+02 1.908424999999999955e+03
1.140000000000000041e-01 1.243839999999999946e-01 7.523499999999999943e+01 2.415384999999999991e+02 1.908860000000000127e+03
1.150000000000000050e-01 1.244139999999999968e-01 7.459094999999999231e+01 2.419180000000000064e+02 1.909210000000000036e+03
1.160000000000000059e-01 1.244369999999999921e-01 7.386160000000000991e+01 2.421009999999999991e+02 1.909480000000000018e+03
1.170000000000000068e-01 1.244530000000000081e-01 7.305934999999999491e+01 2.421109999999999900e+02 1.909674999999999955e+03
1.180000000000000077e-01 1.244630000000000042e-01 7.219700000000000273e+01 2.419744999999999777e+02 1.909799999999999955e+03
1.190000000000000085e-01 1.244675000000000087e-01 7.128719999999999857e+01 2.417160000000000082e+02 1.909865000000000009e+03
1.200000000000000094e-01 1.244679999999999953e-01 7.034250000000000114e+01 2.413590000000000089e+02 1.909875000000000000e+03
1.209999999999999964e-01 1.244644999999999918e-01 6.937454999999999927e+01 2.409265000000000043e+02 1.909835000000000036e+03
1.219999999999999973e-01 1.244580000000000131e-01 6.839414999999999623e+01 2.404384999999999764e+02 1.909769999999999982e+03
1.229999999999999982e-01 1.244484999999999897e-01 6.741075000000000728e+01 2.399130000000000109e+02 1.909664999999999964e+03
1.239999999999999991e-01 1.244370000000000059e-01 6.643240000000000123e+01 2.393634999999999877e+02 1.909539999999999964e+03
1.250000000000000000e-01 1.244244999999999934e-01 6.546545000000000414e+01 2.388009999999999877e+02 1.909394999999999982e+03
1.260000000000000009e-01 1.244099999999999928e-01 6.451470000000000482e+01 2.382334999999999923e+02 1.909240000000000009e+03
1.270000000000000018e-01 1.243954999999999922e-01 6.358325000000000671e+01 2.376630000000000109e+02 1.909065000000000055e+03
1.280000000000000027e-01 1.243795000000000039e-01 6.267229999999999990e+01 2.370914999999999964e+02 1.908889999999999873e+03
1.290000000000000036e-01 1.243640000000000023e-01 6.178185000000000571e+01 2.365144999999999982e+02 1.908710000000000036e+03
1.300000000000000044e-01 1.243469999999999992e-01 6.091039999999999566e+01 2.359279999999999973e+02 1.908519999999999982e+03
1.310000000000000053e-01 1.243295000000000095e-01 6.005514999999999759e+01 2.353245000000000005e+02 1.908320000000000164e+03
1.320000000000000062e-01 1.243114999999999915e-01 5.921264999999999645e+01 2.346949999999999932e+02 1.908110000000000127e+03
1.330000000000000071e-01 1.242919999999999997e-01 5.837839999999999918e+01 2.340289999999999964e+02 1.907889999999999873e+03
1.340000000000000080e-01 1.242720000000000075e-01 5.754779999999999518e+01 2.333170000000000073e+02 1.907655000000000200e+03
1.350000000000000089e-01 1.242494999999999850e-01 5.671609999999999729e+01 2.325490000000000066e+02 1.907405000000000200e+03
1.360000000000000098e-01 1.242264999999999897e-01 5.587834999999999752e+01 2.317149999999999750e+02 1.907139999999999873e+03
1.370000000000000107e-01 1.242004999999999915e-01 5.503040000000000020e+01 2.308070000000000164e+02 1.906849999999999909e+03
1.380000000000000115e-01 1.241730000000000056e-01 5.416825000000000045e+01 2.298199999999999932e+02 1.906534999999999854e+03
1.390000000000000124e-01 1.241430000000000033e-01 5.328894999999999982e+01 2.287479999999999905e+02 1.906194999999999936e+03
1.400000000000000133e-01 1.241099999999999981e-01 5.239034999999999798e+01 2.275900000000000034e+02 1.905825000000000045e+03
1.410000000000000142e-01 1.240749999999999909e-01 5.147119999999999607e+01 2.263449999999999989e+02 1.905424999999999955e+03
1.420000000000000151e-01 1.240370000000000084e-01 5.053154999999999575e+01 2.250169999999999959e+02 1.905005000000000109e+03
1.430000000000000160e-01 1.239969999999999961e-01 4.957229999999999848e+01 2.236094999999999970e+02 1.904545000000000073e+03
1.440000000000000169e-01 1.239544999999999952e-01 4.859565000000000623e+01 2.221304999999999836e+02 1.904065000000000055e+03
1.450000000000000178e-01 1.239095000000000057e-01 4.760464999999999947e+01 2.205894999999999868e+02 1.903559999999999945e+03
1.459999999999999909e-01 1.238619999999999999e-01 4.660334999999999894e+01 2.189975000000000023e+02 1.903029999999999973e+03
1.469999999999999918e-01 1.238134999999999930e-01 4.559659999999999513e+01 2.173679999999999950e+02 1.902485000000000127e+03
1.479999999999999927e-01 1.237634999999999985e-01 4.458984999999999843e+01 2.157135000000000105e+02 1.901920000000000073e+03
1.489999999999999936e-01 1.237125000000000030e-01 4.358905000000000030e+01 2.140494999999999948e+02 1.901345000000000027e+03
1.499999999999999944e-01 1.236609999999999931e-01 4.260025000000000261e+01 2.123899999999999864e+02 1.900764999999999873e+03
1.509999999999999953e-01 1.236089999999999967e-01 4.162959999999999638e+01 2.107495000000000118e+02 1.900184999999999945e+03
1.519999999999999962e-01 1.235575000000000007e-01 4.068314999999999770e+01 2.091419999999999959e+02 1.899599999999999909e+03
1.529999999999999971e-01 1.235064999999999913e-01 3.976650000000000063e+01 2.075799999999999841e+02 1.899030000000000200e+03
1.539999999999999980e-01 1.234564999999999968e-01 3.888470000000000226e+01 2.060745000000000005e+02 1.898470000000000027e+03
1.549999999999999989e-01 1.234080000000000038e-01 3.804219999999999402e+01 2.046345000000000027e+02 1.897920000000000073e+03
1.559999999999999998e-01 1.233609999999999984e-01 3.724240000000000350e+01 2.032680000000000007e+02 1.897400000000000091e+03
1.570000000000000007e-01 1.233164999999999956e-01 3.648805000000000121e+01 2.019795000000000016e+02 1.896889999999999873e+03
1.580000000000000016e-01 1.232734999999999942e-01 3.578085000000000093e+01 2.007715000000000032e+02 1.896409999999999854e+03
1.590000000000000024e-01 1.232330000000000092e-01 3.512154999999999916e+01 1.996465000000000032e+02 1.895949999999999818e+03
