# t [s], A [cm^2], U [cm/s], P [cPa], c [cm/s]
1.000000000000000021e-03 2.002455000000000207e-01 2.340718499999999980e-01 9.773090000000000543e+01 2.227430000000000291e+03
2.000000000000000042e-03 2.001875000000000182e-01 1.691383499999999929e+00 9.439759999999999707e+01 2.226930000000000291e+03
3.000000000000000062e-03 2.000389999999999946e-01 3.555522500000000363e+00 8.953345000000000198e+01 2.225715000000000146e+03
4.000000000000000083e-03 1.998424999999999785e-01 5.691768999999999856e+00 8.415784999999999627e+01 2.224119999999999891e+03
5.000000000000000104e-03 1.996364999999999945e-01 8.009330000000000283e+00 7.934235000000001037e+01 2.222470000000000255e+03
6.000000000000000125e-03 1.994434999999999958e-01 1.028190999999999988e+01 7.541835000000000377e+01 2.220949999999999818e+03
7.000000000000000146e-03 1.992659999999999987e-01 1.224044499999999935e+01 7.203979999999999961e+01 2.219579999999999927e+03
8.000000000000000167e-03 1.991064999999999918e-01 1.381987499999999969e+01 6.900440000000000396e+01 2.218369999999999891e+03
9.000000000000001055e-03 1.989714999999999956e-01 1.508269999999999911e+01 6.645484999999999332e+01 2.217360000000000127e+03
1.000000000000000194e-02 1.988624999999999976e-01 1.606654999999999944e+01 6.446165000000000589e+01 2.216559999999999945e+03
1.099999999999999936e-02 1.987785000000000246e-01 1.680264999999999986e+01 6.299199999999999733e+01 2.215949999999999818e+03
1.200000000000000025e-02 1.987170000000000047e-01 1.731595000000000084e+01 6.197355000000000302e+01 2.215515000000000327e+03
1.300000000000000114e-02 1.986720000000000153e-01 1.760215000000000174e+01 6.123210000000000264e+01 2.215199999999999818e+03
1.400000000000000203e-02 1.986359999999999792e-01 1.768639999999999901e+01 6.060580000000000211e+01 2.214965000000000146e+03
1.499999999999999944e-02 1.986114999999999964e-01 1.770154999999999745e+01 6.021869999999999834e+01 2.214809999999999945e+03
1.600000000000000033e-02 1.986105000000000231e-01 1.786185000000000045e+01 6.053305000000000291e+01 2.214815000000000055e+03
1.700000000000000122e-02 1.986470000000000180e-01 1.833689999999999998e+01 6.204375000000000284e+01 2.215090000000000146e+03
1.800000000000000211e-02 1.987260000000000137e-01 1.913620000000000232e+01 6.487184999999999491e+01 2.215675000000000182e+03
1.900000000000000300e-02 1.988389999999999880e-01 2.009059999999999846e+01 6.857920000000000016e+01 2.216514999999999873e+03
2.000000000000000042e-02 1.989630000000000010e-01 2.093135000000000190e+01 7.231370000000001141e+01 2.217449999999999818e+03
2.100000000000000130e-02 1.990719999999999990e-01 2.141215000000000046e+01 7.516899999999999693e+01 2.218300000000000182e+03
2.200000000000000219e-02 1.991450000000000164e-01 2.140845000000000198e+01 7.655174999999999841e+01 2.218880000000000109e+03
2.299999999999999961e-02 1.991720000000000157e-01 2.095354999999999990e+01 7.638535000000000252e+01 2.219125000000000000e+03
2.400000000000000050e-02 1.991594999999999893e-01 2.020490000000000208e+01 7.507899999999999352e+01 2.219069999999999709e+03
2.500000000000000139e-02 1.991235000000000088e-01 1.936404999999999887e+01 7.330379999999999541e+01 2.218809999999999945e+03
2.600000000000000228e-02 1.990810000000000080e-01 1.859205000000000041e+01 7.169665000000000532e+01 2.218494999999999891e+03
2.700000000000000316e-02 1.990454999999999863e-01 1.795495000000000019e+01 7.062449999999999761e+01 2.218220000000000255e+03
2.800000000000000058e-02 1.990220000000000045e-01 1.741574999999999918e+01 7.009210000000000207e+01 2.218034999999999854e+03
2.900000000000000147e-02 1.990064999999999751e-01 1.686775000000000091e+01 6.980404999999998950e+01 2.217904999999999745e+03
3.000000000000000236e-02 1.989874999999999838e-01 1.619095000000000084e+01 6.933299999999999841e+01 2.217765000000000327e+03
3.099999999999999978e-02 1.989559999999999940e-01 1.530975000000000108e+01 6.832330000000000325e+01 2.217539999999999964e+03
3.200000000000000067e-02 1.989059999999999995e-01 1.423304999999999865e+01 6.665745000000001141e+01 2.217175000000000182e+03
3.300000000000000155e-02 1.988395000000000024e-01 1.306230000000000047e+01 6.452824999999999989e+01 2.216684999999999945e+03
3.400000000000000244e-02 1.987680000000000002e-01 1.196404499999999871e+01 6.239000000000000057e+01 2.216144999999999982e+03
3.500000000000000333e-02 1.987074999999999814e-01 1.111766499999999880e+01 6.080920000000000414e+01 2.215680000000000291e+03
3.600000000000000422e-02 1.986725000000000019e-01 1.065886500000000048e+01 6.027344999999999686e+01 2.215394999999999982e+03
3.700000000000000511e-02 1.986755000000000049e-01 1.063884999999999970e+01 6.103239999999999554e+01 2.215390000000000327e+03
3.799999999999999906e-02 1.987180000000000057e-01 1.101194999999999879e+01 6.302114999999999867e+01 2.215680000000000291e+03
3.899999999999999994e-02 1.987944999999999851e-01 1.165075000000000038e+01 6.588249999999999318e+01 2.216225000000000364e+03
4.000000000000000083e-02 1.988900000000000112e-01 1.237989999999999924e+01 6.906614999999999327e+01 2.216940000000000055e+03
4.100000000000000172e-02 1.989879999999999982e-01 1.301660000000000039e+01 7.196429999999999438e+01 2.217675000000000182e+03
4.200000000000000261e-02 1.990700000000000247e-01 1.340639999999999965e+01 7.404455000000000098e+01 2.218304999999999836e+03
4.300000000000000350e-02 1.991215000000000068e-01 1.344650000000000034e+01 7.494554999999999723e+01 2.218715000000000146e+03
4.400000000000000439e-02 1.991350000000000064e-01 1.309475000000000122e+01 7.452119999999999322e+01 2.218835000000000036e+03
4.499999999999999833e-02 1.991054999999999908e-01 1.236405000000000065e+01 7.283039999999999736e+01 2.218640000000000327e+03
4.599999999999999922e-02 1.990379999999999927e-01 1.130723000000000056e+01 7.008580000000000609e+01 2.218149999999999636e+03
4.700000000000000011e-02 1.989385000000000181e-01 9.998545000000000016e+00 6.658249999999999602e+01 2.217414999999999964e+03
4.800000000000000100e-02 1.988159999999999927e-01 8.516629999999999256e+00 6.262814999999999799e+01 2.216500000000000000e+03
4.900000000000000189e-02 1.986789999999999945e-01 6.933600000000000207e+00 5.849329999999999785e+01 2.215465000000000146e+03
5.000000000000000278e-02 1.985355000000000036e-01 5.311130000000000351e+00 5.438774999999999693e+01 2.214389999999999873e+03
5.100000000000000366e-02 1.983929999999999860e-01 3.701853980000000099e+00 5.046215000000000117e+01 2.213305000000000291e+03
5.200000000000000455e-02 1.982550000000000145e-01 2.154124999999999623e+00 4.682630000000000337e+01 2.212255000000000109e+03
5.300000000000000544e-02 1.981269999999999976e-01 7.170849999999999724e-01 4.357294999999999874e+01 2.211284999999999854e+03
5.399999999999999939e-02 1.980125000000000079e-01 -5.561000000000000387e-01 4.079850000000000421e+01 2.210404999999999745e+03
5.500000000000000028e-02 1.979159999999999808e-01 -1.607839999999999936e+00 3.861374999999999602e+01 2.209659999999999854e+03
5.600000000000000117e-02 1.978415000000000035e-01 -2.378843499999999889e+00 3.714334999999999809e+01 2.209085000000000036e+03
5.700000000000000205e-02 1.977944999999999842e-01 -2.813070000000000181e+00 3.651440000000000197e+01 2.208704999999999927e+03
5.800000000000000294e-02 1.977790000000000104e-01 -2.863655000000000062e+00 3.684004999999999797e+01 2.208559999999999945e+03
5.900000000000000383e-02 1.977984999999999882e-01 -2.498365000000000169e+00 3.820149999999999579e+01 2.208680000000000291e+03
6.000000000000000472e-02 1.978550000000000031e-01 -1.703464500000000159e+00 4.063394999999999868e+01 2.209069999999999709e+03
6.099999999999999867e-02 1.979495000000000005e-01 -4.853450000000001374e-01 4.411910000000000309e+01 2.209755000000000109e+03
6.199999999999999956e-02 1.980804999999999927e-01 1.130054999999999810e+00 4.858539999999999992e+01 2.210720000000000255e+03
6.300000000000000044e-02 1.982454999999999912e-01 3.099590000000000067e+00 5.391429999999999723e+01 2.211940000000000055e+03
6.400000000000000133e-02 1.984405000000000197e-01 5.366456000000000337e+00 5.995100000000000762e+01 2.213394999999999982e+03
6.500000000000000222e-02 1.986594999999999889e-01 7.864205000000000112e+00 6.651770000000000493e+01 2.215039999999999964e+03
6.600000000000000311e-02 1.988965000000000038e-01 1.052106500000000011e+01 7.342629999999999768e+01 2.216824999999999818e+03
6.700000000000000400e-02 1.991455000000000031e-01 1.326380499999999962e+01 8.049105000000000132e+01 2.218715000000000146e+03
6.800000000000000488e-02 1.993995000000000073e-01 1.602199999999999847e+01 8.753945000000000221e+01 2.220644999999999982e+03
6.900000000000000577e-02 1.996530000000000249e-01 1.873179999999999978e+01 9.442234999999999445e+01 2.222590000000000146e+03
7.000000000000000666e-02 1.999015000000000097e-01 2.133919999999999817e+01 1.010225499999999954e+02 2.224494999999999891e+03
7.100000000000000755e-02 2.001410000000000133e-01 2.380245000000000033e+01 1.072597000000000094e+02 2.226345000000000255e+03
7.200000000000000844e-02 2.003690000000000193e-01 2.609400000000000119e+01 1.130939999999999941e+02 2.228105000000000018e+03
7.300000000000000933e-02 2.005839999999999845e-01 2.820035000000000025e+01 1.185244999999999891e+02 2.229779999999999745e+03
7.399999999999999634e-02 2.007859999999999923e-01 3.012120000000000175e+01 1.235850000000000080e+02 2.231355000000000018e+03
7.499999999999999722e-02 2.009765000000000024e-01 3.186680000000000135e+01 1.283344999999999914e+02 2.232845000000000255e+03
7.599999999999999811e-02 2.011580000000000035e-01 3.345510000000000161e+01 1.328489999999999895e+02 2.234264999999999873e+03
7.699999999999999900e-02 2.013314999999999966e-01 3.490800000000000125e+01 1.372049999999999841e+02 2.235619999999999891e+03
7.799999999999999989e-02 2.015005000000000268e-01 3.624800000000000466e+01 1.414749999999999943e+02 2.236949999999999818e+03
7.900000000000000078e-02 2.016664999999999985e-01 3.749540000000000362e+01 1.457154999999999916e+02 2.238244999999999891e+03
8.000000000000000167e-02 2.018320000000000114e-01 3.866615000000000180e+01 1.499624999999999773e+02 2.239539999999999964e+03
8.100000000000000255e-02 2.019960000000000089e-01 3.977039999999999509e+01 1.542289999999999850e+02 2.240835000000000036e+03
8.200000000000000344e-02 2.021605000000000207e-01 4.081244999999999834e+01 1.585070000000000050e+02 2.242119999999999891e+03
8.300000000000000433e-02 2.023245000000000182e-01 4.179044999999999987e+01 1.627669999999999959e+02 2.243404999999999745e+03
8.400000000000000522e-02 2.024865000000000137e-01 4.269785000000000252e+01 1.669660000000000082e+02 2.244675000000000182e+03
8.500000000000000611e-02 2.026454999999999784e-01 4.352355000000000018e+01 1.710509999999999877e+02 2.245925000000000182e+03
8.600000000000000699e-02 2.027990000000000070e-01 4.425384999999999991e+01 1.749619999999999891e+02 2.247130000000000109e+03
8.700000000000000788e-02 2.029460000000000153e-01 4.487340000000000373e+01 1.786390000000000100e+02 2.248284999999999854e+03
8.800000000000000877e-02 2.030830000000000135e-01 4.536660000000000537e+01 1.820244999999999891e+02 2.249369999999999891e+03
8.899999999999999578e-02 2.032090000000000007e-01 4.571840000000000259e+01 1.850674999999999955e+02 2.250369999999999891e+03
8.999999999999999667e-02 2.033225000000000171e-01 4.591570000000000107e+01 1.877244999999999777e+02 2.251265000000000327e+03
9.099999999999999756e-02 2.034214999999999773e-01 4.594800000000000040e+01 1.899619999999999891e+02 2.252059999999999945e+03
9.199999999999999845e-02 2.035055000000000058e-01 4.580870000000000175e+01 1.917584999999999980e+02 2.252730000000000018e+03
9.299999999999999933e-02 2.035730000000000040e-01 4.549510000000000076e+01 1.931055000000000064e+02 2.253275000000000091e+03
9.400000000000000022e-02 2.036244999999999861e-01 4.500929999999999609e+01 1.940064999999999884e+02 2.253694999999999709e+03
9.500000000000000111e-02 2.036600000000000077e-01 4.435855000000000103e+01 1.944795000000000016e+02 2.253985000000000127e+03
9.600000000000000200e-02 2.036795000000000133e-01 4.355465000000000231e+01 1.945550000000000068e+02 2.254159999999999854e+03
9.700000000000000289e-02 2.036859999999999782e-01 4.261405000000000598e+01 1.942729999999999961e+02 2.254219999999999800e+03
9.800000000000000377e-02 2.036789999999999989e-01 4.155675000000000097e+01 1.936845000000000141e+02 2.254180000000000291e+03
9.900000000000000466e-02 2.036610000000000087e-01 4.040564999999999429e+01 1.928464999999999918e+02 2.254055000000000291e+03
1.000000000000000056e-01 2.036344999999999961e-01 3.918529999999999802e+01 1.918190000000000168e+02 2.253855000000000018e+03
1.010000000000000064e-01 2.036010000000000042e-01 3.792085000000000150e+01 1.906610000000000014e+02 2.253599999999999909e+03
1.020000000000000073e-01 2.035635000000000083e-01 3.663694999999999879e+01 1.894314999999999998e+02 2.253309999999999945e+03
1.030000000000000082e-01 2.035219999999999807e-01 3.535665000000000191e+01 1.881834999999999809e+02 2.252989999999999782e+03
1.040000000000000091e-01 2.034799999999999942e-01 3.410074999999999790e+01 1.869619999999999891e+02 2.252659999999999854e+03
1.050000000000000100e-01 2.034385000000000221e-01 3.288689999999999714e+01 1.858050000000000068e+02 2.252335000000000036e+03
1.059999999999999970e-01 2.033989999999999965e-01 3.172894999999999754e+01 1.847400000000000091e+02 2.252024999999999636e+03
1.069999999999999979e-01 2.033625000000000016e-01 3.063670000000000115e+01 1.837855000000000132e+02 2.251730000000000018e+03
1.079999999999999988e-01 2.033289999999999820e-01 2.961550000000000082e+01 1.829470000000000027e+02 2.251465000000000146e+03
1.089999999999999997e-01 2.032994999999999941e-01 2.866635000000000133e+01 1.822219999999999800e+02 2.251224999999999909e+03
1.100000000000000006e-01 2.032730000000000092e-01 2.778569999999999851e+01 1.815949999999999989e+02 2.251010000000000218e+03
1.110000000000000014e-01 2.032499999999999862e-01 2.696614999999999895e+01 1.810439999999999827e+02 2.250824999999999818e+03
1.120000000000000023e-01 2.032285000000000064e-01 2.619684999999999775e+01 1.805369999999999777e+02 2.250644999999999982e+03
1.130000000000000032e-01 2.032079999999999997e-01 2.546415000000000006e+01 1.800375000000000227e+02 2.250484999999999673e+03
1.140000000000000041e-01 2.031875000000000209e-01 2.475274999999999892e+01 1.795054999999999836e+02 2.250315000000000055e+03
1.150000000000000050e-01 2.031649999999999845e-01 2.404664999999999964e+01 1.789010000000000105e+02 2.250140000000000327e+03
1.160000000000000059e-01 2.031399999999999872e-01 2.333010000000000161e+01 1.781850000000000023e+02 2.249940000000000055e+03
1.170000000000000068e-01 2.031100000000000128e-01 2.258899999999999864e+01 1.773234999999999957e+02 2.249710000000000036e+03
1.180000000000000077e-01 2.030755000000000199e-01 2.181119999999999948e+01 1.762909999999999968e+02 2.249434999999999945e+03
1.190000000000000085e-01 2.030345000000000066e-01 2.098805000000000121e+01 1.750699999999999932e+02 2.249114999999999782e+03
1.200000000000000094e-01 2.029870000000000008e-01 2.011449999999999960e+01 1.736525000000000034e+02 2.248744999999999891e+03
1.209999999999999964e-01 2.029325000000000156e-01 1.918945000000000078e+01 1.720439999999999827e+02 2.248324999999999818e+03
1.219999999999999973e-01 2.028714999999999824e-01 1.821645000000000181e+01 1.702590000000000146e+02 2.247855000000000018e+03
1.229999999999999982e-01 2.028044999999999987e-01 1.720264999999999844e+01 1.683229999999999791e+02 2.247329999999999927e+03
1.239999999999999991e-01 2.027329999999999965e-01 1.615915000000000035e+01 1.662699999999999818e+02 2.246775000000000091e+03
1.250000000000000000e-01 2.026574999999999904e-01 1.510004999999999953e+01 1.641430000000000007e+02 2.246185000000000400e+03
1.260000000000000009e-01 2.025794999999999957e-01 1.404150000000000098e+01 1.619869999999999948e+02 2.245579999999999927e+03
1.270000000000000018e-01 2.025009999999999866e-01 1.300094999999999956e+01 1.598505000000000109e+02 2.244965000000000146e+03
1.280000000000000027e-01 2.024230000000000196e-01 1.199594500000000075e+01 1.577800000000000011e+02 2.244359999999999673e+03
1.290000000000000036e-01 2.023475000000000135e-01 1.104321500000000000e+01 1.558199999999999932e+02 2.243775000000000091e+03
1.300000000000000044e-01 2.022769999999999846e-01 1.015784000000000020e+01 1.540070000000000050e+02 2.243220000000000255e+03
1.310000000000000053e-01 2.022114999999999885e-01 9.352115000000001288e+00 1.523714999999999975e+02 2.242699999999999818e+03
1.320000000000000062e-01 2.021515000000000117e-01 8.635500000000000398e+00 1.509345000000000141e+02 2.242230000000000018e+03
1.330000000000000071e-01 2.020990000000000009e-01 8.013730000000000686e+00 1.497069999999999936e+02 2.241815000000000055e+03
1.340000000000000080e-01 2.020540000000000114e-01 7.489139999999999908e+00 1.486915000000000191e+02 2.241449999999999818e+03
1.350000000000000089e-01 2.020155000000000145e-01 7.060494999999999521e+00 1.478795000000000073e+02 2.241150000000000091e+03
1.360000000000000098e-01 2.019849999999999979e-01 6.723385000000000389e+00 1.472584999999999980e+02 2.240900000000000091e+03
1.370000000000000107e-01 2.019604999999999873e-01 6.470659999999999634e+00 1.468054999999999950e+02 2.240699999999999818e+03
1.380000000000000115e-01 2.019420000000000104e-01 6.292955000000000076e+00 1.464954999999999927e+02 2.240550000000000182e+03
1.390000000000000124e-01 2.019285000000000108e-01 6.179285000000000139e+00 1.463000000000000114e+02 2.240440000000000055e+03
1.400000000000000133e-01 2.019195000000000018e-01 6.117659999999999876e+00 1.461904999999999859e+02 2.240355000000000018e+03
1.410000000000000142e-01 2.019124999999999948e-01 6.095634999999999692e+00 1.461354999999999791e+02 2.240300000000000182e+03
1.420000000000000151e-01 2.019080000000000041e-01 6.100900000000000212e+00 1.461084999999999923e+02 2.240260000000000218e+03
1.430000000000000160e-01 2.019044999999999868e-01 6.121694999999999887e+00 1.460835000000000150e+02 2.240230000000000018e+03
1.440000000000000169e-01 2.019015000000000115e-01 6.147225000000000605e+00 1.460380000000000109e+02 2.240199999999999818e+03
1.450000000000000178e-01 2.018969999999999931e-01 6.167984999999999829e+00 1.459540000000000077e+02 2.240164999999999964e+03
1.459999999999999909e-01 2.018915000000000015e-01 6.175974999999999326e+00 1.458160000000000025e+02 2.240125000000000000e+03
1.469999999999999918e-01 2.018844999999999945e-01 6.164855000000000196e+00 1.456150000000000091e+02 2.240069999999999709e+03
1.479999999999999927e-01 2.018754999999999855e-01 6.130049999999999777e+00 1.453435000000000059e+02 2.240000000000000000e+03
1.489999999999999936e-01 2.018645000000000023e-01 6.068749999999999645e+00 1.449995000000000118e+02 2.239909999999999854e+03
1.499999999999999944e-01 2.018510000000000026e-01 5.979815000000000325e+00 1.445850000000000080e+02 2.239809999999999945e+03
1.509999999999999953e-01 2.018345000000000000e-01 5.863715000000000011e+00 1.441039999999999850e+02 2.239690000000000055e+03
1.519999999999999962e-01 2.018165000000000098e-01 5.722279999999999589e+00 1.435640000000000214e+02 2.239545000000000073e+03
1.529999999999999971e-01 2.017960000000000031e-01 5.558500000000000441e+00 1.429750000000000227e+02 2.239394999999999982e+03
1.539999999999999980e-01 2.017744999999999955e-01 5.376244999999999941e+00 1.423469999999999800e+02 2.239219999999999800e+03
1.549999999999999989e-01 2.017510000000000137e-01 5.179954999999999643e+00 1.416929999999999836e+02 2.239045000000000073e+03
1.559999999999999998e-01 2.017269999999999897e-01 4.974330000000000140e+00 1.410229999999999961e+02 2.238860000000000127e+03
1.570000000000000007e-01 2.017029999999999934e-01 4.764020000000000366e+00 1.403495000000000061e+02 2.238670000000000073e+03
1.580000000000000016e-01 2.016779999999999962e-01 4.553370000000000140e+00 1.396814999999999998e+02 2.238480000000000018e+03
1.590000000000000024e-01 2.016534999999999855e-01 4.346205000000000318e+00 1.390260000000000105e+02 2.238289999999999964e+03
