# t [s], A [cm^2], U [cm/s], P [cPa], c [cm/s]
1.000000000000000021e-03 1.408320000000000127e-01 2.352529999999999899e-01 9.977230000000000132e+01 1.792715000000000146e+03
2.000000000000000042e-03 1.408129999999999937e-01 1.679664499999999894e+00 9.702164999999999395e+01 1.792525000000000091e+03
3.000000000000000062e-03 1.407289999999999930e-01 3.478856000000000392e+00 9.344774999999999920e+01 1.791744999999999891e+03
4.000000000000000083e-03 1.405965000000000131e-01 5.478096299999999808e+00 8.934709999999999752e+01 1.790539999999999964e+03
5.000000000000000104e-03 1.404385000000000217e-01 7.628465000000000273e+00 8.533825000000000216e+01 1.789125000000000000e+03
6.000000000000000125e-03 1.402734999999999954e-01 9.848885000000001000e+00 8.181159999999999854e+01 1.787655000000000200e+03
7.000000000000000146e-03 1.401114999999999999e-01 1.200932999999999851e+01 7.882689999999999486e+01 1.786224999999999909e+03
8.000000000000000167e-03 1.399564999999999837e-01 1.398579000000000150e+01 7.623509999999998854e+01 1.784880000000000109e+03
9.000000000000001055e-03 1.398115000000000052e-01 1.572577500000000050e+01 7.390794999999999959e+01 1.783634999999999991e+03
1.000000000000000194e-02 1.396795000000000120e-01 1.724050000000000082e+01 7.184064999999999657e+01 1.782514999999999873e+03
1.099999999999999936e-02 1.395620000000000194e-01 1.855260000000000176e+01 7.006940000000000168e+01 1.781530000000000200e+03
1.200000000000000025e-02 1.394595000000000140e-01 1.967439999999999856e+01 6.859444999999999482e+01 1.780684999999999945e+03
1.300000000000000114e-02 1.393725000000000103e-01 2.061394999999999911e+01 6.738434999999999775e+01 1.779969999999999800e+03
1.400000000000000203e-02 1.392999999999999794e-01 2.137819999999999965e+01 6.639414999999999623e+01 1.779380000000000109e+03
1.499999999999999944e-02 1.392390000000000017e-01 2.197210000000000107e+01 6.556745000000000800e+01 1.778884999999999991e+03
1.600000000000000033e-02 1.391874999999999918e-01 2.240780000000000172e+01 6.485269999999999868e+01 1.778480000000000018e+03
1.700000000000000122e-02 1.391439999999999899e-01 2.271959999999999980e+01 6.424334999999999241e+01 1.778144999999999982e+03
1.800000000000000211e-02 1.391094999999999970e-01 2.296945000000000192e+01 6.380904999999999916e+01 1.777880000000000109e+03
1.900000000000000300e-02 1.390870000000000162e-01 2.323349999999999937e+01 6.368269999999999698e+01 1.777715000000000146e+03
2.000000000000000042e-02 1.390790000000000082e-01 2.357685000000000031e+01 6.400355000000000416e+01 1.777664999999999964e+03
2.100000000000000130e-02 1.390899999999999914e-01 2.403025000000000233e+01 6.484784999999999400e+01 1.777764999999999873e+03
2.200000000000000219e-02 1.391189999999999927e-01 2.457965000000000089e+01 6.618319999999999936e+01 1.778014999999999873e+03
2.299999999999999961e-02 1.391640000000000099e-01 2.517215000000000202e+01 6.786514999999999986e+01 1.778389999999999873e+03
2.400000000000000050e-02 1.392194999999999960e-01 2.573365000000000080e+01 6.967300000000000182e+01 1.778865000000000009e+03
2.500000000000000139e-02 1.392795000000000005e-01 2.619069999999999965e+01 7.136750000000000682e+01 1.779369999999999891e+03
2.600000000000000228e-02 1.393359999999999876e-01 2.648874999999999957e+01 7.274824999999999875e+01 1.779865000000000009e+03
2.700000000000000316e-02 1.393844999999999945e-01 2.660340000000000060e+01 7.369585000000000719e+01 1.780279999999999973e+03
2.800000000000000058e-02 1.394215000000000038e-01 2.654180000000000206e+01 7.418704999999999927e+01 1.780610000000000127e+03
2.900000000000000147e-02 1.394455000000000000e-01 2.633565000000000111e+01 7.428454999999999586e+01 1.780829999999999927e+03
3.000000000000000236e-02 1.394595000000000140e-01 2.602890000000000015e+01 7.410575000000000045e+01 1.780965000000000146e+03
3.099999999999999978e-02 1.394650000000000056e-01 2.566469999999999985e+01 7.378319999999999368e+01 1.781019999999999982e+03
3.200000000000000067e-02 1.394655000000000200e-01 2.527454999999999785e+01 7.342804999999999893e+01 1.781034999999999854e+03
3.300000000000000155e-02 1.394630000000000036e-01 2.487310000000000088e+01 7.310614999999999952e+01 1.781019999999999982e+03
3.400000000000000244e-02 1.394589999999999996e-01 2.445884999999999820e+01 7.283119999999999550e+01 1.780994999999999891e+03
3.500000000000000333e-02 1.394539999999999946e-01 2.401859999999999928e+01 7.257325000000000159e+01 1.780954999999999927e+03
3.600000000000000422e-02 1.394469999999999876e-01 2.353589999999999804e+01 7.227889999999999304e+01 1.780904999999999973e+03
3.700000000000000511e-02 1.394374999999999920e-01 2.299860000000000326e+01 7.189480000000000359e+01 1.780819999999999936e+03
3.799999999999999906e-02 1.394239999999999924e-01 2.240554999999999808e+01 7.139000000000000057e+01 1.780715000000000146e+03
3.899999999999999994e-02 1.394060000000000021e-01 2.177004999999999768e+01 7.077035000000000764e+01 1.780575000000000045e+03
4.000000000000000083e-02 1.393849999999999811e-01 2.111925000000000097e+01 7.008265000000000100e+01 1.780400000000000091e+03
4.100000000000000172e-02 1.393619999999999859e-01 2.049060000000000059e+01 6.940800000000000125e+01 1.780215000000000146e+03
4.200000000000000261e-02 1.393404999999999783e-01 1.992484999999999928e+01 6.884629999999999939e+01 1.780029999999999973e+03
4.300000000000000350e-02 1.393230000000000024e-01 1.945915000000000106e+01 6.849594999999999345e+01 1.779884999999999991e+03
4.400000000000000439e-02 1.393119999999999914e-01 1.911979999999999791e+01 6.843325000000000102e+01 1.779789999999999964e+03
4.499999999999999833e-02 1.393110000000000182e-01 1.891779999999999973e+01 6.869669999999999277e+01 1.779769999999999982e+03
4.599999999999999922e-02 1.393194999999999850e-01 1.884685000000000343e+01 6.927889999999999304e+01 1.779835000000000036e+03
4.700000000000000011e-02 1.393385000000000040e-01 1.888470000000000226e+01 7.012685000000000457e+01 1.779985000000000127e+03
4.800000000000000100e-02 1.393655000000000033e-01 1.899665000000000248e+01 7.115099999999999625e+01 1.780204999999999927e+03
4.900000000000000189e-02 1.393984999999999808e-01 1.914079999999999870e+01 7.223829999999999529e+01 1.780470000000000027e+03
5.000000000000000278e-02 1.394334999999999880e-01 1.927340000000000231e+01 7.326894999999998959e+01 1.780760000000000218e+03
5.100000000000000366e-02 1.394674999999999943e-01 1.935405000000000086e+01 7.413169999999999504e+01 1.781039999999999964e+03
5.200000000000000455e-02 1.394964999999999955e-01 1.934945000000000093e+01 7.473580000000001178e+01 1.781289999999999964e+03
5.300000000000000544e-02 1.395175000000000165e-01 1.923590000000000089e+01 7.501935000000000286e+01 1.781470000000000027e+03
5.399999999999999939e-02 1.395290000000000141e-01 1.899980000000000047e+01 7.495140000000000668e+01 1.781570000000000164e+03
5.500000000000000028e-02 1.395295000000000007e-01 1.863700000000000045e+01 7.453069999999999595e+01 1.781575000000000045e+03
5.600000000000000117e-02 1.395180000000000031e-01 1.815165000000000006e+01 7.378029999999999688e+01 1.781485000000000127e+03
5.700000000000000205e-02 1.394954999999999945e-01 1.755364999999999753e+01 7.274070000000000391e+01 1.781300000000000182e+03
5.800000000000000294e-02 1.394620000000000026e-01 1.685715000000000074e+01 7.146280000000000143e+01 1.781029999999999973e+03
5.900000000000000383e-02 1.394195000000000018e-01 1.607854999999999990e+01 7.000130000000000052e+01 1.780674999999999955e+03
6.000000000000000472e-02 1.393694999999999795e-01 1.523529999999999873e+01 6.841014999999998736e+01 1.780264999999999873e+03
6.099999999999999867e-02 1.393139999999999934e-01 1.434564999999999912e+01 6.674020000000000152e+01 1.779799999999999955e+03
6.199999999999999956e-02 1.392545000000000033e-01 1.342815000000000047e+01 6.503804999999999836e+01 1.779305000000000064e+03
6.300000000000000044e-02 1.391919999999999824e-01 1.250179999999999936e+01 6.334725000000000250e+01 1.778780000000000200e+03
6.400000000000000133e-02 1.391290000000000027e-01 1.158652499999999996e+01 6.170915000000000106e+01 1.778255000000000109e+03
6.500000000000000222e-02 1.390665000000000096e-01 1.070334000000000074e+01 6.016485000000000127e+01 1.777735000000000127e+03
6.600000000000000311e-02 1.390065000000000051e-01 9.874299999999999855e+00 5.875645000000000095e+01 1.777235000000000127e+03
6.700000000000000400e-02 1.389515000000000056e-01 9.122325000000000017e+00 5.752724999999999511e+01 1.776764999999999873e+03
6.800000000000000488e-02 1.389015000000000111e-01 8.470695000000000974e+00 5.652155000000000484e+01 1.776344999999999800e+03
6.900000000000000577e-02 1.388594999999999968e-01 7.942244999999999777e+00 5.578345000000000198e+01 1.775985000000000127e+03
7.000000000000000666e-02 1.388269999999999782e-01 7.558429999999999538e+00 5.535474999999999568e+01 1.775710000000000036e+03
7.100000000000000755e-02 1.388050000000000117e-01 7.338359999999999772e+00 5.527289999999999992e+01 1.775519999999999982e+03
7.200000000000000844e-02 1.387960000000000027e-01 7.297800000000000509e+00 5.556860000000000355e+01 1.775429999999999836e+03
7.300000000000000933e-02 1.388004999999999933e-01 7.448344999999999771e+00 5.626370000000000005e+01 1.775460000000000036e+03
7.399999999999999634e-02 1.388199999999999990e-01 7.796850000000000058e+00 5.736970000000000169e+01 1.775605000000000018e+03
7.499999999999999722e-02 1.388540000000000052e-01 8.345040000000000902e+00 5.888694999999999879e+01 1.775875000000000000e+03
7.599999999999999811e-02 1.389039999999999997e-01 9.089484999999999815e+00 6.080429999999999779e+01 1.776279999999999973e+03
7.699999999999999900e-02 1.389684999999999948e-01 1.002189000000000085e+01 6.309999999999999432e+01 1.776815000000000055e+03
7.799999999999999989e-02 1.390485000000000193e-01 1.112944500000000048e+01 6.574264999999999759e+01 1.777465000000000146e+03
7.900000000000000078e-02 1.391415000000000013e-01 1.239558999999999855e+01 6.869325000000000614e+01 1.778235000000000127e+03
8.000000000000000167e-02 1.392470000000000097e-01 1.380075000000000074e+01 7.190709999999999980e+01 1.779105000000000018e+03
8.100000000000000255e-02 1.393639999999999879e-01 1.532329999999999970e+01 7.533615000000000350e+01 1.780079999999999927e+03
8.200000000000000344e-02 1.394900000000000029e-01 1.694040000000000035e+01 7.893110000000000070e+01 1.781130000000000109e+03
8.300000000000000433e-02 1.396239999999999981e-01 1.862910000000000110e+01 8.264400000000000546e+01 1.782244999999999891e+03
8.400000000000000522e-02 1.397634999999999850e-01 2.036690000000000111e+01 8.642990000000000350e+01 1.783420000000000073e+03
8.500000000000000611e-02 1.399074999999999902e-01 2.213264999999999816e+01 9.024840000000000373e+01 1.784634999999999991e+03
8.600000000000000699e-02 1.400544999999999984e-01 2.390729999999999933e+01 9.406515000000000271e+01 1.785869999999999891e+03
8.700000000000000788e-02 1.402025000000000077e-01 2.567415000000000092e+01 9.785335000000000605e+01 1.787125000000000000e+03
8.800000000000000877e-02 1.403514999999999902e-01 2.741915000000000191e+01 1.015912000000000006e+02 1.788389999999999873e+03
8.899999999999999578e-02 1.404994999999999994e-01 2.913114999999999810e+01 1.052662499999999994e+02 1.789650000000000091e+03
8.999999999999999667e-02 1.406470000000000220e-01 3.080170000000000030e+01 1.088714999999999975e+02 1.790900000000000091e+03
9.099999999999999756e-02 1.407924999999999871e-01 3.242484999999999928e+01 1.124050000000000011e+02 1.792144999999999982e+03
9.199999999999999845e-02 1.409365000000000201e-01 3.399699999999999989e+01 1.158689999999999998e+02 1.793369999999999891e+03
9.299999999999999933e-02 1.410779999999999812e-01 3.551610000000000156e+01 1.192700000000000102e+02 1.794585000000000036e+03
9.400000000000000022e-02 1.412174999999999958e-01 3.698144999999999527e+01 1.226150000000000091e+02 1.795784999999999854e+03
9.500000000000000111e-02 1.413554999999999950e-01 3.839334999999999809e+01 1.259110000000000014e+02 1.796974999999999909e+03
9.600000000000000200e-02 1.414924999999999933e-01 3.975225000000000364e+01 1.291650000000000205e+02 1.798150000000000091e+03
9.700000000000000289e-02 1.416274999999999895e-01 4.105875000000000341e+01 1.323815000000000168e+02 1.799315000000000055e+03
9.800000000000000377e-02 1.417609999999999981e-01 4.231305000000000405e+01 1.355620000000000118e+02 1.800470000000000027e+03
9.900000000000000466e-02 1.418935000000000057e-01 4.351474999999999937e+01 1.387069999999999936e+02 1.801615000000000009e+03
1.000000000000000056e-01 1.420244999999999980e-01 4.466280000000000427e+01 1.418109999999999786e+02 1.802744999999999891e+03
1.010000000000000064e-01 1.421534999999999882e-01 4.575539999999999452e+01 1.448679999999999950e+02 1.803869999999999891e+03
1.020000000000000073e-01 1.422809999999999908e-01 4.678999999999999915e+01 1.478695000000000164e+02 1.804974999999999909e+03
1.030000000000000082e-01 1.424064999999999914e-01 4.776324999999999932e+01 1.508020000000000209e+02 1.806065000000000055e+03
1.040000000000000091e-01 1.425295000000000034e-01 4.867125000000000057e+01 1.536539999999999964e+02 1.807130000000000109e+03
1.050000000000000100e-01 1.426485000000000114e-01 4.950974999999999682e+01 1.564094999999999800e+02 1.808170000000000073e+03
1.059999999999999970e-01 1.427650000000000030e-01 5.027400000000000091e+01 1.590540000000000020e+02 1.809184999999999945e+03
1.069999999999999979e-01 1.428770000000000040e-01 5.095935000000000059e+01 1.615724999999999909e+02 1.810164999999999964e+03
1.079999999999999988e-01 1.429840000000000000e-01 5.156105000000000160e+01 1.639499999999999886e+02 1.811099999999999909e+03
1.089999999999999997e-01 1.430859999999999910e-01 5.207469999999999999e+01 1.661725000000000136e+02 1.811994999999999891e+03
1.100000000000000006e-01 1.431820000000000037e-01 5.249620000000000175e+01 1.682280000000000086e+02 1.812835000000000036e+03
1.110000000000000014e-01 1.432720000000000105e-01 5.282214999999999350e+01 1.701049999999999898e+02 1.813625000000000000e+03
1.120000000000000023e-01 1.433550000000000102e-01 5.304984999999999928e+01 1.717950000000000159e+02 1.814355000000000018e+03
1.130000000000000032e-01 1.434305000000000163e-01 5.317745000000000033e+01 1.732899999999999920e+02 1.815025000000000091e+03
1.140000000000000041e-01 1.434995000000000021e-01 5.320409999999999684e+01 1.745865000000000009e+02 1.815630000000000109e+03
1.150000000000000050e-01 1.435600000000000209e-01 5.313015000000000043e+01 1.756835000000000093e+02 1.816170000000000073e+03
1.160000000000000059e-01 1.436129999999999907e-01 5.295720000000000027e+01 1.765809999999999889e+02 1.816639999999999873e+03
1.170000000000000068e-01 1.436580000000000079e-01 5.268819999999999482e+01 1.772835000000000036e+02 1.817045000000000073e+03
1.180000000000000077e-01 1.436954999999999760e-01 5.232715000000000316e+01 1.777969999999999970e+02 1.817384999999999991e+03
1.190000000000000085e-01 1.437255000000000060e-01 5.187955000000000183e+01 1.781320000000000050e+02 1.817650000000000091e+03
1.200000000000000094e-01 1.437479999999999869e-01 5.135179999999999723e+01 1.783000000000000114e+02 1.817860000000000127e+03
1.209999999999999964e-01 1.437640000000000029e-01 5.075159999999999627e+01 1.783154999999999859e+02 1.818005000000000109e+03
1.219999999999999973e-01 1.437734999999999985e-01 5.008724999999999739e+01 1.781935000000000002e+02 1.818099999999999909e+03
1.229999999999999982e-01 1.437775000000000025e-01 4.936775000000000091e+01 1.779524999999999864e+02 1.818139999999999873e+03
1.239999999999999991e-01 1.437760000000000149e-01 4.860250000000000625e+01 1.776095000000000255e+02 1.818134999999999991e+03
1.250000000000000000e-01 1.437700000000000089e-01 4.780095000000000027e+01 1.771820000000000164e+02 1.818090000000000146e+03
1.260000000000000009e-01 1.437599999999999989e-01 4.697235000000000582e+01 1.766884999999999764e+02 1.818009999999999991e+03
1.270000000000000018e-01 1.437464999999999993e-01 4.612569999999999482e+01 1.761444999999999936e+02 1.817894999999999982e+03
1.280000000000000027e-01 1.437305000000000110e-01 4.526914999999999623e+01 1.755645000000000095e+02 1.817765000000000100e+03
1.290000000000000036e-01 1.437124999999999930e-01 4.441025000000000489e+01 1.749619999999999891e+02 1.817610000000000127e+03
1.300000000000000044e-01 1.436930000000000152e-01 4.355539999999999878e+01 1.743469999999999800e+02 1.817434999999999945e+03
1.310000000000000053e-01 1.436719999999999942e-01 4.270994999999999919e+01 1.737284999999999968e+02 1.817255000000000109e+03
1.320000000000000062e-01 1.436505000000000143e-01 4.187810000000000343e+01 1.731129999999999995e+02 1.817069999999999936e+03
1.330000000000000071e-01 1.436284999999999923e-01 4.106284999999999741e+01 1.725024999999999977e+02 1.816875000000000000e+03
1.340000000000000080e-01 1.436060000000000114e-01 4.026600000000000534e+01 1.718990000000000009e+02 1.816679999999999836e+03
1.350000000000000089e-01 1.435830000000000162e-01 3.948824999999999363e+01 1.713004999999999995e+02 1.816480000000000018e+03
1.360000000000000098e-01 1.435604999999999798e-01 3.872934999999999661e+01 1.707055000000000007e+02 1.816280000000000200e+03
1.370000000000000107e-01 1.435374999999999845e-01 3.798789999999999623e+01 1.701090000000000089e+02 1.816075000000000045e+03
1.380000000000000115e-01 1.435135000000000161e-01 3.726189999999999714e+01 1.695054999999999836e+02 1.815865000000000009e+03
1.390000000000000124e-01 1.434900000000000064e-01 3.654879999999999995e+01 1.688874999999999886e+02 1.815654999999999973e+03
1.400000000000000133e-01 1.434650000000000092e-01 3.584550000000000125e+01 1.682485000000000070e+02 1.815440000000000055e+03
1.410000000000000142e-01 1.434394999999999976e-01 3.514849999999999852e+01 1.675815000000000055e+02 1.815220000000000027e+03
1.420000000000000151e-01 1.434130000000000127e-01 3.445450000000000301e+01 1.668799999999999955e+02 1.814985000000000127e+03
1.430000000000000160e-01 1.433844999999999981e-01 3.375994999999999635e+01 1.661354999999999791e+02 1.814740000000000009e+03
1.440000000000000169e-01 1.433550000000000102e-01 3.306170000000000186e+01 1.653435000000000059e+02 1.814480000000000018e+03
1.450000000000000178e-01 1.433234999999999926e-01 3.235689999999999600e+01 1.644989999999999952e+02 1.814204999999999927e+03
1.459999999999999909e-01 1.432904999999999873e-01 3.164320000000000022e+01 1.635985000000000014e+02 1.813909999999999854e+03
1.469999999999999918e-01 1.432545000000000068e-01 3.091875000000000284e+01 1.626399999999999864e+02 1.813599999999999909e+03
1.479999999999999927e-01 1.432169999999999832e-01 3.018240000000000123e+01 1.616225000000000023e+02 1.813275000000000091e+03
1.489999999999999936e-01 1.431775000000000131e-01 2.943384999999999962e+01 1.605484999999999900e+02 1.812929999999999836e+03
1.499999999999999944e-01 1.431350000000000122e-01 2.867340000000000089e+01 1.594184999999999945e+02 1.812559999999999945e+03
1.509999999999999953e-01 1.430905000000000094e-01 2.790225000000000222e+01 1.582390000000000043e+02 1.812174999999999955e+03
1.519999999999999962e-01 1.430440000000000045e-01 2.712229999999999919e+01 1.570144999999999982e+02 1.811769999999999982e+03
1.529999999999999971e-01 1.429960000000000120e-01 2.633614999999999995e+01 1.557529999999999859e+02 1.811360000000000127e+03
1.539999999999999980e-01 1.429469999999999907e-01 2.554720000000000013e+01 1.544635000000000105e+02 1.810929999999999836e+03
1.549999999999999989e-01 1.428959999999999952e-01 2.475934999999999775e+01 1.531549999999999727e+02 1.810484999999999900e+03
1.559999999999999998e-01 1.428439999999999988e-01 2.397695000000000221e+01 1.518379999999999939e+02 1.810035000000000082e+03
1.570000000000000007e-01 1.427920000000000023e-01 2.320469999999999899e+01 1.505235000000000127e+02 1.809585000000000036e+03
1.580000000000000016e-01 1.427390000000000048e-01 2.244749999999999801e+01 1.492235000000000014e+02 1.809125000000000000e+03
1.590000000000000024e-01 1.426870000000000083e-01 2.171039999999999992e+01 1.479484999999999957e+02 1.808679999999999836e+03
