# t [s], A [cm^2], U [cm/s], P [cPa], c [cm/s]
1.000000000000000021e-03 5.761899999999999800e-01 3.397299999999998932e-03 1.014784999999999968e+02 1.586599999999999909e+03
2.000000000000000042e-03 5.761849999999999472e-01 8.008349999999999150e-03 1.014575000000000102e+02 1.586595000000000027e+03
3.000000000000000062e-03 5.762519999999999865e-01 1.394851500000000022e-01 1.015955000000000013e+02 1.586630000000000109e+03
4.000000000000000083e-03 5.762845000000000883e-01 2.164540000000000075e-01 1.016875000000000000e+02 1.586660000000000082e+03
5.000000000000000104e-03 5.762365000000000403e-01 1.430825000000000014e-01 1.015474999999999994e+02 1.586625000000000000e+03
6.000000000000000125e-03 5.761665000000000258e-01 1.741800000000004456e-02 1.012475000000000023e+02 1.586559999999999945e+03
7.000000000000000146e-03 5.760870000000000157e-01 -1.365300000000000402e-01 1.008325000000000102e+02 1.586465000000000146e+03
8.000000000000000167e-03 5.759469999999999867e-01 -4.232299999999999951e-01 1.001752500000000055e+02 1.586309999999999945e+03
9.000000000000001055e-03 5.757324999999999804e-01 -8.661150000000000793e-01 9.919769999999999754e+01 1.586085000000000036e+03
1.000000000000000194e-02 5.754405000000000214e-01 -1.459594999999999754e+00 9.785705000000000098e+01 1.585775000000000091e+03
1.099999999999999936e-02 5.750484999999999625e-01 -2.223620000000000374e+00 9.608285000000000764e+01 1.585345000000000027e+03
1.200000000000000025e-02 5.745599999999999596e-01 -3.126900000000000013e+00 9.386214999999999975e+01 1.584799999999999955e+03
1.300000000000000114e-02 5.740300000000000402e-01 -4.027879999999999683e+00 9.134080000000000155e+01 1.584159999999999854e+03
1.400000000000000203e-02 5.735399999999999388e-01 -4.724859999999999616e+00 8.879654999999999632e+01 1.583490000000000009e+03
1.499999999999999944e-02 5.731534999999999824e-01 -5.058160499999999615e+00 8.651054999999999495e+01 1.582849999999999909e+03
1.600000000000000033e-02 5.728839999999999488e-01 -4.975419000000000480e+00 8.465004999999999313e+01 1.582289999999999964e+03
1.700000000000000122e-02 5.727020000000000444e-01 -4.534684999999999633e+00 8.322239999999999327e+01 1.581825000000000045e+03
1.800000000000000211e-02 5.725519999999999499e-01 -3.865005000000000024e+00 8.209819999999999141e+01 1.581420000000000073e+03
1.900000000000000300e-02 5.723770000000000246e-01 -3.111228999999999800e+00 8.107760000000000389e+01 1.581045000000000073e+03
2.000000000000000042e-02 5.721395000000000231e-01 -2.383035999999999710e+00 7.997060000000000457e+01 1.580659999999999854e+03
2.100000000000000130e-02 5.718305000000000193e-01 -1.725225000000000009e+00 7.866145000000000209e+01 1.580239999999999782e+03
2.200000000000000219e-02 5.714679999999999760e-01 -1.119815000000000005e+00 7.713365000000000293e+01 1.579769999999999982e+03
2.299999999999999961e-02 5.710809999999999498e-01 -5.155899999999999928e-01 7.544825000000000159e+01 1.579264999999999873e+03
2.400000000000000050e-02 5.706955000000000222e-01 1.325349999999998474e-01 7.369400000000000261e+01 1.578740000000000009e+03
2.500000000000000139e-02 5.703225000000000655e-01 8.332150000000000389e-01 7.193519999999999470e+01 1.578204999999999927e+03
2.600000000000000228e-02 5.699505000000000265e-01 1.546980000000000022e+00 7.017795000000000982e+01 1.577664999999999964e+03
2.700000000000000316e-02 5.695540000000000047e-01 2.192935000000000301e+00 6.836185000000000400e+01 1.577110000000000127e+03
2.800000000000000058e-02 5.690994999999999804e-01 2.668655000000000221e+00 6.637519999999999243e+01 1.576514999999999873e+03
2.900000000000000147e-02 5.685554999999999914e-01 2.876300000000000079e+00 6.408740000000000236e+01 1.575849999999999909e+03
3.000000000000000236e-02 5.679015000000000590e-01 2.748350000000000293e+00 6.138859999999999673e+01 1.575094999999999800e+03
3.099999999999999978e-02 5.671360000000000845e-01 2.266049999999999898e+00 5.822655000000000314e+01 1.574230000000000018e+03
3.200000000000000067e-02 5.662795000000000467e-01 1.465950000000000308e+00 5.462954999999999472e+01 1.573259999999999991e+03
3.300000000000000155e-02 5.653684999999999405e-01 4.325499999999999901e-01 5.070955000000000013e+01 1.572204999999999927e+03
3.400000000000000244e-02 5.644525000000000237e-01 -7.189499999999995339e-01 4.664544999999999675e+01 1.571105000000000018e+03
3.500000000000000333e-02 5.635805000000000398e-01 -1.864144999999999719e+00 4.265429999999999922e+01 1.570005000000000109e+03
3.600000000000000422e-02 5.627990000000000492e-01 -2.888375000000000359e+00 3.895799999999999841e+01 1.568960000000000036e+03
3.700000000000000511e-02 5.621439999999999770e-01 -3.700064999999999937e+00 3.575500000000000256e+01 1.568019999999999982e+03
3.799999999999999906e-02 5.616395000000000692e-01 -4.236444999999999794e+00 3.319980000000000331e+01 1.567235000000000127e+03
3.899999999999999994e-02 5.612975000000000048e-01 -4.463121254999999898e+00 3.139329999999999643e+01 1.566630000000000109e+03
4.000000000000000083e-02 5.611214999999999398e-01 -4.369159999999999933e+00 3.038260000000000005e+01 1.566230000000000018e+03
4.100000000000000172e-02 5.611049999999999649e-01 -3.960014999999999841e+00 3.016850000000000165e+01 1.566039999999999964e+03
4.200000000000000261e-02 5.612399999999999611e-01 -3.250290000000000123e+00 3.071724999999999994e+01 1.566055000000000064e+03
4.300000000000000350e-02 5.615145000000000275e-01 -2.258420000000000094e+00 3.197299999999999898e+01 1.566280000000000200e+03
4.400000000000000439e-02 5.619155000000000122e-01 -1.003984999999999683e+00 3.386825000000000330e+01 1.566679999999999836e+03
4.499999999999999833e-02 5.624289999999999567e-01 4.922649999999997306e-01 3.633030000000000115e+01 1.567250000000000000e+03
4.599999999999999922e-02 5.630425000000000013e-01 2.206519999999999815e+00 3.928385000000000105e+01 1.567970000000000027e+03
4.700000000000000011e-02 5.637389999999999901e-01 4.109510000000000218e+00 4.265064999999999884e+01 1.568815000000000055e+03
4.800000000000000100e-02 5.645025000000000182e-01 6.164914999999999701e+00 4.634819999999999851e+01 1.569764999999999873e+03
4.900000000000000189e-02 5.653135000000000243e-01 8.329110000000000014e+00 5.028914999999999935e+01 1.570800000000000182e+03
5.000000000000000278e-02 5.661519999999999886e-01 1.055296300000000009e+01 5.438224999999999909e+01 1.571894999999999982e+03
5.100000000000000366e-02 5.669984999999999609e-01 1.278441999999999901e+01 5.853509999999999991e+01 1.573025000000000091e+03
5.200000000000000455e-02 5.678334999999999910e-01 1.497254000000000040e+01 6.265859999999999985e+01 1.574170000000000073e+03
5.300000000000000544e-02 5.686415000000000219e-01 1.707108500000000006e+01 6.667234999999999445e+01 1.575300000000000182e+03
5.399999999999999939e-02 5.694105000000000416e-01 1.904169999999999874e+01 7.050909999999998945e+01 1.576400000000000091e+03
5.500000000000000028e-02 5.701304999999999845e-01 2.085575000000000045e+01 7.411910000000000309e+01 1.577454999999999927e+03
5.600000000000000117e-02 5.707990000000000563e-01 2.249579999999999913e+01 7.747220000000000084e+01 1.578449999999999818e+03
5.700000000000000205e-02 5.714139999999999775e-01 2.395485000000000042e+01 8.055815000000001191e+01 1.579389999999999873e+03
5.800000000000000294e-02 5.719805000000000028e-01 2.523564999999999969e+01 8.338544999999999163e+01 1.580255000000000109e+03
5.900000000000000383e-02 5.725055000000000005e-01 2.634900000000000020e+01 8.597870000000000346e+01 1.581070000000000164e+03
6.000000000000000472e-02 5.729954999999999909e-01 2.731195000000000306e+01 8.837489999999999668e+01 1.581825000000000045e+03
6.099999999999999867e-02 5.734614999999999574e-01 2.814569999999999794e+01 9.061995000000000289e+01 1.582534999999999854e+03
6.199999999999999956e-02 5.739144999999999941e-01 2.887454999999999927e+01 9.276439999999999486e+01 1.583214999999999918e+03
6.300000000000000044e-02 5.743629999999999569e-01 2.952390000000000114e+01 9.486024999999999352e+01 1.583875000000000000e+03
6.400000000000000133e-02 5.748174999999999812e-01 3.011929999999999907e+01 9.695785000000000764e+01 1.584529999999999973e+03
6.500000000000000222e-02 5.752874999999999517e-01 3.068469999999999942e+01 9.910224999999999795e+01 1.585190000000000055e+03
6.600000000000000311e-02 5.757780000000000120e-01 3.124155000000000015e+01 1.013316000000000088e+02 1.585875000000000000e+03
6.700000000000000400e-02 5.762964999999999893e-01 3.180740000000000123e+01 1.036749999999999972e+02 1.586574999999999818e+03
6.800000000000000488e-02 5.768429999999999946e-01 3.239450000000000074e+01 1.061490000000000009e+02 1.587309999999999945e+03
6.900000000000000577e-02 5.774194999999999744e-01 3.300929999999999609e+01 1.087580000000000098e+02 1.588079999999999927e+03
7.000000000000000666e-02 5.780210000000000070e-01 3.365155000000000030e+01 1.114935000000000116e+02 1.588875000000000000e+03
7.100000000000000755e-02 5.786424999999999486e-01 3.431465000000000032e+01 1.143315000000000055e+02 1.589704999999999927e+03
7.200000000000000844e-02 5.792770000000000419e-01 3.498604999999999876e+01 1.172390000000000043e+02 1.590559999999999945e+03
7.300000000000000933e-02 5.799125000000000529e-01 3.564835000000000065e+01 1.201709999999999923e+02 1.591414999999999964e+03
7.399999999999999634e-02 5.805379999999999985e-01 3.628054999999999808e+01 1.230755000000000052e+02 1.592275000000000091e+03
7.499999999999999722e-02 5.811435000000000350e-01 3.686010000000000275e+01 1.258990000000000009e+02 1.593115000000000009e+03
7.599999999999999811e-02 5.817164999999999697e-01 3.736390000000000100e+01 1.285854999999999961e+02 1.593920000000000073e+03
7.699999999999999900e-02 5.822469999999999590e-01 3.777039999999999509e+01 1.310835000000000150e+02 1.594684999999999945e+03
7.799999999999999989e-02 5.827255000000000074e-01 3.806074999999999875e+01 1.333464999999999918e+02 1.595390000000000100e+03
7.900000000000000078e-02 5.831450000000000244e-01 3.821989999999999554e+01 1.353369999999999891e+02 1.596019999999999982e+03
8.000000000000000167e-02 5.835015000000000063e-01 3.823734999999999928e+01 1.370289999999999964e+02 1.596570000000000164e+03
8.100000000000000255e-02 5.837924999999999365e-01 3.810770000000000124e+01 1.384069999999999823e+02 1.597045000000000073e+03
8.200000000000000344e-02 5.840170000000000083e-01 3.783070000000000022e+01 1.394664999999999964e+02 1.597420000000000073e+03
8.300000000000000433e-02 5.841785000000000450e-01 3.741115000000000634e+01 1.402150000000000034e+02 1.597715000000000146e+03
8.400000000000000522e-02 5.842800000000000216e-01 3.685849999999999937e+01 1.406705000000000041e+02 1.597920000000000073e+03
8.500000000000000611e-02 5.843279999999999585e-01 3.618650000000000233e+01 1.408600000000000136e+02 1.598050000000000182e+03
8.600000000000000699e-02 5.843304999999999749e-01 3.541214999999999691e+01 1.408170000000000073e+02 1.598110000000000127e+03
8.700000000000000788e-02 5.842939999999999801e-01 3.455519999999999925e+01 1.405805000000000007e+02 1.598099999999999909e+03
8.800000000000000877e-02 5.842289999999999983e-01 3.363694999999999879e+01 1.401945000000000050e+02 1.598049999999999955e+03
8.899999999999999578e-02 5.841434999999999267e-01 3.267949999999999733e+01 1.397024999999999864e+02 1.597954999999999927e+03
8.999999999999999667e-02 5.840465000000000240e-01 3.170479999999999876e+01 1.391474999999999795e+02 1.597835000000000036e+03
9.099999999999999756e-02 5.839460000000000761e-01 3.073359999999999914e+01 1.385689999999999884e+02 1.597704999999999927e+03
9.199999999999999845e-02 5.838495000000000212e-01 2.978460000000000107e+01 1.380049999999999955e+02 1.597559999999999945e+03
9.299999999999999933e-02 5.837620000000000031e-01 2.887389999999999901e+01 1.374844999999999970e+02 1.597424999999999955e+03
9.400000000000000022e-02 5.836890000000000134e-01 2.801415000000000077e+01 1.370330000000000155e+02 1.597299999999999955e+03
9.500000000000000111e-02 5.836324999999999985e-01 2.721439999999999770e+01 1.366650000000000205e+02 1.597190000000000055e+03
9.600000000000000200e-02 5.835945000000000160e-01 2.647970000000000113e+01 1.363894999999999982e+02 1.597105000000000018e+03
9.700000000000000289e-02 5.835734999999999673e-01 2.581135000000000090e+01 1.362079999999999984e+02 1.597039999999999964e+03
9.800000000000000377e-02 5.835694999999999633e-01 2.520655000000000001e+01 1.361144999999999925e+02 1.597000000000000000e+03
9.900000000000000466e-02 5.835780000000000411e-01 2.465960000000000107e+01 1.360960000000000036e+02 1.596980000000000018e+03
1.000000000000000056e-01 5.835960000000000036e-01 2.416149999999999665e+01 1.361349999999999909e+02 1.596970000000000027e+03
1.010000000000000064e-01 5.836189999999999989e-01 2.370129999999999981e+01 1.362080000000000268e+02 1.596974999999999909e+03
1.020000000000000073e-01 5.836399999999999366e-01 2.326634999999999920e+01 1.362914999999999850e+02 1.596985000000000127e+03
1.030000000000000082e-01 5.836559999999999526e-01 2.284319999999999951e+01 1.363584999999999923e+02 1.596994999999999891e+03
1.040000000000000091e-01 5.836599999999999566e-01 2.241829999999999856e+01 1.363834999999999980e+02 1.596994999999999891e+03
1.050000000000000100e-01 5.836489999999999734e-01 2.197889999999999944e+01 1.363425000000000011e+02 1.596980000000000018e+03
1.059999999999999970e-01 5.836170000000000524e-01 2.151334999999999908e+01 1.362139999999999986e+02 1.596945000000000164e+03
1.069999999999999979e-01 5.835614999999999553e-01 2.101205000000000211e+01 1.359805000000000064e+02 1.596884999999999991e+03
1.079999999999999988e-01 5.834810000000000274e-01 2.046779999999999688e+01 1.356295000000000073e+02 1.596795000000000073e+03
1.089999999999999997e-01 5.833739999999999482e-01 1.987620000000000076e+01 1.351544999999999845e+02 1.596670000000000073e+03
1.100000000000000006e-01 5.832405000000000506e-01 1.923570000000000135e+01 1.345540000000000020e+02 1.596515000000000100e+03
1.110000000000000014e-01 5.830819999999999892e-01 1.854795000000000016e+01 1.338325000000000102e+02 1.596324999999999818e+03
1.120000000000000023e-01 5.829020000000000312e-01 1.781765000000000043e+01 1.330015000000000214e+02 1.596099999999999909e+03
1.130000000000000032e-01 5.827035000000000409e-01 1.705209999999999937e+01 1.320765000000000100e+02 1.595849999999999909e+03
1.140000000000000041e-01 5.824905000000000221e-01 1.626115000000000066e+01 1.310765000000000100e+02 1.595579999999999927e+03
1.150000000000000050e-01 5.822690000000000365e-01 1.545664999999999978e+01 1.300275000000000034e+02 1.595289999999999964e+03
1.160000000000000059e-01 5.820449999999999235e-01 1.465172499999999900e+01 1.289544999999999959e+02 1.594990000000000009e+03
1.170000000000000068e-01 5.818235000000000490e-01 1.386056499999999936e+01 1.278855000000000075e+02 1.594684999999999945e+03
1.180000000000000077e-01 5.816105000000000302e-01 1.309724499999999914e+01 1.268485000000000014e+02 1.594384999999999991e+03
1.190000000000000085e-01 5.814110000000000111e-01 1.237551999999999808e+01 1.258694999999999879e+02 1.594099999999999909e+03
1.200000000000000094e-01 5.812295000000000655e-01 1.170793000000000106e+01 1.249724999999999966e+02 1.593835000000000036e+03
1.209999999999999964e-01 5.810714999999999630e-01 1.110525999999999947e+01 1.241779999999999973e+02 1.593585000000000036e+03
1.219999999999999973e-01 5.809385000000000243e-01 1.057618000000000080e+01 1.235030000000000001e+02 1.593375000000000000e+03
1.229999999999999982e-01 5.808335000000000026e-01 1.012684499999999943e+01 1.229585000000000008e+02 1.593195000000000164e+03
1.239999999999999991e-01 5.807565000000000088e-01 9.760730000000000572e+00 1.225490000000000066e+02 1.593045000000000073e+03
1.250000000000000000e-01 5.807074999999999321e-01 9.478445000000000675e+00 1.222780000000000058e+02 1.592940000000000055e+03
1.260000000000000009e-01 5.806854999999999656e-01 9.277889999999999304e+00 1.221384999999999934e+02 1.592869999999999891e+03
1.270000000000000018e-01 5.806875000000000231e-01 9.154609999999999914e+00 1.221219999999999999e+02 1.592835000000000036e+03
1.280000000000000027e-01 5.807115000000000471e-01 9.101765000000000327e+00 1.222160000000000082e+02 1.592829999999999927e+03
1.290000000000000036e-01 5.807535000000000336e-01 9.110924999999999940e+00 1.224029999999999916e+02 1.592855000000000018e+03
1.300000000000000044e-01 5.808094999999999786e-01 9.172174999999999301e+00 1.226655000000000086e+02 1.592904999999999973e+03
1.310000000000000053e-01 5.808754999999999891e-01 9.274810000000000443e+00 1.229825000000000017e+02 1.592970000000000027e+03
1.320000000000000062e-01 5.809465000000000323e-01 9.407709999999999795e+00 1.233344999999999914e+02 1.593049999999999955e+03
1.330000000000000071e-01 5.810195000000000221e-01 9.559840000000001226e+00 1.237015000000000100e+02 1.593134999999999991e+03
1.340000000000000080e-01 5.810910000000000242e-01 9.720569999999998601e+00 1.240655000000000001e+02 1.593230000000000018e+03
1.350000000000000089e-01 5.811569999999999236e-01 9.880195000000000505e+00 1.244099999999999966e+02 1.593320000000000164e+03
1.360000000000000098e-01 5.812159999999999549e-01 1.003005500000000083e+01 1.247220000000000084e+02 1.593404999999999973e+03
1.370000000000000107e-01 5.812644999999999618e-01 1.016295500000000018e+01 1.249890000000000043e+02 1.593480000000000018e+03
1.380000000000000115e-01 5.813034999999999730e-01 1.027314499999999953e+01 1.252049999999999983e+02 1.593539999999999964e+03
1.390000000000000124e-01 5.813295000000000545e-01 1.035643500000000117e+01 1.253640000000000043e+02 1.593590000000000146e+03
1.400000000000000133e-01 5.813439999999999719e-01 1.041029499999999963e+01 1.254645000000000010e+02 1.593630000000000109e+03
1.410000000000000142e-01 5.813475000000000170e-01 1.043374999999999986e+01 1.255084999999999980e+02 1.593644999999999982e+03
1.420000000000000151e-01 5.813405000000000378e-01 1.042720500000000072e+01 1.254994999999999976e+02 1.593659999999999854e+03
1.430000000000000160e-01 5.813245000000000218e-01 1.039258500000000041e+01 1.254424999999999955e+02 1.593650000000000091e+03
1.440000000000000169e-01 5.813004999999999978e-01 1.033265000000000100e+01 1.253449999999999989e+02 1.593634999999999991e+03
1.450000000000000178e-01 5.812709999999999821e-01 1.025126000000000026e+01 1.252164999999999964e+02 1.593605000000000018e+03
1.459999999999999909e-01 5.812384999999999913e-01 1.015296999999999983e+01 1.250655000000000001e+02 1.593570000000000164e+03
1.469999999999999918e-01 5.812039999999999429e-01 1.004255000000000031e+01 1.249020000000000010e+02 1.593530000000000200e+03
1.479999999999999927e-01 5.811699999999999644e-01 9.925164999999999793e+00 1.247355000000000018e+02 1.593490000000000009e+03
1.489999999999999936e-01 5.811374999999999735e-01 9.805740000000000123e+00 1.245734999999999957e+02 1.593449999999999818e+03
1.499999999999999944e-01 5.811089999999999867e-01 9.689030000000000697e+00 1.244260000000000019e+02 1.593409999999999854e+03
1.509999999999999953e-01 5.810845000000000038e-01 9.579190000000000538e+00 1.242980000000000018e+02 1.593375000000000000e+03
1.519999999999999962e-01 5.810665000000000413e-01 9.479760000000000630e+00 1.241959999999999980e+02 1.593349999999999909e+03
1.529999999999999971e-01 5.810539999999999594e-01 9.393470000000000653e+00 1.241214999999999975e+02 1.593320000000000164e+03
1.539999999999999980e-01 5.810480000000000089e-01 9.322189999999999088e+00 1.240775000000000006e+02 1.593309999999999945e+03
1.549999999999999989e-01 5.810490000000000377e-01 9.266919999999998936e+00 1.240639999999999930e+02 1.593299999999999955e+03
1.559999999999999998e-01 5.810549999999999882e-01 9.227830000000000865e+00 1.240789999999999935e+02 1.593299999999999955e+03
1.570000000000000007e-01 5.810659999999999714e-01 9.204124999999999446e+00 1.241189999999999998e+02 1.593304999999999836e+03
1.580000000000000016e-01 5.810819999999999874e-01 9.194570000000000576e+00 1.241804999999999950e+02 1.593320000000000164e+03
1.590000000000000024e-01 5.811000000000000609e-01 9.197060000000000457e+00 1.242584999999999980e+02 1.593340000000000146e+03
