# t [s], A [cm^2], U [cm/s], P [cPa], c [cm/s]
1.000000000000000021e-03 7.013050000000000672e-01 5.488500000000000323e-03 1.013845000000000027e+02 1.852320000000000164e+03
2.000000000000000042e-03 7.013044999999999973e-01 1.908884999999999749e-02 1.013644999999999925e+02 1.852315000000000055e+03
3.000000000000000062e-03 7.013890000000000402e-01 1.863026499999999863e-01 1.015750000000000028e+02 1.852355000000000018e+03
4.000000000000000083e-03 7.013960000000000194e-01 2.323319999999999830e-01 1.016159999999999997e+02 1.852365000000000009e+03
5.000000000000000104e-03 7.013070000000000137e-01 9.971649999999998570e-02 1.013015000000000043e+02 1.852309999999999945e+03
6.000000000000000125e-03 7.012234999999999996e-01 -3.866999999999998217e-02 1.008534999999999968e+02 1.852224999999999909e+03
7.000000000000000146e-03 7.010909999999999087e-01 -2.872949999999999671e-01 1.001658500000000060e+02 1.852094999999999800e+03
8.000000000000000167e-03 7.008615000000000261e-01 -7.432950000000000390e-01 9.905440000000000111e+01 1.851889999999999873e+03
9.000000000000001055e-03 7.005314999999999737e-01 -1.406339999999999923e+00 9.744515000000001237e+01 1.851585000000000036e+03
1.000000000000000194e-02 7.000680000000000236e-01 -2.316694999999999727e+00 9.520785000000000764e+01 1.851154999999999973e+03
1.099999999999999936e-02 6.994830000000000769e-01 -3.420354999999999812e+00 9.233785000000000309e+01 1.850599999999999909e+03
1.200000000000000025e-02 6.988810000000000855e-01 -4.475884999999999891e+00 8.914815000000000111e+01 1.849954999999999927e+03
1.300000000000000114e-02 6.983870000000000910e-01 -5.191392950000000006e+00 8.613330000000000553e+01 1.849320000000000164e+03
1.400000000000000203e-02 6.980565000000000797e-01 -5.407244999999999635e+00 8.366755000000000564e+01 1.848764999999999873e+03
1.499999999999999944e-02 6.978604999999999947e-01 -5.155280000000000307e+00 8.183679999999999666e+01 1.848299999999999955e+03
1.600000000000000033e-02 6.977145000000000152e-01 -4.602554999999999730e+00 8.045535000000000991e+01 1.847930000000000064e+03
1.700000000000000122e-02 6.975305000000000533e-01 -3.949370000000000047e+00 7.920265000000000555e+01 1.847575000000000045e+03
1.800000000000000211e-02 6.972585000000000033e-01 -3.335646500000000181e+00 7.779165000000000418e+01 1.847210000000000036e+03
1.900000000000000300e-02 6.969004999999999228e-01 -2.792836499999999944e+00 7.609139999999999304e+01 1.846799999999999955e+03
2.000000000000000042e-02 6.964980000000000615e-01 -2.260749999999999815e+00 7.415024999999999977e+01 1.846344999999999800e+03
2.100000000000000130e-02 6.960999999999999410e-01 -1.652965000000000018e+00 7.211939999999999884e+01 1.845869999999999891e+03
2.200000000000000219e-02 6.957340000000000746e-01 -9.272149999999999004e-01 7.013409999999998945e+01 1.845394999999999982e+03
2.299999999999999961e-02 6.953884999999999650e-01 -1.239850000000002339e-01 6.822164999999999679e+01 1.844930000000000064e+03
2.400000000000000050e-02 6.950190000000000534e-01 6.365199999999999747e-01 6.626980000000000359e+01 1.844454999999999927e+03
2.500000000000000139e-02 6.945635000000000003e-01 1.190010000000000012e+00 6.405785000000000196e+01 1.843940000000000055e+03
2.600000000000000228e-02 6.939679999999999183e-01 1.380465000000000053e+00 6.133189999999999742e+01 1.843329999999999927e+03
2.700000000000000316e-02 6.932034999999999725e-01 1.111999999999999655e+00 5.789910000000000423e+01 1.842590000000000146e+03
2.800000000000000058e-02 6.922810000000000352e-01 3.823100000000003718e-01 5.370694999999999908e+01 1.841710000000000036e+03
2.900000000000000147e-02 6.912499999999999201e-01 -7.154000000000007020e-01 4.887754999999999939e+01 1.840700000000000045e+03
3.000000000000000236e-02 6.901850000000000485e-01 -2.021224999999999383e+00 4.368419999999999703e+01 1.839610000000000127e+03
3.099999999999999978e-02 6.891644999999999577e-01 -3.353069999999999773e+00 3.848649999999999949e+01 1.838500000000000000e+03
3.200000000000000067e-02 6.882589999999999542e-01 -4.547420000000000684e+00 3.365259999999999962e+01 1.837440000000000055e+03
3.300000000000000155e-02 6.875139999999999585e-01 -5.484885000000000232e+00 2.949409999999999954e+01 1.836490000000000009e+03
3.400000000000000244e-02 6.869555000000000522e-01 -6.097773099999999502e+00 2.622785000000000011e+01 1.835715000000000146e+03
3.500000000000000333e-02 6.865894999999999637e-01 -6.363419999999999632e+00 2.396589999999999776e+01 1.835125000000000000e+03
3.600000000000000422e-02 6.864090000000000469e-01 -6.289284999999999570e+00 2.272869999999999990e+01 1.834755000000000109e+03
3.700000000000000511e-02 6.863995000000000513e-01 -5.896110000000000184e+00 2.247204999999999941e+01 1.834590000000000146e+03
3.799999999999999906e-02 6.865455000000000307e-01 -5.204850000000000421e+00 2.311840000000000117e+01 1.834619999999999891e+03
3.899999999999999994e-02 6.868345000000000145e-01 -4.230407499999999210e+00 2.458070000000000022e+01 1.834839999999999918e+03
4.000000000000000083e-02 6.872549999999999493e-01 -2.983004999999999907e+00 2.677515000000000001e+01 1.835224999999999909e+03
4.100000000000000172e-02 6.877955000000000041e-01 -1.474750000000000227e+00 2.962170000000000059e+01 1.835759999999999991e+03
4.200000000000000261e-02 6.884415000000000395e-01 2.726500000000000590e-01 3.303645000000000209e+01 1.836430000000000064e+03
4.300000000000000350e-02 6.891739999999999533e-01 2.222589999999999844e+00 3.692334999999999923e+01 1.837210000000000036e+03
4.400000000000000439e-02 6.899679999999999147e-01 4.322750000000000092e+00 4.116935000000000144e+01 1.838085000000000036e+03
4.499999999999999833e-02 6.907985000000000930e-01 6.508815000000000239e+00 4.564594999999999914e+01 1.839019999999999982e+03
4.599999999999999922e-02 6.916370000000000573e-01 8.710881490000000227e+00 5.021679999999999922e+01 1.839990000000000009e+03
4.700000000000000011e-02 6.924580000000000179e-01 1.086152500000000032e+01 5.474885000000000446e+01 1.840974999999999909e+03
4.800000000000000100e-02 6.932420000000000249e-01 1.290248000000000062e+01 5.912489999999999668e+01 1.841940000000000055e+03
4.900000000000000189e-02 6.939745000000000497e-01 1.478966499999999940e+01 6.325365000000000038e+01 1.842869999999999891e+03
5.000000000000000278e-02 6.946475000000000843e-01 1.649535000000000196e+01 6.707635000000000502e+01 1.843744999999999891e+03
5.100000000000000366e-02 6.952609999999999069e-01 1.800789999999999935e+01 7.056860000000000355e+01 1.844559999999999945e+03
5.200000000000000455e-02 6.958195000000000352e-01 1.932995000000000019e+01 7.373829999999999529e+01 1.845315000000000055e+03
5.300000000000000544e-02 6.963325000000000209e-01 2.047520000000000095e+01 7.662030000000000030e+01 1.846009999999999991e+03
5.399999999999999939e-02 6.968110000000000692e-01 2.146569999999999823e+01 7.926980000000000359e+01 1.846654999999999973e+03
5.500000000000000028e-02 6.972679999999999989e-01 2.232894999999999897e+01 8.175495000000000800e+01 1.847259999999999991e+03
5.600000000000000117e-02 6.977174999999999905e-01 2.309489999999999910e+01 8.414979999999999905e+01 1.847840000000000146e+03
5.700000000000000205e-02 6.981725000000000847e-01 2.379395000000000238e+01 8.652729999999999677e+01 1.848410000000000082e+03
5.800000000000000294e-02 6.986434999999999729e-01 2.445414999999999850e+01 8.895314999999999372e+01 1.848990000000000009e+03
5.900000000000000383e-02 6.991389999999999549e-01 2.509904999999999831e+01 9.147960000000000491e+01 1.849579999999999927e+03
6.000000000000000472e-02 6.996634999999999938e-01 2.574535000000000196e+01 9.414085000000000036e+01 1.850194999999999936e+03
6.099999999999999867e-02 7.002174999999999372e-01 2.640145000000000053e+01 9.694974999999999454e+01 1.850840000000000146e+03
6.199999999999999956e-02 7.007965000000000444e-01 2.706714999999999804e+01 9.989645000000000152e+01 1.851514999999999873e+03
6.300000000000000044e-02 7.013929999999999332e-01 2.773360000000000269e+01 1.029499500000000012e+02 1.852204999999999927e+03
6.400000000000000133e-02 7.019969999999999821e-01 2.838530000000000086e+01 1.060600000000000023e+02 1.852914999999999964e+03
6.500000000000000222e-02 7.025949999999999696e-01 2.900164999999999793e+01 1.091640000000000015e+02 1.853625000000000000e+03
6.600000000000000311e-02 7.031739999999999657e-01 2.955944999999999823e+01 1.121924999999999955e+02 1.854324999999999818e+03
6.700000000000000400e-02 7.037200000000000122e-01 3.003544999999999732e+01 1.150739999999999981e+02 1.854994999999999891e+03
6.800000000000000488e-02 7.042230000000000434e-01 3.040804999999999936e+01 1.177425000000000068e+02 1.855625000000000000e+03
6.900000000000000577e-02 7.046715000000000062e-01 3.065934999999999988e+01 1.201405000000000030e+02 1.856200000000000045e+03
7.000000000000000666e-02 7.050594999999999501e-01 3.077604999999999791e+01 1.222249999999999943e+02 1.856715000000000146e+03
7.100000000000000755e-02 7.053814999999999946e-01 3.075019999999999953e+01 1.239660000000000082e+02 1.857150000000000091e+03
7.200000000000000844e-02 7.056374999999999176e-01 3.057969999999999899e+01 1.253499999999999943e+02 1.857514999999999873e+03
7.300000000000000933e-02 7.058284999999999698e-01 3.026829999999999998e+01 1.263799999999999955e+02 1.857795000000000073e+03
7.399999999999999634e-02 7.059575000000000156e-01 2.982530000000000214e+01 1.270724999999999909e+02 1.858009999999999991e+03
7.499999999999999722e-02 7.060325000000000628e-01 2.926509999999999678e+01 1.274590000000000032e+02 1.858150000000000091e+03
7.599999999999999811e-02 7.060604999999999798e-01 2.860620000000000118e+01 1.275790000000000077e+02 1.858220000000000027e+03
7.699999999999999900e-02 7.060515000000000541e-01 2.787059999999999960e+01 1.274814999999999969e+02 1.858244999999999891e+03
7.799999999999999989e-02 7.060140000000000304e-01 2.708200000000000074e+01 1.272210000000000036e+02 1.858230000000000018e+03
7.900000000000000078e-02 7.059599999999999209e-01 2.626485000000000269e+01 1.268520000000000039e+02 1.858179999999999836e+03
8.000000000000000167e-02 7.058984999999999843e-01 2.544294999999999973e+01 1.264270000000000067e+02 1.858105000000000018e+03
8.100000000000000255e-02 7.058374999999998956e-01 2.463785000000000025e+01 1.259960000000000093e+02 1.858030000000000200e+03
8.200000000000000344e-02 7.057849999999999957e-01 2.386780000000000257e+01 1.256004999999999967e+02 1.857950000000000045e+03
8.300000000000000433e-02 7.057449999999999557e-01 2.314690000000000225e+01 1.252720000000000056e+02 1.857884999999999991e+03
8.400000000000000522e-02 7.057215000000000016e-01 2.248429999999999751e+01 1.250309999999999917e+02 1.857824999999999818e+03
8.500000000000000611e-02 7.057145000000000223e-01 2.188400000000000034e+01 1.248880000000000052e+02 1.857789999999999964e+03
8.600000000000000699e-02 7.057234999999999481e-01 2.134499999999999886e+01 1.248404999999999916e+02 1.857769999999999982e+03
8.700000000000000788e-02 7.057450000000000667e-01 2.086165000000000092e+01 1.248750000000000000e+02 1.857769999999999982e+03
8.800000000000000877e-02 7.057755000000000001e-01 2.042439999999999856e+01 1.249724999999999966e+02 1.857775000000000091e+03
8.899999999999999578e-02 7.058085000000000608e-01 2.002045000000000030e+01 1.251024999999999920e+02 1.857795000000000073e+03
8.999999999999999667e-02 7.058379999999999654e-01 1.963499999999999801e+01 1.252340000000000089e+02 1.857815000000000055e+03
9.099999999999999756e-02 7.058575000000000266e-01 1.925225000000000009e+01 1.253310000000000031e+02 1.857835000000000036e+03
9.199999999999999845e-02 7.058605000000000018e-01 1.885650000000000048e+01 1.253589999999999947e+02 1.857839999999999918e+03
9.299999999999999933e-02 7.058419999999999694e-01 1.843319999999999936e+01 1.252865000000000038e+02 1.857824999999999818e+03
9.400000000000000022e-02 7.057964999999999378e-01 1.796995000000000076e+01 1.250865000000000009e+02 1.857789999999999964e+03
9.500000000000000111e-02 7.057230000000001002e-01 1.745765000000000100e+01 1.247390000000000043e+02 1.857720000000000027e+03
9.600000000000000200e-02 7.056175000000000086e-01 1.689079999999999870e+01 1.242334999999999923e+02 1.857615000000000009e+03
9.700000000000000289e-02 7.054830000000000823e-01 1.626829999999999998e+01 1.235679999999999978e+02 1.857480000000000018e+03
9.800000000000000377e-02 7.053205000000000169e-01 1.559344999999999892e+01 1.227514999999999930e+02 1.857315000000000055e+03
9.900000000000000466e-02 7.051334999999999686e-01 1.487369999999999948e+01 1.217999999999999972e+02 1.857115000000000009e+03
1.000000000000000056e-01 7.049294999999999867e-01 1.412035499999999999e+01 1.207404999999999973e+02 1.856894999999999982e+03
1.010000000000000064e-01 7.047134999999999927e-01 1.334788500000000155e+01 1.196059999999999945e+02 1.856650000000000091e+03
1.020000000000000073e-01 7.044934999999999947e-01 1.257302500000000123e+01 1.184339999999999975e+02 1.856394999999999982e+03
1.030000000000000082e-01 7.042764999999999720e-01 1.181356999999999857e+01 1.172665000000000077e+02 1.856139999999999873e+03
1.040000000000000091e-01 7.040714999999999613e-01 1.108748999999999896e+01 1.161430000000000007e+02 1.855884999999999991e+03
1.050000000000000100e-01 7.038845000000000240e-01 1.041168500000000030e+01 1.151020000000000039e+02 1.855650000000000091e+03
1.059999999999999970e-01 7.037210000000000409e-01 9.801070000000001059e+00 1.141774999999999949e+02 1.855429999999999836e+03
1.069999999999999979e-01 7.035865000000000036e-01 9.267665000000000930e+00 1.133965000000000032e+02 1.855240000000000009e+03
1.079999999999999988e-01 7.034830000000000805e-01 8.819994999999998697e+00 1.127789999999999964e+02 1.855090000000000146e+03
1.089999999999999997e-01 7.034119999999999262e-01 8.462794999999999845e+00 1.123344999999999914e+02 1.854969999999999800e+03
1.100000000000000006e-01 7.033735000000000959e-01 8.196809999999999263e+00 1.120655000000000001e+02 1.854884999999999991e+03
1.110000000000000014e-01 7.033650000000000180e-01 8.018964999999999677e+00 1.119639999999999986e+02 1.854835000000000036e+03
1.120000000000000023e-01 7.033834999999999393e-01 7.922850000000000392e+00 1.120165000000000077e+02 1.854820000000000164e+03
1.130000000000000032e-01 7.034245000000000081e-01 7.899225000000000385e+00 1.122009999999999934e+02 1.854840000000000146e+03
1.140000000000000041e-01 7.034839999999999982e-01 7.936725000000000030e+00 1.124939999999999998e+02 1.854884999999999991e+03
1.150000000000000050e-01 7.035555000000000003e-01 8.022629999999999484e+00 1.128659999999999997e+02 1.854944999999999936e+03
1.160000000000000059e-01 7.036344999999999406e-01 8.143599999999999284e+00 1.132899999999999920e+02 1.855025000000000091e+03
1.170000000000000068e-01 7.037154999999999383e-01 8.286379999999999413e+00 1.137369999999999948e+02 1.855110000000000127e+03
1.180000000000000077e-01 7.037944999999999895e-01 8.438404999999999490e+00 1.141819999999999879e+02 1.855200000000000045e+03
1.190000000000000085e-01 7.038680000000000492e-01 8.588359999999999772e+00 1.146030000000000086e+02 1.855289999999999964e+03
1.200000000000000094e-01 7.039320000000000022e-01 8.726510000000001099e+00 1.149809999999999945e+02 1.855369999999999891e+03
1.209999999999999964e-01 7.039850000000000829e-01 8.845064999999999955e+00 1.153045000000000044e+02 1.855444999999999936e+03
1.219999999999999973e-01 7.040264999999999995e-01 8.938269999999999271e+00 1.155635000000000048e+02 1.855505000000000109e+03
1.229999999999999982e-01 7.040549999999999864e-01 9.002520000000000522e+00 1.157549999999999955e+02 1.855554999999999836e+03
1.239999999999999991e-01 7.040720000000000312e-01 9.036284999999999457e+00 1.158799999999999955e+02 1.855590000000000146e+03
1.250000000000000000e-01 7.040774999999999118e-01 9.040020000000000167e+00 1.159424999999999955e+02 1.855610000000000127e+03
1.260000000000000009e-01 7.040740000000000887e-01 9.015905000000000058e+00 1.159509999999999934e+02 1.855619999999999891e+03
1.270000000000000018e-01 7.040640000000000231e-01 8.967589999999999506e+00 1.159159999999999968e+02 1.855619999999999891e+03
1.280000000000000027e-01 7.040490000000000359e-01 8.899905000000000399e+00 1.158504999999999967e+02 1.855610000000000127e+03
1.290000000000000036e-01 7.040325000000000610e-01 8.818369999999999820e+00 1.157665000000000077e+02 1.855595000000000027e+03
1.300000000000000044e-01 7.040159999999999751e-01 8.728979999999999961e+00 1.156790000000000020e+02 1.855579999999999927e+03
1.310000000000000053e-01 7.040024999999999755e-01 8.637475000000000236e+00 1.155995000000000061e+02 1.855570000000000164e+03
1.320000000000000062e-01 7.039934999999999388e-01 8.549345000000000638e+00 1.155395000000000039e+02 1.855559999999999945e+03
1.330000000000000071e-01 7.039910000000000334e-01 8.469234999999999403e+00 1.155074999999999932e+02 1.855555000000000064e+03
1.340000000000000080e-01 7.039949999999999264e-01 8.400714999999999932e+00 1.155099999999999909e+02 1.855550000000000182e+03
1.350000000000000089e-01 7.040064999999999795e-01 8.346185000000000187e+00 1.155499999999999972e+02 1.855559999999999945e+03
1.360000000000000098e-01 7.040250000000000119e-01 8.306734999999999758e+00 1.156285000000000025e+02 1.855574999999999818e+03
1.370000000000000107e-01 7.040500000000000647e-01 8.282199999999999562e+00 1.157409999999999997e+02 1.855599999999999909e+03
1.380000000000000115e-01 7.040804999999999980e-01 8.271290000000000475e+00 1.158845000000000027e+02 1.855625000000000000e+03
1.390000000000000124e-01 7.041140000000000176e-01 8.271779999999999688e+00 1.160500000000000114e+02 1.855664999999999964e+03
1.400000000000000133e-01 7.041500000000000536e-01 8.280784999999999840e+00 1.162299999999999898e+02 1.855699999999999818e+03
1.410000000000000142e-01 7.041859999999999786e-01 8.295030000000000570e+00 1.164145000000000039e+02 1.855740000000000009e+03
1.420000000000000151e-01 7.042204999999999160e-01 8.311149999999999594e+00 1.165955000000000013e+02 1.855780000000000200e+03
1.430000000000000160e-01 7.042520000000001001e-01 8.325944999999999041e+00 1.167640000000000100e+02 1.855815000000000055e+03
1.440000000000000169e-01 7.042789999999999884e-01 8.336619999999999919e+00 1.169134999999999991e+02 1.855849999999999909e+03
1.450000000000000178e-01 7.043019999999999836e-01 8.340945000000001386e+00 1.170384999999999991e+02 1.855880000000000109e+03
1.459999999999999909e-01 7.043190000000000284e-01 8.337399999999998812e+00 1.171359999999999957e+02 1.855904999999999973e+03
1.469999999999999918e-01 7.043310000000000404e-01 8.325199999999998823e+00 1.172049999999999983e+02 1.855925000000000182e+03
1.479999999999999927e-01 7.043369999999999909e-01 8.304360000000000852e+00 1.172464999999999975e+02 1.855934999999999945e+03
1.489999999999999936e-01 7.043390000000000484e-01 8.275655000000000427e+00 1.172634999999999934e+02 1.855940000000000055e+03
1.499999999999999944e-01 7.043380000000000196e-01 8.240534999999999499e+00 1.172599999999999909e+02 1.855945000000000164e+03
1.509999999999999953e-01 7.043345000000000855e-01 8.201074999999999449e+00 1.172434999999999974e+02 1.855940000000000055e+03
1.519999999999999962e-01 7.043300000000000116e-01 8.159845000000000681e+00 1.172199999999999989e+02 1.855940000000000055e+03
1.529999999999999971e-01 7.043264999999999665e-01 8.119769999999999044e+00 1.171974999999999909e+02 1.855934999999999945e+03
1.539999999999999980e-01 7.043249999999999789e-01 8.083985000000000198e+00 1.171850000000000023e+02 1.855930000000000064e+03
1.549999999999999989e-01 7.043274999999999952e-01 8.055679999999998842e+00 1.171905000000000001e+02 1.855934999999999945e+03
1.559999999999999998e-01 7.043349999999999334e-01 8.037919999999999732e+00 1.172214999999999918e+02 1.855934999999999945e+03
1.570000000000000007e-01 7.043490000000000029e-01 8.033474999999999255e+00 1.172845000000000084e+02 1.855950000000000045e+03
1.580000000000000016e-01 7.043705000000000105e-01 8.044695000000000817e+00 1.173854999999999933e+02 1.855974999999999909e+03
1.590000000000000024e-01 7.043999999999999151e-01 8.073330000000000339e+00 1.175300000000000011e+02 1.856000000000000000e+03
