# t [s], A [cm^2], U [cm/s], P [cPa], c [cm/s]
1.000000000000000021e-03 1.862719999999999931e-01 4.391137999999999986e-01 9.645494999999999663e+01 2.331840000000000146e+03
2.000000000000000042e-03 1.862064999999999970e-01 2.082116499999999704e+00 9.224064999999998804e+01 2.331274999999999636e+03
3.000000000000000062e-03 1.860590000000000022e-01 4.086655999999999622e+00 8.655049999999999955e+01 2.330034999999999854e+03
4.000000000000000083e-03 1.858765000000000001e-01 6.361059999999999270e+00 8.094209999999999638e+01 2.328529999999999745e+03
5.000000000000000104e-03 1.856970000000000010e-01 8.745670000000000499e+00 7.643434999999999491e+01 2.327050000000000182e+03
6.000000000000000125e-03 1.855304999999999871e-01 1.090644499999999972e+01 7.279959999999999809e+01 2.325710000000000036e+03
7.000000000000000146e-03 1.853779999999999872e-01 1.266319499999999998e+01 6.951285000000000025e+01 2.324510000000000218e+03
8.000000000000000167e-03 1.852455000000000074e-01 1.408075000000000010e+01 6.666519999999999868e+01 2.323489999999999782e+03
9.000000000000001055e-03 1.851369999999999960e-01 1.521320000000000050e+01 6.440650000000000830e+01 2.322654999999999745e+03
1.000000000000000194e-02 1.850505000000000067e-01 1.607854999999999990e+01 6.267539999999999623e+01 2.322005000000000109e+03
1.099999999999999936e-02 1.849835000000000229e-01 1.669235000000000113e+01 6.135410000000000252e+01 2.321505000000000109e+03
1.200000000000000025e-02 1.849304999999999977e-01 1.705235000000000056e+01 6.024084999999999468e+01 2.321114999999999782e+03
1.300000000000000114e-02 1.848854999999999804e-01 1.721334999999999837e+01 5.922315000000000396e+01 2.320795000000000073e+03
1.400000000000000203e-02 1.848535000000000039e-01 1.737044999999999817e+01 5.862709999999999866e+01 2.320569999999999709e+03
1.499999999999999944e-02 1.848500000000000143e-01 1.778480000000000061e+01 5.916049999999999898e+01 2.320555000000000291e+03
1.600000000000000033e-02 1.848885000000000112e-01 1.859944999999999737e+01 6.135860000000000269e+01 2.320849999999999909e+03
1.700000000000000122e-02 1.849699999999999955e-01 1.972080000000000055e+01 6.505280000000000484e+01 2.321470000000000255e+03
1.800000000000000211e-02 1.850784999999999791e-01 2.085634999999999906e+01 6.931459999999999866e+01 2.322309999999999945e+03
1.900000000000000300e-02 1.851859999999999895e-01 2.166474999999999795e+01 7.287835000000001173e+01 2.323149999999999636e+03
2.000000000000000042e-02 1.852639999999999842e-01 2.191685000000000016e+01 7.473184999999999434e+01 2.323789999999999964e+03
2.100000000000000130e-02 1.852965000000000029e-01 2.158445000000000036e+01 7.453919999999999391e+01 2.324074999999999818e+03
2.200000000000000219e-02 1.852834999999999899e-01 2.082325000000000159e+01 7.270240000000001146e+01 2.324005000000000109e+03
2.299999999999999961e-02 1.852385000000000004e-01 1.987534999999999741e+01 7.007800000000000296e+01 2.323680000000000291e+03
2.400000000000000050e-02 1.851814999999999989e-01 1.894930000000000092e+01 6.753294999999999959e+01 2.323244999999999891e+03
2.500000000000000139e-02 1.851269999999999860e-01 1.814074999999999704e+01 6.557904999999999518e+01 2.322814999999999600e+03
2.600000000000000228e-02 1.850824999999999831e-01 1.742064999999999841e+01 6.423930000000000007e+01 2.322465000000000146e+03
2.700000000000000316e-02 1.850439999999999863e-01 1.668209999999999837e+01 6.315780000000000172e+01 2.322159999999999854e+03
2.800000000000000058e-02 1.850034999999999874e-01 1.581605000000000061e+01 6.186010000000000275e+01 2.321849999999999909e+03
2.900000000000000147e-02 1.849529999999999785e-01 1.477949999999999875e+01 6.003119999999999834e+01 2.321460000000000036e+03
3.000000000000000236e-02 1.848890000000000255e-01 1.363090000000000046e+01 5.769845000000000113e+01 2.320970000000000255e+03
3.099999999999999978e-02 1.848190000000000111e-01 1.252079999999999949e+01 5.525359999999999872e+01 2.320430000000000291e+03
3.200000000000000067e-02 1.847544999999999882e-01 1.164081999999999972e+01 5.331145000000000067e+01 2.319930000000000291e+03
3.300000000000000155e-02 1.847119999999999873e-01 1.115486999999999895e+01 5.247115000000000151e+01 2.319579999999999927e+03
3.400000000000000244e-02 1.847024999999999917e-01 1.113995000000000068e+01 5.308249999999999602e+01 2.319489999999999782e+03
3.500000000000000333e-02 1.847310000000000063e-01 1.155884999999999962e+01 5.510904999999999632e+01 2.319684999999999945e+03
3.600000000000000422e-02 1.847929999999999851e-01 1.227035000000000053e+01 5.812904999999999944e+01 2.320140000000000327e+03
3.700000000000000511e-02 1.848739999999999828e-01 1.306804999999999950e+01 6.145610000000000639e+01 2.320755000000000109e+03
3.799999999999999906e-02 1.849564999999999959e-01 1.373165000000000013e+01 6.432294999999999163e+01 2.321390000000000327e+03
3.899999999999999994e-02 1.850215000000000054e-01 1.407334999999999958e+01 6.606374999999999886e+01 2.321900000000000091e+03
4.000000000000000083e-02 1.850534999999999819e-01 1.396914999999999907e+01 6.624360000000000070e+01 2.322164999999999964e+03
4.100000000000000172e-02 1.850434999999999997e-01 1.336965000000000003e+01 6.471199999999998909e+01 2.322100000000000364e+03
4.200000000000000261e-02 1.849879999999999858e-01 1.229349000000000025e+01 6.158095000000000141e+01 2.321690000000000055e+03
4.300000000000000350e-02 1.848909999999999998e-01 1.080884000000000000e+01 5.715064999999999884e+01 2.320960000000000036e+03
4.400000000000000439e-02 1.847599999999999798e-01 9.011065000000000325e+00 5.181465000000000032e+01 2.319954999999999927e+03
4.499999999999999833e-02 1.846045000000000047e-01 7.003744999999999443e+00 4.597435000000000116e+01 2.318755000000000109e+03
4.599999999999999922e-02 1.844339999999999868e-01 4.886390500000000081e+00 3.998385000000000389e+01 2.317440000000000055e+03
4.700000000000000011e-02 1.842590000000000061e-01 2.750154999999999905e+00 3.412839999999999918e+01 2.316079999999999927e+03
4.800000000000000100e-02 1.840859999999999996e-01 6.785300000000000775e-01 2.863149999999999906e+01 2.314735000000000127e+03
4.900000000000000189e-02 1.839219999999999744e-01 -1.249425000000000008e+00 2.367595000000000027e+01 2.313460000000000036e+03
5.000000000000000278e-02 1.837725000000000053e-01 -2.956529500000000255e+00 1.942589999999999861e+01 2.312289999999999964e+03
5.100000000000000366e-02 1.836450000000000027e-01 -4.367449999999999832e+00 1.604031499999999966e+01 2.311284999999999854e+03
5.200000000000000455e-02 1.835430000000000117e-01 -5.411730000000000373e+00 1.367296999999999940e+01 2.310480000000000018e+03
5.300000000000000544e-02 1.834719999999999962e-01 -6.029144999999999754e+00 1.246069999999999922e+01 2.309904999999999745e+03
5.399999999999999939e-02 1.834359999999999880e-01 -6.175950000000000273e+00 1.250505000000000067e+01 2.309599999999999909e+03
5.500000000000000028e-02 1.834374999999999756e-01 -5.830249999999999488e+00 1.385340000000000060e+01 2.309585000000000036e+03
5.600000000000000117e-02 1.834780000000000022e-01 -4.995289999999999786e+00 1.648600000000000065e+01 2.309869999999999891e+03
5.700000000000000205e-02 1.835554999999999826e-01 -3.699790000000000134e+00 2.031230000000000047e+01 2.310440000000000055e+03
5.800000000000000294e-02 1.836685000000000123e-01 -1.995509999999999895e+00 2.517685000000000173e+01 2.311295000000000073e+03
5.900000000000000383e-02 1.838120000000000032e-01 4.725000000000001421e-02 3.087330000000000041e+01 2.312380000000000109e+03
6.000000000000000472e-02 1.839804999999999913e-01 2.345445000000000224e+00 3.716304999999999836e+01 2.313670000000000073e+03
6.099999999999999867e-02 1.841659999999999964e-01 4.809391000000000638e+00 4.379495000000000005e+01 2.315099999999999909e+03
6.199999999999999956e-02 1.843629999999999991e-01 7.348734999999999573e+00 5.052384999999999593e+01 2.316619999999999891e+03
6.300000000000000044e-02 1.845634999999999915e-01 9.877929999999999211e+00 5.712704999999999700e+01 2.318180000000000291e+03
6.400000000000000133e-02 1.847614999999999952e-01 1.232144499999999887e+01 6.341760000000000019e+01 2.319730000000000018e+03
6.500000000000000222e-02 1.849514999999999909e-01 1.461775000000000091e+01 6.925485000000000468e+01 2.321220000000000255e+03
6.600000000000000311e-02 1.851300000000000168e-01 1.672264999999999802e+01 7.455164999999999509e+01 2.322630000000000109e+03
6.700000000000000400e-02 1.852945000000000009e-01 1.861114999999999853e+01 7.927724999999999511e+01 2.323925000000000182e+03
6.800000000000000488e-02 1.854434999999999834e-01 2.027759999999999962e+01 8.345544999999999902e+01 2.325114999999999782e+03
6.900000000000000577e-02 1.855780000000000207e-01 2.173405000000000342e+01 8.715770000000000550e+01 2.326185000000000400e+03
7.000000000000000666e-02 1.856995000000000173e-01 2.300730000000000075e+01 9.049155000000000371e+01 2.327159999999999854e+03
7.100000000000000755e-02 1.858120000000000049e-01 2.413419999999999987e+01 9.358599999999999852e+01 2.328060000000000400e+03
7.200000000000000844e-02 1.859184999999999865e-01 2.515700000000000003e+01 9.657609999999999673e+01 2.328904999999999745e+03
7.300000000000000933e-02 1.860220000000000207e-01 2.611824999999999974e+01 9.958664999999999168e+01 2.329735000000000127e+03
7.399999999999999634e-02 1.861254999999999993e-01 2.705624999999999858e+01 1.027211499999999944e+02 2.330564999999999600e+03
7.499999999999999722e-02 1.862329999999999819e-01 2.800195000000000078e+01 1.060525000000000091e+02 2.331420000000000073e+03
7.599999999999999811e-02 1.863454999999999973e-01 2.897609999999999886e+01 1.096175000000000068e+02 2.332309999999999945e+03
7.699999999999999900e-02 1.864640000000000186e-01 2.998829999999999885e+01 1.134165000000000134e+02 2.333250000000000000e+03
7.799999999999999989e-02 1.865880000000000039e-01 3.103709999999999880e+01 1.174149999999999920e+02 2.334230000000000018e+03
7.900000000000000078e-02 1.867174999999999807e-01 3.211064999999999969e+01 1.215515000000000043e+02 2.335255000000000109e+03
8.000000000000000167e-02 1.868500000000000161e-01 3.318840000000000146e+01 1.257409999999999997e+02 2.336304999999999836e+03
8.100000000000000255e-02 1.869824999999999959e-01 3.424325000000000330e+01 1.298854999999999791e+02 2.337355000000000018e+03
8.200000000000000344e-02 1.871130000000000015e-01 3.524419999999999931e+01 1.338810000000000002e+02 2.338389999999999873e+03
8.300000000000000433e-02 1.872385000000000022e-01 3.615850000000000364e+01 1.376240000000000236e+02 2.339394999999999982e+03
8.400000000000000522e-02 1.873564999999999814e-01 3.695439999999999969e+01 1.410204999999999984e+02 2.340329999999999927e+03
8.500000000000000611e-02 1.874635000000000051e-01 3.760354999999999848e+01 1.439904999999999973e+02 2.341184999999999945e+03
8.600000000000000699e-02 1.875570000000000015e-01 3.808254999999999768e+01 1.464714999999999918e+02 2.341944999999999709e+03
8.700000000000000788e-02 1.876365000000000116e-01 3.837500000000000000e+01 1.484250000000000114e+02 2.342579999999999927e+03
8.800000000000000877e-02 1.877000000000000057e-01 3.847220000000000084e+01 1.498340000000000032e+02 2.343095000000000255e+03
8.899999999999999578e-02 1.877469999999999972e-01 3.837395000000000067e+01 1.507075000000000102e+02 2.343484999999999673e+03
8.999999999999999667e-02 1.877780000000000005e-01 3.808809999999999718e+01 1.510745000000000005e+02 2.343744999999999891e+03
9.099999999999999756e-02 1.877940000000000165e-01 3.763054999999999950e+01 1.509875000000000114e+02 2.343890000000000327e+03
9.199999999999999845e-02 1.877965000000000051e-01 3.702324999999999733e+01 1.505124999999999886e+02 2.343920000000000073e+03
9.299999999999999933e-02 1.877874999999999961e-01 3.629344999999999999e+01 1.497275000000000205e+02 2.343860000000000127e+03
9.400000000000000022e-02 1.877689999999999915e-01 3.547164999999999679e+01 1.487164999999999964e+02 2.343720000000000255e+03
9.500000000000000111e-02 1.877435000000000076e-01 3.458979999999999677e+01 1.475649999999999977e+02 2.343519999999999982e+03
9.600000000000000200e-02 1.877129999999999910e-01 3.367964999999999520e+01 1.463545000000000016e+02 2.343289999999999964e+03
9.700000000000000289e-02 1.876805000000000001e-01 3.277084999999999582e+01 1.451589999999999918e+02 2.343034999999999854e+03
9.800000000000000377e-02 1.876474999999999949e-01 3.188980000000000103e+01 1.440414999999999850e+02 2.342774999999999636e+03
9.900000000000000466e-02 1.876169999999999782e-01 3.105805000000000149e+01 1.430504999999999995e+02 2.342529999999999745e+03
1.000000000000000056e-01 1.875890000000000057e-01 3.029169999999999874e+01 1.422194999999999823e+02 2.342305000000000291e+03
1.010000000000000064e-01 1.875649999999999817e-01 2.960045000000000215e+01 1.415645000000000095e+02 2.342114999999999782e+03
1.020000000000000073e-01 1.875455000000000039e-01 2.898744999999999905e+01 1.410835000000000150e+02 2.341960000000000036e+03
1.030000000000000082e-01 1.875310000000000032e-01 2.844969999999999999e+01 1.407604999999999791e+02 2.341835000000000036e+03
1.040000000000000091e-01 1.875205000000000066e-01 2.797794999999999987e+01 1.405609999999999786e+02 2.341744999999999891e+03
1.050000000000000100e-01 1.875124999999999986e-01 2.755814999999999770e+01 1.404420000000000073e+02 2.341675000000000182e+03
1.059999999999999970e-01 1.875065000000000204e-01 2.717224999999999824e+01 1.403489999999999895e+02 2.341630000000000109e+03
1.069999999999999979e-01 1.875010000000000010e-01 2.679964999999999975e+01 1.402245000000000061e+02 2.341579999999999927e+03
1.079999999999999988e-01 1.874945000000000084e-01 2.641890000000000072e+01 1.400099999999999909e+02 2.341525000000000091e+03
1.089999999999999997e-01 1.874850000000000128e-01 2.600925000000000153e+01 1.396494999999999891e+02 2.341444999999999709e+03
1.100000000000000006e-01 1.874715000000000131e-01 2.555209999999999937e+01 1.390970000000000084e+02 2.341335000000000036e+03
1.110000000000000014e-01 1.874514999999999931e-01 2.503240000000000265e+01 1.383170000000000073e+02 2.341180000000000291e+03
1.120000000000000023e-01 1.874250000000000083e-01 2.443984999999999985e+01 1.372875000000000227e+02 2.340970000000000255e+03
1.130000000000000032e-01 1.873914999999999886e-01 2.376960000000000051e+01 1.360039999999999907e+02 2.340704999999999927e+03
1.140000000000000041e-01 1.873500000000000165e-01 2.302260000000000062e+01 1.344770000000000039e+02 2.340385000000000218e+03
1.150000000000000050e-01 1.873019999999999963e-01 2.220570000000000022e+01 1.327344999999999970e+02 2.340010000000000218e+03
1.160000000000000059e-01 1.872479999999999978e-01 2.133109999999999928e+01 1.308170000000000073e+02 2.339585000000000036e+03
1.170000000000000068e-01 1.871884999999999799e-01 2.041550000000000153e+01 1.287769999999999868e+02 2.339119999999999891e+03
1.180000000000000077e-01 1.871265000000000012e-01 1.947905000000000086e+01 1.266754999999999995e+02 2.338625000000000000e+03
1.190000000000000085e-01 1.870620000000000061e-01 1.854404999999999859e+01 1.245765000000000100e+02 2.338119999999999891e+03
1.200000000000000094e-01 1.869979999999999976e-01 1.763335000000000008e+01 1.225450000000000017e+02 2.337609999999999673e+03
1.209999999999999964e-01 1.869359999999999911e-01 1.676905000000000001e+01 1.206400000000000006e+02 2.337119999999999891e+03
1.219999999999999973e-01 1.868774999999999742e-01 1.597124999999999950e+01 1.189159999999999968e+02 2.336654999999999745e+03
1.229999999999999982e-01 1.868245000000000045e-01 1.525685000000000002e+01 1.174130000000000109e+02 2.336230000000000018e+03
1.239999999999999991e-01 1.867779999999999996e-01 1.463879999999999981e+01 1.161620000000000061e+02 2.335854999999999563e+03
1.250000000000000000e-01 1.867385000000000017e-01 1.412545000000000073e+01 1.151814999999999998e+02 2.335539999999999964e+03
1.260000000000000009e-01 1.867070000000000118e-01 1.372054999999999936e+01 1.144739999999999895e+02 2.335284999999999854e+03
1.270000000000000018e-01 1.866835000000000022e-01 1.342330000000000112e+01 1.140319999999999965e+02 2.335095000000000255e+03
1.280000000000000027e-01 1.866680000000000006e-01 1.322840000000000060e+01 1.138369999999999891e+02 2.334965000000000146e+03
1.290000000000000036e-01 1.866594999999999782e-01 1.312720000000000020e+01 1.138605000000000018e+02 2.334890000000000327e+03
1.300000000000000044e-01 1.866575000000000040e-01 1.310780000000000101e+01 1.140679999999999978e+02 2.334869999999999891e+03
1.310000000000000053e-01 1.866619999999999946e-01 1.315615000000000023e+01 1.144219999999999970e+02 2.334890000000000327e+03
1.320000000000000062e-01 1.866700000000000026e-01 1.325689999999999991e+01 1.148799999999999955e+02 2.334944999999999709e+03
1.330000000000000071e-01 1.866809999999999858e-01 1.339419999999999966e+01 1.154020000000000010e+02 2.335034999999999854e+03
1.340000000000000080e-01 1.866945000000000132e-01 1.355225000000000080e+01 1.159495000000000005e+02 2.335135000000000218e+03
1.350000000000000089e-01 1.867090000000000138e-01 1.371634999999999849e+01 1.164865000000000066e+02 2.335250000000000000e+03
1.360000000000000098e-01 1.867234999999999867e-01 1.387324999999999875e+01 1.169834999999999923e+02 2.335360000000000127e+03
1.370000000000000107e-01 1.867369999999999863e-01 1.401184999999999903e+01 1.174159999999999968e+02 2.335470000000000255e+03
1.380000000000000115e-01 1.867495000000000127e-01 1.412334999999999852e+01 1.177665000000000077e+02 2.335565000000000055e+03
1.390000000000000124e-01 1.867595000000000227e-01 1.420170000000000066e+01 1.180245000000000033e+02 2.335644999999999982e+03
1.400000000000000133e-01 1.867665000000000020e-01 1.424354999999999905e+01 1.181864999999999952e+02 2.335704999999999927e+03
1.410000000000000142e-01 1.867715000000000070e-01 1.424830000000000041e+01 1.182554999999999978e+02 2.335739999999999782e+03
1.420000000000000151e-01 1.867735000000000090e-01 1.421795000000000009e+01 1.182415000000000020e+02 2.335760000000000218e+03
1.430000000000000160e-01 1.867735000000000090e-01 1.415649999999999942e+01 1.181585000000000036e+02 2.335765000000000327e+03
1.440000000000000169e-01 1.867715000000000070e-01 1.406980000000000075e+01 1.180244999999999891e+02 2.335750000000000000e+03
1.450000000000000178e-01 1.867679999999999896e-01 1.396490000000000009e+01 1.178589999999999947e+02 2.335730000000000018e+03
1.459999999999999909e-01 1.867639999999999856e-01 1.384934999999999938e+01 1.176844999999999999e+02 2.335699999999999818e+03
1.469999999999999918e-01 1.867595000000000227e-01 1.373085000000000022e+01 1.175190000000000055e+02 2.335664999999999964e+03
1.479999999999999927e-01 1.867555000000000187e-01 1.361635000000000062e+01 1.173814999999999884e+02 2.335630000000000109e+03
1.489999999999999936e-01 1.867520000000000013e-01 1.351205000000000034e+01 1.172849999999999966e+02 2.335605000000000018e+03
1.499999999999999944e-01 1.867499999999999993e-01 1.342275000000000063e+01 1.172394999999999925e+02 2.335590000000000146e+03
1.509999999999999953e-01 1.867489999999999983e-01 1.335154999999999959e+01 1.172500000000000000e+02 2.335579999999999927e+03
1.519999999999999962e-01 1.867499999999999993e-01 1.329994999999999905e+01 1.173170000000000073e+02 2.335585000000000036e+03
1.529999999999999971e-01 1.867520000000000013e-01 1.326800000000000068e+01 1.174364999999999952e+02 2.335599999999999909e+03
1.539999999999999980e-01 1.867560000000000053e-01 1.325420000000000087e+01 1.176009999999999991e+02 2.335635000000000218e+03
1.549999999999999989e-01 1.867614999999999970e-01 1.325580000000000069e+01 1.178004999999999995e+02 2.335670000000000073e+03
1.559999999999999998e-01 1.867670000000000163e-01 1.326924999999999955e+01 1.180234999999999985e+02 2.335715000000000146e+03
1.570000000000000007e-01 1.867735000000000090e-01 1.329044999999999987e+01 1.182560000000000002e+02 2.335765000000000327e+03
1.580000000000000016e-01 1.867805000000000160e-01 1.331489999999999974e+01 1.184869999999999948e+02 2.335819999999999709e+03
1.590000000000000024e-01 1.867869999999999808e-01 1.333820000000000050e+01 1.187034999999999911e+02 2.335875000000000000e+03
