# t [s], A [cm^2], U [cm/s], P [cPa], c [cm/s]
1.000000000000000021e-03 1.340204999999999869e-01 2.040230000000000099e-01 9.097605000000000075e+01 1.879775000000000091e+03
2.000000000000000042e-03 1.340024999999999966e-01 1.491935000000000011e+00 8.841900000000001114e+01 1.879534999999999854e+03
3.000000000000000062e-03 1.339279999999999915e-01 3.106611000000000011e+00 8.501550000000000296e+01 1.878639999999999873e+03
4.000000000000000083e-03 1.338150000000000173e-01 4.913401850000000515e+00 8.110554999999999382e+01 1.877295000000000073e+03
5.000000000000000104e-03 1.336815000000000087e-01 6.868240000000000123e+00 7.730514999999999759e+01 1.875735000000000127e+03
6.000000000000000125e-03 1.335445000000000104e-01 8.890145000000000408e+00 7.399150000000000205e+01 1.874139999999999873e+03
7.000000000000000146e-03 1.334120000000000028e-01 1.084403000000000006e+01 7.119350000000000023e+01 1.872610000000000127e+03
8.000000000000000167e-03 1.332855000000000012e-01 1.260767000000000060e+01 6.873599999999999000e+01 1.871175000000000182e+03
9.000000000000001055e-03 1.331674999999999942e-01 1.414224499999999907e+01 6.650639999999999930e+01 1.869855000000000018e+03
1.000000000000000194e-02 1.330610000000000126e-01 1.546875000000000000e+01 6.452975000000000705e+01 1.868679999999999836e+03
1.099999999999999936e-02 1.329670000000000019e-01 1.660930000000000106e+01 6.284969999999999857e+01 1.867659999999999854e+03
1.200000000000000025e-02 1.328870000000000051e-01 1.757460000000000022e+01 6.146119999999999806e+01 1.866789999999999964e+03
1.300000000000000114e-02 1.328190000000000204e-01 1.837150000000000105e+01 6.032859999999999445e+01 1.866065000000000055e+03
1.400000000000000203e-02 1.327625000000000055e-01 1.900274999999999892e+01 5.939670000000000272e+01 1.865470000000000027e+03
1.499999999999999944e-02 1.327149999999999996e-01 1.946965000000000146e+01 5.859355000000000047e+01 1.864970000000000027e+03
1.600000000000000033e-02 1.326745000000000008e-01 1.979005000000000081e+01 5.786939999999999884e+01 1.864555000000000064e+03
1.700000000000000122e-02 1.326399999999999801e-01 2.001599999999999824e+01 5.725570000000000448e+01 1.864210000000000036e+03
1.800000000000000211e-02 1.326145000000000240e-01 2.023060000000000258e+01 5.688649999999999807e+01 1.863954999999999927e+03
1.900000000000000300e-02 1.326015000000000110e-01 2.052074999999999960e+01 5.694825000000000159e+01 1.863829999999999927e+03
2.000000000000000042e-02 1.326050000000000006e-01 2.094200000000000017e+01 5.758700000000000330e+01 1.863884999999999991e+03
2.100000000000000130e-02 1.326269999999999949e-01 2.149669999999999703e+01 5.882574999999999932e+01 1.864125000000000000e+03
2.200000000000000219e-02 1.326660000000000061e-01 2.213309999999999889e+01 6.053509999999999991e+01 1.864549999999999955e+03
2.299999999999999961e-02 1.327160000000000006e-01 2.276500000000000057e+01 6.246484999999999843e+01 1.865105000000000018e+03
2.400000000000000050e-02 1.327710000000000001e-01 2.329935000000000045e+01 6.431609999999999161e+01 1.865715000000000146e+03
2.500000000000000139e-02 1.328239999999999976e-01 2.366315000000000168e+01 6.582339999999999236e+01 1.866299999999999955e+03
2.600000000000000228e-02 1.328670000000000129e-01 2.382049999999999912e+01 6.681855000000000189e+01 1.866795000000000073e+03
2.700000000000000316e-02 1.328984999999999750e-01 2.377629999999999910e+01 6.725945000000000107e+01 1.867160000000000082e+03
2.800000000000000058e-02 1.329164999999999930e-01 2.356855000000000189e+01 6.722015000000000384e+01 1.867380000000000109e+03
2.900000000000000147e-02 1.329230000000000134e-01 2.325205000000000055e+01 6.685134999999999650e+01 1.867474999999999909e+03
3.000000000000000236e-02 1.329219999999999846e-01 2.288109999999999999e+01 6.632630000000000337e+01 1.867474999999999909e+03
3.099999999999999978e-02 1.329154999999999920e-01 2.249490000000000123e+01 6.579005000000000791e+01 1.867420000000000073e+03
3.200000000000000067e-02 1.329075000000000117e-01 2.211019999999999897e+01 6.532620000000000005e+01 1.867335000000000036e+03
3.300000000000000155e-02 1.328995000000000037e-01 2.172229999999999706e+01 6.494704999999999018e+01 1.867244999999999891e+03
3.400000000000000244e-02 1.328904999999999947e-01 2.131149999999999878e+01 6.460585000000000377e+01 1.867154999999999973e+03
3.500000000000000333e-02 1.328805000000000125e-01 2.085345000000000226e+01 6.422469999999999857e+01 1.867049999999999955e+03
3.600000000000000422e-02 1.328674999999999995e-01 2.033055000000000234e+01 6.372780000000000200e+01 1.866914999999999964e+03
3.700000000000000511e-02 1.328504999999999825e-01 1.973985000000000056e+01 6.307169999999999277e+01 1.866735000000000127e+03
3.799999999999999906e-02 1.328294999999999892e-01 1.909769999999999968e+01 6.226500000000000057e+01 1.866500000000000000e+03
3.899999999999999994e-02 1.328040000000000054e-01 1.843849999999999767e+01 6.137199999999999989e+01 1.866235000000000127e+03
4.000000000000000083e-02 1.327770000000000061e-01 1.780900000000000105e+01 6.050234999999999985e+01 1.865945000000000164e+03
4.100000000000000172e-02 1.327519999999999811e-01 1.725914999999999822e+01 5.978705000000000069e+01 1.865664999999999964e+03
4.200000000000000261e-02 1.327320000000000166e-01 1.683184999999999931e+01 5.934949999999999903e+01 1.865445000000000164e+03
4.300000000000000350e-02 1.327205000000000190e-01 1.655474999999999852e+01 5.927850000000000108e+01 1.865315000000000055e+03
4.400000000000000439e-02 1.327194999999999903e-01 1.643489999999999895e+01 5.960849999999999937e+01 1.865289999999999964e+03
4.499999999999999833e-02 1.327295000000000003e-01 1.645810000000000173e+01 6.031260000000000332e+01 1.865380000000000109e+03
4.599999999999999922e-02 1.327490000000000059e-01 1.659134999999999849e+01 6.130724999999999625e+01 1.865585000000000036e+03
4.700000000000000011e-02 1.327765000000000195e-01 1.678909999999999769e+01 6.246755000000000280e+01 1.865880000000000109e+03
4.800000000000000100e-02 1.328084999999999960e-01 1.700005000000000166e+01 6.364779999999999660e+01 1.866224999999999909e+03
4.900000000000000189e-02 1.328415000000000012e-01 1.717419999999999902e+01 6.470329999999999870e+01 1.866574999999999818e+03
5.000000000000000278e-02 1.328710000000000169e-01 1.726899999999999835e+01 6.550955000000000439e+01 1.866905000000000200e+03
5.100000000000000366e-02 1.328940000000000121e-01 1.725249999999999773e+01 6.597560000000000002e+01 1.867155000000000200e+03
5.200000000000000455e-02 1.329079999999999984e-01 1.710549999999999926e+01 6.604999999999999716e+01 1.867309999999999945e+03
5.300000000000000544e-02 1.329110000000000014e-01 1.682089999999999819e+01 6.572104999999999109e+01 1.867349999999999909e+03
5.399999999999999939e-02 1.329025000000000067e-01 1.640194999999999936e+01 6.501014999999999588e+01 1.867269999999999982e+03
5.500000000000000028e-02 1.328830000000000011e-01 1.585960000000000036e+01 6.396344999999999459e+01 1.867059999999999945e+03
5.600000000000000117e-02 1.328525000000000122e-01 1.520974999999999966e+01 6.264135000000000275e+01 1.866735000000000127e+03
5.700000000000000205e-02 1.328139999999999876e-01 1.447109999999999985e+01 6.110965000000000202e+01 1.866320000000000164e+03
5.800000000000000294e-02 1.327675000000000105e-01 1.366319999999999979e+01 5.943325000000000102e+01 1.865824999999999818e+03
5.900000000000000383e-02 1.327160000000000006e-01 1.280600000000000094e+01 5.767164999999999964e+01 1.865259999999999991e+03
6.000000000000000472e-02 1.326605000000000145e-01 1.191956499999999863e+01 5.587890000000000157e+01 1.864660000000000082e+03
6.099999999999999867e-02 1.326034999999999853e-01 1.102448000000000050e+01 5.410410000000000252e+01 1.864029999999999973e+03
6.199999999999999956e-02 1.325454999999999828e-01 1.014222499999999982e+01 5.239405000000000001e+01 1.863400000000000091e+03
6.300000000000000044e-02 1.324889999999999957e-01 9.295899999999999608e+00 5.079540000000000077e+01 1.862779999999999973e+03
6.400000000000000133e-02 1.324349999999999972e-01 8.509924999999999073e+00 4.935670000000000357e+01 1.862190000000000055e+03
6.500000000000000222e-02 1.323860000000000037e-01 7.810019999999999740e+00 4.812895000000000323e+01 1.861650000000000091e+03
6.600000000000000311e-02 1.323435000000000028e-01 7.222545000000000215e+00 4.716490000000000293e+01 1.861179999999999836e+03
6.700000000000000400e-02 1.323084999999999956e-01 6.773260000000000502e+00 4.651749999999999829e+01 1.860795000000000073e+03
6.800000000000000488e-02 1.322840000000000127e-01 6.486275000000000013e+00 4.623680000000000234e+01 1.860514999999999873e+03
6.900000000000000577e-02 1.322709999999999997e-01 6.382664999999999367e+00 4.636690000000000111e+01 1.860360000000000127e+03
7.000000000000000666e-02 1.322709999999999997e-01 6.479224999999999568e+00 4.694284999999999997e+01 1.860340000000000146e+03
7.100000000000000755e-02 1.322855000000000003e-01 6.787539999999999907e+00 4.798780000000000001e+01 1.860485000000000127e+03
7.200000000000000844e-02 1.323145000000000016e-01 7.313290000000000290e+00 4.951154999999999973e+01 1.860789999999999964e+03
7.300000000000000933e-02 1.323595000000000188e-01 8.055989999999999540e+00 5.150920000000000698e+01 1.861259999999999991e+03
7.399999999999999634e-02 1.324199999999999822e-01 9.009090000000000487e+00 5.396189999999999998e+01 1.861904999999999973e+03
7.499999999999999722e-02 1.324954999999999883e-01 1.016035000000000110e+01 5.683769999999999811e+01 1.862714999999999918e+03
7.599999999999999811e-02 1.325854999999999950e-01 1.149268000000000001e+01 6.009359999999999502e+01 1.863684999999999945e+03
7.699999999999999900e-02 1.326890000000000014e-01 1.298506499999999875e+01 6.367834999999999468e+01 1.864795000000000073e+03
7.799999999999999989e-02 1.328030000000000044e-01 1.461355000000000004e+01 6.753525000000000489e+01 1.866039999999999964e+03
7.900000000000000078e-02 1.329274999999999762e-01 1.635255000000000081e+01 7.160489999999998645e+01 1.867400000000000091e+03
8.000000000000000167e-02 1.330604999999999982e-01 1.817575000000000074e+01 7.582880000000000109e+01 1.868849999999999909e+03
8.100000000000000255e-02 1.331990000000000118e-01 2.005760000000000076e+01 8.015139999999999532e+01 1.870375000000000000e+03
8.200000000000000344e-02 1.333429999999999893e-01 2.197384999999999877e+01 8.452280000000000371e+01 1.871954999999999927e+03
8.300000000000000433e-02 1.334890000000000243e-01 2.390254999999999797e+01 8.890030000000000143e+01 1.873575000000000045e+03
8.400000000000000522e-02 1.336370000000000058e-01 2.582464999999999833e+01 9.324959999999998672e+01 1.875214999999999918e+03
8.500000000000000611e-02 1.337855000000000016e-01 2.772415000000000163e+01 9.754509999999999081e+01 1.876869999999999891e+03
8.600000000000000699e-02 1.339334999999999831e-01 2.958840000000000003e+01 1.017693000000000012e+02 1.878519999999999982e+03
8.700000000000000788e-02 1.340804999999999914e-01 3.140794999999999959e+01 1.059141999999999939e+02 1.880159999999999854e+03
8.800000000000000877e-02 1.342249999999999832e-01 3.317595000000000027e+01 1.099759999999999991e+02 1.881785000000000082e+03
8.899999999999999578e-02 1.343679999999999874e-01 3.488815000000000310e+01 1.139569999999999936e+02 1.883394999999999982e+03
8.999999999999999667e-02 1.345089999999999897e-01 3.654200000000000159e+01 1.178629999999999995e+02 1.884985000000000127e+03
9.099999999999999756e-02 1.346485000000000043e-01 3.813635000000000019e+01 1.216995000000000005e+02 1.886554999999999836e+03
9.199999999999999845e-02 1.347849999999999882e-01 3.967055000000000575e+01 1.254735000000000014e+02 1.888105000000000018e+03
9.299999999999999933e-02 1.349204999999999988e-01 4.114439999999999742e+01 1.291895000000000095e+02 1.889634999999999991e+03
9.400000000000000022e-02 1.350534999999999930e-01 4.255745000000000289e+01 1.328485000000000014e+02 1.891150000000000091e+03
9.500000000000000111e-02 1.351849999999999996e-01 4.390885000000000105e+01 1.364505000000000052e+02 1.892644999999999982e+03
9.600000000000000200e-02 1.353145000000000042e-01 4.519704999999999728e+01 1.399909999999999854e+02 1.894119999999999891e+03
9.700000000000000289e-02 1.354420000000000068e-01 4.641995000000000005e+01 1.434619999999999891e+02 1.895575000000000045e+03
9.800000000000000377e-02 1.355669999999999931e-01 4.757479999999999620e+01 1.468530000000000086e+02 1.897005000000000109e+03
9.900000000000000466e-02 1.356890000000000041e-01 4.865805000000000291e+01 1.501519999999999868e+02 1.898400000000000091e+03
1.000000000000000056e-01 1.358079999999999843e-01 4.966585000000000605e+01 1.533444999999999823e+02 1.899769999999999982e+03
1.010000000000000064e-01 1.359235000000000027e-01 5.059389999999999787e+01 1.564144999999999754e+02 1.901099999999999909e+03
1.020000000000000073e-01 1.360350000000000170e-01 5.143779999999999575e+01 1.593464999999999918e+02 1.902384999999999991e+03
1.030000000000000082e-01 1.361424999999999996e-01 5.219290000000000163e+01 1.621245000000000118e+02 1.903615000000000009e+03
1.040000000000000091e-01 1.362440000000000040e-01 5.285495000000000232e+01 1.647334999999999923e+02 1.904789999999999964e+03
1.050000000000000100e-01 1.363400000000000167e-01 5.341974999999999341e+01 1.671594999999999800e+02 1.905905000000000200e+03
1.059999999999999970e-01 1.364299999999999957e-01 5.388374999999999915e+01 1.693894999999999982e+02 1.906944999999999936e+03
1.069999999999999979e-01 1.365139999999999965e-01 5.424389999999999645e+01 1.714125000000000227e+02 1.907920000000000073e+03
1.079999999999999988e-01 1.365905000000000036e-01 5.449774999999999636e+01 1.732205000000000155e+02 1.908809999999999945e+03
1.089999999999999997e-01 1.366594999999999893e-01 5.464414999999999623e+01 1.748059999999999832e+02 1.909619999999999891e+03
1.100000000000000006e-01 1.367214999999999958e-01 5.468280000000000030e+01 1.761655000000000086e+02 1.910345000000000027e+03
1.110000000000000014e-01 1.367760000000000087e-01 5.461464999999999748e+01 1.772980000000000018e+02 1.910985000000000127e+03
1.120000000000000023e-01 1.368225000000000136e-01 5.444194999999999851e+01 1.782069999999999936e+02 1.911535000000000082e+03
1.130000000000000032e-01 1.368614999999999970e-01 5.416855000000000331e+01 1.788965000000000032e+02 1.911994999999999891e+03
1.140000000000000041e-01 1.368929999999999869e-01 5.379940000000000566e+01 1.793774999999999977e+02 1.912375000000000000e+03
1.150000000000000050e-01 1.369170000000000109e-01 5.334109999999999729e+01 1.796610000000000014e+02 1.912664999999999964e+03
1.160000000000000059e-01 1.369345000000000145e-01 5.280124999999999602e+01 1.797629999999999768e+02 1.912875000000000000e+03
1.170000000000000068e-01 1.369454999999999978e-01 5.218864999999999554e+01 1.796999999999999886e+02 1.913015000000000100e+03
1.180000000000000077e-01 1.369505000000000028e-01 5.151279999999999859e+01 1.794929999999999950e+02 1.913079999999999927e+03
1.190000000000000085e-01 1.369500000000000162e-01 5.078395000000000437e+01 1.791619999999999777e+02 1.913085000000000036e+03
1.200000000000000094e-01 1.369449999999999834e-01 5.001229999999999620e+01 1.787280000000000086e+02 1.913039999999999964e+03
1.209999999999999964e-01 1.369365000000000165e-01 4.920830000000000126e+01 1.782119999999999891e+02 1.912945000000000164e+03
1.219999999999999973e-01 1.369239999999999902e-01 4.838174999999999670e+01 1.776340000000000146e+02 1.912809999999999945e+03
1.229999999999999982e-01 1.369090000000000029e-01 4.754205000000000325e+01 1.770124999999999886e+02 1.912639999999999873e+03
1.239999999999999991e-01 1.368920000000000137e-01 4.669760000000000133e+01 1.763634999999999877e+02 1.912450000000000045e+03
1.250000000000000000e-01 1.368735000000000090e-01 4.585569999999999879e+01 1.757005000000000052e+02 1.912240000000000009e+03
1.260000000000000009e-01 1.368535000000000168e-01 4.502239999999999753e+01 1.750339999999999918e+02 1.912014999999999873e+03
1.270000000000000018e-01 1.368334999999999968e-01 4.420260000000000389e+01 1.743725000000000023e+02 1.911779999999999973e+03
1.280000000000000027e-01 1.368130000000000179e-01 4.339950000000000330e+01 1.737199999999999989e+02 1.911534999999999854e+03
1.290000000000000036e-01 1.367915000000000103e-01 4.261525000000000318e+01 1.730790000000000077e+02 1.911299999999999955e+03
1.300000000000000044e-01 1.367710000000000037e-01 4.185054999999999836e+01 1.724479999999999791e+02 1.911049999999999955e+03
1.310000000000000053e-01 1.367494999999999961e-01 4.110479999999999734e+01 1.718245000000000005e+02 1.910809999999999945e+03
1.320000000000000062e-01 1.367285000000000028e-01 4.037645000000000550e+01 1.712019999999999982e+02 1.910559999999999945e+03
1.330000000000000071e-01 1.367074999999999818e-01 3.966285000000000593e+01 1.705740000000000123e+02 1.910309999999999945e+03
1.340000000000000080e-01 1.366855000000000153e-01 3.896075000000000443e+01 1.699325000000000045e+02 1.910065000000000055e+03
1.350000000000000089e-01 1.366634999999999933e-01 3.826630000000000109e+01 1.692680000000000007e+02 1.909805000000000064e+03
1.360000000000000098e-01 1.366399999999999837e-01 3.757535000000000025e+01 1.685715000000000146e+02 1.909534999999999854e+03
1.370000000000000107e-01 1.366155000000000008e-01 3.688365000000000293e+01 1.678335000000000150e+02 1.909250000000000000e+03
1.380000000000000115e-01 1.365899999999999892e-01 3.618694999999999595e+01 1.670450000000000159e+02 1.908954999999999927e+03
1.390000000000000124e-01 1.365625000000000033e-01 3.548149999999999693e+01 1.661999999999999886e+02 1.908640000000000100e+03
1.400000000000000133e-01 1.365335000000000021e-01 3.476384999999999792e+01 1.652905000000000086e+02 1.908299999999999955e+03
1.410000000000000142e-01 1.365020000000000122e-01 3.403135000000000332e+01 1.643135000000000048e+02 1.907940000000000055e+03
1.420000000000000151e-01 1.364690000000000070e-01 3.328190000000000026e+01 1.632665000000000077e+02 1.907559999999999945e+03
1.430000000000000160e-01 1.364329999999999987e-01 3.251465000000000316e+01 1.621480000000000246e+02 1.907144999999999982e+03
1.440000000000000169e-01 1.363945000000000018e-01 3.172925000000000040e+01 1.609610000000000127e+02 1.906710000000000036e+03
1.450000000000000178e-01 1.363544999999999896e-01 3.092674999999999841e+01 1.597085000000000150e+02 1.906250000000000000e+03
1.459999999999999909e-01 1.363119999999999887e-01 3.010889999999999844e+01 1.583980000000000246e+02 1.905764999999999873e+03
1.469999999999999918e-01 1.362674999999999859e-01 2.927854999999999919e+01 1.570370000000000061e+02 1.905255000000000109e+03
1.479999999999999927e-01 1.362209999999999810e-01 2.843925000000000125e+01 1.556349999999999909e+02 1.904724999999999909e+03
1.489999999999999936e-01 1.361735000000000029e-01 2.759539999999999793e+01 1.542044999999999959e+02 1.904184999999999945e+03
1.499999999999999944e-01 1.361249999999999960e-01 2.675200000000000244e+01 1.527565000000000168e+02 1.903619999999999891e+03
1.509999999999999953e-01 1.360755000000000159e-01 2.591434999999999889e+01 1.513050000000000068e+02 1.903059999999999945e+03
1.519999999999999962e-01 1.360254999999999936e-01 2.508800000000000097e+01 1.498639999999999759e+02 1.902490000000000009e+03
1.529999999999999971e-01 1.359759999999999858e-01 2.427854999999999919e+01 1.484445000000000050e+02 1.901920000000000073e+03
1.539999999999999980e-01 1.359265000000000057e-01 2.349145000000000039e+01 1.470615000000000236e+02 1.901359999999999900e+03
1.549999999999999989e-01 1.358785000000000132e-01 2.273189999999999955e+01 1.457245000000000061e+02 1.900804999999999836e+03
1.559999999999999998e-01 1.358320000000000083e-01 2.200430000000000064e+01 1.444445000000000050e+02 1.900269999999999982e+03
1.570000000000000007e-01 1.357865000000000044e-01 2.131275000000000119e+01 1.432284999999999968e+02 1.899750000000000000e+03
1.580000000000000016e-01 1.357434999999999892e-01 2.066035000000000110e+01 1.420844999999999914e+02 1.899255000000000109e+03
1.590000000000000024e-01 1.357019999999999893e-01 2.004950000000000188e+01 1.410165000000000077e+02 1.898779999999999973e+03
