# t [s], A [cm^2], U [cm/s], P [cPa], c [cm/s]
1.000000000000000021e-03 6.459110000000000129e-01 6.123299999999998189e-03 9.065569999999999595e+01 1.737425000000000182e+03
2.000000000000000042e-03 6.458995000000000708e-01 -4.704525000000000200e-03 9.062194999999999823e+01 1.737420000000000073e+03
3.000000000000000062e-03 6.459485000000000365e-01 8.827484999999998805e-02 9.072790000000000532e+01 1.737440000000000055e+03
4.000000000000000083e-03 6.459960000000000147e-01 1.896500999999999881e-01 9.085925000000000296e+01 1.737465000000000146e+03
5.000000000000000104e-03 6.459679999999999866e-01 1.655332999999999943e-01 9.079619999999999891e+01 1.737454999999999927e+03
6.000000000000000125e-03 6.459030000000000049e-01 6.722200000000000397e-02 9.056184999999999263e+01 1.737405000000000200e+03
7.000000000000000146e-03 6.458519999999999817e-01 -1.311400000000001453e-02 9.028820000000000334e+01 1.737349999999999909e+03
8.000000000000000167e-03 6.457725000000000826e-01 -1.607610000000000428e-01 8.988710000000000377e+01 1.737269999999999982e+03
9.000000000000001055e-03 6.456355000000000288e-01 -4.328149999999999498e-01 8.926150000000001228e+01 1.737139999999999873e+03
1.000000000000000194e-02 6.454374999999999973e-01 -8.370199999999998752e-01 8.836375000000001023e+01 1.736960000000000036e+03
1.099999999999999936e-02 6.451584999999999681e-01 -1.403515000000000068e+00 8.711334999999999695e+01 1.736710000000000036e+03
1.200000000000000025e-02 6.447935000000000194e-01 -2.126329999999999831e+00 8.546840000000000259e+01 1.736369999999999891e+03
1.300000000000000114e-02 6.443864999999999732e-01 -2.899764999999999926e+00 8.353199999999999648e+01 1.735965000000000146e+03
1.400000000000000203e-02 6.440084999999999837e-01 -3.558567000000000036e+00 8.152844999999999231e+01 1.735525000000000091e+03
1.499999999999999944e-02 6.437089999999999756e-01 -3.969879549999999924e+00 7.968160000000000309e+01 1.735099999999999909e+03
1.600000000000000033e-02 6.434965000000000268e-01 -4.088812499999999517e+00 7.811214999999999975e+01 1.734714999999999918e+03
1.700000000000000122e-02 6.433409999999999407e-01 -3.955614999999999881e+00 7.681155000000001110e+01 1.734380000000000109e+03
1.800000000000000211e-02 6.431974999999999776e-01 -3.658185000000000020e+00 7.567570000000000618e+01 1.734065000000000055e+03
1.900000000000000300e-02 6.430259999999999865e-01 -3.287649999999999739e+00 7.456655000000000655e+01 1.733764999999999873e+03
2.000000000000000042e-02 6.428039999999999310e-01 -2.904361000000000193e+00 7.337154999999999916e+01 1.733445000000000164e+03
2.100000000000000130e-02 6.425345000000000084e-01 -2.522820999999999980e+00 7.204169999999999163e+01 1.733105000000000018e+03
2.200000000000000219e-02 6.422379999999999756e-01 -2.117879999999999985e+00 7.059854999999998881e+01 1.732735000000000127e+03
2.299999999999999961e-02 6.419405000000000250e-01 -1.647415000000000296e+00 6.911055000000000348e+01 1.732360000000000127e+03
2.400000000000000050e-02 6.416610000000000369e-01 -1.080175000000000107e+00 6.765229999999999677e+01 1.731985000000000127e+03
2.500000000000000139e-02 6.414040000000000852e-01 -4.167499999999999538e-01 6.626590000000000202e+01 1.731614999999999782e+03
2.600000000000000228e-02 6.411565000000000181e-01 3.030850000000002709e-01 6.493859999999999388e+01 1.731264999999999873e+03
2.700000000000000316e-02 6.408924999999999761e-01 1.006925000000000070e+00 6.360060000000000002e+01 1.730909999999999854e+03
2.800000000000000058e-02 6.405804999999999971e-01 1.606530000000000014e+00 6.214289999999999736e+01 1.730534999999999854e+03
2.900000000000000147e-02 6.401939999999999298e-01 2.019750000000000156e+00 6.044774999999999920e+01 1.730115000000000009e+03
3.000000000000000236e-02 6.397180000000000089e-01 2.191755000000000564e+00 5.842390000000000327e+01 1.729630000000000109e+03
3.099999999999999978e-02 6.391554999999999875e-01 2.109374999999999556e+00 5.603714999999999691e+01 1.729075000000000045e+03
3.200000000000000067e-02 6.385285000000000544e-01 1.803710000000000147e+00 5.332435000000000258e+01 1.728460000000000036e+03
3.300000000000000155e-02 6.378705000000000069e-01 1.340460000000000207e+00 5.038864999999999839e+01 1.727789999999999964e+03
3.400000000000000244e-02 6.372219999999999551e-01 8.023950000000001914e-01 4.737729999999999819e+01 1.727090000000000146e+03
3.500000000000000333e-02 6.366164999999999186e-01 2.709099999999997621e-01 4.445289999999999964e+01 1.726409999999999854e+03
3.600000000000000422e-02 6.360829999999999540e-01 -1.877149999999998542e-01 4.176585000000000036e+01 1.725759999999999991e+03
3.700000000000000511e-02 6.356384999999999952e-01 -5.289050000000004026e-01 3.943569999999999709e+01 1.725190000000000055e+03
3.799999999999999906e-02 6.352904999999999802e-01 -7.296400000000002883e-01 3.754274999999999807e+01 1.724710000000000036e+03
3.899999999999999994e-02 6.350400000000000489e-01 -7.836300000000000487e-01 3.612865000000000038e+01 1.724324999999999818e+03
4.000000000000000083e-02 6.348825000000000163e-01 -6.940749999999999975e-01 3.520434999999999803e+01 1.724054999999999836e+03
4.100000000000000172e-02 6.348145000000000593e-01 -4.664304999999999701e-01 3.476095000000000113e+01 1.723884999999999991e+03
4.200000000000000261e-02 6.348320000000000629e-01 -1.029193499999999928e-01 3.478099999999999881e+01 1.723835000000000036e+03
4.300000000000000350e-02 6.349329999999999696e-01 3.999749999999999694e-01 3.524729999999999563e+01 1.723884999999999991e+03
4.400000000000000439e-02 6.351185000000000302e-01 1.050784999999999858e+00 3.614695000000000391e+01 1.724045000000000073e+03
4.499999999999999833e-02 6.353880000000000638e-01 1.859864999999999657e+00 3.747050000000000125e+01 1.724304999999999836e+03
4.599999999999999922e-02 6.357420000000000293e-01 2.834929999999999950e+00 3.920830000000000126e+01 1.724659999999999854e+03
4.700000000000000011e-02 6.361775000000000624e-01 3.977035000000000320e+00 4.134505000000000052e+01 1.725115000000000009e+03
4.800000000000000100e-02 6.366870000000000029e-01 5.277944999999999887e+00 4.385504999999999853e+01 1.725659999999999854e+03
4.900000000000000189e-02 6.372610000000000774e-01 6.719629000000000296e+00 4.669969999999999999e+01 1.726284999999999854e+03
5.000000000000000278e-02 6.378875000000000517e-01 8.275375000000000369e+00 4.982769999999999300e+01 1.726985000000000127e+03
5.100000000000000366e-02 6.385520000000000085e-01 9.912589999999999790e+00 5.317764999999999986e+01 1.727740000000000009e+03
5.200000000000000455e-02 6.392404999999999893e-01 1.159622000000000064e+01 5.668269999999999698e+01 1.728545000000000073e+03
5.300000000000000544e-02 6.399380000000000068e-01 1.329211000000000098e+01 6.027590000000000003e+01 1.729380000000000109e+03
5.399999999999999939e-02 6.406350000000000655e-01 1.496978999999999971e+01 6.389549999999999841e+01 1.730224999999999909e+03
5.500000000000000028e-02 6.413214999999999888e-01 1.660460499999999939e+01 6.748935000000000173e+01 1.731085000000000036e+03
5.600000000000000117e-02 6.419920000000000071e-01 1.817849999999999966e+01 7.101779999999999404e+01 1.731929999999999836e+03
5.700000000000000205e-02 6.426439999999999930e-01 1.967989999999999995e+01 7.445454999999999757e+01 1.732764999999999873e+03
5.800000000000000294e-02 6.432765000000000288e-01 2.110309999999999775e+01 7.778649999999998954e+01 1.733579999999999927e+03
5.900000000000000383e-02 6.438909999999999911e-01 2.244720000000000226e+01 8.101214999999999122e+01 1.734380000000000109e+03
6.000000000000000472e-02 6.444900000000000073e-01 2.371459999999999724e+01 8.413894999999999413e+01 1.735155000000000200e+03
6.099999999999999867e-02 6.450774999999999704e-01 2.490994999999999848e+01 8.718110000000000070e+01 1.735914999999999964e+03
6.199999999999999956e-02 6.456564999999999666e-01 2.603900000000000148e+01 9.015604999999999336e+01 1.736659999999999854e+03
6.300000000000000044e-02 6.462304999999999300e-01 2.710754999999999981e+01 9.308230000000000359e+01 1.737389999999999873e+03
6.400000000000000133e-02 6.468019999999999881e-01 2.812055000000000149e+01 9.597620000000000573e+01 1.738115000000000009e+03
6.500000000000000222e-02 6.473729999999999762e-01 2.908169999999999789e+01 9.885124999999999318e+01 1.738835000000000036e+03
6.600000000000000311e-02 6.479439999999999644e-01 2.999245000000000161e+01 1.017150499999999909e+02 1.739549999999999955e+03
6.700000000000000400e-02 6.485144999999999937e-01 3.085235000000000127e+01 1.045679499999999962e+02 1.740264999999999873e+03
6.800000000000000488e-02 6.490814999999999779e-01 3.165869999999999962e+01 1.074054999999999893e+02 1.740974999999999909e+03
6.900000000000000577e-02 6.496429999999999705e-01 3.240690000000000026e+01 1.102150000000000034e+02 1.741674999999999955e+03
7.000000000000000666e-02 6.501945000000000086e-01 3.309125000000000227e+01 1.129805000000000064e+02 1.742369999999999891e+03
7.100000000000000755e-02 6.507319999999999771e-01 3.370534999999999570e+01 1.156825000000000045e+02 1.743055000000000064e+03
7.200000000000000844e-02 6.512504999999999544e-01 3.424289999999999878e+01 1.182985000000000042e+02 1.743715000000000146e+03
7.300000000000000933e-02 6.517470000000000763e-01 3.469814999999999827e+01 1.208064999999999998e+02 1.744349999999999909e+03
7.399999999999999634e-02 6.522170000000000467e-01 3.506660000000000110e+01 1.231869999999999976e+02 1.744965000000000146e+03
7.499999999999999722e-02 6.526575000000000015e-01 3.534485000000000099e+01 1.254209999999999923e+02 1.745539999999999964e+03
7.599999999999999811e-02 6.530664999999999942e-01 3.553085000000000093e+01 1.274950000000000045e+02 1.746079999999999927e+03
7.699999999999999900e-02 6.534415000000000084e-01 3.562375000000000114e+01 1.293965000000000032e+02 1.746579999999999927e+03
7.799999999999999989e-02 6.537809999999999455e-01 3.562409999999999854e+01 1.311189999999999998e+02 1.747034999999999854e+03
7.900000000000000078e-02 6.540854999999999864e-01 3.553340000000000032e+01 1.326574999999999989e+02 1.747450000000000045e+03
8.000000000000000167e-02 6.543544999999999501e-01 3.535439999999999827e+01 1.340115000000000123e+02 1.747819999999999936e+03
8.100000000000000255e-02 6.545885000000000176e-01 3.509114999999999895e+01 1.351829999999999927e+02 1.748144999999999982e+03
8.200000000000000344e-02 6.547880000000000367e-01 3.474884999999999735e+01 1.361775000000000091e+02 1.748429999999999836e+03
8.300000000000000433e-02 6.549559999999999826e-01 3.433424999999999727e+01 1.370039999999999907e+02 1.748670000000000073e+03
8.400000000000000522e-02 6.550944999999999130e-01 3.385535000000000139e+01 1.376744999999999948e+02 1.748869999999999891e+03
8.500000000000000611e-02 6.552065000000000250e-01 3.332144999999999868e+01 1.382044999999999959e+02 1.749030000000000200e+03
8.600000000000000699e-02 6.552949999999999608e-01 3.274275000000000091e+01 1.386094999999999970e+02 1.749160000000000082e+03
8.700000000000000788e-02 6.553649999999999753e-01 3.213015000000000043e+01 1.389089999999999918e+02 1.749259999999999991e+03
8.800000000000000877e-02 6.554189999999999738e-01 3.149480000000000146e+01 1.391225000000000023e+02 1.749340000000000146e+03
8.899999999999999578e-02 6.554619999999999891e-01 3.084734999999999872e+01 1.392699999999999818e+02 1.749400000000000091e+03
8.999999999999999667e-02 6.554964999999999264e-01 3.019765000000000299e+01 1.393695000000000164e+02 1.749445000000000164e+03
9.099999999999999756e-02 6.555260000000000531e-01 2.955414999999999992e+01 1.394379999999999882e+02 1.749474999999999909e+03
9.199999999999999845e-02 6.555530000000000523e-01 2.892345000000000255e+01 1.394890000000000043e+02 1.749500000000000000e+03
9.299999999999999933e-02 6.555774999999999242e-01 2.831045000000000300e+01 1.395330000000000155e+02 1.749514999999999873e+03
9.400000000000000022e-02 6.556020000000000181e-01 2.771764999999999901e+01 1.395760000000000218e+02 1.749534999999999854e+03
9.500000000000000111e-02 6.556250000000000133e-01 2.714589999999999748e+01 1.396200000000000045e+02 1.749545000000000073e+03
9.600000000000000200e-02 6.556470000000000908e-01 2.659400000000000119e+01 1.396639999999999873e+02 1.749559999999999945e+03
9.700000000000000289e-02 6.556665000000000409e-01 2.605930000000000035e+01 1.397044999999999959e+02 1.749569999999999936e+03
9.800000000000000377e-02 6.556824999999999459e-01 2.553790000000000049e+01 1.397340000000000089e+02 1.749579999999999927e+03
9.900000000000000466e-02 6.556910000000000238e-01 2.502519999999999811e+01 1.397435000000000116e+02 1.749579999999999927e+03
1.000000000000000056e-01 6.556925000000000114e-01 2.451579999999999870e+01 1.397239999999999895e+02 1.749579999999999927e+03
1.010000000000000064e-01 6.556845000000000034e-01 2.400444999999999851e+01 1.396650000000000205e+02 1.749565000000000055e+03
1.020000000000000073e-01 6.556644999999999834e-01 2.348579999999999757e+01 1.395575000000000045e+02 1.749539999999999964e+03
1.030000000000000082e-01 6.556314999999999227e-01 2.295510000000000161e+01 1.393924999999999841e+02 1.749505000000000109e+03
1.040000000000000091e-01 6.555839999999999446e-01 2.240845000000000198e+01 1.391625000000000227e+02 1.749454999999999927e+03
1.050000000000000100e-01 6.555219999999999381e-01 2.184275000000000233e+01 1.388625000000000114e+02 1.749385000000000218e+03
1.059999999999999970e-01 6.554455000000000142e-01 2.125630000000000308e+01 1.384909999999999854e+02 1.749299999999999955e+03
1.069999999999999979e-01 6.553539999999999921e-01 2.064860000000000184e+01 1.380475000000000136e+02 1.749204999999999927e+03
1.079999999999999988e-01 6.552489999999999704e-01 2.002074999999999960e+01 1.375360000000000014e+02 1.749085000000000036e+03
1.089999999999999997e-01 6.551320000000000476e-01 1.937525000000000119e+01 1.369630000000000223e+02 1.748954999999999927e+03
1.100000000000000006e-01 6.550055000000000183e-01 1.871600000000000108e+01 1.363369999999999891e+02 1.748809999999999945e+03
1.110000000000000014e-01 6.548715000000000508e-01 1.804824999999999946e+01 1.356694999999999993e+02 1.748654999999999973e+03
1.120000000000000023e-01 6.547339999999999272e-01 1.737825000000000131e+01 1.349745000000000061e+02 1.748490000000000009e+03
1.130000000000000032e-01 6.545950000000000379e-01 1.671300000000000097e+01 1.342680000000000007e+02 1.748325000000000045e+03
1.140000000000000041e-01 6.544579999999999842e-01 1.606000000000000227e+01 1.335649999999999977e+02 1.748154999999999973e+03
1.150000000000000050e-01 6.543269999999999920e-01 1.542680000000000007e+01 1.328814999999999884e+02 1.747990000000000009e+03
1.160000000000000059e-01 6.542040000000000077e-01 1.482065000000000055e+01 1.322344999999999970e+02 1.747829999999999927e+03
1.170000000000000068e-01 6.540924999999999656e-01 1.424845000000000184e+01 1.316370000000000005e+02 1.747679999999999836e+03
1.180000000000000077e-01 6.539945000000000341e-01 1.371594999999999942e+01 1.311024999999999920e+02 1.747539999999999964e+03
1.190000000000000085e-01 6.539110000000000200e-01 1.322786499999999954e+01 1.306405000000000030e+02 1.747420000000000073e+03
1.200000000000000094e-01 6.538439999999999808e-01 1.278748000000000040e+01 1.302574999999999932e+02 1.747315000000000055e+03
1.209999999999999964e-01 6.537939999999999863e-01 1.239676500000000026e+01 1.299579999999999984e+02 1.747235000000000127e+03
1.219999999999999973e-01 6.537600000000000078e-01 1.205608000000000146e+01 1.297429999999999950e+02 1.747170000000000073e+03
1.229999999999999982e-01 6.537420000000000453e-01 1.176435999999999993e+01 1.296100000000000136e+02 1.747119999999999891e+03
1.239999999999999991e-01 6.537379999999999303e-01 1.151927000000000056e+01 1.295545000000000186e+02 1.747090000000000146e+03
1.250000000000000000e-01 6.537465000000000082e-01 1.131729999999999947e+01 1.295679999999999836e+02 1.747079999999999927e+03
1.260000000000000009e-01 6.537664999999999171e-01 1.115421500000000066e+01 1.296419999999999959e+02 1.747090000000000146e+03
1.270000000000000018e-01 6.537945000000000562e-01 1.102495000000000047e+01 1.297659999999999911e+02 1.747105000000000018e+03
1.280000000000000027e-01 6.538289999999999935e-01 1.092437499999999950e+01 1.299294999999999902e+02 1.747134999999999991e+03
1.290000000000000036e-01 6.538680000000000048e-01 1.084708499999999987e+01 1.301204999999999927e+02 1.747170000000000073e+03
1.300000000000000044e-01 6.539090000000000735e-01 1.078791999999999973e+01 1.303294999999999959e+02 1.747210000000000036e+03
1.310000000000000053e-01 6.539515000000000189e-01 1.074196500000000043e+01 1.305459999999999923e+02 1.747255000000000109e+03
1.320000000000000062e-01 6.539919999999999067e-01 1.070479500000000073e+01 1.307620000000000005e+02 1.747305000000000064e+03
1.330000000000000071e-01 6.540314999999999879e-01 1.067258500000000154e+01 1.309705000000000155e+02 1.747349999999999909e+03
1.340000000000000080e-01 6.540675000000000239e-01 1.064199499999999965e+01 1.311659999999999968e+02 1.747394999999999982e+03
1.350000000000000089e-01 6.541000000000000147e-01 1.061035000000000039e+01 1.313455000000000155e+02 1.747434999999999945e+03
1.360000000000000098e-01 6.541289999999999605e-01 1.057564499999999974e+01 1.315055000000000121e+02 1.747474999999999909e+03
1.370000000000000107e-01 6.541539999999999022e-01 1.053633999999999915e+01 1.316449999999999818e+02 1.747509999999999991e+03
1.380000000000000115e-01 6.541755000000000209e-01 1.049153499999999894e+01 1.317649999999999864e+02 1.747545000000000073e+03
1.390000000000000124e-01 6.541930000000000245e-01 1.044089500000000115e+01 1.318650000000000091e+02 1.747569999999999936e+03
1.400000000000000133e-01 6.542080000000000117e-01 1.038436499999999896e+01 1.319484999999999957e+02 1.747589999999999918e+03
1.410000000000000142e-01 6.542204999999999826e-01 1.032249499999999998e+01 1.320175000000000125e+02 1.747610000000000127e+03
1.420000000000000151e-01 6.542304999999999371e-01 1.025603500000000068e+01 1.320740000000000123e+02 1.747619999999999891e+03
1.430000000000000160e-01 6.542394999999999738e-01 1.018595999999999968e+01 1.321220000000000141e+02 1.747634999999999991e+03
1.440000000000000169e-01 6.542479999999999407e-01 1.011355499999999985e+01 1.321644999999999754e+02 1.747650000000000091e+03
1.450000000000000178e-01 6.542565000000000186e-01 1.004002499999999998e+01 1.322044999999999959e+02 1.747664999999999964e+03
1.459999999999999909e-01 6.542649999999999855e-01 9.966609999999999303e+00 1.322450000000000045e+02 1.747674999999999955e+03
1.469999999999999918e-01 6.542749999999999400e-01 9.894459999999998701e+00 1.322880000000000109e+02 1.747684999999999945e+03
1.479999999999999927e-01 6.542854999999999643e-01 9.824514999999999887e+00 1.323360000000000127e+02 1.747694999999999936e+03
1.489999999999999936e-01 6.542980000000000462e-01 9.757539999999998770e+00 1.323899999999999864e+02 1.747710000000000036e+03
1.499999999999999944e-01 6.543114999999999348e-01 9.694085000000001173e+00 1.324505000000000052e+02 1.747730000000000018e+03
1.509999999999999953e-01 6.543265000000000331e-01 9.634294999999999831e+00 1.325169999999999959e+02 1.747740000000000009e+03
1.519999999999999962e-01 6.543425000000000491e-01 9.578234999999999388e+00 1.325900000000000034e+02 1.747759999999999991e+03
1.529999999999999971e-01 6.543594999999999828e-01 9.525624999999999787e+00 1.326664999999999850e+02 1.747779999999999973e+03
1.539999999999999980e-01 6.543769999999999865e-01 9.476269999999999527e+00 1.327470000000000141e+02 1.747799999999999955e+03
1.549999999999999989e-01 6.543944999999999901e-01 9.429539999999999367e+00 1.328290000000000077e+02 1.747819999999999936e+03
1.559999999999999998e-01 6.544110000000000760e-01 9.385149999999999437e+00 1.329105000000000132e+02 1.747839999999999918e+03
1.570000000000000007e-01 6.544280000000000097e-01 9.342555000000000831e+00 1.329900000000000091e+02 1.747859999999999900e+03
1.580000000000000016e-01 6.544434999999999558e-01 9.301565000000000083e+00 1.330660000000000025e+02 1.747875000000000000e+03
1.590000000000000024e-01 6.544585000000000541e-01 9.261919999999999931e+00 1.331384999999999934e+02 1.747894999999999982e+03
