# t [s], A [cm^2], U [cm/s], P [cPa], c [cm/s]
1.000000000000000021e-03 1.715599999999999903e-01 1.848044999999999827e-01 8.709340000000000259e+01 2.187220000000000255e+03
2.000000000000000042e-03 1.715260000000000118e-01 1.388974500000000001e+00 8.435614999999999952e+01 2.186904999999999745e+03
3.000000000000000062e-03 1.714275000000000104e-01 2.928989500000000135e+00 8.043864999999999554e+01 2.186050000000000182e+03
4.000000000000000083e-03 1.712905000000000122e-01 4.689288342999999415e+00 7.600950000000000273e+01 2.184864999999999782e+03
5.000000000000000104e-03 1.711415000000000020e-01 6.616190000000000460e+00 7.189844999999999686e+01 2.183595000000000255e+03
6.000000000000000125e-03 1.709974999999999967e-01 8.568175000000000097e+00 6.847140000000000271e+01 2.182375000000000000e+03
7.000000000000000146e-03 1.708620000000000139e-01 1.033742499999999964e+01 6.554380000000000450e+01 2.181255000000000109e+03
8.000000000000000167e-03 1.707359999999999989e-01 1.182458500000000079e+01 6.287460000000000093e+01 2.180234999999999673e+03
9.000000000000001055e-03 1.706245000000000123e-01 1.305904500000000112e+01 6.051050000000000040e+01 2.179340000000000146e+03
1.000000000000000194e-02 1.705305000000000015e-01 1.407719999999999949e+01 5.855264999999999986e+01 2.178595000000000255e+03
1.099999999999999936e-02 1.704529999999999934e-01 1.489450000000000074e+01 5.700199999999999534e+01 2.177984999999999673e+03
1.200000000000000025e-02 1.703915000000000013e-01 1.552025000000000077e+01 5.580100000000000193e+01 2.177510000000000218e+03
1.300000000000000114e-02 1.703414999999999790e-01 1.595005000000000095e+01 5.483520000000000039e+01 2.177140000000000327e+03
1.400000000000000203e-02 1.703004999999999936e-01 1.618655000000000044e+01 5.396715000000000373e+01 2.176829999999999927e+03
1.499999999999999944e-02 1.702649999999999997e-01 1.629040000000000177e+01 5.318679999999999808e+01 2.176569999999999709e+03
1.600000000000000033e-02 1.702404999999999891e-01 1.639560000000000173e+01 5.272395000000000209e+01 2.176394999999999982e+03
1.700000000000000122e-02 1.702349999999999974e-01 1.665459999999999852e+01 5.295855000000000246e+01 2.176359999999999673e+03
1.800000000000000211e-02 1.702569999999999917e-01 1.715559999999999974e+01 5.417764999999999986e+01 2.176529999999999745e+03
1.900000000000000300e-02 1.703069999999999862e-01 1.787234999999999729e+01 5.636424999999999841e+01 2.176925000000000182e+03
2.000000000000000042e-02 1.703790000000000027e-01 1.867524999999999835e+01 5.915340000000000487e+01 2.177489999999999782e+03
2.100000000000000130e-02 1.704589999999999994e-01 1.938970000000000127e+01 6.196475000000000222e+01 2.178140000000000327e+03
2.200000000000000219e-02 1.705324999999999758e-01 1.986484999999999701e+01 6.422165000000001100e+01 2.178744999999999891e+03
2.299999999999999961e-02 1.705885000000000040e-01 2.002449999999999974e+01 6.554779999999999518e+01 2.179215000000000146e+03
2.400000000000000050e-02 1.706199999999999939e-01 1.988145000000000095e+01 6.586584999999999468e+01 2.179489999999999782e+03
2.500000000000000139e-02 1.706280000000000019e-01 1.951760000000000161e+01 6.537420000000000186e+01 2.179579999999999927e+03
2.600000000000000228e-02 1.706189999999999929e-01 1.904159999999999897e+01 6.442825000000000557e+01 2.179525000000000091e+03
2.700000000000000316e-02 1.706010000000000026e-01 1.854460000000000264e+01 6.338609999999999900e+01 2.179389999999999873e+03
2.800000000000000058e-02 1.705810000000000104e-01 1.807070000000000221e+01 6.248044999999999760e+01 2.179224999999999909e+03
2.900000000000000147e-02 1.705614999999999770e-01 1.761039999999999850e+01 6.176059999999999661e+01 2.179069999999999709e+03
3.000000000000000236e-02 1.705419999999999991e-01 1.711534999999999940e+01 6.111204999999999643e+01 2.178914999999999964e+03
3.099999999999999978e-02 1.705194999999999905e-01 1.652700000000000102e+01 6.033559999999999945e+01 2.178735000000000127e+03
3.200000000000000067e-02 1.704895000000000160e-01 1.580690000000000062e+01 5.925140000000000384e+01 2.178500000000000000e+03
3.300000000000000155e-02 1.704495000000000038e-01 1.495945000000000036e+01 5.778995000000000459e+01 2.178190000000000055e+03
3.400000000000000244e-02 1.704005000000000103e-01 1.403919999999999924e+01 5.604064999999999941e+01 2.177800000000000182e+03
3.500000000000000333e-02 1.703469999999999984e-01 1.314049999999999940e+01 5.424200000000000443e+01 2.177380000000000109e+03
3.600000000000000422e-02 1.702969999999999762e-01 1.237310000000000088e+01 5.271795000000000186e+01 2.176969999999999800e+03
3.700000000000000511e-02 1.702589999999999937e-01 1.183210000000000051e+01 5.178320000000000078e+01 2.176659999999999854e+03
3.799999999999999906e-02 1.702400000000000024e-01 1.157270000000000110e+01 5.165125000000000455e+01 2.176489999999999782e+03
3.899999999999999994e-02 1.702440000000000064e-01 1.159710000000000107e+01 5.237425000000000352e+01 2.176505000000000109e+03
4.000000000000000083e-02 1.702700000000000047e-01 1.185519999999999996e+01 5.382979999999999876e+01 2.176694999999999709e+03
4.100000000000000172e-02 1.703135000000000066e-01 1.225839999999999996e+01 5.575319999999999965e+01 2.177029999999999745e+03
4.200000000000000261e-02 1.703669999999999907e-01 1.269950000000000045e+01 5.780004999999999882e+01 2.177449999999999818e+03
4.300000000000000350e-02 1.704209999999999892e-01 1.307379999999999853e+01 5.961930000000000263e+01 2.177875000000000000e+03
4.400000000000000439e-02 1.704665000000000208e-01 1.329589999999999961e+01 6.091734999999999900e+01 2.178244999999999891e+03
4.499999999999999833e-02 1.704964999999999953e-01 1.330975000000000108e+01 6.150039999999999907e+01 2.178494999999999891e+03
4.599999999999999922e-02 1.705059999999999909e-01 1.309120000000000061e+01 6.128990000000000293e+01 2.178590000000000146e+03
4.700000000000000011e-02 1.704950000000000077e-01 1.264385000000000048e+01 6.031215000000000259e+01 2.178505000000000109e+03
4.800000000000000100e-02 1.704620000000000024e-01 1.199080000000000013e+01 5.867045000000000243e+01 2.178255000000000109e+03
4.900000000000000189e-02 1.704114999999999935e-01 1.116597499999999954e+01 5.650959999999999894e+01 2.177855000000000018e+03
5.000000000000000278e-02 1.703454999999999830e-01 1.020598999999999990e+01 5.398245000000000005e+01 2.177335000000000036e+03
5.100000000000000366e-02 1.702684999999999893e-01 9.145239999999999370e+00 5.122664999999999935e+01 2.176724999999999909e+03
5.200000000000000455e-02 1.701834999999999876e-01 8.014295000000000613e+00 4.835334999999999894e+01 2.176050000000000182e+03
5.300000000000000544e-02 1.700944999999999818e-01 6.840794999999999959e+00 4.544769999999999754e+01 2.175335000000000036e+03
5.399999999999999939e-02 1.700035000000000018e-01 5.651889999999999858e+00 4.257795000000000130e+01 2.174605000000000018e+03
5.500000000000000028e-02 1.699125000000000218e-01 4.477075000000000138e+00 3.980695000000000050e+01 2.173875000000000000e+03
5.600000000000000117e-02 1.698244999999999894e-01 3.350070000000000103e+00 3.720309999999999917e+01 2.173164999999999964e+03
5.700000000000000205e-02 1.697414999999999896e-01 2.309343499999999771e+00 3.484694999999999965e+01 2.172500000000000000e+03
5.800000000000000294e-02 1.696674999999999989e-01 1.397032500000000121e+00 3.283159999999999457e+01 2.171894999999999982e+03
5.900000000000000383e-02 1.696039999999999770e-01 6.564349999999999907e-01 3.125835000000000008e+01 2.171375000000000000e+03
6.000000000000000472e-02 1.695554999999999979e-01 1.286850000000000493e-01 3.022775000000000034e+01 2.170970000000000255e+03
6.099999999999999867e-02 1.695234999999999936e-01 -1.508055000000000367e-01 2.982885000000000275e+01 2.170704999999999927e+03
6.199999999999999956e-02 1.695125000000000104e-01 -1.554656000000000093e-01 3.012950000000000017e+01 2.170590000000000146e+03
6.300000000000000044e-02 1.695230000000000070e-01 1.301705000000000223e-01 3.116815000000000069e+01 2.170659999999999854e+03
6.400000000000000133e-02 1.695564999999999989e-01 7.093304999999999749e-01 3.294980000000000331e+01 2.170909999999999854e+03
6.500000000000000222e-02 1.696135000000000004e-01 1.573007000000000044e+00 3.544565000000000055e+01 2.171344999999999800e+03
6.600000000000000311e-02 1.696920000000000095e-01 2.700937000000000143e+00 3.859550000000000125e+01 2.171954999999999927e+03
6.700000000000000400e-02 1.697909999999999975e-01 4.063369999999999926e+00 4.231394999999999840e+01 2.172730000000000018e+03
6.800000000000000488e-02 1.699070000000000025e-01 5.623389999999999667e+00 4.649689999999999657e+01 2.173654999999999745e+03
6.900000000000000577e-02 1.700385000000000091e-01 7.339509999999999756e+00 5.103045000000000186e+01 2.174694999999999709e+03
7.000000000000000666e-02 1.701809999999999989e-01 9.168430000000000746e+00 5.579885000000000161e+01 2.175829999999999927e+03
7.100000000000000755e-02 1.703315000000000246e-01 1.106780000000000008e+01 6.069249999999999545e+01 2.177034999999999854e+03
7.200000000000000844e-02 1.704864999999999853e-01 1.299849999999999994e+01 6.561494999999999322e+01 2.178284999999999854e+03
7.300000000000000933e-02 1.706429999999999891e-01 1.492670000000000030e+01 7.048824999999999363e+01 2.179550000000000182e+03
7.399999999999999634e-02 1.708000000000000074e-01 1.682539999999999836e+01 7.525634999999999764e+01 2.180815000000000055e+03
7.499999999999999722e-02 1.709545000000000092e-01 1.867490000000000094e+01 7.988599999999999568e+01 2.182074999999999818e+03
7.599999999999999811e-02 1.711055000000000215e-01 2.046269999999999811e+01 8.436584999999999468e+01 2.183305000000000291e+03
7.699999999999999900e-02 1.712535000000000029e-01 2.218280000000000030e+01 8.870255000000000223e+01 2.184515000000000327e+03
7.799999999999999989e-02 1.713979999999999948e-01 2.383440000000000225e+01 9.291610000000000014e+01 2.185694999999999709e+03
7.900000000000000078e-02 1.715395000000000114e-01 2.542020000000000124e+01 9.703450000000000841e+01 2.186855000000000018e+03
8.000000000000000167e-02 1.716785000000000116e-01 2.694489999999999696e+01 1.010862999999999943e+02 2.187994999999999891e+03
8.100000000000000255e-02 1.718160000000000243e-01 2.841375000000000028e+01 1.050984499999999997e+02 2.189125000000000000e+03
8.200000000000000344e-02 1.719519999999999937e-01 2.983124999999999716e+01 1.090904999999999916e+02 2.190250000000000000e+03
8.300000000000000433e-02 1.720880000000000187e-01 3.120049999999999812e+01 1.130725000000000051e+02 2.191360000000000127e+03
8.400000000000000522e-02 1.722235000000000016e-01 3.252295000000000158e+01 1.170469999999999970e+02 2.192474999999999909e+03
8.500000000000000611e-02 1.723584999999999978e-01 3.379795000000000016e+01 1.210060000000000002e+02 2.193590000000000146e+03
8.600000000000000699e-02 1.724924999999999931e-01 3.502325000000000443e+01 1.249365000000000094e+02 2.194689999999999600e+03
8.700000000000000788e-02 1.726250000000000007e-01 3.619474999999999909e+01 1.288170000000000073e+02 2.195784999999999854e+03
8.800000000000000877e-02 1.727565000000000073e-01 3.730729999999999791e+01 1.326239999999999952e+02 2.196869999999999891e+03
8.899999999999999578e-02 1.728844999999999965e-01 3.835455000000000325e+01 1.363315000000000055e+02 2.197929999999999836e+03
8.999999999999999667e-02 1.730094999999999827e-01 3.932920000000000016e+01 1.399110000000000014e+02 2.198960000000000036e+03
9.099999999999999756e-02 1.731300000000000061e-01 4.022319999999999851e+01 1.433335000000000150e+02 2.199965000000000146e+03
9.199999999999999845e-02 1.732460000000000111e-01 4.102824999999999989e+01 1.465705000000000098e+02 2.200920000000000073e+03
9.299999999999999933e-02 1.733549999999999813e-01 4.173584999999999923e+01 1.495939999999999941e+02 2.201829999999999927e+03
9.400000000000000022e-02 1.734574999999999867e-01 4.233764999999999645e+01 1.523770000000000095e+02 2.202679999999999836e+03
9.500000000000000111e-02 1.735519999999999841e-01 4.282634999999999792e+01 1.548965000000000032e+02 2.203470000000000255e+03
9.600000000000000200e-02 1.736380000000000146e-01 4.319585000000000008e+01 1.571320000000000050e+02 2.204184999999999945e+03
9.700000000000000289e-02 1.737144999999999939e-01 4.344174999999999898e+01 1.590685000000000002e+02 2.204829999999999927e+03
9.800000000000000377e-02 1.737814999999999777e-01 4.356235000000000213e+01 1.606995000000000005e+02 2.205394999999999982e+03
9.900000000000000466e-02 1.738390000000000213e-01 4.355834999999999724e+01 1.620240000000000009e+02 2.205875000000000000e+03
1.000000000000000056e-01 1.738859999999999850e-01 4.343379999999999797e+01 1.630500000000000114e+02 2.206279999999999745e+03
1.010000000000000064e-01 1.739240000000000230e-01 4.319514999999999816e+01 1.637925000000000182e+02 2.206605000000000018e+03
1.020000000000000073e-01 1.739525000000000099e-01 4.285179999999999723e+01 1.642755000000000223e+02 2.206850000000000364e+03
1.030000000000000082e-01 1.739729999999999888e-01 4.241550000000000153e+01 1.645264999999999986e+02 2.207024999999999636e+03
1.040000000000000091e-01 1.739860000000000018e-01 4.189955000000000496e+01 1.645794999999999959e+02 2.207139999999999873e+03
1.050000000000000100e-01 1.739919999999999800e-01 4.131834999999999525e+01 1.644695000000000107e+02 2.207204999999999927e+03
1.059999999999999970e-01 1.739930000000000088e-01 4.068680000000000518e+01 1.642330000000000041e+02 2.207219999999999800e+03
1.069999999999999979e-01 1.739895000000000191e-01 4.001950000000000074e+01 1.639039999999999964e+02 2.207194999999999709e+03
1.079999999999999988e-01 1.739824999999999844e-01 3.933029999999999404e+01 1.635160000000000196e+02 2.207145000000000437e+03
1.089999999999999997e-01 1.739735000000000031e-01 3.863185000000000002e+01 1.630960000000000036e+02 2.207074999999999818e+03
1.100000000000000006e-01 1.739630000000000065e-01 3.793495000000000061e+01 1.626670000000000016e+02 2.206989999999999782e+03
1.110000000000000014e-01 1.739519999999999955e-01 3.724849999999999994e+01 1.622479999999999905e+02 2.206894999999999982e+03
1.120000000000000023e-01 1.739399999999999835e-01 3.657914999999999850e+01 1.618494999999999777e+02 2.206805000000000291e+03
1.130000000000000032e-01 1.739290000000000003e-01 3.593110000000000070e+01 1.614780000000000086e+02 2.206704999999999927e+03
1.140000000000000041e-01 1.739185000000000036e-01 3.530639999999999645e+01 1.611345000000000027e+02 2.206614999999999782e+03
1.150000000000000050e-01 1.739074999999999926e-01 3.470454999999999757e+01 1.608125000000000000e+02 2.206525000000000091e+03
1.160000000000000059e-01 1.738974999999999826e-01 3.412315000000000254e+01 1.605035000000000025e+02 2.206440000000000055e+03
1.170000000000000068e-01 1.738875000000000004e-01 3.355795000000000528e+01 1.601924999999999955e+02 2.206355000000000018e+03
1.180000000000000077e-01 1.738770000000000038e-01 3.300319999999999965e+01 1.598634999999999877e+02 2.206269999999999982e+03
1.190000000000000085e-01 1.738655000000000062e-01 3.245214999999999606e+01 1.594970000000000141e+02 2.206170000000000073e+03
1.200000000000000094e-01 1.738524999999999932e-01 3.189744999999999919e+01 1.590740000000000123e+02 2.206065000000000055e+03
1.209999999999999964e-01 1.738379999999999925e-01 3.133185000000000286e+01 1.585759999999999934e+02 2.205944999999999709e+03
1.219999999999999973e-01 1.738210000000000033e-01 3.074824999999999875e+01 1.579850000000000136e+02 2.205800000000000182e+03
1.229999999999999982e-01 1.738000000000000100e-01 3.014065000000000083e+01 1.572880000000000109e+02 2.205630000000000109e+03
1.239999999999999991e-01 1.737765000000000004e-01 2.950444999999999851e+01 1.564749999999999943e+02 2.205440000000000055e+03
1.250000000000000000e-01 1.737489999999999868e-01 2.883644999999999925e+01 1.555405000000000086e+02 2.205215000000000146e+03
1.260000000000000009e-01 1.737180000000000113e-01 2.813560000000000016e+01 1.544844999999999970e+02 2.204954999999999927e+03
1.270000000000000018e-01 1.736830000000000040e-01 2.740294999999999703e+01 1.533129999999999882e+02 2.204670000000000073e+03
1.280000000000000027e-01 1.736449999999999938e-01 2.664155000000000229e+01 1.520369999999999777e+02 2.204355000000000018e+03
1.290000000000000036e-01 1.736030000000000073e-01 2.585660000000000025e+01 1.506734999999999900e+02 2.204015000000000327e+03
1.300000000000000044e-01 1.735585000000000044e-01 2.505519999999999925e+01 1.492429999999999950e+02 2.203644999999999982e+03
1.310000000000000053e-01 1.735119999999999996e-01 2.424580000000000268e+01 1.477710000000000150e+02 2.203265000000000327e+03
1.320000000000000062e-01 1.734644999999999937e-01 2.343804999999999694e+01 1.462839999999999918e+02 2.202875000000000000e+03
1.330000000000000071e-01 1.734160000000000146e-01 2.264219999999999899e+01 1.448104999999999905e+02 2.202474999999999909e+03
1.340000000000000080e-01 1.733685000000000087e-01 2.186854999999999905e+01 1.433784999999999741e+02 2.202085000000000036e+03
1.350000000000000089e-01 1.733219999999999761e-01 2.112700000000000244e+01 1.420134999999999934e+02 2.201699999999999818e+03
1.360000000000000098e-01 1.732775000000000010e-01 2.042649999999999721e+01 1.407379999999999995e+02 2.201329999999999927e+03
1.370000000000000107e-01 1.732360000000000011e-01 1.977459999999999951e+01 1.395715000000000146e+02 2.200989999999999782e+03
1.380000000000000115e-01 1.731980000000000186e-01 1.917739999999999867e+01 1.385285000000000082e+02 2.200670000000000073e+03
1.390000000000000124e-01 1.731634999999999980e-01 1.863915000000000077e+01 1.376175000000000068e+02 2.200380000000000109e+03
1.400000000000000133e-01 1.731325000000000225e-01 1.816210000000000235e+01 1.368419999999999845e+02 2.200125000000000000e+03
1.410000000000000142e-01 1.731064999999999965e-01 1.774685000000000201e+01 1.362019999999999982e+02 2.199900000000000091e+03
1.420000000000000151e-01 1.730840000000000156e-01 1.739199999999999946e+01 1.356920000000000073e+02 2.199715000000000146e+03
1.430000000000000160e-01 1.730659999999999976e-01 1.709499999999999886e+01 1.353034999999999854e+02 2.199560000000000400e+03
1.440000000000000169e-01 1.730519999999999836e-01 1.685179999999999723e+01 1.350244999999999891e+02 2.199435000000000400e+03
1.450000000000000178e-01 1.730410000000000004e-01 1.665719999999999956e+01 1.348419999999999845e+02 2.199340000000000146e+03
1.459999999999999909e-01 1.730329999999999924e-01 1.650560000000000116e+01 1.347420000000000186e+02 2.199269999999999982e+03
1.469999999999999918e-01 1.730280000000000151e-01 1.639070000000000249e+01 1.347080000000000268e+02 2.199224999999999909e+03
1.479999999999999927e-01 1.730249999999999844e-01 1.630604999999999905e+01 1.347255000000000109e+02 2.199194999999999709e+03
1.489999999999999936e-01 1.730234999999999967e-01 1.624535000000000196e+01 1.347805000000000177e+02 2.199180000000000291e+03
1.499999999999999944e-01 1.730234999999999967e-01 1.620240000000000080e+01 1.348595000000000255e+02 2.199180000000000291e+03
1.509999999999999953e-01 1.730244999999999977e-01 1.617139999999999844e+01 1.349505000000000052e+02 2.199190000000000055e+03
1.519999999999999962e-01 1.730264999999999997e-01 1.614730000000000132e+01 1.350434999999999945e+02 2.199199999999999818e+03
1.529999999999999971e-01 1.730285000000000017e-01 1.612549999999999883e+01 1.351295000000000073e+02 2.199210000000000036e+03
1.539999999999999980e-01 1.730300000000000171e-01 1.610229999999999961e+01 1.352029999999999745e+02 2.199224999999999909e+03
1.549999999999999989e-01 1.730315000000000047e-01 1.607485000000000142e+01 1.352584999999999980e+02 2.199235000000000127e+03
1.559999999999999998e-01 1.730325000000000057e-01 1.604110000000000014e+01 1.352934999999999945e+02 2.199244999999999891e+03
1.570000000000000007e-01 1.730329999999999924e-01 1.599980000000000047e+01 1.353079999999999927e+02 2.199250000000000000e+03
1.580000000000000016e-01 1.730335000000000067e-01 1.595045000000000002e+01 1.353025000000000091e+02 2.199250000000000000e+03
1.590000000000000024e-01 1.730329999999999924e-01 1.589345000000000141e+01 1.352794999999999845e+02 2.199250000000000000e+03
