# t [s], A [cm^2], U [cm/s], P [cPa], c [cm/s]
1.000000000000000021e-03 5.843574999999999742e-01 3.872850000000004067e-03 1.047795000000000130e+02 1.497859999999999900e+03
2.000000000000000042e-03 5.843485000000000484e-01 -1.677799999999999691e-04 1.047590000000000003e+02 1.497849999999999909e+03
3.000000000000000062e-03 5.843940000000000801e-01 7.751035000000000563e-02 1.048350000000000080e+02 1.497875000000000000e+03
4.000000000000000083e-03 5.844445000000000334e-01 1.681005499999999875e-01 1.049445000000000050e+02 1.497909999999999854e+03
5.000000000000000104e-03 5.844365000000000254e-01 1.639180000000000081e-01 1.049325000000000045e+02 1.497910000000000082e+03
6.000000000000000125e-03 5.843855000000000022e-01 8.335950000000000304e-02 1.047789999999999964e+02 1.497875000000000000e+03
7.000000000000000146e-03 5.843344999999999789e-01 -2.622499999999972076e-03 1.045550000000000068e+02 1.497819999999999936e+03
8.000000000000000167e-03 5.842680000000000096e-01 -1.237035000000000218e-01 1.042429999999999950e+02 1.497740000000000009e+03
9.000000000000001055e-03 5.841530000000000333e-01 -3.406000000000000139e-01 1.037620000000000005e+02 1.497615000000000009e+03
1.000000000000000194e-02 5.839825000000000710e-01 -6.644849999999999923e-01 1.030695000000000050e+02 1.497440000000000055e+03
1.099999999999999936e-02 5.837485000000000035e-01 -1.100524999999999975e+00 1.021265500000000088e+02 1.497190000000000055e+03
1.200000000000000025e-02 5.834354999999999958e-01 -1.662020000000000053e+00 1.008822499999999991e+02 1.496849999999999909e+03
1.300000000000000114e-02 5.830454999999999943e-01 -2.327245000000000008e+00 9.932505000000000450e+01 1.496425000000000182e+03
1.400000000000000203e-02 5.826124999999999776e-01 -3.011680000000000135e+00 9.752724999999999511e+01 1.495920000000000073e+03
1.499999999999999944e-02 5.821884999999999977e-01 -3.592610000000000081e+00 9.563455000000000439e+01 1.495365000000000009e+03
1.600000000000000033e-02 5.818179999999999463e-01 -3.960795999999999761e+00 9.380870000000000175e+01 1.494804999999999836e+03
1.700000000000000122e-02 5.815200000000000369e-01 -4.059099999999999930e+00 9.216710000000000491e+01 1.494280000000000200e+03
1.800000000000000211e-02 5.812869999999999981e-01 -3.892128649999999634e+00 9.075364999999999327e+01 1.493795000000000073e+03
1.900000000000000300e-02 5.810910000000000242e-01 -3.512735999999999859e+00 8.953915000000000646e+01 1.493355000000000018e+03
2.000000000000000042e-02 5.808974999999999556e-01 -2.997282549999999990e+00 8.844344999999999857e+01 1.492934999999999945e+03
2.100000000000000130e-02 5.806765000000000398e-01 -2.419648500000000091e+00 8.736920000000000641e+01 1.492529999999999973e+03
2.200000000000000219e-02 5.804114999999999691e-01 -1.831044999999999812e+00 8.623390000000000555e+01 1.492105000000000018e+03
2.299999999999999961e-02 5.801020000000000065e-01 -1.250725000000000087e+00 8.499244999999999095e+01 1.491654999999999973e+03
2.400000000000000050e-02 5.797584999999999544e-01 -6.695099999999998275e-01 8.364359999999999218e+01 1.491184999999999945e+03
2.500000000000000139e-02 5.793989999999999974e-01 -6.338500000000024670e-02 8.221925000000000239e+01 1.490684999999999945e+03
2.600000000000000228e-02 5.790399999999999991e-01 5.893249999999996547e-01 8.076460000000000150e+01 1.490174999999999955e+03
2.700000000000000316e-02 5.786895000000000788e-01 1.293835000000000068e+00 7.931595000000000084e+01 1.489664999999999964e+03
2.800000000000000058e-02 5.783439999999999692e-01 2.031869999999999621e+00 7.788519999999999754e+01 1.489160000000000082e+03
2.900000000000000147e-02 5.779925000000000201e-01 2.762489999999999668e+00 7.645310000000000628e+01 1.488650000000000091e+03
3.000000000000000236e-02 5.776149999999999896e-01 3.429300000000000459e+00 7.497274999999999068e+01 1.488125000000000000e+03
3.099999999999999978e-02 5.771920000000000384e-01 3.971560000000000201e+00 7.338049999999999784e+01 1.487575000000000045e+03
3.200000000000000067e-02 5.767074999999999285e-01 4.336634999999999351e+00 7.161190000000000566e+01 1.486980000000000018e+03
3.300000000000000155e-02 5.761534999999999851e-01 4.490969999999999906e+00 6.961870000000000402e+01 1.486329999999999927e+03
3.400000000000000244e-02 5.755315000000000847e-01 4.427175000000000082e+00 6.738310000000001310e+01 1.485619999999999891e+03
3.500000000000000333e-02 5.748564999999999925e-01 4.165675000000000239e+00 6.492589999999999861e+01 1.484845000000000027e+03
3.600000000000000422e-02 5.741505000000000081e-01 3.750750000000000028e+00 6.230639999999999645e+01 1.484025000000000091e+03
3.700000000000000511e-02 5.734424999999999661e-01 3.242355000000000320e+00 5.961499999999999488e+01 1.483174999999999955e+03
3.799999999999999906e-02 5.727624999999999522e-01 2.706605000000000150e+00 5.696074999999999733e+01 1.482335000000000036e+03
3.899999999999999994e-02 5.721384999999999943e-01 2.206319999999999837e+00 5.445770000000000266e+01 1.481530000000000200e+03
4.000000000000000083e-02 5.715930000000000177e-01 1.794864999999999711e+00 5.221195000000000164e+01 1.480789999999999964e+03
4.100000000000000172e-02 5.711439999999999850e-01 1.512240000000000251e+00 5.031234999999999502e+01 1.480139999999999873e+03
4.200000000000000261e-02 5.708010000000000028e-01 1.384684999999999722e+00 4.882479999999999620e+01 1.479605000000000018e+03
4.300000000000000350e-02 5.705695000000000627e-01 1.426194999999999879e+00 4.779104999999999848e+01 1.479195000000000164e+03
4.400000000000000439e-02 5.704504999999999715e-01 1.641538500000000012e+00 4.723000000000000398e+01 1.478929999999999836e+03
4.499999999999999833e-02 5.704405000000000170e-01 2.029685000000000183e+00 4.714225000000000421e+01 1.478805000000000064e+03
4.599999999999999922e-02 5.705365000000000020e-01 2.586850000000000094e+00 4.751505000000000223e+01 1.478824999999999818e+03
4.700000000000000011e-02 5.707329999999999348e-01 3.308545000000000069e+00 4.832704999999999984e+01 1.478990000000000009e+03
4.800000000000000100e-02 5.710250000000000048e-01 4.190370500000000220e+00 4.955239999999999867e+01 1.479284999999999854e+03
4.900000000000000189e-02 5.714060000000000805e-01 5.227629999999999555e+00 5.116275000000000261e+01 1.479704999999999927e+03
5.000000000000000278e-02 5.718710000000000182e-01 6.414142499999999636e+00 5.312800000000000011e+01 1.480244999999999891e+03
5.100000000000000366e-02 5.724130000000000607e-01 7.740864999999999441e+00 5.541580000000000439e+01 1.480900000000000091e+03
5.200000000000000455e-02 5.730219999999999203e-01 9.194600000000001216e+00 5.799054999999999893e+01 1.481650000000000091e+03
5.300000000000000544e-02 5.736894999999999634e-01 1.075755999999999979e+01 6.081270000000000664e+01 1.482485000000000127e+03
5.399999999999999939e-02 5.744040000000000257e-01 1.240745500000000057e+01 6.383859999999999957e+01 1.483394999999999982e+03
5.500000000000000028e-02 5.751534999999999842e-01 1.411858499999999950e+01 6.702125000000000909e+01 1.484369999999999891e+03
5.600000000000000117e-02 5.759254999999999791e-01 1.586317000000000021e+01 7.031159999999999854e+01 1.485384999999999991e+03
5.700000000000000205e-02 5.767085000000000683e-01 1.761318999999999946e+01 7.366075000000000728e+01 1.486434999999999945e+03
5.800000000000000294e-02 5.774905000000000177e-01 1.934215000000000018e+01 7.702250000000000796e+01 1.487505000000000109e+03
5.900000000000000383e-02 5.782635000000000414e-01 2.102655000000000030e+01 8.035535000000000139e+01 1.488575000000000045e+03
6.000000000000000472e-02 5.790199999999999791e-01 2.264705000000000013e+01 8.362485000000000923e+01 1.489639999999999873e+03
6.099999999999999867e-02 5.797544999999999504e-01 2.418894999999999840e+01 8.680459999999999354e+01 1.490690000000000055e+03
6.199999999999999956e-02 5.804654999999999676e-01 2.564269999999999783e+01 8.987720000000000198e+01 1.491714999999999918e+03
6.300000000000000044e-02 5.811499999999999444e-01 2.700314999999999799e+01 9.283400000000000318e+01 1.492710000000000036e+03
6.400000000000000133e-02 5.818109999999999671e-01 2.826960000000000406e+01 9.567440000000000566e+01 1.493680000000000064e+03
6.500000000000000222e-02 5.824500000000000233e-01 2.944460000000000122e+01 9.840565000000000850e+01 1.494610000000000127e+03
6.600000000000000311e-02 5.830705000000000471e-01 3.053340000000000032e+01 1.010391000000000048e+02 1.495519999999999982e+03
6.700000000000000400e-02 5.836759999999999726e-01 3.154309999999999903e+01 1.035915499999999980e+02 1.496409999999999854e+03
6.800000000000000488e-02 5.842709999999999848e-01 3.248185000000000144e+01 1.060801999999999907e+02 1.497269999999999982e+03
6.900000000000000577e-02 5.848599999999999355e-01 3.335815000000000197e+01 1.085244999999999891e+02 1.498119999999999891e+03
7.000000000000000666e-02 5.854464999999999808e-01 3.418025000000000091e+01 1.109410000000000025e+02 1.498960000000000036e+03
7.100000000000000755e-02 5.860334999999999850e-01 3.495544999999999902e+01 1.133470000000000084e+02 1.499789999999999964e+03
7.200000000000000844e-02 5.866230000000000055e-01 3.568979999999999819e+01 1.157530000000000001e+02 1.500625000000000000e+03
7.300000000000000933e-02 5.872165000000000301e-01 3.638750000000000284e+01 1.181664999999999992e+02 1.501460000000000036e+03
7.399999999999999634e-02 5.878134999999999888e-01 3.705075000000000074e+01 1.205904999999999916e+02 1.502289999999999964e+03
7.499999999999999722e-02 5.884125000000000050e-01 3.767950000000000443e+01 1.230215000000000032e+02 1.503125000000000000e+03
7.599999999999999811e-02 5.890109999999999513e-01 3.827150000000000318e+01 1.254514999999999958e+02 1.503960000000000036e+03
7.699999999999999900e-02 5.896059999999999635e-01 3.882249999999999801e+01 1.278684999999999974e+02 1.504799999999999955e+03
7.799999999999999989e-02 5.901920000000000499e-01 3.932659999999999911e+01 1.302540000000000191e+02 1.505615000000000009e+03
7.900000000000000078e-02 5.907639999999999558e-01 3.977655000000000030e+01 1.325885000000000105e+02 1.506430000000000064e+03
8.000000000000000167e-02 5.913174999999999404e-01 4.016450000000000387e+01 1.348485000000000014e+02 1.507215000000000146e+03
8.100000000000000255e-02 5.918459999999999832e-01 4.048239999999999839e+01 1.370130000000000052e+02 1.507974999999999909e+03
8.200000000000000344e-02 5.923445000000000515e-01 4.072259999999999991e+01 1.390579999999999927e+02 1.508700000000000045e+03
8.300000000000000433e-02 5.928085000000000715e-01 4.087810000000000343e+01 1.409624999999999773e+02 1.509380000000000109e+03
8.400000000000000522e-02 5.932340000000000391e-01 4.094350000000000023e+01 1.427085000000000150e+02 1.510014999999999873e+03
8.500000000000000611e-02 5.936174999999999091e-01 4.091469999999999629e+01 1.442814999999999941e+02 1.510595000000000027e+03
8.600000000000000699e-02 5.939564999999999984e-01 4.078960000000000008e+01 1.456699999999999875e+02 1.511115000000000009e+03
8.700000000000000788e-02 5.942509999999999737e-01 4.056794999999999618e+01 1.468679999999999950e+02 1.511579999999999927e+03
8.800000000000000877e-02 5.944994999999999585e-01 4.025159999999999627e+01 1.478729999999999905e+02 1.511974999999999909e+03
8.899999999999999578e-02 5.947040000000000104e-01 3.984425000000000239e+01 1.486870000000000118e+02 1.512315000000000055e+03
8.999999999999999667e-02 5.948660000000000059e-01 3.935144999999999982e+01 1.493179999999999836e+02 1.512590000000000146e+03
9.099999999999999756e-02 5.949875000000000025e-01 3.878045000000000186e+01 1.497760000000000105e+02 1.512805000000000064e+03
9.199999999999999845e-02 5.950725000000000042e-01 3.813994999999999891e+01 1.500745000000000005e+02 1.512969999999999800e+03
9.299999999999999933e-02 5.951244999999999452e-01 3.743980000000000530e+01 1.502289999999999850e+02 1.513075000000000045e+03
9.400000000000000022e-02 5.951480000000000103e-01 3.669060000000000343e+01 1.502595000000000027e+02 1.513144999999999982e+03
9.500000000000000111e-02 5.951480000000000103e-01 3.590364999999999895e+01 1.501845000000000141e+02 1.513164999999999964e+03
9.600000000000000200e-02 5.951284999999999492e-01 3.509024999999999750e+01 1.500255000000000223e+02 1.513160000000000082e+03
9.700000000000000289e-02 5.950945000000000817e-01 3.426165000000000305e+01 1.498014999999999759e+02 1.513125000000000000e+03
9.800000000000000377e-02 5.950495000000000090e-01 3.342844999999999800e+01 1.495319999999999823e+02 1.513070000000000164e+03
9.900000000000000466e-02 5.949990000000000556e-01 3.260034999999999883e+01 1.492359999999999900e+02 1.512994999999999891e+03
1.000000000000000056e-01 5.949459999999999749e-01 3.178604999999999947e+01 1.489284999999999854e+02 1.512914999999999964e+03
1.010000000000000064e-01 5.948925000000000463e-01 3.099249999999999972e+01 1.486229999999999905e+02 1.512829999999999927e+03
1.020000000000000073e-01 5.948419999999999819e-01 3.022530000000000072e+01 1.483305000000000007e+02 1.512740000000000009e+03
1.030000000000000082e-01 5.947945000000000038e-01 2.948799999999999955e+01 1.480579999999999927e+02 1.512660000000000082e+03
1.040000000000000091e-01 5.947514999999999885e-01 2.878255000000000052e+01 1.478095000000000141e+02 1.512575000000000045e+03
1.050000000000000100e-01 5.947139999999999649e-01 2.810885000000000034e+01 1.475865000000000009e+02 1.512500000000000000e+03
1.059999999999999970e-01 5.946795000000000275e-01 2.746535000000000082e+01 1.473870000000000005e+02 1.512424999999999955e+03
1.069999999999999979e-01 5.946469999999999256e-01 2.684900000000000020e+01 1.472065000000000055e+02 1.512365000000000009e+03
1.079999999999999988e-01 5.946154999999999635e-01 2.625544999999999973e+01 1.470380000000000109e+02 1.512299999999999955e+03
1.089999999999999997e-01 5.945829999999999727e-01 2.567940000000000111e+01 1.468720000000000141e+02 1.512234999999999900e+03
1.100000000000000006e-01 5.945454999999999490e-01 2.511505000000000010e+01 1.466995000000000005e+02 1.512170000000000073e+03
1.110000000000000014e-01 5.945030000000000037e-01 2.455620000000000047e+01 1.465099999999999909e+02 1.512105000000000018e+03
1.120000000000000023e-01 5.944519999999999804e-01 2.399665000000000248e+01 1.462934999999999945e+02 1.512029999999999973e+03
1.130000000000000032e-01 5.943899999999999739e-01 2.343080000000000140e+01 1.460400000000000205e+02 1.511945000000000164e+03
1.140000000000000041e-01 5.943165000000000253e-01 2.285320000000000107e+01 1.457409999999999854e+02 1.511849999999999909e+03
1.150000000000000050e-01 5.942284999999999373e-01 2.225965000000000060e+01 1.453894999999999982e+02 1.511735000000000127e+03
1.160000000000000059e-01 5.941269999999999607e-01 2.164674999999999727e+01 1.449800000000000182e+02 1.511605000000000018e+03
1.170000000000000068e-01 5.940094999999999681e-01 2.101239999999999952e+01 1.445110000000000241e+02 1.511449999999999818e+03
1.180000000000000077e-01 5.938775000000000581e-01 2.035575000000000045e+01 1.439805000000000064e+02 1.511289999999999964e+03
1.190000000000000085e-01 5.937315000000000786e-01 1.967719999999999914e+01 1.433910000000000196e+02 1.511099999999999909e+03
1.200000000000000094e-01 5.935730000000000173e-01 1.897864999999999824e+01 1.427459999999999809e+02 1.510894999999999982e+03
1.209999999999999964e-01 5.934030000000000138e-01 1.826320000000000121e+01 1.420529999999999973e+02 1.510674999999999955e+03
1.219999999999999973e-01 5.932250000000000023e-01 1.753504999999999825e+01 1.413195000000000050e+02 1.510445000000000164e+03
1.229999999999999982e-01 5.930400000000000116e-01 1.679950000000000188e+01 1.405569999999999879e+02 1.510200000000000045e+03
1.239999999999999991e-01 5.928519999999999346e-01 1.606275000000000119e+01 1.397754999999999939e+02 1.509944999999999936e+03
1.250000000000000000e-01 5.926644999999999275e-01 1.533145000000000024e+01 1.389895000000000209e+02 1.509690000000000055e+03
1.260000000000000009e-01 5.924795000000000478e-01 1.461280000000000001e+01 1.382110000000000127e+02 1.509434999999999945e+03
1.270000000000000018e-01 5.923009999999999664e-01 1.391399000000000008e+01 1.374540000000000077e+02 1.509184999999999945e+03
1.280000000000000027e-01 5.921315000000000328e-01 1.324208499999999944e+01 1.367300000000000182e+02 1.508940000000000055e+03
1.290000000000000036e-01 5.919740000000000002e-01 1.260379000000000005e+01 1.360525000000000091e+02 1.508704999999999927e+03
1.300000000000000044e-01 5.918309999999999960e-01 1.200516000000000005e+01 1.354314999999999998e+02 1.508494999999999891e+03
1.310000000000000053e-01 5.917040000000000077e-01 1.145134499999999989e+01 1.348759999999999764e+02 1.508295000000000073e+03
1.320000000000000062e-01 5.915945000000000231e-01 1.094647999999999932e+01 1.343935000000000173e+02 1.508115000000000009e+03
1.330000000000000071e-01 5.915044999999999886e-01 1.049354500000000101e+01 1.339884999999999877e+02 1.507965000000000146e+03
1.340000000000000080e-01 5.914334999999999454e-01 1.009424999999999883e+01 1.336645000000000039e+02 1.507835000000000036e+03
1.350000000000000089e-01 5.913815000000000044e-01 9.749109999999999943e+00 1.334209999999999923e+02 1.507735000000000127e+03
1.360000000000000098e-01 5.913479999999999848e-01 9.457230000000000913e+00 1.332565000000000168e+02 1.507654999999999973e+03
1.370000000000000107e-01 5.913310000000000510e-01 9.216734999999999900e+00 1.331664999999999850e+02 1.507599999999999909e+03
1.380000000000000115e-01 5.913299999999999113e-01 9.024535000000000196e+00 1.331449999999999818e+02 1.507570000000000164e+03
1.390000000000000124e-01 5.913429999999999520e-01 8.876744999999999663e+00 1.331850000000000023e+02 1.507559999999999945e+03
1.400000000000000133e-01 5.913669999999999760e-01 8.768789999999999196e+00 1.332785000000000082e+02 1.507570000000000164e+03
1.410000000000000142e-01 5.914010000000000655e-01 8.695465000000000444e+00 1.334145000000000039e+02 1.507594999999999800e+03
1.420000000000000151e-01 5.914409999999999945e-01 8.651355000000000572e+00 1.335840000000000032e+02 1.507630000000000109e+03
1.430000000000000160e-01 5.914865000000000261e-01 8.630900000000000460e+00 1.337779999999999916e+02 1.507674999999999955e+03
1.440000000000000169e-01 5.915340000000000042e-01 8.628614999999999924e+00 1.339855000000000018e+02 1.507724999999999909e+03
1.450000000000000178e-01 5.915825000000000111e-01 8.639269999999999783e+00 1.341979999999999791e+02 1.507784999999999854e+03
1.459999999999999909e-01 5.916295000000000304e-01 8.658020000000000493e+00 1.344080000000000155e+02 1.507849999999999909e+03
1.469999999999999918e-01 5.916740000000000332e-01 8.680505000000000138e+00 1.346084999999999923e+02 1.507904999999999973e+03
1.479999999999999927e-01 5.917149999999999910e-01 8.702944999999999709e+00 1.347939999999999827e+02 1.507960000000000036e+03
1.489999999999999936e-01 5.917504999999999571e-01 8.722205000000000652e+00 1.349599999999999795e+02 1.508014999999999873e+03
1.499999999999999944e-01 5.917810000000000015e-01 8.735814999999998776e+00 1.351039999999999850e+02 1.508059999999999945e+03
1.509999999999999953e-01 5.918060000000000542e-01 8.741955000000000808e+00 1.352235000000000014e+02 1.508099999999999909e+03
1.519999999999999962e-01 5.918255000000000043e-01 8.739450000000001495e+00 1.353190000000000168e+02 1.508134999999999991e+03
1.529999999999999971e-01 5.918400000000000327e-01 8.727719999999999700e+00 1.353905000000000030e+02 1.508159999999999854e+03
1.539999999999999980e-01 5.918494999999999173e-01 8.706745000000001511e+00 1.354404999999999859e+02 1.508184999999999945e+03
1.549999999999999989e-01 5.918550000000000200e-01 8.676960000000001116e+00 1.354699999999999989e+02 1.508194999999999936e+03
1.559999999999999998e-01 5.918565000000000076e-01 8.639184999999999448e+00 1.354825000000000159e+02 1.508204999999999927e+03
1.570000000000000007e-01 5.918554999999999788e-01 8.594640000000000057e+00 1.354805000000000064e+02 1.508215000000000146e+03
1.580000000000000016e-01 5.918520000000000447e-01 8.544674999999999798e+00 1.354689999999999941e+02 1.508210000000000036e+03
1.590000000000000024e-01 5.918479999999999297e-01 8.490790000000000504e+00 1.354490000000000123e+02 1.508210000000000036e+03
