# t [s], A [cm^2], U [cm/s], P [cPa], c [cm/s]
1.000000000000000021e-03 6.203704999999999359e-01 4.278999999999998083e-03 1.040575000000000045e+02 1.762424999999999955e+03
2.000000000000000042e-03 6.203724999999999934e-01 2.302995000000000042e-02 1.040425000000000040e+02 1.762424999999999955e+03
3.000000000000000062e-03 6.204524999999999624e-01 1.944339499999999943e-01 1.042464999999999975e+02 1.762464999999999918e+03
4.000000000000000083e-03 6.204574999999999951e-01 2.344465000000000021e-01 1.042770000000000010e+02 1.762474999999999909e+03
5.000000000000000104e-03 6.203724999999999934e-01 9.393499999999999073e-02 1.039594999999999914e+02 1.762414999999999964e+03
6.000000000000000125e-03 6.202879999999999505e-01 -6.309999999999993392e-02 1.034890000000000043e+02 1.762319999999999936e+03
7.000000000000000146e-03 6.201529999999999543e-01 -3.394649999999999057e-01 1.027630000000000052e+02 1.762179999999999836e+03
8.000000000000000167e-03 6.199234999999999607e-01 -8.305500000000000105e-01 1.016016999999999939e+02 1.761945000000000164e+03
9.000000000000001055e-03 6.196014999999999162e-01 -1.520504999999999995e+00 9.995019999999999527e+01 1.761619999999999891e+03
1.000000000000000194e-02 6.191579999999999862e-01 -2.440989999999999771e+00 9.769995000000000118e+01 1.761160000000000082e+03
1.099999999999999936e-02 6.185920000000000307e-01 -3.561620000000000452e+00 9.481374999999999886e+01 1.760565000000000055e+03
1.200000000000000025e-02 6.179879999999999818e-01 -4.666375000000000384e+00 9.154710000000000036e+01 1.759860000000000127e+03
1.300000000000000114e-02 6.174684999999999757e-01 -5.450075999999999254e+00 8.838069999999999027e+01 1.759154999999999973e+03
1.400000000000000203e-02 6.171074999999999200e-01 -5.708190000000000097e+00 8.574479999999999791e+01 1.758519999999999982e+03
1.499999999999999944e-02 6.168985000000000163e-01 -5.429965000000000153e+00 8.380934999999999491e+01 1.758005000000000109e+03
1.600000000000000033e-02 6.167690000000000117e-01 -4.769344999999999501e+00 8.244910000000000139e+01 1.757595000000000027e+03
1.700000000000000122e-02 6.166289999999999827e-01 -3.950814999999999966e+00 8.134595000000000198e+01 1.757244999999999891e+03
1.800000000000000211e-02 6.164084999999999148e-01 -3.165007000000000126e+00 8.015389999999999304e+01 1.756889999999999873e+03
1.900000000000000300e-02 6.160900000000000265e-01 -2.495567499999999939e+00 7.865219999999999345e+01 1.756484999999999900e+03
2.000000000000000042e-02 6.156995000000000662e-01 -1.910245000000000193e+00 7.681469999999998777e+01 1.756025000000000091e+03
2.100000000000000130e-02 6.152874999999999872e-01 -1.315809999999999924e+00 7.476810000000000400e+01 1.755519999999999982e+03
2.200000000000000219e-02 6.148949999999999694e-01 -6.366750000000003240e-01 7.267920000000000869e+01 1.754994999999999891e+03
2.299999999999999961e-02 6.145279999999999632e-01 1.284049999999998803e-01 7.064345000000000141e+01 1.754474999999999909e+03
2.400000000000000050e-02 6.141594999999999693e-01 8.920599999999998531e-01 6.862399999999999523e+01 1.753950000000000045e+03
2.500000000000000139e-02 6.137380000000000058e-01 1.502180000000000071e+00 6.645444999999999425e+01 1.753404999999999973e+03
2.600000000000000228e-02 6.132060000000000288e-01 1.789199999999999680e+00 6.389339999999999975e+01 1.752779999999999973e+03
2.700000000000000316e-02 6.125220000000000109e-01 1.620624999999999538e+00 6.071035000000000537e+01 1.752039999999999964e+03
2.800000000000000058e-02 6.116759999999999975e-01 9.458899999999994535e-01 5.677450000000000330e+01 1.751150000000000091e+03
2.900000000000000147e-02 6.106960000000000166e-01 -1.840000000000001634e-01 5.211540000000000106e+01 1.750115000000000009e+03
3.000000000000000236e-02 6.096425000000000871e-01 -1.628999999999999559e+00 4.693345000000000056e+01 1.748960000000000036e+03
3.099999999999999978e-02 6.085920000000000218e-01 -3.197205000000000297e+00 4.155960000000000321e+01 1.747750000000000000e+03
3.200000000000000067e-02 6.076235000000000941e-01 -4.689989999999999881e+00 3.638485000000000014e+01 1.746555000000000064e+03
3.300000000000000155e-02 6.068009999999999238e-01 -5.938259999999999650e+00 3.178689999999999927e+01 1.745454999999999927e+03
3.400000000000000244e-02 6.061680000000000401e-01 -6.822905999999999693e+00 2.807310000000000372e+01 1.744529999999999973e+03
3.500000000000000333e-02 6.057474999999999943e-01 -7.278430000000000177e+00 2.544885000000000019e+01 1.743819999999999936e+03
3.600000000000000422e-02 6.055449999999999999e-01 -7.284914999999999807e+00 2.401185000000000258e+01 1.743360000000000127e+03
3.700000000000000511e-02 6.055504999999999916e-01 -6.853069999999999773e+00 2.376709999999999923e+01 1.743170000000000073e+03
3.799999999999999906e-02 6.057500000000000107e-01 -6.008644999999999570e+00 2.465370000000000061e+01 1.743230000000000018e+03
3.899999999999999994e-02 6.061250000000000249e-01 -4.780799499999999647e+00 2.657389999999999830e+01 1.743539999999999964e+03
4.000000000000000083e-02 6.066579999999999195e-01 -3.197220000000000173e+00 2.941539999999999822e+01 1.744069999999999936e+03
4.100000000000000172e-02 6.073315000000000241e-01 -1.285594999999999821e+00 3.306334999999999980e+01 1.744800000000000182e+03
4.200000000000000261e-02 6.081275000000000430e-01 9.206300000000000594e-01 3.740129999999999910e+01 1.745710000000000036e+03
4.300000000000000350e-02 6.090229999999999810e-01 3.376520000000000632e+00 4.230675000000000097e+01 1.746764999999999873e+03
4.400000000000000439e-02 6.099935000000000773e-01 6.022454999999999892e+00 4.764574999999999960e+01 1.747934999999999945e+03
4.499999999999999833e-02 6.110100000000000531e-01 8.785485000000001321e+00 5.327205000000000013e+01 1.749195000000000164e+03
4.599999999999999922e-02 6.120425000000000448e-01 1.158456450000000082e+01 5.903110000000000213e+01 1.750505000000000109e+03
4.700000000000000011e-02 6.130625000000000657e-01 1.433764000000000038e+01 6.476919999999999789e+01 1.751835000000000036e+03
4.800000000000000100e-02 6.140449999999999520e-01 1.696984499999999940e+01 7.034560000000000457e+01 1.753150000000000091e+03
4.900000000000000189e-02 6.149710000000000454e-01 1.941995000000000005e+01 7.564324999999999477e+01 1.754420000000000073e+03
5.000000000000000278e-02 6.158285000000000009e-01 2.164430000000000121e+01 8.057815000000000794e+01 1.755630000000000109e+03
5.100000000000000366e-02 6.166135000000000366e-01 2.361830000000000140e+01 8.510335000000000605e+01 1.756759999999999991e+03
5.200000000000000455e-02 6.173260000000000414e-01 2.533510000000000062e+01 8.920955000000000723e+01 1.757805000000000064e+03
5.300000000000000544e-02 6.179734999999999534e-01 2.680324999999999847e+01 9.291979999999999507e+01 1.758759999999999991e+03
5.399999999999999939e-02 6.185674999999999368e-01 2.804315000000000069e+01 9.628334999999999866e+01 1.759644999999999982e+03
5.500000000000000028e-02 6.191210000000000324e-01 2.908359999999999701e+01 9.936884999999999479e+01 1.760454999999999927e+03
5.600000000000000117e-02 6.196479999999999766e-01 2.995925000000000082e+01 1.022569000000000017e+02 1.761220000000000027e+03
5.700000000000000205e-02 6.201634999999999787e-01 3.070805000000000007e+01 1.050320000000000107e+02 1.761954999999999927e+03
5.800000000000000294e-02 6.206814999999999971e-01 3.136880000000000024e+01 1.077775000000000034e+02 1.762674999999999955e+03
5.900000000000000383e-02 6.212154999999999205e-01 3.197890000000000299e+01 1.105695000000000050e+02 1.763394999999999982e+03
6.000000000000000472e-02 6.217749999999999666e-01 3.257175000000000153e+01 1.134714999999999918e+02 1.764134999999999991e+03
6.099999999999999867e-02 6.223680000000000323e-01 3.317385000000000161e+01 1.165300000000000011e+02 1.764894999999999982e+03
6.199999999999999956e-02 6.229955000000000354e-01 3.380270000000000152e+01 1.197690000000000055e+02 1.765695000000000164e+03
6.300000000000000044e-02 6.236570000000000169e-01 3.446490000000000009e+01 1.231880000000000024e+02 1.766535000000000082e+03
6.400000000000000133e-02 6.243449999999999278e-01 3.515579999999999927e+01 1.267614999999999981e+02 1.767410000000000082e+03
6.500000000000000222e-02 6.250495000000000356e-01 3.586015000000000441e+01 1.304390000000000214e+02 1.768304999999999836e+03
6.600000000000000311e-02 6.257550000000000612e-01 3.655384999999999707e+01 1.341519999999999868e+02 1.769214999999999918e+03
6.700000000000000400e-02 6.264465000000000172e-01 3.720685000000000286e+01 1.378174999999999955e+02 1.770115000000000009e+03
6.800000000000000488e-02 6.271069999999999700e-01 3.778609999999999758e+01 1.413444999999999823e+02 1.770990000000000009e+03
6.900000000000000577e-02 6.277209999999999734e-01 3.825854999999999961e+01 1.446454999999999984e+02 1.771820000000000164e+03
7.000000000000000666e-02 6.282735000000000403e-01 3.859409999999999741e+01 1.476370000000000005e+02 1.772590000000000146e+03
7.100000000000000755e-02 6.287530000000000063e-01 3.876784999999999570e+01 1.502510000000000048e+02 1.773275000000000091e+03
7.200000000000000844e-02 6.291525000000000034e-01 3.876154999999999973e+01 1.524354999999999905e+02 1.773860000000000127e+03
7.300000000000000933e-02 6.294664999999999289e-01 3.856489999999999441e+01 1.541594999999999800e+02 1.774345000000000027e+03
7.399999999999999634e-02 6.296945000000000459e-01 3.817589999999999861e+01 1.554114999999999895e+02 1.774719999999999800e+03
7.499999999999999722e-02 6.298399999999999554e-01 3.760060000000000002e+01 1.562019999999999982e+02 1.774994999999999891e+03
7.599999999999999811e-02 6.299079999999999124e-01 3.685269999999999868e+01 1.565595000000000141e+02 1.775150000000000091e+03
7.699999999999999900e-02 6.299079999999999124e-01 3.595289999999999964e+01 1.565295000000000130e+02 1.775220000000000027e+03
7.799999999999999989e-02 6.298509999999999387e-01 3.492699999999999960e+01 1.561684999999999945e+02 1.775204999999999927e+03
7.900000000000000078e-02 6.297494999999999621e-01 3.380510000000000304e+01 1.555455000000000041e+02 1.775115000000000009e+03
8.000000000000000167e-02 6.296165000000000234e-01 3.261939999999999884e+01 1.547314999999999827e+02 1.774969999999999800e+03
8.100000000000000255e-02 6.294640000000000235e-01 3.140299999999999869e+01 1.538009999999999877e+02 1.774789999999999964e+03
8.200000000000000344e-02 6.293055000000000732e-01 3.018754999999999811e+01 1.528224999999999909e+02 1.774579999999999927e+03
8.300000000000000433e-02 6.291525000000000034e-01 2.900199999999999889e+01 1.518609999999999900e+02 1.774369999999999891e+03
8.400000000000000522e-02 6.290124999999999744e-01 2.787115000000000009e+01 1.509699999999999989e+02 1.774164999999999964e+03
8.500000000000000611e-02 6.288934999999999942e-01 2.681450000000000244e+01 1.501920000000000073e+02 1.773980000000000018e+03
8.600000000000000699e-02 6.287994999999999557e-01 2.584544999999999959e+01 1.495554999999999950e+02 1.773819999999999936e+03
8.700000000000000788e-02 6.287335000000000562e-01 2.497099999999999653e+01 1.490759999999999934e+02 1.773690000000000055e+03
8.800000000000000877e-02 6.286929999999999463e-01 2.419180000000000064e+01 1.487535000000000025e+02 1.773594999999999800e+03
8.899999999999999578e-02 6.286769999999999303e-01 2.350244999999999962e+01 1.485774999999999864e+02 1.773529999999999973e+03
8.999999999999999667e-02 6.286795000000000577e-01 2.289219999999999899e+01 1.485240000000000009e+02 1.773494999999999891e+03
9.099999999999999756e-02 6.286950000000000038e-01 2.234609999999999985e+01 1.485615000000000236e+02 1.773485000000000127e+03
9.199999999999999845e-02 6.287160000000000526e-01 2.184574999999999889e+01 1.486510000000000105e+02 1.773485000000000127e+03
9.299999999999999933e-02 6.287355000000000027e-01 2.137085000000000079e+01 1.487495000000000118e+02 1.773490000000000009e+03
9.400000000000000022e-02 6.287449999999999983e-01 2.090034999999999954e+01 1.488145000000000095e+02 1.773500000000000000e+03
9.500000000000000111e-02 6.287370000000001014e-01 2.041404999999999959e+01 1.488034999999999854e+02 1.773490000000000009e+03
9.600000000000000200e-02 6.287055000000000282e-01 1.989345000000000141e+01 1.486800000000000068e+02 1.773460000000000036e+03
9.700000000000000289e-02 6.286464999999999970e-01 1.932349999999999923e+01 1.484130000000000109e+02 1.773400000000000091e+03
9.800000000000000377e-02 6.285555000000000447e-01 1.869290000000000163e+01 1.479819999999999993e+02 1.773304999999999836e+03
9.900000000000000466e-02 6.284324999999999495e-01 1.799535000000000196e+01 1.473750000000000000e+02 1.773174999999999955e+03
1.000000000000000056e-01 6.282769999999999744e-01 1.722964999999999947e+01 1.465919999999999845e+02 1.773000000000000000e+03
1.010000000000000064e-01 6.280920000000000947e-01 1.639985000000000070e+01 1.456435000000000173e+02 1.772789999999999964e+03
1.020000000000000073e-01 6.278829999999999689e-01 1.551494999999999891e+01 1.445509999999999877e+02 1.772549999999999955e+03
1.030000000000000082e-01 6.276554999999999218e-01 1.458837499999999920e+01 1.433439999999999941e+02 1.772275000000000091e+03
1.040000000000000091e-01 6.274159999999999737e-01 1.363711499999999965e+01 1.420600000000000023e+02 1.771985000000000127e+03
1.050000000000000100e-01 6.271735000000000504e-01 1.268079999999999963e+01 1.407425000000000068e+02 1.771670000000000073e+03
1.059999999999999970e-01 6.269365000000000077e-01 1.174053500000000128e+01 1.394359999999999786e+02 1.771369999999999891e+03
1.069999999999999979e-01 6.267119999999999358e-01 1.083735000000000070e+01 1.381845000000000141e+02 1.771065000000000055e+03
1.079999999999999988e-01 6.265080000000000648e-01 9.991334999999999411e+00 1.370310000000000059e+02 1.770784999999999854e+03
1.089999999999999997e-01 6.263315000000000410e-01 9.220269999999999300e+00 1.360120000000000005e+02 1.770525000000000091e+03
1.100000000000000006e-01 6.261864999999999792e-01 8.538634999999999309e+00 1.351569999999999823e+02 1.770300000000000182e+03
1.110000000000000014e-01 6.260749999999999371e-01 7.956870000000000331e+00 1.344875000000000114e+02 1.770119999999999891e+03
1.120000000000000023e-01 6.260004999999999598e-01 7.481035000000000323e+00 1.340134999999999934e+02 1.769980000000000018e+03
1.130000000000000032e-01 6.259609999999999896e-01 7.112415000000000376e+00 1.337359999999999900e+02 1.769884999999999991e+03
1.140000000000000041e-01 6.259550000000000392e-01 6.847830000000000084e+00 1.336460000000000150e+02 1.769835000000000036e+03
1.150000000000000050e-01 6.259790000000000632e-01 6.679964999999999264e+00 1.337264999999999873e+02 1.769819999999999936e+03
1.160000000000000059e-01 6.260270000000000001e-01 6.598019999999999996e+00 1.339540000000000077e+02 1.769849999999999909e+03
1.170000000000000068e-01 6.260939999999999284e-01 6.588454999999999728e+00 1.342970000000000255e+02 1.769904999999999973e+03
1.180000000000000077e-01 6.261740000000000084e-01 6.635880000000000223e+00 1.347239999999999895e+02 1.769974999999999909e+03
1.190000000000000085e-01 6.262604999999999977e-01 6.723919999999999675e+00 1.351995000000000005e+02 1.770069999999999936e+03
1.200000000000000094e-01 6.263475000000000570e-01 6.836090000000000444e+00 1.356899999999999977e+02 1.770174999999999955e+03
1.209999999999999964e-01 6.264300000000000423e-01 6.956590000000000273e+00 1.361649999999999920e+02 1.770280000000000200e+03
1.219999999999999973e-01 6.265030000000000321e-01 7.070975000000000676e+00 1.365960000000000036e+02 1.770375000000000000e+03
1.229999999999999982e-01 6.265629999999999811e-01 7.166685000000000194e+00 1.369605000000000246e+02 1.770460000000000036e+03
1.239999999999999991e-01 6.266065000000000662e-01 7.233515000000000583e+00 1.372415000000000020e+02 1.770529999999999973e+03
1.250000000000000000e-01 6.266329999999999956e-01 7.263809999999999434e+00 1.374270000000000209e+02 1.770579999999999927e+03
1.260000000000000009e-01 6.266400000000000858e-01 7.252634999999999721e+00 1.375120000000000005e+02 1.770605000000000018e+03
1.270000000000000018e-01 6.266300000000000203e-01 7.197734999999999772e+00 1.374960000000000093e+02 1.770614999999999782e+03
1.280000000000000027e-01 6.266034999999999799e-01 7.099389999999999645e+00 1.373840000000000146e+02 1.770599999999999909e+03
1.290000000000000036e-01 6.265620000000000633e-01 6.960189999999999877e+00 1.371854999999999905e+02 1.770565000000000055e+03
1.300000000000000044e-01 6.265085000000000237e-01 6.784675000000000011e+00 1.369124999999999943e+02 1.770509999999999991e+03
1.310000000000000053e-01 6.264450000000000296e-01 6.578939999999999344e+00 1.365805000000000007e+02 1.770444999999999936e+03
1.320000000000000062e-01 6.263754999999999740e-01 6.350189999999999557e+00 1.362060000000000173e+02 1.770365000000000009e+03
1.330000000000000071e-01 6.263015000000000665e-01 6.106225000000000236e+00 1.358054999999999950e+02 1.770279999999999973e+03
1.340000000000000080e-01 6.262280000000000069e-01 5.854985000000000106e+00 1.353944999999999936e+02 1.770184999999999945e+03
1.350000000000000089e-01 6.261560000000000459e-01 5.604105000000000558e+00 1.349884999999999877e+02 1.770094999999999800e+03
1.360000000000000098e-01 6.260885000000000478e-01 5.360459999999999781e+00 1.346005000000000109e+02 1.770005000000000109e+03
1.370000000000000107e-01 6.260265000000000413e-01 5.129884999999999806e+00 1.342390000000000043e+02 1.769914999999999964e+03
1.380000000000000115e-01 6.259710000000000552e-01 4.916885000000000616e+00 1.339110000000000014e+02 1.769835000000000036e+03
1.390000000000000124e-01 6.259220000000000894e-01 4.724540000000000184e+00 1.336204999999999927e+02 1.769759999999999991e+03
1.400000000000000133e-01 6.258795000000000330e-01 4.554460000000000619e+00 1.333665000000000020e+02 1.769700000000000045e+03
1.410000000000000142e-01 6.258434999999999970e-01 4.406844999999999679e+00 1.331479999999999961e+02 1.769644999999999982e+03
1.420000000000000151e-01 6.258120000000000349e-01 4.280655000000000321e+00 1.329579999999999984e+02 1.769590000000000146e+03
1.430000000000000160e-01 6.257840000000000069e-01 4.173809999999999576e+00 1.327914999999999850e+02 1.769545000000000073e+03
1.440000000000000169e-01 6.257580000000000364e-01 4.083484999999999587e+00 1.326390000000000100e+02 1.769505000000000109e+03
1.450000000000000178e-01 6.257329999999999837e-01 4.006364999999999732e+00 1.324929999999999950e+02 1.769460000000000036e+03
1.459999999999999909e-01 6.257059999999999844e-01 3.938930000000000042e+00 1.323439999999999941e+02 1.769424999999999955e+03
1.469999999999999918e-01 6.256764999999999688e-01 3.877749999999999808e+00 1.321850000000000023e+02 1.769380000000000109e+03
1.479999999999999927e-01 6.256439999999999779e-01 3.819695000000000285e+00 1.320099999999999909e+02 1.769339999999999918e+03
1.489999999999999936e-01 6.256064999999999543e-01 3.762120000000000353e+00 1.318139999999999930e+02 1.769284999999999854e+03
1.499999999999999944e-01 6.255645000000000788e-01 3.703040000000000109e+00 1.315935000000000059e+02 1.769230000000000018e+03
1.509999999999999953e-01 6.255174999999999486e-01 3.641225000000000378e+00 1.313495000000000061e+02 1.769175000000000182e+03
1.519999999999999962e-01 6.254664999999999253e-01 3.576245000000000118e+00 1.310815000000000055e+02 1.769110000000000127e+03
1.529999999999999971e-01 6.254119999999999679e-01 3.508469999999999978e+00 1.307944999999999993e+02 1.769039999999999964e+03
1.539999999999999980e-01 6.253549999999999942e-01 3.439049999999999940e+00 1.304920000000000186e+02 1.768970000000000027e+03
1.549999999999999989e-01 6.252965000000000328e-01 3.369799999999999685e+00 1.301820000000000164e+02 1.768894999999999982e+03
1.559999999999999998e-01 6.252379999999999605e-01 3.303104999999999958e+00 1.298709999999999809e+02 1.768815000000000055e+03
1.570000000000000007e-01 6.251815000000000566e-01 3.241740000000000066e+00 1.295679999999999836e+02 1.768740000000000009e+03
1.580000000000000016e-01 6.251284999999999759e-01 3.188734999999999875e+00 1.292805000000000177e+02 1.768670000000000073e+03
1.590000000000000024e-01 6.250800000000000800e-01 3.147160000000000402e+00 1.290180000000000007e+02 1.768605000000000018e+03
