# t [s], A [cm^2], U [cm/s], P [cPa], c [cm/s]
1.000000000000000021e-03 7.326905000000000223e-01 6.277800000000000047e-03 1.004540000000000077e+02 1.722470000000000027e+03
2.000000000000000042e-03 7.326779999999999404e-01 -3.278945000000000123e-03 1.004225000000000136e+02 1.722464999999999918e+03
3.000000000000000062e-03 7.327360000000000539e-01 9.024945000000000883e-02 1.005313000000000017e+02 1.722485000000000127e+03
4.000000000000000083e-03 7.327890000000000237e-01 1.879201500000000080e-01 1.006605999999999881e+02 1.722514999999999873e+03
5.000000000000000104e-03 7.327574999999999505e-01 1.620809999999999751e-01 1.005966999999999985e+02 1.722500000000000000e+03
6.000000000000000125e-03 7.326854999999999896e-01 6.639950000000000019e-02 1.003670000000000044e+02 1.722454999999999927e+03
7.000000000000000146e-03 7.326269999999999172e-01 -1.559299999999996800e-02 1.000902999999999992e+02 1.722400000000000091e+03
8.000000000000000167e-03 7.325340000000000185e-01 -1.663590000000000346e-01 9.968205000000000382e+01 1.722315000000000055e+03
9.000000000000001055e-03 7.323759999999999160e-01 -4.418699999999999850e-01 9.904595000000000482e+01 1.722174999999999955e+03
1.000000000000000194e-02 7.321459999999999635e-01 -8.517349999999999088e-01 9.812950000000000728e+01 1.721990000000000009e+03
1.099999999999999936e-02 7.318204999999999849e-01 -1.423985000000000056e+00 9.685264999999999702e+01 1.721719999999999800e+03
1.200000000000000025e-02 7.313954999999999762e-01 -2.149580000000000268e+00 9.517475000000000307e+01 1.721360000000000127e+03
1.300000000000000114e-02 7.309200000000000141e-01 -2.923229999999999773e+00 9.319505000000000905e+01 1.720924999999999955e+03
1.400000000000000203e-02 7.304725000000000801e-01 -3.581892499999999480e+00 9.113084999999999525e+01 1.720460000000000036e+03
1.499999999999999944e-02 7.301104999999999956e-01 -3.992455999999999783e+00 8.920234999999999559e+01 1.720000000000000000e+03
1.600000000000000033e-02 7.298434999999999784e-01 -4.106139999999999901e+00 8.753434999999998922e+01 1.719579999999999927e+03
1.700000000000000122e-02 7.296420000000000128e-01 -3.957653000000000088e+00 8.612754999999999939e+01 1.719204999999999927e+03
1.800000000000000211e-02 7.294559999999999933e-01 -3.630609999999999893e+00 8.488785000000000025e+01 1.718855000000000018e+03
1.900000000000000300e-02 7.292410000000000281e-01 -3.215177500000000244e+00 8.368325000000000102e+01 1.718514999999999873e+03
2.000000000000000042e-02 7.289704999999999657e-01 -2.774456644999999888e+00 8.240130000000000621e+01 1.718154999999999973e+03
2.100000000000000130e-02 7.286444999999999173e-01 -2.328393500000000227e+00 8.098770000000000380e+01 1.717775000000000091e+03
2.200000000000000219e-02 7.282839999999999314e-01 -1.858030000000000292e+00 7.945564999999999145e+01 1.717365000000000009e+03
2.299999999999999961e-02 7.279160000000000075e-01 -1.326184999999999947e+00 7.786599999999999966e+01 1.716940000000000055e+03
2.400000000000000050e-02 7.275635000000000296e-01 -7.039350000000001994e-01 7.628950000000000387e+01 1.716519999999999982e+03
2.500000000000000139e-02 7.272319999999999895e-01 8.704999999999962768e-03 7.476949999999999363e+01 1.716099999999999909e+03
2.600000000000000228e-02 7.269099999999999451e-01 7.747749999999999915e-01 7.329939999999999145e+01 1.715695000000000164e+03
2.700000000000000316e-02 7.265699999999999381e-01 1.525630000000000042e+00 7.181850000000000023e+01 1.715289999999999964e+03
2.800000000000000058e-02 7.261794999999999778e-01 2.176169999999999938e+00 7.022729999999999961e+01 1.714865000000000009e+03
2.900000000000000147e-02 7.257069999999999910e-01 2.645265000000000200e+00 6.841464999999999463e+01 1.714389999999999873e+03
3.000000000000000236e-02 7.251365000000000727e-01 2.875900000000000567e+00 6.629099999999999682e+01 1.713860000000000127e+03
3.099999999999999978e-02 7.244690000000000296e-01 2.849409999999999776e+00 6.381680000000000064e+01 1.713255000000000109e+03
3.200000000000000067e-02 7.237249999999999517e-01 2.589394999999999669e+00 6.101855000000000473e+01 1.712585000000000036e+03
3.300000000000000155e-02 7.229404999999999859e-01 2.154084999999999805e+00 5.798635000000000161e+01 1.711855000000000018e+03
3.400000000000000244e-02 7.221569999999999379e-01 1.620974999999999611e+00 5.485590000000000543e+01 1.711105000000000018e+03
3.500000000000000333e-02 7.214164999999999051e-01 1.069604999999999695e+00 5.178260000000000218e+01 1.710355000000000018e+03
3.600000000000000422e-02 7.207500000000000018e-01 5.678399999999999004e-01 4.891530000000000200e+01 1.709644999999999982e+03
3.700000000000000511e-02 7.201800000000000423e-01 1.644549999999997958e-01 4.637739999999999441e+01 1.709000000000000000e+03
3.799999999999999906e-02 7.197189999999999976e-01 -1.122000000000000774e-01 4.425659999999999883e+01 1.708440000000000055e+03
3.899999999999999994e-02 7.193690000000000362e-01 -2.506199999999996209e-01 4.260340000000000060e+01 1.707985000000000127e+03
4.000000000000000083e-02 7.191285000000000593e-01 -2.499899999999999345e-01 4.143684999999999974e+01 1.707640000000000100e+03
4.100000000000000172e-02 7.189924999999999233e-01 -1.135649999999999160e-01 4.075390000000000157e+01 1.707409999999999854e+03
4.200000000000000261e-02 7.189574999999999161e-01 1.566845000000000321e-01 4.053970000000000340e+01 1.707295000000000073e+03
4.300000000000000350e-02 7.190199999999999925e-01 5.629769999999999497e-01 4.077615000000000123e+01 1.707289999999999964e+03
4.400000000000000439e-02 7.191794999999999716e-01 1.111731999999999942e+00 4.144684999999999775e+01 1.707400000000000091e+03
4.499999999999999833e-02 7.194344999999999768e-01 1.811150000000000038e+00 4.253770000000000095e+01 1.707610000000000127e+03
4.599999999999999922e-02 7.197845000000000493e-01 2.667514999999999858e+00 4.403435000000000343e+01 1.707920000000000073e+03
4.700000000000000011e-02 7.202239999999999753e-01 3.681464999999999765e+00 4.591785000000000139e+01 1.708329999999999927e+03
4.800000000000000100e-02 7.207464999999999566e-01 4.845485500000000556e+00 4.816055000000000064e+01 1.708835000000000036e+03
4.900000000000000189e-02 7.213410000000000100e-01 6.143003999999999465e+00 5.072359999999999758e+01 1.709414999999999964e+03
5.000000000000000278e-02 7.219929999999999959e-01 7.549206500000000375e+00 5.355679999999999552e+01 1.710070000000000164e+03
5.100000000000000366e-02 7.226879999999999971e-01 9.033430000000000959e+00 5.660040000000000049e+01 1.710779999999999973e+03
5.200000000000000455e-02 7.234080000000000510e-01 1.056212999999999980e+01 5.978950000000000387e+01 1.711539999999999964e+03
5.300000000000000544e-02 7.241389999999999771e-01 1.210203500000000076e+01 6.305825000000000102e+01 1.712324999999999818e+03
5.399999999999999939e-02 7.248665000000000802e-01 1.362298000000000009e+01 6.634544999999999959e+01 1.713130000000000109e+03
5.500000000000000028e-02 7.255814999999999904e-01 1.510010999999999903e+01 6.959869999999999379e+01 1.713934999999999945e+03
5.600000000000000117e-02 7.262759999999999216e-01 1.651474999999999937e+01 7.277719999999999345e+01 1.714730000000000018e+03
5.700000000000000205e-02 7.269460000000000921e-01 1.785474999999999923e+01 7.585320000000000107e+01 1.715510000000000218e+03
5.800000000000000294e-02 7.275910000000000988e-01 1.911400000000000077e+01 7.881229999999999336e+01 1.716264999999999873e+03
5.900000000000000383e-02 7.282115000000000116e-01 2.029124999999999801e+01 8.165174999999999272e+01 1.717000000000000000e+03
6.000000000000000472e-02 7.288109999999999866e-01 2.138915000000000077e+01 8.437860000000000582e+01 1.717710000000000036e+03
6.099999999999999867e-02 7.293935000000000279e-01 2.241290000000000049e+01 8.700704999999999245e+01 1.718394999999999982e+03
6.199999999999999956e-02 7.299634999999999874e-01 2.336905000000000143e+01 8.955555000000001087e+01 1.719065000000000055e+03
6.300000000000000044e-02 7.305254999999999388e-01 2.426440000000000197e+01 9.204404999999999859e+01 1.719719999999999800e+03
6.400000000000000133e-02 7.310825000000000795e-01 2.510535000000000139e+01 9.449150000000000205e+01 1.720360000000000127e+03
6.500000000000000222e-02 7.316380000000000106e-01 2.589695000000000036e+01 9.691374999999999318e+01 1.720994999999999891e+03
6.600000000000000311e-02 7.321930000000000938e-01 2.664229999999999876e+01 9.932185000000001196e+01 1.721625000000000000e+03
6.700000000000000400e-02 7.327474999999999961e-01 2.734264999999999901e+01 1.017201500000000038e+02 1.722255000000000109e+03
6.800000000000000488e-02 7.333004999999999107e-01 2.799680000000000035e+01 1.041070499999999868e+02 1.722880000000000109e+03
6.900000000000000577e-02 7.338485000000000147e-01 2.860170000000000101e+01 1.064749999999999943e+02 1.723500000000000000e+03
7.000000000000000666e-02 7.343880000000000408e-01 2.915274999999999750e+01 1.088105000000000047e+02 1.724115000000000009e+03
7.100000000000000755e-02 7.349149999999999849e-01 2.964430000000000121e+01 1.110949999999999989e+02 1.724715000000000146e+03
7.200000000000000844e-02 7.354240000000000776e-01 3.007049999999999912e+01 1.133100000000000023e+02 1.725299999999999955e+03
7.300000000000000933e-02 7.359099999999999531e-01 3.042555000000000121e+01 1.154325000000000045e+02 1.725860000000000127e+03
7.399999999999999634e-02 7.363695000000000102e-01 3.070449999999999946e+01 1.174439999999999884e+02 1.726400000000000091e+03
7.499999999999999722e-02 7.367985000000000229e-01 3.090330000000000155e+01 1.193245000000000005e+02 1.726905000000000200e+03
7.599999999999999811e-02 7.371935000000000571e-01 3.101919999999999789e+01 1.210585000000000093e+02 1.727380000000000109e+03
7.699999999999999900e-02 7.375515000000000265e-01 3.105069999999999908e+01 1.226340000000000003e+02 1.727809999999999945e+03
7.799999999999999989e-02 7.378719999999999724e-01 3.099754999999999683e+01 1.240409999999999968e+02 1.728210000000000036e+03
7.900000000000000078e-02 7.381535000000000180e-01 3.086074999999999946e+01 1.252744999999999891e+02 1.728559999999999945e+03
8.000000000000000167e-02 7.383960000000000523e-01 3.064264999999999972e+01 1.263325000000000102e+02 1.728864999999999782e+03
8.100000000000000255e-02 7.385995000000000754e-01 3.034684999999999988e+01 1.272175000000000011e+02 1.729125000000000000e+03
8.200000000000000344e-02 7.387664999999999926e-01 2.997840000000000060e+01 1.279339999999999975e+02 1.729345000000000027e+03
8.300000000000000433e-02 7.388985000000000136e-01 2.954339999999999833e+01 1.284895000000000209e+02 1.729525000000000091e+03
8.400000000000000522e-02 7.389974999999999739e-01 2.904945000000000022e+01 1.288969999999999914e+02 1.729659999999999854e+03
8.500000000000000611e-02 7.390674999999999883e-01 2.850534999999999997e+01 1.291709999999999923e+02 1.729764999999999873e+03
8.600000000000000699e-02 7.391125000000000611e-01 2.792070000000000007e+01 1.293265000000000100e+02 1.729840000000000146e+03
8.700000000000000788e-02 7.391369999999999330e-01 2.730590000000000117e+01 1.293824999999999932e+02 1.729880000000000109e+03
8.800000000000000877e-02 7.391449999999999410e-01 2.667134999999999678e+01 1.293584999999999923e+02 1.729894999999999982e+03
8.899999999999999578e-02 7.391400000000000192e-01 2.602730000000000032e+01 1.292729999999999961e+02 1.729900000000000091e+03
8.999999999999999667e-02 7.391269999999999785e-01 2.538335000000000008e+01 1.291454999999999984e+02 1.729880000000000109e+03
9.099999999999999756e-02 7.391084999999999461e-01 2.474770000000000181e+01 1.289910000000000139e+02 1.729855000000000018e+03
9.199999999999999845e-02 7.390885000000000371e-01 2.412709999999999866e+01 1.288245000000000005e+02 1.729824999999999818e+03
9.299999999999999933e-02 7.390674999999999883e-01 2.352639999999999887e+01 1.286569999999999823e+02 1.729789999999999964e+03
9.400000000000000022e-02 7.390474999999999683e-01 2.294849999999999923e+01 1.284950000000000045e+02 1.729750000000000000e+03
9.500000000000000111e-02 7.390280000000000182e-01 2.239434999999999931e+01 1.283414999999999964e+02 1.729715000000000146e+03
9.600000000000000200e-02 7.390094999999999859e-01 2.186289999999999978e+01 1.281974999999999909e+02 1.729680000000000064e+03
9.700000000000000289e-02 7.389900000000000357e-01 2.135170000000000101e+01 1.280585000000000093e+02 1.729639999999999873e+03
9.800000000000000377e-02 7.389674999999999994e-01 2.085689999999999955e+01 1.279180000000000064e+02 1.729605000000000018e+03
9.900000000000000466e-02 7.389415000000000289e-01 2.037365000000000137e+01 1.277684999999999889e+02 1.729569999999999936e+03
1.000000000000000056e-01 7.389080000000000092e-01 1.989654999999999774e+01 1.275995000000000061e+02 1.729519999999999982e+03
1.010000000000000064e-01 7.388654999999999529e-01 1.941995000000000005e+01 1.274014999999999986e+02 1.729470000000000027e+03
1.020000000000000073e-01 7.388124999999999831e-01 1.893834999999999980e+01 1.271640000000000015e+02 1.729410000000000082e+03
1.030000000000000082e-01 7.387455000000000549e-01 1.844664999999999822e+01 1.268785000000000025e+02 1.729339999999999918e+03
1.040000000000000091e-01 7.386645000000000572e-01 1.794034999999999869e+01 1.265365000000000038e+02 1.729255000000000109e+03
1.050000000000000100e-01 7.385680000000000023e-01 1.741610000000000014e+01 1.261324999999999932e+02 1.729159999999999854e+03
1.059999999999999970e-01 7.384560000000000013e-01 1.687174999999999869e+01 1.256634999999999991e+02 1.729045000000000073e+03
1.069999999999999979e-01 7.383284999999999432e-01 1.630630000000000024e+01 1.251290000000000049e+02 1.728914999999999964e+03
1.079999999999999988e-01 7.381865000000000787e-01 1.572040000000000148e+01 1.245315000000000083e+02 1.728775000000000091e+03
1.089999999999999997e-01 7.380314999999999515e-01 1.511615000000000109e+01 1.238754999999999882e+02 1.728610000000000127e+03
1.100000000000000006e-01 7.378660000000000219e-01 1.449704999999999799e+01 1.231705000000000041e+02 1.728440000000000055e+03
1.110000000000000014e-01 7.376930000000000431e-01 1.386791000000000196e+01 1.224265000000000043e+02 1.728255000000000109e+03
1.120000000000000023e-01 7.375154999999999905e-01 1.323478000000000065e+01 1.216564999999999941e+02 1.728070000000000164e+03
1.130000000000000032e-01 7.373365000000000613e-01 1.260447999999999880e+01 1.208760000000000048e+02 1.727875000000000000e+03
1.140000000000000041e-01 7.371604999999999963e-01 1.198432000000000031e+01 1.200999999999999943e+02 1.727679999999999836e+03
1.150000000000000050e-01 7.369909999999999517e-01 1.138204999999999956e+01 1.193439999999999941e+02 1.727489999999999782e+03
1.160000000000000059e-01 7.368315000000000836e-01 1.080513000000000012e+01 1.186250000000000000e+02 1.727305000000000064e+03
1.170000000000000068e-01 7.366854999999999931e-01 1.026064500000000024e+01 1.179579999999999984e+02 1.727130000000000109e+03
1.180000000000000077e-01 7.365550000000000708e-01 9.754794999999999661e+00 1.173545000000000016e+02 1.726970000000000027e+03
1.190000000000000085e-01 7.364429999999999588e-01 9.292914999999998926e+00 1.168269999999999982e+02 1.726829999999999927e+03
1.200000000000000094e-01 7.363505000000000189e-01 8.878814999999999458e+00 1.163830000000000098e+02 1.726704999999999927e+03
1.209999999999999964e-01 7.362790000000000168e-01 8.515159999999999840e+00 1.160275000000000034e+02 1.726599999999999909e+03
1.219999999999999973e-01 7.362275000000000347e-01 8.202965000000000728e+00 1.157630000000000052e+02 1.726519999999999982e+03
1.229999999999999982e-01 7.361964999999999204e-01 7.941815000000000069e+00 1.155889999999999986e+02 1.726460000000000036e+03
1.239999999999999991e-01 7.361839999999999495e-01 7.729984999999999218e+00 1.155005000000000024e+02 1.726420000000000073e+03
1.250000000000000000e-01 7.361889999999999823e-01 7.564504999999999590e+00 1.154920000000000044e+02 1.726400000000000091e+03
1.260000000000000009e-01 7.362085000000000434e-01 7.441404999999999603e+00 1.155550000000000068e+02 1.726400000000000091e+03
1.270000000000000018e-01 7.362414999999999932e-01 7.355995000000000061e+00 1.156790000000000020e+02 1.726420000000000073e+03
1.280000000000000027e-01 7.362835000000000907e-01 7.303069999999999951e+00 1.158539999999999992e+02 1.726445000000000164e+03
1.290000000000000036e-01 7.363334999999999742e-01 7.277184999999999349e+00 1.160679999999999978e+02 1.726490000000000009e+03
1.300000000000000044e-01 7.363884999999998904e-01 7.272899999999999920e+00 1.163100000000000023e+02 1.726539999999999964e+03
1.310000000000000053e-01 7.364470000000000738e-01 7.284934999999999938e+00 1.165699999999999932e+02 1.726595000000000027e+03
1.320000000000000062e-01 7.365059999999999940e-01 7.308379999999999654e+00 1.168379999999999939e+02 1.726659999999999854e+03
1.330000000000000071e-01 7.365639999999999965e-01 7.338775000000000048e+00 1.171059999999999945e+02 1.726720000000000027e+03
1.340000000000000080e-01 7.366204999999999004e-01 7.372199999999999420e+00 1.173669999999999902e+02 1.726779999999999973e+03
1.350000000000000089e-01 7.366740000000000510e-01 7.405330000000000190e+00 1.176159999999999997e+02 1.726840000000000146e+03
1.360000000000000098e-01 7.367230000000000167e-01 7.435449999999999449e+00 1.178490000000000038e+02 1.726894999999999982e+03
1.370000000000000107e-01 7.367680000000000895e-01 7.460460000000000313e+00 1.180625000000000000e+02 1.726949999999999818e+03
1.380000000000000115e-01 7.368084999999999773e-01 7.478860000000000063e+00 1.182565000000000026e+02 1.727005000000000109e+03
1.390000000000000124e-01 7.368455000000000421e-01 7.489720000000000155e+00 1.184294999999999902e+02 1.727049999999999955e+03
1.400000000000000133e-01 7.368775000000000741e-01 7.492630000000000123e+00 1.185840000000000032e+02 1.727089999999999918e+03
1.410000000000000142e-01 7.369065000000000198e-01 7.487664999999999793e+00 1.187199999999999989e+02 1.727130000000000109e+03
1.420000000000000151e-01 7.369319999999999204e-01 7.475300000000000722e+00 1.188410000000000082e+02 1.727160000000000082e+03
1.430000000000000160e-01 7.369554999999999856e-01 7.456355000000000288e+00 1.189489999999999981e+02 1.727190000000000055e+03
1.440000000000000169e-01 7.369769999999999932e-01 7.431904999999999539e+00 1.190465000000000089e+02 1.727220000000000027e+03
1.450000000000000178e-01 7.369980000000000420e-01 7.403175000000000949e+00 1.191374999999999886e+02 1.727244999999999891e+03
1.459999999999999909e-01 7.370185000000000208e-01 7.371470000000000411e+00 1.192245000000000061e+02 1.727269999999999982e+03
1.469999999999999918e-01 7.370384999999999298e-01 7.338065000000000282e+00 1.193100000000000023e+02 1.727295000000000073e+03
1.479999999999999927e-01 7.370594999999999786e-01 7.304124999999999979e+00 1.193960000000000008e+02 1.727320000000000164e+03
1.489999999999999936e-01 7.370814999999999451e-01 7.270640000000000214e+00 1.194844999999999970e+02 1.727340000000000146e+03
1.499999999999999944e-01 7.371045000000000513e-01 7.238374999999999559e+00 1.195764999999999958e+02 1.727369999999999891e+03
1.509999999999999953e-01 7.371285000000000753e-01 7.207835000000000214e+00 1.196724999999999994e+02 1.727394999999999982e+03
1.519999999999999962e-01 7.371529999999999472e-01 7.179244999999999877e+00 1.197715000000000032e+02 1.727420000000000073e+03
1.529999999999999971e-01 7.371779999999999999e-01 7.152590000000000003e+00 1.198735000000000070e+02 1.727444999999999936e+03
1.539999999999999980e-01 7.372035000000000116e-01 7.127604999999999968e+00 1.199770000000000039e+02 1.727470000000000027e+03
1.549999999999999989e-01 7.372290000000000232e-01 7.103885000000000005e+00 1.200799999999999983e+02 1.727494999999999891e+03
1.559999999999999998e-01 7.372529999999999362e-01 7.080915000000000070e+00 1.201800000000000068e+02 1.727519999999999982e+03
1.570000000000000007e-01 7.372764999999998903e-01 7.058144999999999669e+00 1.202754999999999939e+02 1.727550000000000182e+03
1.580000000000000016e-01 7.372980000000000089e-01 7.035070000000000157e+00 1.203649999999999949e+02 1.727570000000000164e+03
1.590000000000000024e-01 7.373174999999999590e-01 7.011309999999999931e+00 1.204455000000000098e+02 1.727590000000000146e+03
