# t [s], A [cm^2], U [cm/s], P [cPa], c [cm/s]
1.000000000000000021e-03 5.064929999999999710e-01 5.222299999999999165e-03 1.027514999999999930e+02 1.604224999999999909e+03
2.000000000000000042e-03 5.064845000000000041e-01 -2.593530000000000141e-03 1.027270000000000039e+02 1.604214999999999918e+03
3.000000000000000062e-03 5.065184999999999826e-01 6.897440000000000515e-02 1.028034999999999997e+02 1.604235000000000127e+03
4.000000000000000083e-03 5.065600000000000103e-01 1.634590999999999961e-01 1.029240000000000066e+02 1.604269999999999982e+03
5.000000000000000104e-03 5.065539999999999488e-01 1.659855000000000080e-01 1.029175000000000040e+02 1.604269999999999982e+03
6.000000000000000125e-03 5.065100000000000158e-01 8.563500000000001666e-02 1.027549999999999955e+02 1.604230000000000018e+03
7.000000000000000146e-03 5.064699999999999758e-01 8.539500000000033175e-03 1.025335000000000036e+02 1.604180000000000064e+03
8.000000000000000167e-03 5.064214999999999689e-01 -9.580200000000005378e-02 1.022374999999999972e+02 1.604110000000000127e+03
9.000000000000001055e-03 5.063360000000000083e-01 -2.928350000000000675e-01 1.017810000000000059e+02 1.604009999999999991e+03
1.000000000000000194e-02 5.062075000000000324e-01 -5.958999999999998742e-01 1.011167000000000087e+02 1.603849999999999909e+03
1.099999999999999936e-02 5.060279999999999223e-01 -1.017939999999999845e+00 1.001966500000000053e+02 1.603634999999999991e+03
1.200000000000000025e-02 5.057834999999999415e-01 -1.575595000000000079e+00 9.896205000000000496e+01 1.603335000000000036e+03
1.300000000000000114e-02 5.054815000000000280e-01 -2.235864999999999991e+00 9.741275000000000261e+01 1.602960000000000036e+03
1.400000000000000203e-02 5.051575000000000371e-01 -2.897329999999999739e+00 9.564905000000000257e+01 1.602515000000000100e+03
1.499999999999999944e-02 5.048550000000000537e-01 -3.432249999999999801e+00 9.383679999999999666e+01 1.602039999999999964e+03
1.600000000000000033e-02 5.046034999999999826e-01 -3.744660500000000170e+00 9.213204999999999245e+01 1.601575000000000045e+03
1.700000000000000122e-02 5.044075000000000086e-01 -3.801461849999999920e+00 9.062180000000000746e+01 1.601134999999999991e+03
1.800000000000000211e-02 5.042504999999999349e-01 -3.629611999999999838e+00 8.931020000000000891e+01 1.600730000000000018e+03
1.900000000000000300e-02 5.041054999999999842e-01 -3.292828000000000088e+00 8.813509999999999422e+01 1.600360000000000127e+03
2.000000000000000042e-02 5.039450000000000873e-01 -2.862812350000000006e+00 8.700325000000000841e+01 1.599990000000000009e+03
2.100000000000000130e-02 5.037530000000000063e-01 -2.395099500000000159e+00 8.582750000000000057e+01 1.599610000000000127e+03
2.200000000000000219e-02 5.035250000000000004e-01 -1.915254999999999708e+00 8.455490000000000350e+01 1.599204999999999927e+03
2.299999999999999961e-02 5.032689999999999664e-01 -1.418239999999999945e+00 8.317889999999999873e+01 1.598780000000000200e+03
2.400000000000000050e-02 5.030000000000000027e-01 -8.796850000000000502e-01 8.173204999999998677e+01 1.598335000000000036e+03
2.500000000000000139e-02 5.027335000000000553e-01 -2.736149999999999416e-01 8.026534999999999798e+01 1.597884999999999991e+03
2.600000000000000228e-02 5.024775000000000214e-01 4.110200000000001630e-01 7.882329999999998904e+01 1.597429999999999836e+03
2.700000000000000316e-02 5.022315000000000529e-01 1.160450000000000204e+00 7.742345000000000255e+01 1.596989999999999782e+03
2.800000000000000058e-02 5.019850000000000145e-01 1.934984999999999733e+00 7.604765000000000441e+01 1.596545000000000073e+03
2.900000000000000147e-02 5.017214999999999314e-01 2.675734999999999975e+00 7.464400000000000546e+01 1.596105000000000018e+03
3.000000000000000236e-02 5.014229999999999521e-01 3.316469999999999807e+00 7.313904999999999745e+01 1.595639999999999873e+03
3.099999999999999978e-02 5.010744999999999783e-01 3.797719999999999985e+00 7.145670000000001210e+01 1.595134999999999991e+03
3.200000000000000067e-02 5.006669999999999732e-01 4.079604999999999926e+00 6.953855000000000075e+01 1.594574999999999818e+03
3.300000000000000155e-02 5.002029999999999532e-01 4.150525000000000020e+00 6.736129999999999995e+01 1.593960000000000036e+03
3.400000000000000244e-02 4.996940000000000270e-01 4.029125000000000512e+00 6.494579999999999131e+01 1.593284999999999854e+03
3.500000000000000333e-02 4.991610000000000213e-01 3.759110000000000174e+00 6.235634999999999906e+01 1.592570000000000164e+03
3.600000000000000422e-02 4.986264999999999725e-01 3.399424999999999919e+00 5.968950000000000244e+01 1.591829999999999927e+03
3.700000000000000511e-02 4.981155000000000443e-01 3.012819999999999609e+00 5.705904999999999916e+01 1.591090000000000146e+03
3.799999999999999906e-02 4.976484999999999381e-01 2.655954999999999622e+00 5.457885000000000275e+01 1.590380000000000109e+03
3.899999999999999994e-02 4.972409999999999886e-01 2.373279999999999834e+00 5.234960000000000235e+01 1.589730000000000018e+03
4.000000000000000083e-02 4.969029999999999836e-01 2.194745000000000168e+00 5.044989999999999952e+01 1.589154999999999973e+03
4.100000000000000172e-02 4.966400000000000259e-01 2.136874999999999858e+00 4.893325000000000102e+01 1.588670000000000073e+03
4.200000000000000261e-02 4.964524999999999633e-01 2.206110000000000237e+00 4.782885000000000275e+01 1.588299999999999955e+03
4.300000000000000350e-02 4.963400000000000034e-01 2.403083500000000150e+00 4.714655000000000484e+01 1.588045000000000073e+03
4.400000000000000439e-02 4.962999999999999634e-01 2.726634999999999920e+00 4.688280000000000314e+01 1.587900000000000091e+03
4.499999999999999833e-02 4.963305000000000078e-01 3.176759999999999806e+00 4.702670000000000528e+01 1.587869999999999891e+03
4.599999999999999922e-02 4.964294999999999680e-01 3.755914999999999893e+00 4.756490000000000151e+01 1.587950000000000045e+03
4.700000000000000011e-02 4.965969999999999551e-01 4.468569999999999709e+00 4.848380000000000223e+01 1.588144999999999982e+03
4.800000000000000100e-02 4.968314999999999815e-01 5.319469999999999921e+00 4.977020000000000266e+01 1.588445000000000164e+03
4.900000000000000189e-02 4.971305000000000307e-01 6.311240000000000627e+00 5.140950000000000131e+01 1.588845000000000027e+03
5.000000000000000278e-02 4.974914999999999754e-01 7.442124999999999879e+00 5.338325000000000387e+01 1.589344999999999800e+03
5.100000000000000366e-02 4.979089999999999350e-01 8.704505000000001047e+00 5.566725000000000279e+01 1.589929999999999836e+03
5.200000000000000455e-02 4.983765000000000001e-01 1.008434499999999900e+01 5.822959999999999781e+01 1.590605000000000018e+03
5.300000000000000544e-02 4.988854999999999817e-01 1.156168500000000066e+01 6.103119999999999834e+01 1.591349999999999909e+03
5.399999999999999939e-02 4.994264999999999954e-01 1.311237000000000030e+01 6.402660000000000196e+01 1.592159999999999854e+03
5.500000000000000028e-02 4.999900000000000455e-01 1.470969499999999996e+01 6.716630000000000678e+01 1.593019999999999982e+03
5.600000000000000117e-02 5.005659999999999554e-01 1.632680500000000023e+01 7.040030000000000143e+01 1.593909999999999854e+03
5.700000000000000205e-02 5.011470000000000091e-01 1.793864999999999910e+01 7.368059999999999832e+01 1.594829999999999927e+03
5.800000000000000294e-02 5.017255000000000464e-01 1.952339999999999876e+01 7.696450000000000102e+01 1.595759999999999991e+03
5.900000000000000383e-02 5.022959999999999647e-01 2.106374999999999886e+01 8.021694999999999709e+01 1.596694999999999936e+03
6.000000000000000472e-02 5.028550000000000519e-01 2.254684999999999917e+01 8.341155000000000541e+01 1.597619999999999891e+03
6.099999999999999867e-02 5.034015000000000573e-01 2.396480000000000032e+01 8.653130000000000166e+01 1.598529999999999973e+03
6.199999999999999956e-02 5.039339999999999931e-01 2.531365000000000265e+01 8.956815000000000282e+01 1.599429999999999836e+03
6.300000000000000044e-02 5.044539999999999580e-01 2.659284999999999854e+01 9.252150000000000318e+01 1.600305000000000064e+03
6.400000000000000133e-02 5.049635000000000096e-01 2.780439999999999756e+01 9.539770000000000039e+01 1.601170000000000073e+03
6.500000000000000222e-02 5.054644999999999833e-01 2.895195000000000363e+01 9.820640000000000214e+01 1.602009999999999991e+03
6.600000000000000311e-02 5.059584999999999777e-01 3.004015000000000413e+01 1.009615000000000009e+02 1.602840000000000146e+03
6.700000000000000400e-02 5.064489999999999270e-01 3.107354999999999734e+01 1.036758999999999986e+02 1.603659999999999854e+03
6.800000000000000488e-02 5.069375000000000409e-01 3.205644999999999811e+01 1.063631500000000045e+02 1.604470000000000027e+03
6.900000000000000577e-02 5.074254999999999738e-01 3.299210000000000065e+01 1.090329999999999870e+02 1.605275000000000091e+03
7.000000000000000666e-02 5.079135000000000177e-01 3.388240000000000407e+01 1.116929999999999978e+02 1.606079999999999927e+03
7.100000000000000755e-02 5.084014999999999507e-01 3.472769999999999868e+01 1.143455000000000013e+02 1.606880000000000109e+03
7.200000000000000844e-02 5.088880000000000070e-01 3.552660000000000196e+01 1.169884999999999877e+02 1.607675000000000182e+03
7.300000000000000933e-02 5.093714999999999771e-01 3.627615000000000123e+01 1.196150000000000091e+02 1.608474999999999909e+03
7.399999999999999634e-02 5.098500000000000254e-01 3.697194999999999965e+01 1.222144999999999868e+02 1.609255000000000109e+03
7.499999999999999722e-02 5.103195000000000370e-01 3.760880000000000223e+01 1.247715000000000032e+02 1.610035000000000082e+03
7.599999999999999811e-02 5.107774999999999954e-01 3.818090000000000117e+01 1.272694999999999936e+02 1.610795000000000073e+03
7.699999999999999900e-02 5.112210000000000365e-01 3.868215000000000003e+01 1.296895000000000095e+02 1.611539999999999964e+03
7.799999999999999989e-02 5.116454999999999753e-01 3.910699999999999932e+01 1.320134999999999934e+02 1.612255000000000109e+03
7.900000000000000078e-02 5.120485000000000175e-01 3.945059999999999434e+01 1.342230000000000132e+02 1.612940000000000055e+03
8.000000000000000167e-02 5.124269999999999659e-01 3.970884999999999820e+01 1.363015000000000043e+02 1.613590000000000146e+03
8.100000000000000255e-02 5.127794999999999437e-01 3.987900000000000489e+01 1.382359999999999900e+02 1.614199999999999818e+03
8.200000000000000344e-02 5.131040000000000045e-01 3.995944999999999681e+01 1.400149999999999864e+02 1.614769999999999982e+03
8.300000000000000433e-02 5.133995000000000086e-01 3.994979999999999620e+01 1.416299999999999955e+02 1.615289999999999964e+03
8.400000000000000522e-02 5.136644999999999683e-01 3.985115000000000407e+01 1.430774999999999864e+02 1.615765000000000100e+03
8.500000000000000611e-02 5.138994999999999536e-01 3.966570000000000107e+01 1.443550000000000182e+02 1.616194999999999936e+03
8.600000000000000699e-02 5.141044999999999643e-01 3.939700000000000557e+01 1.454644999999999868e+02 1.616570000000000164e+03
8.700000000000000788e-02 5.142815000000000580e-01 3.904990000000000094e+01 1.464114999999999895e+02 1.616900000000000091e+03
8.800000000000000877e-02 5.144310000000000827e-01 3.863034999999999997e+01 1.472019999999999982e+02 1.617179999999999836e+03
8.899999999999999578e-02 5.145555000000000545e-01 3.814540000000000219e+01 1.478475000000000250e+02 1.617414999999999964e+03
8.999999999999999667e-02 5.146564999999999612e-01 3.760325000000000273e+01 1.483584999999999923e+02 1.617615000000000009e+03
9.099999999999999756e-02 5.147370000000000001e-01 3.701260000000000616e+01 1.487500000000000000e+02 1.617775000000000091e+03
9.199999999999999845e-02 5.148000000000000353e-01 3.638299999999999557e+01 1.490374999999999943e+02 1.617894999999999982e+03
9.299999999999999933e-02 5.148479999999999723e-01 3.572409999999999997e+01 1.492365000000000066e+02 1.617994999999999891e+03
9.400000000000000022e-02 5.148835000000000495e-01 3.504550000000000409e+01 1.493634999999999877e+02 1.618059999999999945e+03
9.500000000000000111e-02 5.149104999999999377e-01 3.435645000000000238e+01 1.494345000000000141e+02 1.618115000000000009e+03
9.600000000000000200e-02 5.149299999999999988e-01 3.366530000000000200e+01 1.494644999999999868e+02 1.618144999999999982e+03
9.700000000000000289e-02 5.149449999999999861e-01 3.297939999999999827e+01 1.494669999999999845e+02 1.618164999999999964e+03
9.800000000000000377e-02 5.149574999999999569e-01 3.230464999999999520e+01 1.494524999999999864e+02 1.618174999999999955e+03
9.900000000000000466e-02 5.149679999999999813e-01 3.164544999999999675e+01 1.494300000000000068e+02 1.618184999999999945e+03
1.000000000000000056e-01 5.149770000000000181e-01 3.100450000000000017e+01 1.494039999999999964e+02 1.618180000000000064e+03
1.010000000000000064e-01 5.149854999999999849e-01 3.038295000000000101e+01 1.493779999999999859e+02 1.618184999999999945e+03
1.020000000000000073e-01 5.149924999999999642e-01 2.978025000000000233e+01 1.493505000000000109e+02 1.618174999999999955e+03
1.030000000000000082e-01 5.149980000000000668e-01 2.919449999999999790e+01 1.493195000000000050e+02 1.618170000000000073e+03
1.040000000000000091e-01 5.149995000000000545e-01 2.862284999999999968e+01 1.492794999999999845e+02 1.618159999999999854e+03
1.050000000000000100e-01 5.149969999999999271e-01 2.806119999999999948e+01 1.492239999999999895e+02 1.618144999999999982e+03
1.059999999999999970e-01 5.149885000000000712e-01 2.750534999999999997e+01 1.491449999999999818e+02 1.618119999999999891e+03
1.069999999999999979e-01 5.149725000000000552e-01 2.695045000000000002e+01 1.490335000000000036e+02 1.618095000000000027e+03
1.079999999999999988e-01 5.149475000000000025e-01 2.639179999999999993e+01 1.488810000000000002e+02 1.618049999999999955e+03
1.089999999999999997e-01 5.149124999999999952e-01 2.582505000000000095e+01 1.486804999999999950e+02 1.618000000000000000e+03
1.100000000000000006e-01 5.148660000000000458e-01 2.524629999999999797e+01 1.484244999999999948e+02 1.617929999999999836e+03
1.110000000000000014e-01 5.148079999999999323e-01 2.465225000000000222e+01 1.481075000000000159e+02 1.617840000000000146e+03
1.120000000000000023e-01 5.147379999999999178e-01 2.404064999999999941e+01 1.477269999999999754e+02 1.617735000000000127e+03
1.130000000000000032e-01 5.146545000000000147e-01 2.341019999999999968e+01 1.472800000000000011e+02 1.617615000000000009e+03
1.140000000000000041e-01 5.145594999999999475e-01 2.276079999999999970e+01 1.467690000000000055e+02 1.617474999999999909e+03
1.150000000000000050e-01 5.144535000000000080e-01 2.209335000000000093e+01 1.461955000000000098e+02 1.617315000000000055e+03
1.160000000000000059e-01 5.143370000000000442e-01 2.141015000000000157e+01 1.455654999999999859e+02 1.617139999999999873e+03
1.170000000000000068e-01 5.142120000000000024e-01 2.071434999999999960e+01 1.448854999999999791e+02 1.616949999999999818e+03
1.180000000000000077e-01 5.140804999999999403e-01 2.001035000000000252e+01 1.441655000000000086e+02 1.616744999999999891e+03
1.190000000000000085e-01 5.139445000000000263e-01 1.930330000000000013e+01 1.434159999999999968e+02 1.616534999999999854e+03
1.200000000000000094e-01 5.138059999999999850e-01 1.859900000000000020e+01 1.426490000000000009e+02 1.616315000000000055e+03
1.209999999999999964e-01 5.136674999999999436e-01 1.790384999999999849e+01 1.418774999999999977e+02 1.616089999999999918e+03
1.219999999999999973e-01 5.135315000000000296e-01 1.722435000000000116e+01 1.411150000000000091e+02 1.615869999999999891e+03
1.229999999999999982e-01 5.134009999999999962e-01 1.656714999999999804e+01 1.403739999999999952e+02 1.615650000000000091e+03
1.239999999999999991e-01 5.132769999999999833e-01 1.593850000000000122e+01 1.396675000000000182e+02 1.615440000000000055e+03
1.250000000000000000e-01 5.131620000000000070e-01 1.534415000000000084e+01 1.390065000000000168e+02 1.615244999999999891e+03
1.260000000000000009e-01 5.130584999999999729e-01 1.478930000000000078e+01 1.384019999999999868e+02 1.615055000000000064e+03
1.270000000000000018e-01 5.129664999999999919e-01 1.427799999999999869e+01 1.378620000000000232e+02 1.614884999999999991e+03
1.280000000000000027e-01 5.128869999999999818e-01 1.381344999999999956e+01 1.373915000000000077e+02 1.614735000000000127e+03
1.290000000000000036e-01 5.128220000000000001e-01 1.339770000000000039e+01 1.369960000000000093e+02 1.614599999999999909e+03
1.300000000000000044e-01 5.127700000000000591e-01 1.303154999999999930e+01 1.366759999999999877e+02 1.614490000000000009e+03
1.310000000000000053e-01 5.127315000000000067e-01 1.271471499999999999e+01 1.364320000000000164e+02 1.614405000000000200e+03
1.320000000000000062e-01 5.127055000000000362e-01 1.244571000000000005e+01 1.362609999999999957e+02 1.614335000000000036e+03
1.330000000000000071e-01 5.126914999999999667e-01 1.222220000000000084e+01 1.361574999999999989e+02 1.614279999999999973e+03
1.340000000000000080e-01 5.126880000000000326e-01 1.204095000000000049e+01 1.361165000000000020e+02 1.614255000000000109e+03
1.350000000000000089e-01 5.126930000000000653e-01 1.189825000000000088e+01 1.361299999999999955e+02 1.614240000000000009e+03
1.360000000000000098e-01 5.127055000000000362e-01 1.178964999999999996e+01 1.361895000000000095e+02 1.614240000000000009e+03
1.370000000000000107e-01 5.127239999999999576e-01 1.171069999999999922e+01 1.362874999999999943e+02 1.614250000000000000e+03
1.380000000000000115e-01 5.127475000000000227e-01 1.165685000000000038e+01 1.364149999999999920e+02 1.614269999999999982e+03
1.390000000000000124e-01 5.127740000000000631e-01 1.162354999999999983e+01 1.365635000000000048e+02 1.614304999999999836e+03
1.400000000000000133e-01 5.128019999999999801e-01 1.160660000000000025e+01 1.367264999999999873e+02 1.614340000000000146e+03
1.410000000000000142e-01 5.128314999999999957e-01 1.160205000000000020e+01 1.368965000000000032e+02 1.614384999999999991e+03
1.420000000000000151e-01 5.128599999999999826e-01 1.160660000000000025e+01 1.370685000000000002e+02 1.614424999999999955e+03
1.430000000000000160e-01 5.128889999999999283e-01 1.161710000000000065e+01 1.372379999999999995e+02 1.614465000000000146e+03
1.440000000000000169e-01 5.129159999999999275e-01 1.163119999999999976e+01 1.374019999999999868e+02 1.614509999999999991e+03
1.450000000000000178e-01 5.129420000000000091e-01 1.164675000000000082e+01 1.375575000000000045e+02 1.614550000000000182e+03
1.459999999999999909e-01 5.129660000000000331e-01 1.166234999999999999e+01 1.377049999999999841e+02 1.614595000000000027e+03
1.469999999999999918e-01 5.129890000000000283e-01 1.167684999999999995e+01 1.378430000000000177e+02 1.614634999999999991e+03
1.479999999999999927e-01 5.130105000000000359e-01 1.168960000000000043e+01 1.379724999999999966e+02 1.614670000000000073e+03
1.489999999999999936e-01 5.130310000000000148e-01 1.170019999999999882e+01 1.380949999999999989e+02 1.614704999999999927e+03
1.499999999999999944e-01 5.130505000000000759e-01 1.170865000000000045e+01 1.382104999999999961e+02 1.614740000000000009e+03
1.509999999999999953e-01 5.130699999999999150e-01 1.171504999999999974e+01 1.383230000000000075e+02 1.614775000000000091e+03
1.519999999999999962e-01 5.130890000000000173e-01 1.171975000000000122e+01 1.384325000000000045e+02 1.614805000000000064e+03
1.529999999999999971e-01 5.131084999999999674e-01 1.172330000000000005e+01 1.385420000000000016e+02 1.614840000000000146e+03
1.539999999999999980e-01 5.131284999999999874e-01 1.172625000000000028e+01 1.386539999999999964e+02 1.614875000000000000e+03
1.549999999999999989e-01 5.131494999999999251e-01 1.172909999999999897e+01 1.387685000000000173e+02 1.614909999999999854e+03
1.559999999999999998e-01 5.131710000000000438e-01 1.173240000000000016e+01 1.388880000000000052e+02 1.614945000000000164e+03
1.570000000000000007e-01 5.131944999999999979e-01 1.173655000000000115e+01 1.390130000000000052e+02 1.614985000000000127e+03
1.580000000000000016e-01 5.132189999999999808e-01 1.174184999999999945e+01 1.391440000000000055e+02 1.615019999999999982e+03
1.590000000000000024e-01 5.132449999999999513e-01 1.174855000000000160e+01 1.392819999999999823e+02 1.615059999999999945e+03
