# t [s], A [cm^2], U [cm/s], P [cPa], c [cm/s]
1.000000000000000021e-03 1.629180000000000073e-01 2.055270000000000152e-01 9.397169999999999845e+01 1.914759999999999991e+03
2.000000000000000042e-03 1.628930000000000100e-01 1.531849500000000086e+00 9.133064999999999145e+01 1.914519999999999982e+03
3.000000000000000062e-03 1.627979999999999983e-01 3.196638499999999716e+00 8.776930000000000121e+01 1.913674999999999955e+03
4.000000000000000083e-03 1.626549999999999940e-01 5.060328799999999738e+00 8.367959999999999354e+01 1.912420000000000073e+03
5.000000000000000104e-03 1.624895000000000089e-01 7.074765000000000192e+00 7.972935000000001082e+01 1.910985000000000127e+03
6.000000000000000125e-03 1.623205000000000064e-01 9.148080000000000211e+00 7.631430000000000291e+01 1.909529999999999973e+03
7.000000000000000146e-03 1.621584999999999832e-01 1.113114500000000007e+01 7.344794999999999163e+01 1.908150000000000091e+03
8.000000000000000167e-03 1.620050000000000101e-01 1.289657000000000053e+01 7.093870000000001141e+01 1.906869999999999891e+03
9.000000000000001055e-03 1.618634999999999935e-01 1.441159500000000193e+01 6.868340000000000600e+01 1.905704999999999927e+03
1.000000000000000194e-02 1.617375000000000063e-01 1.570189999999999841e+01 6.672069999999999368e+01 1.904679999999999836e+03
1.099999999999999936e-02 1.616290000000000227e-01 1.679015000000000057e+01 6.509244999999999948e+01 1.903804999999999836e+03
1.200000000000000025e-02 1.615380000000000149e-01 1.768779999999999930e+01 6.378594999999999970e+01 1.903079999999999927e+03
1.300000000000000114e-02 1.614630000000000232e-01 1.840299999999999869e+01 6.275759999999999650e+01 1.902494999999999891e+03
1.400000000000000203e-02 1.614025000000000043e-01 1.893900000000000006e+01 6.194100000000000250e+01 1.902019999999999982e+03
1.499999999999999944e-02 1.613525000000000098e-01 1.930039999999999978e+01 6.125630000000000308e+01 1.901639999999999873e+03
1.600000000000000033e-02 1.613109999999999822e-01 1.951514999999999844e+01 6.066304999999999836e+01 1.901335000000000036e+03
1.700000000000000122e-02 1.612784999999999913e-01 1.964999999999999858e+01 6.022244999999999493e+01 1.901099999999999909e+03
1.800000000000000211e-02 1.612584999999999991e-01 1.979964999999999975e+01 6.010110000000000241e+01 1.900954999999999927e+03
1.900000000000000300e-02 1.612560000000000104e-01 2.005174999999999841e+01 6.049770000000000181e+01 1.900954999999999927e+03
2.000000000000000042e-02 1.612755000000000161e-01 2.045054999999999978e+01 6.153575000000000017e+01 1.901119999999999891e+03
2.100000000000000130e-02 1.613185000000000036e-01 2.097935000000000016e+01 6.318605000000000160e+01 1.901470000000000027e+03
2.200000000000000219e-02 1.613799999999999957e-01 2.156739999999999924e+01 6.525645000000000095e+01 1.901964999999999918e+03
2.299999999999999961e-02 1.614524999999999988e-01 2.211629999999999896e+01 6.744550000000000978e+01 1.902565000000000055e+03
2.400000000000000050e-02 1.615270000000000039e-01 2.253139999999999787e+01 6.943099999999999739e+01 1.903179999999999836e+03
2.500000000000000139e-02 1.615945000000000020e-01 2.274819999999999709e+01 7.095779999999999177e+01 1.903740000000000009e+03
2.600000000000000228e-02 1.616485000000000005e-01 2.274595000000000056e+01 7.189544999999999675e+01 1.904200000000000045e+03
2.700000000000000316e-02 1.616854999999999820e-01 2.254609999999999914e+01 7.225354999999998995e+01 1.904514999999999873e+03
2.800000000000000058e-02 1.617055000000000020e-01 2.219919999999999760e+01 7.215465000000000373e+01 1.904700000000000045e+03
2.900000000000000147e-02 1.617124999999999813e-01 2.176525000000000176e+01 7.178024999999999523e+01 1.904779999999999973e+03
3.000000000000000236e-02 1.617120000000000224e-01 2.129509999999999792e+01 7.130895000000001005e+01 1.904779999999999973e+03
3.099999999999999978e-02 1.617064999999999753e-01 2.081804999999999950e+01 7.086695000000000277e+01 1.904744999999999891e+03
3.200000000000000067e-02 1.617000000000000104e-01 2.033840000000000003e+01 7.050350000000000250e+01 1.904695000000000164e+03
3.300000000000000155e-02 1.616925000000000168e-01 1.984004999999999797e+01 7.019350000000000023e+01 1.904634999999999991e+03
3.400000000000000244e-02 1.616835000000000078e-01 1.929755000000000109e+01 6.986299999999999955e+01 1.904565000000000055e+03
3.500000000000000333e-02 1.616710000000000091e-01 1.868825000000000003e+01 6.942584999999999695e+01 1.904464999999999918e+03
3.600000000000000422e-02 1.616529999999999911e-01 1.800345000000000084e+01 6.882104999999999961e+01 1.904329999999999927e+03
3.700000000000000511e-02 1.616294999999999815e-01 1.725515000000000043e+01 6.804030000000000200e+01 1.904144999999999982e+03
3.799999999999999906e-02 1.616005000000000080e-01 1.647664999999999935e+01 6.713920000000000243e+01 1.903914999999999964e+03
3.899999999999999994e-02 1.615689999999999904e-01 1.571754999999999924e+01 6.622934999999999661e+01 1.903660000000000082e+03
4.000000000000000083e-02 1.615385000000000015e-01 1.503379999999999939e+01 6.545510000000000161e+01 1.903420000000000073e+03
4.100000000000000172e-02 1.615145000000000053e-01 1.447630000000000017e+01 6.496054999999999779e+01 1.903220000000000027e+03
4.200000000000000261e-02 1.615000000000000047e-01 1.408040000000000092e+01 6.485640000000000782e+01 1.903095000000000027e+03
4.300000000000000350e-02 1.614990000000000037e-01 1.385895000000000010e+01 6.519450000000000500e+01 1.903074999999999818e+03
4.400000000000000439e-02 1.615125000000000033e-01 1.380044999999999966e+01 6.595674999999999955e+01 1.903170000000000073e+03
4.499999999999999833e-02 1.615395000000000025e-01 1.387124999999999986e+01 6.705799999999999272e+01 1.903380000000000109e+03
4.599999999999999922e-02 1.615769999999999984e-01 1.402224999999999966e+01 6.836195000000000732e+01 1.903670000000000073e+03
4.700000000000000011e-02 1.616205000000000003e-01 1.419679999999999964e+01 6.970494999999999663e+01 1.904019999999999982e+03
4.800000000000000100e-02 1.616654999999999898e-01 1.433895000000000053e+01 7.092175000000000296e+01 1.904375000000000000e+03
4.900000000000000189e-02 1.617055000000000020e-01 1.440034999999999954e+01 7.186860000000000070e+01 1.904704999999999927e+03
5.000000000000000278e-02 1.617369999999999919e-01 1.434464999999999968e+01 7.243914999999999793e+01 1.904965000000000146e+03
5.100000000000000366e-02 1.617569999999999841e-01 1.414965000000000117e+01 7.257290000000000418e+01 1.905125000000000000e+03
5.200000000000000455e-02 1.617615000000000025e-01 1.380679999999999907e+01 7.225460000000001060e+01 1.905174999999999955e+03
5.300000000000000544e-02 1.617520000000000069e-01 1.331920000000000037e+01 7.150800000000000978e+01 1.905105000000000018e+03
5.399999999999999939e-02 1.617270000000000096e-01 1.269855000000000089e+01 7.038464999999999350e+01 1.904909999999999854e+03
5.500000000000000028e-02 1.616879999999999984e-01 1.196195499999999967e+01 6.895265000000000555e+01 1.904599999999999909e+03
5.600000000000000117e-02 1.616380000000000039e-01 1.112941000000000003e+01 6.728584999999999638e+01 1.904204999999999927e+03
5.700000000000000205e-02 1.615785000000000138e-01 1.022208499999999987e+01 6.545635000000000048e+01 1.903724999999999909e+03
5.800000000000000294e-02 1.615125000000000033e-01 9.261465000000001169e+00 6.353025000000000233e+01 1.903190000000000055e+03
5.900000000000000383e-02 1.614404999999999868e-01 8.269265000000000754e+00 6.156694999999999851e+01 1.902610000000000127e+03
6.000000000000000472e-02 1.613664999999999961e-01 7.268039999999999168e+00 5.962095000000000056e+01 1.902009999999999991e+03
6.099999999999999867e-02 1.612925000000000053e-01 6.281724999999999781e+00 5.774405000000000143e+01 1.901404999999999973e+03
6.199999999999999956e-02 1.612194999999999878e-01 5.336005000000000109e+00 5.598874999999999602e+01 1.900815000000000055e+03
6.300000000000000044e-02 1.611509999999999887e-01 4.458479999999999777e+00 5.440990000000000038e+01 1.900255000000000109e+03
6.400000000000000133e-02 1.610880000000000090e-01 3.678155000000000285e+00 5.306524999999999892e+01 1.899739999999999782e+03
6.500000000000000222e-02 1.610340000000000105e-01 3.024585000000000079e+00 5.201460000000000150e+01 1.899295000000000073e+03
6.600000000000000311e-02 1.609909999999999952e-01 2.526549999999999851e+00 5.131705000000000183e+01 1.898934999999999945e+03
6.700000000000000400e-02 1.609605000000000063e-01 2.210539999999999949e+00 5.102790000000000248e+01 1.898679999999999836e+03
6.800000000000000488e-02 1.609459999999999780e-01 2.099260000000000126e+00 5.119469999999999743e+01 1.898545000000000073e+03
6.900000000000000577e-02 1.609484999999999943e-01 2.210210000000000008e+00 5.185360000000000014e+01 1.898554999999999836e+03
7.000000000000000666e-02 1.609690000000000010e-01 2.554625000000000146e+00 5.302644999999999698e+01 1.898710000000000036e+03
7.100000000000000755e-02 1.610099999999999865e-01 3.136784999999999712e+00 5.471885000000000332e+01 1.899014999999999873e+03
7.200000000000000844e-02 1.610699999999999910e-01 3.953850000000000087e+00 5.691969999999999885e+01 1.899490000000000009e+03
7.300000000000000933e-02 1.611500000000000155e-01 4.996024999999999494e+00 5.960179999999999723e+01 1.900119999999999891e+03
7.399999999999999634e-02 1.612485000000000168e-01 6.247190000000000687e+00 6.272339999999999804e+01 1.900905000000000200e+03
7.499999999999999722e-02 1.613640000000000074e-01 7.685864999999999725e+00 6.623085000000000377e+01 1.901829999999999927e+03
7.599999999999999811e-02 1.614955000000000140e-01 9.286260000000000403e+00 7.006199999999999761e+01 1.902889999999999873e+03
7.699999999999999900e-02 1.616400000000000059e-01 1.101978000000000080e+01 7.414955000000000496e+01 1.904049999999999955e+03
7.799999999999999989e-02 1.617955000000000088e-01 1.285623999999999967e+01 7.842484999999999218e+01 1.905309999999999945e+03
7.900000000000000078e-02 1.619605000000000072e-01 1.476514999999999844e+01 8.282104999999999961e+01 1.906644999999999982e+03
8.000000000000000167e-02 1.621305000000000107e-01 1.671710000000000207e+01 8.727655000000000030e+01 1.908034999999999854e+03
8.100000000000000255e-02 1.623045000000000182e-01 1.868489999999999895e+01 9.173730000000000473e+01 1.909454999999999927e+03
8.200000000000000344e-02 1.624804999999999999e-01 2.064419999999999789e+01 9.615854999999999109e+01 1.910900000000000091e+03
8.300000000000000433e-02 1.626565000000000094e-01 2.257424999999999926e+01 1.005061000000000035e+02 1.912345000000000027e+03
8.400000000000000522e-02 1.628310000000000035e-01 2.445824999999999960e+01 1.047563000000000102e+02 1.913789999999999964e+03
8.500000000000000611e-02 1.630030000000000090e-01 2.628330000000000055e+01 1.088954999999999984e+02 1.915210000000000036e+03
8.600000000000000699e-02 1.631719999999999837e-01 2.803999999999999915e+01 1.129200000000000017e+02 1.916610000000000127e+03
8.700000000000000788e-02 1.633375000000000243e-01 2.972250000000000014e+01 1.168305000000000007e+02 1.917990000000000009e+03
8.800000000000000877e-02 1.634995000000000198e-01 3.132734999999999914e+01 1.206364999999999839e+02 1.919340000000000146e+03
8.899999999999999578e-02 1.636584999999999845e-01 3.285314999999999941e+01 1.243464999999999918e+02 1.920670000000000073e+03
8.999999999999999667e-02 1.638135000000000008e-01 3.429984999999999928e+01 1.279720000000000084e+02 1.921965000000000146e+03
9.099999999999999756e-02 1.639660000000000006e-01 3.566814999999999714e+01 1.315224999999999795e+02 1.923244999999999891e+03
9.199999999999999845e-02 1.641155000000000252e-01 3.695879999999999654e+01 1.350054999999999836e+02 1.924494999999999891e+03
9.299999999999999933e-02 1.642629999999999924e-01 3.817239999999999611e+01 1.384244999999999948e+02 1.925735000000000127e+03
9.400000000000000022e-02 1.644074999999999842e-01 3.930910000000000082e+01 1.417800000000000011e+02 1.926950000000000045e+03
9.500000000000000111e-02 1.645490000000000008e-01 4.036825000000000330e+01 1.450665000000000191e+02 1.928144999999999982e+03
9.600000000000000200e-02 1.646880000000000011e-01 4.134859999999999758e+01 1.482775000000000034e+02 1.929315000000000055e+03
9.700000000000000289e-02 1.648239999999999983e-01 4.224810000000000088e+01 1.514025000000000034e+02 1.930465000000000146e+03
9.800000000000000377e-02 1.649565000000000059e-01 4.306419999999999959e+01 1.544284999999999854e+02 1.931590000000000146e+03
9.900000000000000466e-02 1.650850000000000095e-01 4.379384999999999906e+01 1.573405000000000200e+02 1.932674999999999955e+03
1.000000000000000056e-01 1.652089999999999947e-01 4.443365000000000009e+01 1.601225000000000023e+02 1.933724999999999909e+03
1.010000000000000064e-01 1.653279999999999750e-01 4.498004999999999853e+01 1.627599999999999909e+02 1.934735000000000127e+03
1.020000000000000073e-01 1.654410000000000047e-01 4.542955000000000609e+01 1.652370000000000232e+02 1.935694999999999936e+03
1.030000000000000082e-01 1.655480000000000007e-01 4.577884999999999849e+01 1.675380000000000109e+02 1.936609999999999900e+03
1.040000000000000091e-01 1.656480000000000175e-01 4.602485000000000070e+01 1.696514999999999986e+02 1.937460000000000036e+03
1.050000000000000100e-01 1.657409999999999994e-01 4.616525000000000034e+01 1.715649999999999977e+02 1.938255000000000109e+03
1.059999999999999970e-01 1.658255000000000146e-01 4.619825000000000159e+01 1.732690000000000055e+02 1.938980000000000018e+03
1.069999999999999979e-01 1.659015000000000073e-01 4.612295000000000300e+01 1.747565000000000168e+02 1.939639999999999873e+03
1.079999999999999988e-01 1.659694999999999920e-01 4.593950000000000244e+01 1.760229999999999961e+02 1.940220000000000027e+03
1.089999999999999997e-01 1.660284999999999955e-01 4.564934999999999832e+01 1.770679999999999836e+02 1.940730000000000018e+03
1.100000000000000006e-01 1.660790000000000044e-01 4.525530000000000541e+01 1.778934999999999889e+02 1.941170000000000073e+03
1.110000000000000014e-01 1.661205000000000043e-01 4.476135000000000019e+01 1.785040000000000191e+02 1.941529999999999973e+03
1.120000000000000023e-01 1.661535000000000095e-01 4.417319999999999425e+01 1.789095000000000084e+02 1.941820000000000164e+03
1.130000000000000032e-01 1.661775000000000058e-01 4.349774999999999636e+01 1.791214999999999975e+02 1.942039999999999964e+03
1.140000000000000041e-01 1.661940000000000084e-01 4.274330000000000496e+01 1.791554999999999893e+02 1.942190000000000055e+03
1.150000000000000050e-01 1.662035000000000040e-01 4.191899999999999693e+01 1.790300000000000011e+02 1.942279999999999973e+03
1.160000000000000059e-01 1.662059999999999926e-01 4.103509999999999991e+01 1.787644999999999982e+02 1.942309999999999945e+03
1.170000000000000068e-01 1.662025000000000030e-01 4.010240000000000293e+01 1.783799999999999955e+02 1.942285000000000082e+03
1.180000000000000077e-01 1.661940000000000084e-01 3.913169999999999504e+01 1.778974999999999795e+02 1.942215000000000146e+03
1.190000000000000085e-01 1.661805000000000088e-01 3.813410000000000366e+01 1.773385000000000105e+02 1.942115000000000009e+03
1.200000000000000094e-01 1.661639999999999784e-01 3.711995000000000289e+01 1.767235000000000014e+02 1.941974999999999909e+03
1.209999999999999964e-01 1.661445000000000005e-01 3.609924999999999784e+01 1.760714999999999861e+02 1.941820000000000164e+03
1.219999999999999973e-01 1.661229999999999929e-01 3.508079999999999643e+01 1.753974999999999795e+02 1.941634999999999991e+03
1.229999999999999982e-01 1.660995000000000110e-01 3.407249999999999801e+01 1.747160000000000082e+02 1.941440000000000055e+03
1.239999999999999991e-01 1.660754999999999870e-01 3.308089999999999975e+01 1.740369999999999777e+02 1.941235000000000127e+03
1.250000000000000000e-01 1.660504999999999898e-01 3.211110000000000042e+01 1.733695000000000164e+02 1.941029999999999973e+03
1.260000000000000009e-01 1.660254999999999925e-01 3.116675000000000040e+01 1.727169999999999845e+02 1.940815000000000055e+03
1.270000000000000018e-01 1.660010000000000097e-01 3.025015000000000143e+01 1.720810000000000173e+02 1.940605000000000018e+03
1.280000000000000027e-01 1.659764999999999990e-01 2.936204999999999998e+01 1.714610000000000127e+02 1.940394999999999982e+03
1.290000000000000036e-01 1.659519999999999884e-01 2.850205000000000055e+01 1.708525000000000205e+02 1.940184999999999945e+03
1.300000000000000044e-01 1.659275000000000055e-01 2.766839999999999833e+01 1.702489999999999952e+02 1.939974999999999909e+03
1.310000000000000053e-01 1.659034999999999815e-01 2.685835000000000150e+01 1.696440000000000055e+02 1.939764999999999873e+03
1.320000000000000062e-01 1.658784999999999843e-01 2.606840000000000046e+01 1.690269999999999868e+02 1.939554999999999836e+03
1.330000000000000071e-01 1.658530000000000004e-01 2.529435000000000144e+01 1.683880000000000052e+02 1.939340000000000146e+03
1.340000000000000080e-01 1.658264999999999878e-01 2.453150000000000119e+01 1.677169999999999845e+02 1.939110000000000127e+03
1.350000000000000089e-01 1.657994999999999886e-01 2.377519999999999811e+01 1.670040000000000191e+02 1.938875000000000000e+03
1.360000000000000098e-01 1.657700000000000007e-01 2.302064999999999984e+01 1.662379999999999995e+02 1.938625000000000000e+03
1.370000000000000107e-01 1.657385000000000108e-01 2.226340000000000074e+01 1.654110000000000014e+02 1.938360000000000127e+03
1.380000000000000115e-01 1.657049999999999912e-01 2.149954999999999927e+01 1.645165000000000077e+02 1.938074999999999818e+03
1.390000000000000124e-01 1.656679999999999819e-01 2.072585000000000122e+01 1.635484999999999900e+02 1.937764999999999873e+03
1.400000000000000133e-01 1.656290000000000262e-01 1.993979999999999819e+01 1.625035000000000025e+02 1.937434999999999945e+03
1.410000000000000142e-01 1.655869999999999842e-01 1.914014999999999844e+01 1.613815000000000168e+02 1.937074999999999818e+03
1.420000000000000151e-01 1.655420000000000225e-01 1.832659999999999911e+01 1.601845000000000141e+02 1.936700000000000045e+03
1.430000000000000160e-01 1.654940000000000022e-01 1.749994999999999834e+01 1.589170000000000016e+02 1.936295000000000073e+03
1.440000000000000169e-01 1.654430000000000067e-01 1.666215000000000046e+01 1.575860000000000127e+02 1.935869999999999891e+03
1.450000000000000178e-01 1.653904999999999959e-01 1.581649999999999956e+01 1.562010000000000218e+02 1.935425000000000182e+03
1.459999999999999909e-01 1.653350000000000097e-01 1.496715000000000018e+01 1.547740000000000009e+02 1.934954999999999927e+03
1.469999999999999918e-01 1.652774999999999939e-01 1.411904999999999966e+01 1.533185000000000002e+02 1.934474999999999909e+03
1.479999999999999927e-01 1.652194999999999914e-01 1.327799999999999869e+01 1.518485000000000014e+02 1.933985000000000127e+03
1.489999999999999936e-01 1.651600000000000013e-01 1.245026499999999992e+01 1.503815000000000168e+02 1.933490000000000009e+03
1.499999999999999944e-01 1.651009999999999978e-01 1.164226500000000009e+01 1.489320000000000164e+02 1.932990000000000009e+03
1.509999999999999953e-01 1.650424999999999809e-01 1.086057500000000076e+01 1.475155000000000030e+02 1.932500000000000000e+03
1.519999999999999962e-01 1.649849999999999928e-01 1.011133500000000041e+01 1.461469999999999914e+02 1.932009999999999991e+03
1.529999999999999971e-01 1.649289999999999923e-01 9.400344999999999729e+00 1.448394999999999868e+02 1.931535000000000082e+03
1.539999999999999980e-01 1.648749999999999938e-01 8.732655000000001166e+00 1.436039999999999850e+02 1.931079999999999927e+03
1.549999999999999989e-01 1.648235000000000117e-01 8.112354999999999094e+00 1.424495000000000005e+02 1.930650000000000091e+03
1.559999999999999998e-01 1.647750000000000048e-01 7.542714999999999392e+00 1.413820000000000050e+02 1.930240000000000009e+03
1.570000000000000007e-01 1.647295000000000009e-01 7.025769999999999627e+00 1.404060000000000059e+02 1.929855000000000018e+03
1.580000000000000016e-01 1.646880000000000011e-01 6.562510000000000510e+00 1.395225000000000080e+02 1.929500000000000000e+03
1.590000000000000024e-01 1.646495000000000042e-01 6.152784999999999727e+00 1.387295000000000016e+02 1.929170000000000073e+03
