# t [s], A [cm^2], U [cm/s], P [cPa], c [cm/s]
1.000000000000000021e-03 4.732025000000000259e-01 4.171050000000002533e-03 9.417629999999999768e+01 1.587315000000000055e+03
2.000000000000000042e-03 4.731954999999999911e-01 -2.304135000000000124e-03 9.415494999999999948e+01 1.587305000000000064e+03
3.000000000000000062e-03 4.732220000000000315e-01 5.703269999999999867e-02 9.421545000000000414e+01 1.587324999999999818e+03
4.000000000000000083e-03 4.732604999999999729e-01 1.473688500000000234e-01 9.432965000000000089e+01 1.587355000000000018e+03
5.000000000000000104e-03 4.732625000000000304e-01 1.634555000000000036e-01 9.434725000000000250e+01 1.587365000000000009e+03
6.000000000000000125e-03 4.732290000000000108e-01 9.922100000000001752e-02 9.422525000000000261e+01 1.587335000000000036e+03
7.000000000000000146e-03 4.731950000000000323e-01 2.939949999999996733e-02 9.404165000000000418e+01 1.587289999999999964e+03
8.000000000000000167e-03 4.731594999999999551e-01 -5.079799999999995430e-02 9.380610000000000070e+01 1.587224999999999909e+03
9.000000000000001055e-03 4.730980000000000185e-01 -2.004765000000000574e-01 9.344859999999999900e+01 1.587134999999999991e+03
1.000000000000000194e-02 4.730010000000000048e-01 -4.423500000000000210e-01 9.292019999999999413e+01 1.587000000000000000e+03
1.099999999999999936e-02 4.728624999999999634e-01 -7.884249999999999314e-01 9.217920000000000869e+01 1.586804999999999836e+03
1.200000000000000025e-02 4.726719999999999811e-01 -1.256785000000000041e+00 9.117260000000000275e+01 1.586539999999999964e+03
1.300000000000000114e-02 4.724289999999999878e-01 -1.834159999999999791e+00 8.988190000000000168e+01 1.586190000000000055e+03
1.400000000000000203e-02 4.721560000000000201e-01 -2.449840000000000018e+00 8.836715000000000941e+01 1.585769999999999982e+03
1.499999999999999944e-02 4.718875000000000153e-01 -2.998380000000000045e+00 8.675520000000000209e+01 1.585309999999999945e+03
1.600000000000000033e-02 4.716535000000000033e-01 -3.386274999999999924e+00 8.518399999999999750e+01 1.584845000000000027e+03
1.700000000000000122e-02 4.714645000000000086e-01 -3.565215499999999871e+00 8.375050000000000239e+01 1.584389999999999873e+03
1.800000000000000211e-02 4.713140000000000107e-01 -3.538327499999999848e+00 8.248669999999999902e+01 1.583974999999999909e+03
1.900000000000000300e-02 4.711830000000000185e-01 -3.346454500000000110e+00 8.136484999999998990e+01 1.583585000000000036e+03
2.000000000000000042e-02 4.710499999999999687e-01 -3.046288500000000177e+00 8.032019999999999982e+01 1.583204999999999927e+03
2.100000000000000130e-02 4.708989999999999565e-01 -2.689706150000000129e+00 7.927949999999999875e+01 1.582835000000000036e+03
2.200000000000000219e-02 4.707215000000000149e-01 -2.309478999999999616e+00 7.818550000000000466e+01 1.582445000000000164e+03
2.299999999999999961e-02 4.705194999999999794e-01 -1.914129999999999887e+00 7.701259999999999195e+01 1.582035000000000082e+03
2.400000000000000050e-02 4.703000000000000513e-01 -1.492054999999999687e+00 7.576869999999999550e+01 1.581605000000000018e+03
2.500000000000000139e-02 4.700754999999999795e-01 -1.022425000000000139e+00 7.448505000000000109e+01 1.581159999999999854e+03
2.600000000000000228e-02 4.698554999999999815e-01 -4.882400000000000073e-01 7.320005000000000450e+01 1.580715000000000146e+03
2.700000000000000316e-02 4.696434999999999915e-01 1.131950000000001566e-01 7.194159999999999400e+01 1.580275000000000091e+03
2.800000000000000058e-02 4.694365000000000343e-01 7.652649999999998620e-01 7.071569999999999823e+01 1.579840000000000146e+03
2.900000000000000147e-02 4.692270000000000607e-01 1.433235000000000037e+00 6.950235000000000696e+01 1.579404999999999973e+03
3.000000000000000236e-02 4.690024999999999888e-01 2.070419999999999927e+00 6.825920000000000698e+01 1.578965000000000146e+03
3.099999999999999978e-02 4.687500000000000000e-01 2.627390000000000114e+00 6.693214999999999293e+01 1.578510000000000218e+03
3.200000000000000067e-02 4.684610000000000163e-01 3.062180000000000124e+00 6.546869999999999834e+01 1.578009999999999991e+03
3.300000000000000155e-02 4.681305000000000049e-01 3.348905000000000243e+00 6.383259999999999934e+01 1.577480000000000018e+03
3.400000000000000244e-02 4.677620000000000111e-01 3.482975000000000154e+00 6.201454999999999984e+01 1.576900000000000091e+03
3.500000000000000333e-02 4.673660000000000592e-01 3.481480000000000352e+00 6.003754999999999598e+01 1.576279999999999973e+03
3.600000000000000422e-02 4.669559999999999822e-01 3.378910000000000302e+00 5.795470000000000255e+01 1.575619999999999891e+03
3.700000000000000511e-02 4.665504999999999791e-01 3.219839999999999591e+00 5.584154999999999802e+01 1.574960000000000036e+03
3.799999999999999906e-02 4.661669999999999980e-01 3.050985000000000280e+00 5.378449999999999420e+01 1.574304999999999836e+03
3.899999999999999994e-02 4.658200000000000118e-01 2.914374999999999716e+00 5.186950000000000216e+01 1.573684999999999945e+03
4.000000000000000083e-02 4.655205000000000037e-01 2.843245000000000022e+00 5.017305000000000348e+01 1.573125000000000000e+03
4.100000000000000172e-02 4.652764999999999818e-01 2.860694999999999766e+00 4.875639999999999930e+01 1.572634999999999991e+03
4.200000000000000261e-02 4.650929999999999787e-01 2.980550000000000033e+00 4.766310000000000002e+01 1.572240000000000009e+03
4.300000000000000350e-02 4.649709999999999677e-01 3.209824349999999882e+00 4.692054999999999865e+01 1.571945000000000164e+03
4.400000000000000439e-02 4.649119999999999919e-01 3.551730000000000054e+00 4.654260000000000019e+01 1.571764999999999873e+03
4.499999999999999833e-02 4.649150000000000227e-01 4.008465000000000167e+00 4.653399999999999892e+01 1.571690000000000055e+03
4.599999999999999922e-02 4.649794999999999900e-01 4.583145000000000024e+00 4.689414999999999623e+01 1.571735000000000127e+03
4.700000000000000011e-02 4.651064999999999783e-01 5.280545000000000044e+00 4.762019999999999698e+01 1.571884999999999991e+03
4.800000000000000100e-02 4.652955000000000285e-01 6.106654999999999944e+00 4.870844999999999914e+01 1.572164999999999964e+03
4.900000000000000189e-02 4.655475000000000030e-01 7.067264999999999908e+00 5.015435000000000088e+01 1.572550000000000182e+03
5.000000000000000278e-02 4.658605000000000107e-01 8.166260000000001185e+00 5.195094999999999885e+01 1.573045000000000073e+03
5.100000000000000366e-02 4.662340000000000373e-01 9.403665000000000163e+00 5.408735000000000070e+01 1.573655000000000200e+03
5.200000000000000455e-02 4.666639999999999677e-01 1.077469999999999928e+01 5.654689999999999372e+01 1.574369999999999891e+03
5.300000000000000544e-02 4.671454999999999913e-01 1.226901499999999956e+01 5.930589999999999407e+01 1.575180000000000064e+03
5.399999999999999939e-02 4.676719999999999766e-01 1.387119000000000035e+01 6.233365000000000578e+01 1.576085000000000036e+03
5.500000000000000028e-02 4.682365000000000554e-01 1.556163000000000096e+01 6.559305000000000518e+01 1.577065000000000055e+03
5.600000000000000117e-02 4.688305000000000389e-01 1.731801499999999905e+01 6.904255000000000564e+01 1.578115000000000009e+03
5.700000000000000205e-02 4.694464999999999888e-01 1.911684999999999945e+01 7.263804999999999268e+01 1.579224999999999909e+03
5.800000000000000294e-02 4.700769999999999671e-01 2.093505000000000038e+01 7.633554999999999779e+01 1.580375000000000000e+03
5.900000000000000383e-02 4.707145000000000357e-01 2.275150000000000006e+01 8.009369999999999834e+01 1.581559999999999945e+03
6.000000000000000472e-02 4.713539999999999952e-01 2.454759999999999920e+01 8.387555000000000405e+01 1.582764999999999873e+03
6.099999999999999867e-02 4.719904999999999795e-01 2.630819999999999936e+01 8.765045000000000641e+01 1.583974999999999909e+03
6.199999999999999956e-02 4.726219999999999866e-01 2.802139999999999986e+01 9.139339999999999975e+01 1.585190000000000055e+03
6.300000000000000044e-02 4.732444999999999569e-01 2.967859999999999943e+01 9.508754999999999313e+01 1.586394999999999982e+03
6.400000000000000133e-02 4.738585000000000158e-01 3.127400000000000091e+01 9.872120000000001028e+01 1.587590000000000146e+03
6.500000000000000222e-02 4.744629999999999681e-01 3.280400000000000205e+01 1.022896000000000072e+02 1.588775000000000091e+03
6.600000000000000311e-02 4.750584999999999947e-01 3.426679999999999637e+01 1.057906499999999994e+02 1.589940000000000055e+03
6.700000000000000400e-02 4.756445000000000256e-01 3.566155000000000541e+01 1.092265999999999906e+02 1.591090000000000146e+03
6.800000000000000488e-02 4.762230000000000074e-01 3.698810000000000286e+01 1.126015000000000015e+02 1.592224999999999909e+03
6.900000000000000577e-02 4.767939999999999956e-01 3.824620000000000175e+01 1.159180000000000064e+02 1.593344999999999800e+03
7.000000000000000666e-02 4.773570000000000313e-01 3.943564999999999543e+01 1.191804999999999950e+02 1.594450000000000045e+03
7.100000000000000755e-02 4.779129999999999767e-01 4.055539999999999878e+01 1.223905000000000030e+02 1.595534999999999854e+03
7.200000000000000844e-02 4.784614999999999840e-01 4.160385000000000133e+01 1.255469999999999970e+02 1.596615000000000009e+03
7.300000000000000933e-02 4.790004999999999957e-01 4.257864999999999611e+01 1.286474999999999795e+02 1.597670000000000073e+03
7.399999999999999634e-02 4.795294999999999974e-01 4.347665000000000646e+01 1.316854999999999905e+02 1.598710000000000036e+03
7.499999999999999722e-02 4.800459999999999727e-01 4.429435000000000144e+01 1.346525000000000034e+02 1.599724999999999909e+03
7.599999999999999811e-02 4.805490000000000039e-01 4.502790000000000248e+01 1.375380000000000109e+02 1.600720000000000027e+03
7.699999999999999900e-02 4.810354999999999492e-01 4.567340000000000089e+01 1.403299999999999841e+02 1.601690000000000055e+03
7.799999999999999989e-02 4.815024999999999999e-01 4.622740000000000293e+01 1.430159999999999911e+02 1.602625000000000000e+03
7.900000000000000078e-02 4.819494999999999751e-01 4.668689999999999429e+01 1.455829999999999984e+02 1.603519999999999982e+03
8.000000000000000167e-02 4.823735000000000106e-01 4.704980000000000473e+01 1.480184999999999889e+02 1.604384999999999991e+03
8.100000000000000255e-02 4.827734999999999665e-01 4.731490000000000151e+01 1.503135000000000048e+02 1.605194999999999936e+03
8.200000000000000344e-02 4.831474999999999520e-01 4.748184999999999434e+01 1.524574999999999818e+02 1.605965000000000146e+03
8.300000000000000433e-02 4.834944999999999937e-01 4.755145000000000266e+01 1.544445000000000050e+02 1.606680000000000064e+03
8.400000000000000522e-02 4.838145000000000362e-01 4.752540000000000475e+01 1.562699999999999818e+02 1.607349999999999909e+03
8.500000000000000611e-02 4.841064999999999952e-01 4.740635000000000332e+01 1.579309999999999832e+02 1.607960000000000036e+03
8.600000000000000699e-02 4.843709999999999960e-01 4.719780000000000086e+01 1.594275000000000091e+02 1.608525000000000091e+03
8.700000000000000788e-02 4.846090000000000675e-01 4.690399999999999636e+01 1.607620000000000005e+02 1.609029999999999973e+03
8.800000000000000877e-02 4.848200000000000287e-01 4.653014999999999901e+01 1.619370000000000118e+02 1.609480000000000018e+03
8.899999999999999578e-02 4.850050000000000194e-01 4.608189999999999742e+01 1.629590000000000032e+02 1.609880000000000109e+03
8.999999999999999667e-02 4.851659999999999862e-01 4.556600000000000250e+01 1.638360000000000127e+02 1.610235000000000127e+03
9.099999999999999756e-02 4.853045000000000275e-01 4.498955000000000126e+01 1.645760000000000218e+02 1.610534999999999854e+03
9.199999999999999845e-02 4.854220000000000201e-01 4.436034999999999684e+01 1.651895000000000095e+02 1.610795000000000073e+03
9.299999999999999933e-02 4.855205000000000215e-01 4.368659999999999854e+01 1.656889999999999930e+02 1.611014999999999873e+03
9.400000000000000022e-02 4.856019999999999781e-01 4.297690000000000055e+01 1.660860000000000127e+02 1.611190000000000055e+03
9.500000000000000111e-02 4.856685000000000585e-01 4.223980000000000246e+01 1.663935000000000173e+02 1.611339999999999918e+03
9.600000000000000200e-02 4.857230000000000159e-01 4.148364999999999725e+01 1.666254999999999882e+02 1.611454999999999927e+03
9.700000000000000289e-02 4.857670000000000043e-01 4.071654999999999802e+01 1.667950000000000159e+02 1.611545000000000073e+03
9.800000000000000377e-02 4.858024999999999705e-01 3.994565000000000055e+01 1.669124999999999943e+02 1.611615000000000009e+03
9.900000000000000466e-02 4.858310000000000128e-01 3.917745000000000033e+01 1.669904999999999973e+02 1.611664999999999964e+03
1.000000000000000056e-01 4.858544999999999670e-01 3.841705000000000325e+01 1.670374999999999943e+02 1.611704999999999927e+03
1.010000000000000064e-01 4.858735000000000137e-01 3.766859999999999786e+01 1.670610000000000070e+02 1.611730000000000018e+03
1.020000000000000073e-01 4.858885000000000010e-01 3.693475000000000108e+01 1.670649999999999977e+02 1.611744999999999891e+03
1.030000000000000082e-01 4.859004999999999574e-01 3.621679999999999922e+01 1.670545000000000186e+02 1.611750000000000000e+03
1.040000000000000091e-01 4.859084999999999654e-01 3.551514999999999844e+01 1.670294999999999845e+02 1.611755000000000109e+03
1.050000000000000100e-01 4.859130000000000393e-01 3.482869999999999777e+01 1.669894999999999925e+02 1.611750000000000000e+03
1.059999999999999970e-01 4.859130000000000393e-01 3.415590000000000259e+01 1.669314999999999998e+02 1.611730000000000018e+03
1.069999999999999979e-01 4.859074999999999367e-01 3.349399999999999977e+01 1.668520000000000039e+02 1.611710000000000036e+03
1.079999999999999988e-01 4.858965000000000090e-01 3.284024999999999750e+01 1.667459999999999809e+02 1.611675000000000182e+03
1.089999999999999997e-01 4.858790000000000053e-01 3.219120000000000203e+01 1.666090000000000089e+02 1.611635000000000218e+03
1.100000000000000006e-01 4.858535000000000492e-01 3.154350000000000165e+01 1.664350000000000023e+02 1.611579999999999927e+03
1.110000000000000014e-01 4.858200000000000296e-01 3.089399999999999835e+01 1.662195000000000107e+02 1.611519999999999982e+03
1.120000000000000023e-01 4.857770000000000143e-01 3.023959999999999937e+01 1.659579999999999984e+02 1.611440000000000055e+03
1.130000000000000032e-01 4.857245000000000035e-01 2.957770000000000010e+01 1.656469999999999914e+02 1.611339999999999918e+03
1.140000000000000041e-01 4.856624999999999970e-01 2.890619999999999834e+01 1.652835000000000036e+02 1.611224999999999909e+03
1.150000000000000050e-01 4.855904999999999805e-01 2.822364999999999924e+01 1.648664999999999736e+02 1.611095000000000027e+03
1.160000000000000059e-01 4.855089999999999684e-01 2.752920000000000300e+01 1.643960000000000150e+02 1.610950000000000045e+03
1.170000000000000068e-01 4.854184999999999750e-01 2.682290000000000063e+01 1.638735000000000070e+02 1.610785000000000082e+03
1.180000000000000077e-01 4.853184999999999860e-01 2.610529999999999973e+01 1.633015000000000043e+02 1.610610000000000127e+03
1.190000000000000085e-01 4.852115000000000178e-01 2.537809999999999988e+01 1.626850000000000023e+02 1.610409999999999854e+03
1.200000000000000094e-01 4.850980000000000292e-01 2.464345000000000141e+01 1.620285000000000082e+02 1.610204999999999927e+03
1.209999999999999964e-01 4.849784999999999791e-01 2.390424999999999756e+01 1.613389999999999986e+02 1.609985000000000127e+03
1.219999999999999973e-01 4.848560000000000092e-01 2.316404999999999959e+01 1.606250000000000000e+02 1.609755000000000109e+03
1.229999999999999982e-01 4.847299999999999942e-01 2.242695000000000149e+01 1.598935000000000173e+02 1.609519999999999982e+03
1.239999999999999991e-01 4.846039999999999792e-01 2.169720000000000226e+01 1.591544999999999845e+02 1.609279999999999973e+03
1.250000000000000000e-01 4.844785000000000341e-01 2.097960000000000136e+01 1.584164999999999850e+02 1.609039999999999964e+03
1.260000000000000009e-01 4.843560000000000088e-01 2.027870000000000061e+01 1.576895000000000095e+02 1.608799999999999955e+03
1.270000000000000018e-01 4.842364999999999586e-01 1.959894999999999854e+01 1.569814999999999827e+02 1.608559999999999945e+03
1.280000000000000027e-01 4.841230000000000255e-01 1.894474999999999909e+01 1.563009999999999877e+02 1.608335000000000036e+03
1.290000000000000036e-01 4.840155000000000429e-01 1.831995000000000218e+01 1.556555000000000177e+02 1.608115000000000009e+03
1.300000000000000044e-01 4.839160000000000128e-01 1.772775000000000034e+01 1.550509999999999877e+02 1.607904999999999973e+03
1.310000000000000053e-01 4.838234999999999619e-01 1.717084999999999795e+01 1.544925000000000068e+02 1.607710000000000036e+03
1.320000000000000062e-01 4.837410000000000321e-01 1.665109999999999957e+01 1.539830000000000041e+02 1.607529999999999973e+03
1.330000000000000071e-01 4.836659999999999848e-01 1.616959999999999908e+01 1.535244999999999891e+02 1.607365000000000009e+03
1.340000000000000080e-01 4.836004999999999887e-01 1.572664999999999935e+01 1.531169999999999902e+02 1.607210000000000036e+03
1.350000000000000089e-01 4.835435000000000150e-01 1.532189999999999941e+01 1.527605000000000075e+02 1.607079999999999927e+03
1.360000000000000098e-01 4.834935000000000205e-01 1.495424999999999827e+01 1.524509999999999934e+02 1.606960000000000036e+03
1.370000000000000107e-01 4.834509999999999641e-01 1.462205000000000155e+01 1.521854999999999905e+02 1.606860000000000127e+03
1.380000000000000115e-01 4.834150000000000391e-01 1.432310000000000016e+01 1.519599999999999795e+02 1.606764999999999873e+03
1.390000000000000124e-01 4.833840000000000359e-01 1.405495000000000161e+01 1.517700000000000102e+02 1.606690000000000055e+03
1.400000000000000133e-01 4.833585000000000242e-01 1.381494999999999962e+01 1.516084999999999923e+02 1.606619999999999891e+03
1.410000000000000142e-01 4.833355000000000290e-01 1.360030000000000072e+01 1.514714999999999918e+02 1.606559999999999945e+03
1.420000000000000151e-01 4.833155000000000090e-01 1.340825000000000067e+01 1.513534999999999968e+02 1.606505000000000109e+03
1.430000000000000160e-01 4.832980000000000054e-01 1.323615000000000030e+01 1.512495000000000118e+02 1.606460000000000036e+03
1.440000000000000169e-01 4.832815000000000305e-01 1.308145000000000024e+01 1.511555000000000177e+02 1.606420000000000073e+03
1.450000000000000178e-01 4.832655000000000145e-01 1.294200000000000017e+01 1.510674999999999955e+02 1.606380000000000109e+03
1.459999999999999909e-01 4.832505000000000273e-01 1.281559999999999988e+01 1.509825000000000159e+02 1.606345000000000027e+03
1.469999999999999918e-01 4.832349999999999701e-01 1.270045000000000002e+01 1.508994999999999891e+02 1.606309999999999945e+03
1.479999999999999927e-01 4.832195000000000240e-01 1.259499999999999886e+01 1.508149999999999977e+02 1.606275000000000091e+03
1.489999999999999936e-01 4.832039999999999669e-01 1.249784999999999968e+01 1.507289999999999850e+02 1.606240000000000009e+03
1.499999999999999944e-01 4.831879999999999509e-01 1.240770000000000017e+01 1.506405000000000030e+02 1.606204999999999927e+03
1.509999999999999953e-01 4.831710000000000171e-01 1.232355000000000089e+01 1.505495000000000232e+02 1.606170000000000073e+03
1.519999999999999962e-01 4.831540000000000279e-01 1.224439500000000081e+01 1.504555000000000007e+02 1.606139999999999873e+03
1.529999999999999971e-01 4.831360000000000099e-01 1.216939999999999955e+01 1.503584999999999923e+02 1.606099999999999909e+03
1.539999999999999980e-01 4.831185000000000063e-01 1.209792000000000023e+01 1.502590000000000146e+02 1.606069999999999936e+03
1.549999999999999989e-01 4.831000000000000294e-01 1.202931500000000042e+01 1.501570000000000107e+02 1.606034999999999854e+03
1.559999999999999998e-01 4.830815000000000525e-01 1.196311000000000035e+01 1.500540000000000020e+02 1.606000000000000000e+03
1.570000000000000007e-01 4.830625000000000058e-01 1.189881499999999903e+01 1.499490000000000123e+02 1.605960000000000036e+03
1.580000000000000016e-01 4.830434999999999590e-01 1.183620499999999964e+01 1.498430000000000177e+02 1.605925000000000182e+03
1.590000000000000024e-01 4.830245000000000233e-01 1.177500999999999998e+01 1.497355000000000018e+02 1.605889999999999873e+03
