# t [s], A [cm^2], U [cm/s], P [cPa], c [cm/s]
1.000000000000000021e-03 1.887830000000000064e-01 1.481214999999999893e-01 1.031629999999999967e+02 2.308435000000000400e+03
2.000000000000000042e-03 1.887385000000000035e-01 1.496663999999999994e+00 1.000109999999999957e+02 2.308015000000000327e+03
3.000000000000000062e-03 1.886150000000000049e-01 3.279617500000000074e+00 9.531260000000000332e+01 2.306914999999999964e+03
4.000000000000000083e-03 1.884445000000000148e-01 5.346433499999999839e+00 8.988949999999999818e+01 2.305425000000000182e+03
5.000000000000000104e-03 1.882599999999999829e-01 7.616894999999999527e+00 8.477119999999999322e+01 2.303835000000000036e+03
6.000000000000000125e-03 1.880834999999999868e-01 9.909684999999999633e+00 8.043350000000000932e+01 2.302320000000000164e+03
7.000000000000000146e-03 1.879175000000000151e-01 1.196893999999999991e+01 7.668209999999999127e+01 2.300940000000000055e+03
8.000000000000000167e-03 1.877665000000000028e-01 1.368224500000000177e+01 7.328294999999999959e+01 2.299699999999999818e+03
9.000000000000001055e-03 1.876339999999999952e-01 1.508385000000000176e+01 7.032274999999999920e+01 2.298635000000000218e+03
1.000000000000000194e-02 1.875239999999999962e-01 1.621235000000000070e+01 6.790489999999999782e+01 2.297760000000000218e+03
1.099999999999999936e-02 1.874365000000000059e-01 1.709489999999999910e+01 6.602885000000000559e+01 2.297064999999999600e+03
1.200000000000000025e-02 1.873690000000000078e-01 1.775164999999999793e+01 6.463230000000000075e+01 2.296545000000000073e+03
1.300000000000000114e-02 1.873164999999999969e-01 1.817855000000000132e+01 6.355709999999999837e+01 2.296150000000000091e+03
1.400000000000000203e-02 1.872735000000000094e-01 1.838729999999999976e+01 6.262834999999999752e+01 2.295829999999999927e+03
1.499999999999999944e-02 1.872405000000000042e-01 1.847534999999999883e+01 6.188439999999999941e+01 2.295585000000000036e+03
1.600000000000000033e-02 1.872240000000000015e-01 1.862219999999999942e+01 6.167314999999999969e+01 2.295470000000000255e+03
1.700000000000000122e-02 1.872360000000000135e-01 1.899705000000000155e+01 6.244995000000000118e+01 2.295570000000000164e+03
1.800000000000000211e-02 1.872814999999999896e-01 1.965639999999999787e+01 6.443704999999999927e+01 2.295929999999999836e+03
1.900000000000000300e-02 1.873584999999999834e-01 2.050854999999999961e+01 6.741335000000000832e+01 2.296545000000000073e+03
2.000000000000000042e-02 1.874514999999999931e-01 2.136005000000000109e+01 7.076699999999999591e+01 2.297305000000000291e+03
2.100000000000000130e-02 1.875435000000000019e-01 2.200694999999999979e+01 7.374920000000000186e+01 2.298060000000000400e+03
2.200000000000000219e-02 1.876165000000000194e-01 2.231804999999999950e+01 7.577189999999998804e+01 2.298679999999999836e+03
2.299999999999999961e-02 1.876610000000000222e-01 2.227405000000000257e+01 7.660394999999999754e+01 2.299074999999999818e+03
2.400000000000000050e-02 1.876769999999999827e-01 2.195660000000000167e+01 7.639875000000000682e+01 2.299235000000000127e+03
2.500000000000000139e-02 1.876724999999999921e-01 2.149804999999999922e+01 7.556929999999999836e+01 2.299220000000000255e+03
2.600000000000000228e-02 1.876569999999999905e-01 2.102145000000000152e+01 7.458424999999999727e+01 2.299100000000000364e+03
2.700000000000000316e-02 1.876404999999999879e-01 2.059344999999999715e+01 7.377850000000000819e+01 2.298965000000000146e+03
2.800000000000000058e-02 1.876264999999999739e-01 2.020805000000000007e+01 7.324705000000000155e+01 2.298849999999999909e+03
2.900000000000000147e-02 1.876140000000000030e-01 1.980039999999999978e+01 7.284835000000001060e+01 2.298744999999999891e+03
3.000000000000000236e-02 1.875979999999999870e-01 1.928330000000000055e+01 7.230019999999998959e+01 2.298619999999999891e+03
3.099999999999999978e-02 1.875715000000000021e-01 1.859044999999999703e+01 7.132444999999999879e+01 2.298409999999999854e+03
3.200000000000000067e-02 1.875304999999999889e-01 1.771205000000000140e+01 6.978549999999999898e+01 2.298090000000000146e+03
3.300000000000000155e-02 1.874750000000000028e-01 1.670984999999999943e+01 6.777405000000000257e+01 2.297650000000000091e+03
3.400000000000000244e-02 1.874124999999999819e-01 1.570475000000000065e+01 6.560349999999999682e+01 2.297144999999999982e+03
3.500000000000000333e-02 1.873529999999999918e-01 1.484274999999999878e+01 6.372010000000000218e+01 2.296664999999999964e+03
3.600000000000000422e-02 1.873095000000000176e-01 1.425079999999999991e+01 6.256284999999999741e+01 2.296289999999999964e+03
3.700000000000000511e-02 1.872904999999999986e-01 1.400069999999999837e+01 6.242634999999999934e+01 2.296114999999999782e+03
3.799999999999999906e-02 1.873015000000000096e-01 1.409114999999999895e+01 6.337494999999999834e+01 2.296170000000000073e+03
3.899999999999999994e-02 1.873394999999999921e-01 1.445209999999999972e+01 6.523034999999998718e+01 2.296460000000000036e+03
4.000000000000000083e-02 1.873974999999999946e-01 1.496579999999999977e+01 6.762654999999999461e+01 2.296914999999999964e+03
4.100000000000000172e-02 1.874655000000000071e-01 1.549660000000000082e+01 7.010640000000000782e+01 2.297460000000000036e+03
4.200000000000000261e-02 1.875299999999999745e-01 1.591975000000000051e+01 7.222669999999999391e+01 2.297985000000000127e+03
4.300000000000000350e-02 1.875809999999999977e-01 1.614235000000000042e+01 7.364439999999999031e+01 2.298409999999999854e+03
4.400000000000000439e-02 1.876105000000000134e-01 1.611384999999999934e+01 7.416605000000001269e+01 2.298670000000000073e+03
4.499999999999999833e-02 1.876150000000000040e-01 1.582435000000000080e+01 7.375495000000000800e+01 2.298720000000000255e+03
4.599999999999999922e-02 1.875944999999999974e-01 1.529599999999999937e+01 7.250294999999999845e+01 2.298569999999999709e+03
4.700000000000000011e-02 1.875515000000000099e-01 1.456844999999999857e+01 7.058070000000000732e+01 2.298234999999999673e+03
4.800000000000000100e-02 1.874905000000000044e-01 1.368599999999999994e+01 6.818330000000000268e+01 2.297750000000000000e+03
4.900000000000000189e-02 1.874170000000000003e-01 1.268829500000000010e+01 6.548749999999999716e+01 2.297154999999999745e+03
5.000000000000000278e-02 1.873334999999999861e-01 1.160608000000000040e+01 6.262695000000000078e+01 2.296484999999999673e+03
5.100000000000000366e-02 1.872444999999999804e-01 1.046244000000000085e+01 5.968954999999999700e+01 2.295760000000000218e+03
5.200000000000000455e-02 1.871519999999999850e-01 9.277169999999999916e+00 5.673004999999999853e+01 2.295010000000000218e+03
5.300000000000000544e-02 1.870585000000000164e-01 8.071984999999999744e+00 5.379080000000000439e+01 2.294244999999999891e+03
5.399999999999999939e-02 1.869649999999999923e-01 6.875439999999999330e+00 5.092270000000000607e+01 2.293480000000000018e+03
5.500000000000000028e-02 1.868734999999999979e-01 5.724960000000000271e+00 4.820045000000000357e+01 2.292734999999999673e+03
5.600000000000000117e-02 1.867884999999999962e-01 4.666590000000000238e+00 4.572695000000000221e+01 2.292034999999999854e+03
5.700000000000000205e-02 1.867125000000000035e-01 3.751854999999999940e+00 4.362879999999999825e+01 2.291409999999999854e+03
5.800000000000000294e-02 1.866499999999999826e-01 3.032990000000000297e+00 4.204304999999999382e+01 2.290885000000000218e+03
5.900000000000000383e-02 1.866049999999999931e-01 2.557484999999999786e+00 4.110035000000000593e+01 2.290505000000000109e+03
6.000000000000000472e-02 1.865815000000000112e-01 2.363129999999999953e+00 4.090789999999999793e+01 2.290284999999999854e+03
6.099999999999999867e-02 1.865815000000000112e-01 2.474310000000000009e+00 4.153580000000000183e+01 2.290265000000000327e+03
6.199999999999999956e-02 1.866069999999999951e-01 2.900055000000000049e+00 4.300950000000000273e+01 2.290449999999999818e+03
6.300000000000000044e-02 1.866590000000000193e-01 3.633810000000000429e+00 4.530760000000000076e+01 2.290850000000000364e+03
6.400000000000000133e-02 1.867360000000000131e-01 4.654709999999999681e+00 4.836594999999999800e+01 2.291449999999999818e+03
6.500000000000000222e-02 1.868354999999999877e-01 5.929930000000000589e+00 5.208485000000000298e+01 2.292239999999999782e+03
6.600000000000000311e-02 1.869544999999999957e-01 7.417804999999999538e+00 5.634024999999999750e+01 2.293195000000000164e+03
6.700000000000000400e-02 1.870904999999999929e-01 9.071329999999999671e+00 6.099455000000000382e+01 2.294289999999999964e+03
6.800000000000000488e-02 1.872380000000000155e-01 1.084173999999999971e+01 6.590879999999999939e+01 2.295485000000000127e+03
6.900000000000000577e-02 1.873929999999999763e-01 1.268190000000000062e+01 7.095340000000000202e+01 2.296744999999999891e+03
7.000000000000000666e-02 1.875525000000000109e-01 1.454950000000000010e+01 7.601699999999999591e+01 2.298050000000000182e+03
7.100000000000000755e-02 1.877130000000000187e-01 1.640905000000000058e+01 8.101339999999999009e+01 2.299364999999999782e+03
7.200000000000000844e-02 1.878724999999999978e-01 1.823355000000000103e+01 8.588470000000000937e+01 2.300675000000000182e+03
7.300000000000000933e-02 1.880290000000000017e-01 2.000455000000000183e+01 9.060120000000000573e+01 2.301970000000000255e+03
7.399999999999999634e-02 1.881815000000000015e-01 2.171150000000000091e+01 9.515854999999999109e+01 2.303234999999999673e+03
7.499999999999999722e-02 1.883305000000000118e-01 2.335024999999999906e+01 9.956999999999999318e+01 2.304470000000000255e+03
7.599999999999999811e-02 1.884759999999999769e-01 2.492110000000000269e+01 1.038611500000000092e+02 2.305675000000000182e+03
7.699999999999999900e-02 1.886184999999999945e-01 2.642660000000000053e+01 1.080600000000000023e+02 2.306860000000000127e+03
7.799999999999999989e-02 1.887579999999999814e-01 2.786979999999999791e+01 1.121914999999999907e+02 2.308029999999999745e+03
7.900000000000000078e-02 1.888964999999999950e-01 2.925314999999999799e+01 1.162719999999999914e+02 2.309180000000000291e+03
8.000000000000000167e-02 1.890330000000000066e-01 3.057724999999999937e+01 1.203084999999999951e+02 2.310319999999999709e+03
8.100000000000000255e-02 1.891680000000000028e-01 3.184140000000000015e+01 1.242960000000000065e+02 2.311444999999999709e+03
8.200000000000000344e-02 1.893009999999999970e-01 3.304310000000000258e+01 1.282224999999999966e+02 2.312559999999999945e+03
8.300000000000000433e-02 1.894319999999999893e-01 3.417884999999999707e+01 1.320685000000000002e+02 2.313654999999999745e+03
8.400000000000000522e-02 1.895604999999999929e-01 3.524455000000000382e+01 1.358129999999999882e+02 2.314730000000000018e+03
8.500000000000000611e-02 1.896839999999999915e-01 3.623555000000000348e+01 1.394304999999999950e+02 2.315775000000000091e+03
8.600000000000000699e-02 1.898044999999999871e-01 3.714674999999999727e+01 1.428979999999999961e+02 2.316779999999999745e+03
8.700000000000000788e-02 1.899195000000000189e-01 3.797280000000000655e+01 1.461904999999999859e+02 2.317750000000000000e+03
8.800000000000000877e-02 1.900284999999999891e-01 3.870784999999999343e+01 1.492850000000000250e+02 2.318670000000000073e+03
8.899999999999999578e-02 1.901309999999999945e-01 3.934539999999999793e+01 1.521569999999999823e+02 2.319529999999999745e+03
8.999999999999999667e-02 1.902264999999999928e-01 3.987895000000000323e+01 1.547824999999999989e+02 2.320335000000000036e+03
9.099999999999999756e-02 1.903130000000000099e-01 4.030180000000000007e+01 1.571374999999999886e+02 2.321069999999999709e+03
9.199999999999999845e-02 1.903904999999999903e-01 4.060800000000000409e+01 1.592009999999999934e+02 2.321730000000000018e+03
9.299999999999999933e-02 1.904589999999999894e-01 4.079285000000000139e+01 1.609544999999999959e+02 2.322309999999999945e+03
9.400000000000000022e-02 1.905169999999999919e-01 4.085360000000000014e+01 1.623865000000000123e+02 2.322809999999999945e+03
9.500000000000000111e-02 1.905644999999999978e-01 4.079025000000000034e+01 1.634909999999999854e+02 2.323220000000000255e+03
9.600000000000000200e-02 1.906019999999999937e-01 4.060580000000000211e+01 1.642735000000000127e+02 2.323539999999999964e+03
9.700000000000000289e-02 1.906289999999999929e-01 4.030634999999999479e+01 1.647475000000000023e+02 2.323779999999999745e+03
9.800000000000000377e-02 1.906454999999999955e-01 3.990115000000000123e+01 1.649354999999999905e+02 2.323934999999999945e+03
9.900000000000000466e-02 1.906539999999999901e-01 3.940205000000000268e+01 1.648679999999999950e+02 2.324015000000000327e+03
1.000000000000000056e-01 1.906545000000000045e-01 3.882289999999999708e+01 1.645819999999999936e+02 2.324025000000000091e+03
1.010000000000000064e-01 1.906475000000000253e-01 3.817875000000000085e+01 1.641159999999999854e+02 2.323980000000000018e+03
1.020000000000000073e-01 1.906344999999999845e-01 3.748520000000000607e+01 1.635109999999999957e+02 2.323875000000000000e+03
1.030000000000000082e-01 1.906180000000000097e-01 3.675780000000000314e+01 1.628064999999999998e+02 2.323744999999999891e+03
1.040000000000000091e-01 1.905974999999999753e-01 3.601109999999999900e+01 1.620400000000000205e+02 2.323574999999999818e+03
1.050000000000000100e-01 1.905755000000000088e-01 3.525830000000000553e+01 1.612415000000000020e+02 2.323390000000000327e+03
1.059999999999999970e-01 1.905519999999999992e-01 3.451080000000000325e+01 1.604399999999999977e+02 2.323194999999999709e+03
1.069999999999999979e-01 1.905280000000000029e-01 3.377779999999999916e+01 1.596535000000000082e+02 2.322994999999999891e+03
1.079999999999999988e-01 1.905040000000000067e-01 3.306615000000000038e+01 1.588974999999999795e+02 2.322795000000000073e+03
1.089999999999999997e-01 1.904810000000000114e-01 3.238004999999999711e+01 1.581779999999999973e+02 2.322599999999999909e+03
1.100000000000000006e-01 1.904585000000000028e-01 3.172100000000000009e+01 1.574954999999999927e+02 2.322409999999999854e+03
1.110000000000000014e-01 1.904365000000000085e-01 3.108794999999999931e+01 1.568430000000000177e+02 2.322224999999999909e+03
1.120000000000000023e-01 1.904155000000000153e-01 3.047745000000000104e+01 1.562085000000000150e+02 2.322045000000000073e+03
1.130000000000000032e-01 1.903940000000000077e-01 2.988405000000000200e+01 1.555749999999999886e+02 2.321864999999999782e+03
1.140000000000000041e-01 1.903725000000000001e-01 2.930055000000000121e+01 1.549209999999999923e+02 2.321684999999999945e+03
1.150000000000000050e-01 1.903499999999999914e-01 2.871880000000000166e+01 1.542245000000000061e+02 2.321494999999999891e+03
1.160000000000000059e-01 1.903259999999999952e-01 2.813019999999999854e+01 1.534604999999999961e+02 2.321289999999999964e+03
1.170000000000000068e-01 1.902989999999999959e-01 2.752619999999999933e+01 1.526080000000000041e+02 2.321065000000000055e+03
1.180000000000000077e-01 1.902699999999999947e-01 2.689925000000000210e+01 1.516465000000000032e+02 2.320820000000000164e+03
1.190000000000000085e-01 1.902365000000000028e-01 2.624309999999999832e+01 1.505614999999999952e+02 2.320545000000000073e+03
1.200000000000000094e-01 1.901994999999999936e-01 2.555320000000000036e+01 1.493429999999999893e+02 2.320235000000000127e+03
1.209999999999999964e-01 1.901579999999999937e-01 2.482759999999999678e+01 1.479884999999999877e+02 2.319894999999999982e+03
1.219999999999999973e-01 1.901125000000000176e-01 2.406654999999999944e+01 1.465024999999999977e+02 2.319515000000000327e+03
1.229999999999999982e-01 1.900634999999999963e-01 2.327309999999999945e+01 1.448965000000000032e+02 2.319105000000000018e+03
1.239999999999999991e-01 1.900100000000000122e-01 2.245289999999999964e+01 1.431895000000000095e+02 2.318664999999999964e+03
1.250000000000000000e-01 1.899540000000000117e-01 2.161379999999999768e+01 1.414054999999999893e+02 2.318199999999999818e+03
1.260000000000000009e-01 1.898960000000000092e-01 2.076569999999999894e+01 1.395749999999999886e+02 2.317715000000000146e+03
1.270000000000000018e-01 1.898364999999999914e-01 1.991995000000000005e+01 1.377314999999999827e+02 2.317225000000000364e+03
1.280000000000000027e-01 1.897769999999999735e-01 1.908850000000000335e+01 1.359089999999999918e+02 2.316730000000000018e+03
1.290000000000000036e-01 1.897185000000000121e-01 1.828350000000000009e+01 1.341424999999999841e+02 2.316234999999999673e+03
1.300000000000000044e-01 1.896619999999999973e-01 1.751655000000000229e+01 1.324635000000000105e+02 2.315764999999999873e+03
1.310000000000000053e-01 1.896079999999999988e-01 1.679785000000000039e+01 1.308999999999999773e+02 2.315315000000000055e+03
1.320000000000000062e-01 1.895580000000000043e-01 1.613619999999999877e+01 1.294745000000000061e+02 2.314890000000000327e+03
1.330000000000000071e-01 1.895120000000000138e-01 1.553819999999999979e+01 1.282030000000000030e+02 2.314505000000000109e+03
1.340000000000000080e-01 1.894710000000000005e-01 1.500835000000000008e+01 1.270960000000000036e+02 2.314155000000000200e+03
1.350000000000000089e-01 1.894349999999999923e-01 1.454870000000000019e+01 1.261574999999999989e+02 2.313855000000000018e+03
1.360000000000000098e-01 1.894040000000000168e-01 1.415954999999999941e+01 1.253845000000000027e+02 2.313590000000000146e+03
1.370000000000000107e-01 1.893790000000000195e-01 1.383900000000000041e+01 1.247710000000000008e+02 2.313369999999999891e+03
1.380000000000000115e-01 1.893575000000000119e-01 1.358360000000000056e+01 1.243050000000000068e+02 2.313190000000000055e+03
1.390000000000000124e-01 1.893420000000000103e-01 1.338870000000000005e+01 1.239740000000000038e+02 2.313050000000000182e+03
1.400000000000000133e-01 1.893299999999999983e-01 1.324840000000000018e+01 1.237615000000000123e+02 2.312944999999999709e+03
1.410000000000000142e-01 1.893219999999999903e-01 1.315615000000000023e+01 1.236509999999999962e+02 2.312875000000000000e+03
1.420000000000000151e-01 1.893164999999999987e-01 1.310500000000000043e+01 1.236244999999999976e+02 2.312824999999999818e+03
1.430000000000000160e-01 1.893144999999999967e-01 1.308759999999999835e+01 1.236659999999999968e+02 2.312800000000000182e+03
1.440000000000000169e-01 1.893144999999999967e-01 1.309684999999999988e+01 1.237574999999999932e+02 2.312800000000000182e+03
1.450000000000000178e-01 1.893159999999999843e-01 1.312555000000000049e+01 1.238845000000000027e+02 2.312809999999999945e+03
1.459999999999999909e-01 1.893190000000000150e-01 1.316724999999999923e+01 1.240310000000000059e+02 2.312829999999999927e+03
1.469999999999999918e-01 1.893225000000000047e-01 1.321590000000000131e+01 1.241850000000000023e+02 2.312855000000000018e+03
1.479999999999999927e-01 1.893259999999999943e-01 1.326629999999999932e+01 1.243359999999999985e+02 2.312885000000000218e+03
1.489999999999999936e-01 1.893299999999999983e-01 1.331425000000000125e+01 1.244754999999999967e+02 2.312914999999999964e+03
1.499999999999999944e-01 1.893334999999999879e-01 1.335660000000000025e+01 1.245979999999999990e+02 2.312949999999999818e+03
1.509999999999999953e-01 1.893370000000000053e-01 1.339120000000000132e+01 1.247000000000000028e+02 2.312974999999999909e+03
1.519999999999999962e-01 1.893400000000000083e-01 1.341709999999999958e+01 1.247814999999999941e+02 2.313000000000000000e+03
1.529999999999999971e-01 1.893420000000000103e-01 1.343430000000000035e+01 1.248445000000000107e+02 2.313019999999999982e+03
1.539999999999999980e-01 1.893440000000000123e-01 1.344369999999999976e+01 1.248930000000000007e+02 2.313039999999999964e+03
1.549999999999999989e-01 1.893454999999999999e-01 1.344694999999999929e+01 1.249329999999999927e+02 2.313050000000000182e+03
1.559999999999999998e-01 1.893469999999999875e-01 1.344599999999999973e+01 1.249710000000000036e+02 2.313065000000000055e+03
1.570000000000000007e-01 1.893484999999999752e-01 1.344330000000000069e+01 1.250130000000000052e+02 2.313074999999999818e+03
1.580000000000000016e-01 1.893504999999999772e-01 1.344089999999999918e+01 1.250664999999999907e+02 2.313090000000000146e+03
1.590000000000000024e-01 1.893524999999999792e-01 1.344074999999999953e+01 1.251355000000000075e+02 2.313110000000000127e+03
