# t [s], A [cm^2], U [cm/s], P [cPa], c [cm/s]
1.000000000000000021e-03 7.107490000000000752e-01 8.660549999999996029e-03 1.067949999999999875e+02 1.833670000000000073e+03
2.000000000000000042e-03 7.107345000000000468e-01 -6.825816999999999649e-03 1.067524999999999977e+02 1.833664999999999964e+03
3.000000000000000062e-03 7.107885000000000453e-01 8.870215000000000738e-02 1.068735000000000070e+02 1.833690000000000055e+03
4.000000000000000083e-03 7.108389999999999986e-01 1.948436499999999794e-01 1.070180000000000007e+02 1.833720000000000027e+03
5.000000000000000104e-03 7.107989999999999586e-01 1.577964500000000048e-01 1.069205000000000041e+02 1.833704999999999927e+03
6.000000000000000125e-03 7.107244999999999813e-01 5.509100000000000108e-02 1.066440000000000055e+02 1.833644999999999982e+03
7.000000000000000146e-03 7.106719999999999704e-01 -1.792549999999998311e-02 1.063474999999999966e+02 1.833585000000000036e+03
8.000000000000000167e-03 7.105770000000000142e-01 -1.822949999999999848e-01 1.058914999999999935e+02 1.833485000000000127e+03
9.000000000000001055e-03 7.104200000000000514e-01 -4.825100000000001055e-01 1.051825000000000045e+02 1.833335000000000036e+03
1.000000000000000194e-02 7.101954999999999796e-01 -9.249349999999999516e-01 1.041715000000000089e+02 1.833130000000000109e+03
1.099999999999999936e-02 7.098744999999999639e-01 -1.552124999999999977e+00 1.027474500000000006e+02 1.832835000000000036e+03
1.200000000000000025e-02 7.094629999999999548e-01 -2.334049999999999958e+00 1.008873499999999979e+02 1.832440000000000055e+03
1.300000000000000114e-02 7.090339999999999421e-01 -3.110260000000000247e+00 9.877615000000000123e+01 1.831984999999999900e+03
1.400000000000000203e-02 7.086719999999999686e-01 -3.682750500000000038e+00 9.670789999999999509e+01 1.831514999999999873e+03
1.499999999999999944e-02 7.084154999999999758e-01 -3.934679499999999663e+00 9.490289999999998827e+01 1.831085000000000036e+03
1.600000000000000033e-02 7.082439999999999847e-01 -3.870150000000000201e+00 9.340914999999999679e+01 1.830700000000000045e+03
1.700000000000000122e-02 7.080994999999999928e-01 -3.580154999999999976e+00 9.212145000000001005e+01 1.830349999999999909e+03
1.800000000000000211e-02 7.079230000000000800e-01 -3.180326500000000056e+00 9.086154999999999404e+01 1.830009999999999991e+03
1.900000000000000300e-02 7.076789999999999470e-01 -2.756484999999999630e+00 8.947110000000000696e+01 1.829634999999999991e+03
2.000000000000000042e-02 7.073644999999999516e-01 -2.336715499999999945e+00 8.787459999999998672e+01 1.829224999999999909e+03
2.100000000000000130e-02 7.070054999999999534e-01 -1.893914999999999793e+00 8.609700000000000841e+01 1.828775000000000091e+03
2.200000000000000219e-02 7.066384999999999472e-01 -1.372079999999999966e+00 8.423644999999999072e+01 1.828299999999999955e+03
2.299999999999999961e-02 7.062954999999999650e-01 -7.223649999999999238e-01 8.240944999999999254e+01 1.827829999999999927e+03
2.400000000000000050e-02 7.059889999999999777e-01 6.705000000000005400e-02 8.069530000000000314e+01 1.827375000000000000e+03
2.500000000000000139e-02 7.057059999999999444e-01 9.575250000000001815e-01 7.910009999999999764e+01 1.826944999999999936e+03
2.600000000000000228e-02 7.054154999999999731e-01 1.864910000000000068e+00 7.754935000000000400e+01 1.826525000000000091e+03
2.700000000000000316e-02 7.050769999999999538e-01 2.679114999999999913e+00 7.590749999999999886e+01 1.826090000000000146e+03
2.800000000000000058e-02 7.046525000000000150e-01 3.292444999999999844e+00 7.401900000000000546e+01 1.825615000000000009e+03
2.900000000000000147e-02 7.041205000000000380e-01 3.629279999999999617e+00 7.175860000000000127e+01 1.825065000000000055e+03
3.000000000000000236e-02 7.034854999999999858e-01 3.667635000000000201e+00 6.907574999999999932e+01 1.824434999999999945e+03
3.099999999999999978e-02 7.027749999999999275e-01 3.443970000000000198e+00 6.601659999999999684e+01 1.823720000000000027e+03
3.200000000000000067e-02 7.020345000000000057e-01 3.038920000000000066e+00 6.271465000000000600e+01 1.822954999999999927e+03
3.300000000000000155e-02 7.013134999999999231e-01 2.552015000000000366e+00 5.935575000000000045e+01 1.822170000000000073e+03
3.400000000000000244e-02 7.006539999999999990e-01 2.076084999999999514e+00 5.613555000000000206e+01 1.821400000000000091e+03
3.500000000000000333e-02 7.000844999999999985e-01 1.680369999999999919e+00 5.322299999999999898e+01 1.820690000000000055e+03
3.600000000000000422e-02 6.996199999999999086e-01 1.404490000000000016e+00 5.073924999999999841e+01 1.820065000000000055e+03
3.700000000000000511e-02 6.992625000000000091e-01 1.261800000000000033e+00 4.875204999999999700e+01 1.819549999999999955e+03
3.799999999999999906e-02 6.990054999999999463e-01 1.248059999999999725e+00 4.728284999999999627e+01 1.819150000000000091e+03
3.899999999999999994e-02 6.988415000000000044e-01 1.352279999999999927e+00 4.632139999999999702e+01 1.818865000000000009e+03
4.000000000000000083e-02 6.987645000000000106e-01 1.566406500000000035e+00 4.584309999999999974e+01 1.818700000000000045e+03
4.100000000000000172e-02 6.987700000000000022e-01 1.891599999999999948e+00 4.582464999999999833e+01 1.818644999999999982e+03
4.200000000000000261e-02 6.988604999999999956e-01 2.339679999999999982e+00 4.625265000000000271e+01 1.818695000000000164e+03
4.300000000000000350e-02 6.990395000000000358e-01 2.929850000000000065e+00 4.712555000000000405e+01 1.818860000000000127e+03
4.400000000000000439e-02 6.993115000000000858e-01 3.682352500000000362e+00 4.844795000000000584e+01 1.819130000000000109e+03
4.499999999999999833e-02 6.996774999999999523e-01 4.611474999999999547e+00 5.022149999999999892e+01 1.819505000000000109e+03
4.599999999999999922e-02 7.001344999999999930e-01 5.720167000000000002e+00 5.243585000000000207e+01 1.819990000000000009e+03
4.700000000000000011e-02 7.006729999999999903e-01 6.997514999999999930e+00 5.506225000000000591e+01 1.820575000000000045e+03
4.800000000000000100e-02 7.012799999999999034e-01 8.419439999999999813e+00 5.805180000000000007e+01 1.821244999999999891e+03
4.900000000000000189e-02 7.019385000000000208e-01 9.951564999999998662e+00 6.133774999999999977e+01 1.822000000000000000e+03
5.000000000000000278e-02 7.026305000000000467e-01 1.155414999999999992e+01 6.484139999999999304e+01 1.822809999999999945e+03
5.100000000000000366e-02 7.033385000000000886e-01 1.318660999999999994e+01 6.848000000000000398e+01 1.823659999999999854e+03
5.200000000000000455e-02 7.040474999999999373e-01 1.481203000000000003e+01 7.217480000000000473e+01 1.824534999999999854e+03
5.300000000000000544e-02 7.047455000000000247e-01 1.640031499999999909e+01 7.585810000000000741e+01 1.825420000000000073e+03
5.399999999999999939e-02 7.054259999999999975e-01 1.792950000000000088e+01 7.947729999999999961e+01 1.826305000000000064e+03
5.500000000000000028e-02 7.060850000000000737e-01 1.938569999999999993e+01 8.299710000000000321e+01 1.827164999999999964e+03
5.600000000000000117e-02 7.067209999999999326e-01 2.076204999999999856e+01 8.639894999999999925e+01 1.828014999999999873e+03
5.700000000000000205e-02 7.073365000000000347e-01 2.205730000000000146e+01 8.967869999999999209e+01 1.828835000000000036e+03
5.800000000000000294e-02 7.079329999999999234e-01 2.327374999999999972e+01 9.284279999999999688e+01 1.829625000000000000e+03
5.900000000000000383e-02 7.085160000000000347e-01 2.441550000000000153e+01 9.590520000000000778e+01 1.830400000000000091e+03
6.000000000000000472e-02 7.090864999999999529e-01 2.548770000000000024e+01 9.888405000000000200e+01 1.831155000000000200e+03
6.099999999999999867e-02 7.096495000000000442e-01 2.649474999999999980e+01 1.017969499999999954e+02 1.831889999999999873e+03
6.199999999999999956e-02 7.102064999999999628e-01 2.744004999999999939e+01 1.046593499999999892e+02 1.832615000000000009e+03
6.300000000000000044e-02 7.107580000000000009e-01 2.832504999999999740e+01 1.074809999999999945e+02 1.833329999999999927e+03
6.400000000000000133e-02 7.113045000000000062e-01 2.914890000000000114e+01 1.102660000000000053e+02 1.834034999999999854e+03
6.500000000000000222e-02 7.118434999999999624e-01 2.990865000000000151e+01 1.130105000000000075e+02 1.834735000000000127e+03
6.600000000000000311e-02 7.123720000000000052e-01 3.059959999999999880e+01 1.157044999999999959e+02 1.835420000000000073e+03
6.700000000000000400e-02 7.128864999999999785e-01 3.121574999999999989e+01 1.183319999999999936e+02 1.836085000000000036e+03
6.800000000000000488e-02 7.133825000000000305e-01 3.175079999999999814e+01 1.208735000000000070e+02 1.836735000000000127e+03
6.900000000000000577e-02 7.138554999999999762e-01 3.219904999999999973e+01 1.233070000000000022e+02 1.837359999999999900e+03
7.000000000000000666e-02 7.143014999999999226e-01 3.255584999999999951e+01 1.256129999999999995e+02 1.837954999999999927e+03
7.100000000000000755e-02 7.147185000000000343e-01 3.281830000000000069e+01 1.277725000000000080e+02 1.838514999999999873e+03
7.200000000000000844e-02 7.151035000000000030e-01 3.298510000000000275e+01 1.297710000000000150e+02 1.839039999999999964e+03
7.300000000000000933e-02 7.154555000000000220e-01 3.305660000000000309e+01 1.315970000000000084e+02 1.839525000000000091e+03
7.399999999999999634e-02 7.157720000000000748e-01 3.303410000000000224e+01 1.332425000000000068e+02 1.839964999999999918e+03
7.499999999999999722e-02 7.160535000000000094e-01 3.292009999999999792e+01 1.347034999999999911e+02 1.840360000000000127e+03
7.599999999999999811e-02 7.162999999999999368e-01 3.271755000000000280e+01 1.359775000000000205e+02 1.840714999999999918e+03
7.699999999999999900e-02 7.165110000000000090e-01 3.243030000000000257e+01 1.370665000000000191e+02 1.841014999999999873e+03
7.799999999999999989e-02 7.166874999999999218e-01 3.206284999999999741e+01 1.379735000000000014e+02 1.841275000000000091e+03
7.900000000000000078e-02 7.168309999999999960e-01 3.162084999999999724e+01 1.387044999999999959e+02 1.841485000000000127e+03
8.000000000000000167e-02 7.169425000000000381e-01 3.111110000000000042e+01 1.392685000000000173e+02 1.841659999999999854e+03
8.100000000000000255e-02 7.170250000000000234e-01 3.054204999999999970e+01 1.396769999999999925e+02 1.841789999999999964e+03
8.200000000000000344e-02 7.170825000000000671e-01 2.992320000000000135e+01 1.399454999999999814e+02 1.841884999999999991e+03
8.300000000000000433e-02 7.171170000000000044e-01 2.926539999999999964e+01 1.400919999999999845e+02 1.841950000000000045e+03
8.400000000000000522e-02 7.171334999999999793e-01 2.858004999999999995e+01 1.401355000000000075e+02 1.841985000000000127e+03
8.500000000000000611e-02 7.171365000000000656e-01 2.787875000000000014e+01 1.400964999999999918e+02 1.841994999999999891e+03
8.600000000000000699e-02 7.171285000000000576e-01 2.717235000000000156e+01 1.399954999999999927e+02 1.841990000000000009e+03
8.700000000000000788e-02 7.171145000000000991e-01 2.647060000000000102e+01 1.398514999999999873e+02 1.841965000000000146e+03
8.800000000000000877e-02 7.170959999999999557e-01 2.578115000000000023e+01 1.396800000000000068e+02 1.841934999999999945e+03
8.899999999999999578e-02 7.170749999999999069e-01 2.510999999999999943e+01 1.394945000000000164e+02 1.841894999999999982e+03
8.999999999999999667e-02 7.170524999999999816e-01 2.446030000000000015e+01 1.393009999999999877e+02 1.841849999999999909e+03
9.099999999999999756e-02 7.170289999999999164e-01 2.383334999999999937e+01 1.391050000000000182e+02 1.841804999999999836e+03
9.199999999999999845e-02 7.170030000000000570e-01 2.322825000000000273e+01 1.389049999999999727e+02 1.841759999999999991e+03
9.299999999999999933e-02 7.169740000000000002e-01 2.264235000000000042e+01 1.386979999999999791e+02 1.841704999999999927e+03
9.400000000000000022e-02 7.169395000000000628e-01 2.207179999999999964e+01 1.384770000000000039e+02 1.841650000000000091e+03
9.500000000000000111e-02 7.168989999999999529e-01 2.151160000000000139e+01 1.382319999999999993e+02 1.841590000000000146e+03
9.600000000000000200e-02 7.168490000000000695e-01 2.095649999999999835e+01 1.379535000000000196e+02 1.841519999999999982e+03
9.700000000000000289e-02 7.167890000000000095e-01 2.040090000000000003e+01 1.376315000000000168e+02 1.841445000000000164e+03
9.800000000000000377e-02 7.167155000000000609e-01 1.983934999999999960e+01 1.372554999999999836e+02 1.841355000000000018e+03
9.900000000000000466e-02 7.166285000000000016e-01 1.926695000000000135e+01 1.368165000000000191e+02 1.841244999999999891e+03
1.000000000000000056e-01 7.165259999999999962e-01 1.867960000000000065e+01 1.363070000000000164e+02 1.841125000000000000e+03
1.010000000000000064e-01 7.164070000000000160e-01 1.807430000000000092e+01 1.357224999999999966e+02 1.840985000000000127e+03
1.020000000000000073e-01 7.162729999999999375e-01 1.744940000000000069e+01 1.350610000000000070e+02 1.840829999999999927e+03
1.030000000000000082e-01 7.161235000000000239e-01 1.680494999999999806e+01 1.343245000000000005e+02 1.840654999999999973e+03
1.040000000000000091e-01 7.159604999999999997e-01 1.614254999999999995e+01 1.335174999999999841e+02 1.840465000000000146e+03
1.050000000000000100e-01 7.157854999999999634e-01 1.546560000000000024e+01 1.326490000000000009e+02 1.840255000000000109e+03
1.059999999999999970e-01 7.156024999999999192e-01 1.477909999999999968e+01 1.317295000000000016e+02 1.840034999999999854e+03
1.069999999999999979e-01 7.154130000000000766e-01 1.408943000000000012e+01 1.307750000000000057e+02 1.839800000000000182e+03
1.079999999999999988e-01 7.152224999999999833e-01 1.340413500000000013e+01 1.298015000000000043e+02 1.839565000000000055e+03
1.089999999999999997e-01 7.150330000000000297e-01 1.273138499999999951e+01 1.288280000000000030e+02 1.839329999999999927e+03
1.100000000000000006e-01 7.148499999999999854e-01 1.207972499999999982e+01 1.278739999999999952e+02 1.839095000000000027e+03
1.110000000000000014e-01 7.146759999999999780e-01 1.145757500000000029e+01 1.269579999999999984e+02 1.838864999999999782e+03
1.120000000000000023e-01 7.145150000000000112e-01 1.087281000000000120e+01 1.260974999999999966e+02 1.838650000000000091e+03
1.130000000000000032e-01 7.143690000000000317e-01 1.033238000000000056e+01 1.253084999999999951e+02 1.838445000000000164e+03
1.140000000000000041e-01 7.142409999999999037e-01 9.841969999999999885e+00 1.246039999999999992e+02 1.838264999999999873e+03
1.150000000000000050e-01 7.141314999999999191e-01 9.405694999999999695e+00 1.239929999999999950e+02 1.838105000000000018e+03
1.160000000000000059e-01 7.140424999999999134e-01 9.026064999999999117e+00 1.234809999999999945e+02 1.837960000000000036e+03
1.170000000000000068e-01 7.139729999999999688e-01 8.703845000000001164e+00 1.230709999999999980e+02 1.837849999999999909e+03
1.180000000000000077e-01 7.139219999999999455e-01 8.438030000000001252e+00 1.227605000000000075e+02 1.837750000000000000e+03
1.190000000000000085e-01 7.138889999999999958e-01 8.226164999999999949e+00 1.225455000000000041e+02 1.837684999999999945e+03
1.200000000000000094e-01 7.138714999999999922e-01 8.064429999999999765e+00 1.224165000000000134e+02 1.837634999999999991e+03
1.209999999999999964e-01 7.138675000000000992e-01 7.948000000000000398e+00 1.223644999999999925e+02 1.837605000000000018e+03
1.219999999999999973e-01 7.138750000000000373e-01 7.871369999999999756e+00 1.223770000000000095e+02 1.837599999999999909e+03
1.229999999999999982e-01 7.138910000000000533e-01 7.828665000000000873e+00 1.224420000000000073e+02 1.837599999999999909e+03
1.239999999999999991e-01 7.139130000000000198e-01 7.813944999999999474e+00 1.225474999999999994e+02 1.837615000000000009e+03
1.250000000000000000e-01 7.139389999999999903e-01 7.821435000000000137e+00 1.226814999999999998e+02 1.837634999999999991e+03
1.260000000000000009e-01 7.139679999999999360e-01 7.845705000000000595e+00 1.228324999999999960e+02 1.837664999999999964e+03
1.270000000000000018e-01 7.139969999999999928e-01 7.881814999999999571e+00 1.229925000000000068e+02 1.837699999999999818e+03
1.280000000000000027e-01 7.140260000000000495e-01 7.925380000000000535e+00 1.231535000000000082e+02 1.837730000000000018e+03
1.290000000000000036e-01 7.140530000000000488e-01 7.972585000000000477e+00 1.233084999999999951e+02 1.837769999999999982e+03
1.300000000000000044e-01 7.140774999999999206e-01 8.020244999999999180e+00 1.234544999999999959e+02 1.837800000000000182e+03
1.310000000000000053e-01 7.141005000000000269e-01 8.065780000000000172e+00 1.235875000000000057e+02 1.837829999999999927e+03
1.320000000000000062e-01 7.141199999999999770e-01 8.107230000000001269e+00 1.237055000000000007e+02 1.837860000000000127e+03
1.330000000000000071e-01 7.141360000000001040e-01 8.143250000000000099e+00 1.238085000000000093e+02 1.837884999999999991e+03
1.340000000000000080e-01 7.141500000000000625e-01 8.173079999999998790e+00 1.238969999999999914e+02 1.837909999999999854e+03
1.350000000000000089e-01 7.141625000000000334e-01 8.196540000000000603e+00 1.239730000000000132e+02 1.837930000000000064e+03
1.360000000000000098e-01 7.141724999999999879e-01 8.213955000000000339e+00 1.240384999999999991e+02 1.837945000000000164e+03
1.370000000000000107e-01 7.141815000000000246e-01 8.226089999999999236e+00 1.240960000000000036e+02 1.837960000000000036e+03
1.380000000000000115e-01 7.141910000000000203e-01 8.234019999999999229e+00 1.241500000000000057e+02 1.837974999999999909e+03
1.390000000000000124e-01 7.142005000000000159e-01 8.239039999999999253e+00 1.242025000000000006e+02 1.837990000000000009e+03
1.400000000000000133e-01 7.142109999999999292e-01 8.242470000000000852e+00 1.242580000000000098e+02 1.838005000000000109e+03
1.410000000000000142e-01 7.142224999999999824e-01 8.245559999999999334e+00 1.243190000000000026e+02 1.838019999999999982e+03
1.420000000000000151e-01 7.142370000000000108e-01 8.249354999999999549e+00 1.243880000000000052e+02 1.838039999999999964e+03
1.430000000000000160e-01 7.142530000000000268e-01 8.254604999999999748e+00 1.244660000000000082e+02 1.838054999999999836e+03
1.440000000000000169e-01 7.142714999999999481e-01 8.261680000000000135e+00 1.245540000000000020e+02 1.838079999999999927e+03
1.450000000000000178e-01 7.142914999999999681e-01 8.270604999999999762e+00 1.246514999999999986e+02 1.838099999999999909e+03
1.459999999999999909e-01 7.143135000000000456e-01 8.281045000000000655e+00 1.247570000000000050e+02 1.838125000000000000e+03
1.469999999999999918e-01 7.143360000000000820e-01 8.292394999999999072e+00 1.248679999999999950e+02 1.838160000000000082e+03
1.479999999999999927e-01 7.143589999999999662e-01 8.303860000000000241e+00 1.249825000000000017e+02 1.838184999999999945e+03
1.489999999999999936e-01 7.143819999999999615e-01 8.314560000000000173e+00 1.250970000000000084e+02 1.838210000000000036e+03
1.499999999999999944e-01 7.144034999999999691e-01 8.323679999999999524e+00 1.252100000000000080e+02 1.838240000000000009e+03
1.509999999999999953e-01 7.144245000000000179e-01 8.330564999999999998e+00 1.253164999999999907e+02 1.838264999999999873e+03
1.519999999999999962e-01 7.144440000000000790e-01 8.334804999999999353e+00 1.254164999999999992e+02 1.838295000000000073e+03
1.529999999999999971e-01 7.144610000000000127e-01 8.336310000000000997e+00 1.255084999999999980e+02 1.838315000000000055e+03
1.539999999999999980e-01 7.144770000000000287e-01 8.335350000000000037e+00 1.255910000000000082e+02 1.838335000000000036e+03
1.549999999999999989e-01 7.144909999999999872e-01 8.332525000000000404e+00 1.256659999999999968e+02 1.838355000000000018e+03
1.559999999999999998e-01 7.145044999999999868e-01 8.328759999999999053e+00 1.257344999999999970e+02 1.838375000000000000e+03
1.570000000000000007e-01 7.145169999999999577e-01 8.325205000000000410e+00 1.257980000000000018e+02 1.838389999999999873e+03
1.580000000000000016e-01 7.145299999999999985e-01 8.323185000000000500e+00 1.258609999999999900e+02 1.838409999999999854e+03
1.590000000000000024e-01 7.145434999999999981e-01 8.324100000000001387e+00 1.259254999999999995e+02 1.838424999999999955e+03
