# t [s], A [cm^2], U [cm/s], P [cPa], c [cm/s]
1.000000000000000021e-03 1.342685000000000128e-01 2.525950000000000140e-01 1.030049999999999955e+02 1.947809999999999945e+03
2.000000000000000042e-03 1.342409999999999992e-01 1.772585000000000077e+00 9.996004999999999541e+01 1.947505000000000109e+03
3.000000000000000062e-03 1.341485000000000039e-01 3.675035000000000274e+00 9.580004999999999882e+01 1.946530000000000200e+03
4.000000000000000083e-03 1.340129999999999932e-01 5.807037699999999525e+00 9.107510000000000616e+01 1.945134999999999991e+03
5.000000000000000104e-03 1.338590000000000058e-01 8.107509999999999550e+00 8.658490000000000464e+01 1.943554999999999836e+03
6.000000000000000125e-03 1.337039999999999895e-01 1.045340500000000006e+01 8.275149999999999295e+01 1.941994999999999891e+03
7.000000000000000146e-03 1.335564999999999947e-01 1.266017500000000062e+01 7.952965000000000373e+01 1.940519999999999982e+03
8.000000000000000167e-03 1.334184999999999954e-01 1.459218500000000063e+01 7.668205000000000382e+01 1.939164999999999964e+03
9.000000000000001055e-03 1.332924999999999804e-01 1.623454999999999870e+01 7.413200000000000500e+01 1.937950000000000045e+03
1.000000000000000194e-02 1.331819999999999948e-01 1.762375000000000114e+01 7.194755000000000678e+01 1.936894999999999982e+03
1.099999999999999936e-02 1.330884999999999985e-01 1.878330000000000055e+01 7.016209999999999525e+01 1.936009999999999991e+03
1.200000000000000025e-02 1.330105000000000037e-01 1.972820000000000107e+01 6.874830000000000041e+01 1.935284999999999854e+03
1.300000000000000114e-02 1.329484999999999972e-01 2.047119999999999962e+01 6.765335000000000321e+01 1.934704999999999927e+03
1.400000000000000203e-02 1.328980000000000161e-01 2.101725000000000065e+01 6.679510000000000502e+01 1.934255000000000109e+03
1.499999999999999944e-02 1.328580000000000039e-01 2.137720000000000198e+01 6.608234999999999104e+01 1.933894999999999982e+03
1.600000000000000033e-02 1.328245000000000120e-01 2.159825000000000017e+01 6.549764999999999304e+01 1.933610000000000127e+03
1.700000000000000122e-02 1.328020000000000034e-01 2.177530000000000143e+01 6.516394999999999982e+01 1.933414999999999964e+03
1.800000000000000211e-02 1.327919999999999934e-01 2.202299999999999969e+01 6.531110000000001037e+01 1.933345000000000027e+03
1.900000000000000300e-02 1.328014999999999890e-01 2.242600000000000193e+01 6.615115000000000123e+01 1.933445000000000164e+03
2.000000000000000042e-02 1.328324999999999922e-01 2.299909999999999854e+01 6.774439999999999884e+01 1.933744999999999891e+03
2.100000000000000130e-02 1.328830000000000011e-01 2.368059999999999832e+01 6.993659999999999854e+01 1.934224999999999909e+03
2.200000000000000219e-02 1.329464999999999952e-01 2.435624999999999929e+01 7.239359999999999218e+01 1.934835000000000036e+03
2.299999999999999961e-02 1.330135000000000067e-01 2.490099999999999980e+01 7.470615000000000805e+01 1.935490000000000009e+03
2.400000000000000050e-02 1.330755000000000132e-01 2.521914999999999907e+01 7.651585000000000036e+01 1.936095000000000027e+03
2.500000000000000139e-02 1.331240000000000201e-01 2.526964999999999861e+01 7.761260000000000048e+01 1.936579999999999927e+03
2.600000000000000228e-02 1.331554999999999822e-01 2.507099999999999795e+01 7.797549999999999670e+01 1.936904999999999973e+03
2.700000000000000316e-02 1.331704999999999972e-01 2.468659999999999854e+01 7.775059999999999150e+01 1.937075000000000045e+03
2.800000000000000058e-02 1.331735000000000002e-01 2.419845000000000113e+01 7.718029999999998836e+01 1.937115000000000009e+03
2.900000000000000147e-02 1.331674999999999942e-01 2.367925000000000324e+01 7.651470000000000482e+01 1.937075000000000045e+03
3.000000000000000236e-02 1.331589999999999996e-01 2.317239999999999966e+01 7.593510000000000559e+01 1.936994999999999891e+03
3.099999999999999978e-02 1.331505000000000050e-01 2.268505000000000038e+01 7.551275000000001114e+01 1.936920000000000073e+03
3.200000000000000067e-02 1.331439999999999846e-01 2.219399999999999906e+01 7.520945000000000391e+01 1.936849999999999909e+03
3.300000000000000155e-02 1.331360000000000043e-01 2.166025000000000134e+01 7.491239999999999100e+01 1.936779999999999973e+03
3.400000000000000244e-02 1.331255000000000077e-01 2.104759999999999920e+01 7.448865000000000691e+01 1.936684999999999945e+03
3.500000000000000333e-02 1.331105000000000205e-01 2.033905000000000030e+01 7.384080000000000155e+01 1.936545000000000073e+03
3.600000000000000422e-02 1.330884999999999985e-01 1.954699999999999704e+01 7.294825000000000159e+01 1.936340000000000146e+03
3.700000000000000511e-02 1.330614999999999992e-01 1.871424999999999983e+01 7.188405000000000200e+01 1.936089999999999918e+03
3.799999999999999906e-02 1.330314999999999970e-01 1.790709999999999980e+01 7.080304999999999893e+01 1.935804999999999836e+03
3.899999999999999994e-02 1.330029999999999824e-01 1.720025000000000048e+01 6.990565000000000850e+01 1.935535000000000082e+03
4.000000000000000083e-02 1.329810000000000159e-01 1.666000000000000014e+01 6.938795000000000357e+01 1.935325000000000045e+03
4.100000000000000172e-02 1.329704999999999915e-01 1.632935000000000159e+01 6.939324999999999477e+01 1.935210000000000036e+03
4.200000000000000261e-02 1.329739999999999811e-01 1.621865000000000023e+01 6.997630000000000905e+01 1.935230000000000018e+03
4.300000000000000350e-02 1.329925000000000135e-01 1.630405000000000015e+01 7.109049999999999159e+01 1.935394999999999982e+03
4.400000000000000439e-02 1.330244999999999900e-01 1.653235000000000099e+01 7.259725000000000250e+01 1.935684999999999945e+03
4.499999999999999833e-02 1.330655000000000032e-01 1.683174999999999955e+01 7.429314999999999714e+01 1.936070000000000164e+03
4.599999999999999922e-02 1.331109999999999793e-01 1.712359999999999971e+01 7.594724999999999682e+01 1.936494999999999891e+03
4.700000000000000011e-02 1.331545000000000090e-01 1.733445000000000036e+01 7.733889999999999532e+01 1.936909999999999854e+03
4.800000000000000100e-02 1.331910000000000038e-01 1.740480000000000160e+01 7.828919999999999391e+01 1.937259999999999991e+03
4.900000000000000189e-02 1.332154999999999867e-01 1.729465000000000074e+01 7.868064999999999998e+01 1.937505000000000109e+03
5.000000000000000278e-02 1.332249999999999823e-01 1.698474999999999824e+01 7.846410000000000196e+01 1.937605000000000018e+03
5.100000000000000366e-02 1.332190000000000041e-01 1.647484999999999999e+01 7.765350000000000819e+01 1.937554999999999836e+03
5.200000000000000455e-02 1.331959999999999811e-01 1.577950000000000053e+01 7.631219999999999004e+01 1.937349999999999909e+03
5.300000000000000544e-02 1.331589999999999996e-01 1.492310000000000159e+01 7.453475000000000250e+01 1.937000000000000000e+03
5.399999999999999939e-02 1.331090000000000051e-01 1.393485000000000085e+01 7.242900000000000205e+01 1.936529999999999973e+03
5.500000000000000028e-02 1.330479999999999996e-01 1.284560000000000102e+01 7.010134999999999650e+01 1.935960000000000036e+03
5.600000000000000117e-02 1.329810000000000159e-01 1.168532499999999885e+01 6.764764999999999873e+01 1.935315000000000055e+03
5.700000000000000205e-02 1.329079999999999984e-01 1.048262500000000053e+01 6.514939999999999998e+01 1.934619999999999891e+03
5.800000000000000294e-02 1.328324999999999922e-01 9.265080000000001093e+00 6.267520000000000380e+01 1.933905000000000200e+03
5.900000000000000383e-02 1.327575000000000005e-01 8.060190000000000410e+00 6.028470000000000084e+01 1.933179999999999836e+03
6.000000000000000472e-02 1.326835000000000098e-01 6.896544999999999703e+00 5.803359999999999985e+01 1.932469999999999800e+03
6.099999999999999867e-02 1.326124999999999943e-01 5.804149999999999920e+00 5.597825000000000273e+01 1.931795000000000073e+03
6.199999999999999956e-02 1.325469999999999982e-01 4.814569999999999794e+00 5.417794999999999561e+01 1.931164999999999964e+03
6.300000000000000044e-02 1.324895000000000100e-01 3.960115000000000052e+00 5.269489999999999696e+01 1.930610000000000127e+03
6.400000000000000133e-02 1.324414999999999898e-01 3.272400000000000198e+00 5.159239999999999782e+01 1.930134999999999991e+03
6.500000000000000222e-02 1.324049999999999949e-01 2.780539999999999790e+00 5.093035000000000423e+01 1.929769999999999982e+03
6.600000000000000311e-02 1.323809999999999987e-01 2.509260000000000268e+00 5.076050000000000040e+01 1.929539999999999964e+03
6.700000000000000400e-02 1.323729999999999907e-01 2.477079999999999949e+00 5.112165000000000248e+01 1.929440000000000055e+03
6.800000000000000488e-02 1.323805000000000121e-01 2.694964999999999833e+00 5.203539999999999566e+01 1.929494999999999891e+03
6.900000000000000577e-02 1.324044999999999805e-01 3.165554999999999897e+00 5.350384999999999991e+01 1.929710000000000036e+03
7.000000000000000666e-02 1.324460000000000082e-01 3.882995000000000196e+00 5.550889999999999702e+01 1.930085000000000036e+03
7.100000000000000755e-02 1.325040000000000107e-01 4.833350000000000257e+00 5.801310000000000144e+01 1.930615000000000009e+03
7.200000000000000844e-02 1.325765000000000138e-01 5.995570000000000732e+00 6.096235000000000070e+01 1.931295000000000073e+03
7.300000000000000933e-02 1.326634999999999898e-01 7.342750000000000554e+00 6.428960000000000719e+01 1.932115000000000009e+03
7.399999999999999634e-02 1.327629999999999921e-01 8.843730000000000757e+00 6.791894999999999527e+01 1.933049999999999955e+03
7.499999999999999722e-02 1.328719999999999901e-01 1.046472999999999942e+01 7.177035000000000764e+01 1.934089999999999918e+03
7.599999999999999811e-02 1.329889999999999961e-01 1.217091500000000082e+01 7.576390000000000668e+01 1.935200000000000045e+03
7.699999999999999900e-02 1.331110000000000071e-01 1.392815000000000047e+01 7.982415000000000305e+01 1.936369999999999891e+03
7.799999999999999989e-02 1.332369999999999943e-01 1.570439999999999969e+01 8.388344999999999629e+01 1.937569999999999936e+03
7.900000000000000078e-02 1.333634999999999959e-01 1.747095000000000198e+01 8.788474999999999682e+01 1.938795000000000073e+03
8.000000000000000167e-02 1.334894999999999832e-01 1.920350000000000179e+01 9.178399999999999181e+01 1.940009999999999991e+03
8.100000000000000255e-02 1.336134999999999962e-01 2.088264999999999816e+01 9.555089999999999861e+01 1.941214999999999918e+03
8.200000000000000344e-02 1.337349999999999928e-01 2.249435000000000073e+01 9.916839999999999122e+01 1.942389999999999873e+03
8.300000000000000433e-02 1.338524999999999854e-01 2.402965000000000018e+01 1.026333000000000055e+02 1.943534999999999854e+03
8.400000000000000522e-02 1.339664999999999884e-01 2.548449999999999704e+01 1.059526500000000055e+02 1.944650000000000091e+03
8.500000000000000611e-02 1.340764999999999874e-01 2.685869999999999891e+01 1.091424999999999983e+02 1.945730000000000018e+03
8.600000000000000699e-02 1.341835000000000111e-01 2.815530000000000044e+01 1.122255000000000109e+02 1.946769999999999982e+03
8.700000000000000788e-02 1.342869999999999897e-01 2.937944999999999851e+01 1.152240000000000038e+02 1.947789999999999964e+03
8.800000000000000877e-02 1.343884999999999941e-01 3.053734999999999999e+01 1.181630000000000109e+02 1.948789999999999964e+03
8.899999999999999578e-02 1.344885000000000108e-01 3.163510000000000133e+01 1.210625000000000000e+02 1.949769999999999982e+03
8.999999999999999667e-02 1.345870000000000122e-01 3.267839999999999634e+01 1.239385000000000048e+02 1.950740000000000009e+03
9.099999999999999756e-02 1.346844999999999848e-01 3.367154999999999632e+01 1.268004999999999995e+02 1.951704999999999927e+03
9.199999999999999845e-02 1.347809999999999842e-01 3.461724999999999852e+01 1.296510000000000105e+02 1.952655000000000200e+03
9.299999999999999933e-02 1.348774999999999835e-01 3.551624999999999943e+01 1.324859999999999900e+02 1.953605000000000018e+03
9.400000000000000022e-02 1.349730000000000096e-01 3.636740000000000350e+01 1.352959999999999923e+02 1.954549999999999955e+03
9.500000000000000111e-02 1.350675000000000070e-01 3.716785000000000139e+01 1.380645000000000095e+02 1.955480000000000018e+03
9.600000000000000200e-02 1.351605000000000167e-01 3.791329999999999956e+01 1.407735000000000127e+02 1.956400000000000091e+03
9.700000000000000289e-02 1.352515000000000245e-01 3.859790000000000276e+01 1.434004999999999939e+02 1.957299999999999955e+03
9.800000000000000377e-02 1.353395000000000015e-01 3.921514999999999418e+01 1.459205000000000041e+02 1.958175000000000182e+03
9.900000000000000466e-02 1.354249999999999898e-01 3.975789999999999935e+01 1.483104999999999905e+02 1.959019999999999982e+03
1.000000000000000056e-01 1.355055000000000009e-01 4.021885000000000332e+01 1.505449999999999875e+02 1.959819999999999936e+03
1.010000000000000064e-01 1.355814999999999937e-01 4.059074999999999989e+01 1.526030000000000086e+02 1.960575000000000045e+03
1.020000000000000073e-01 1.356519999999999948e-01 4.086705000000000609e+01 1.544630000000000223e+02 1.961279999999999973e+03
1.030000000000000082e-01 1.357165000000000177e-01 4.104189999999999827e+01 1.561084999999999923e+02 1.961925000000000182e+03
1.040000000000000091e-01 1.357740000000000058e-01 4.111069999999999425e+01 1.575254999999999939e+02 1.962494999999999891e+03
1.050000000000000100e-01 1.358240000000000003e-01 4.107025000000000148e+01 1.587035000000000196e+02 1.963005000000000109e+03
1.059999999999999970e-01 1.358675000000000022e-01 4.091910000000000025e+01 1.596380000000000052e+02 1.963440000000000055e+03
1.069999999999999979e-01 1.359029999999999960e-01 4.065769999999999840e+01 1.603274999999999864e+02 1.963795000000000073e+03
1.079999999999999988e-01 1.359299999999999953e-01 4.028855000000000075e+01 1.607764999999999986e+02 1.964085000000000036e+03
1.089999999999999997e-01 1.359505000000000019e-01 3.981634999999999991e+01 1.609950000000000045e+02 1.964284999999999854e+03
1.100000000000000006e-01 1.359624999999999861e-01 3.924769999999999470e+01 1.609964999999999975e+02 1.964424999999999955e+03
1.110000000000000014e-01 1.359684999999999921e-01 3.859100000000000108e+01 1.607989999999999782e+02 1.964490000000000009e+03
1.120000000000000023e-01 1.359680000000000055e-01 3.785660000000000025e+01 1.604250000000000114e+02 1.964490000000000009e+03
1.130000000000000032e-01 1.359609999999999985e-01 3.705580000000000496e+01 1.598985000000000127e+02 1.964430000000000064e+03
1.140000000000000041e-01 1.359489999999999865e-01 3.620090000000000430e+01 1.592465000000000259e+02 1.964325000000000045e+03
1.150000000000000050e-01 1.359334999999999849e-01 3.530474999999999852e+01 1.584954999999999927e+02 1.964170000000000073e+03
1.160000000000000059e-01 1.359134999999999927e-01 3.437995000000000090e+01 1.576719999999999970e+02 1.963985000000000127e+03
1.170000000000000068e-01 1.358914999999999984e-01 3.343909999999999627e+01 1.568019999999999925e+02 1.963764999999999873e+03
1.180000000000000077e-01 1.358665000000000012e-01 3.249360000000000070e+01 1.559074999999999989e+02 1.963530000000000200e+03
1.190000000000000085e-01 1.358415000000000039e-01 3.155395000000000039e+01 1.550084999999999980e+02 1.963280000000000200e+03
1.200000000000000094e-01 1.358150000000000190e-01 3.062899999999999778e+01 1.541220000000000141e+02 1.963019999999999982e+03
1.209999999999999964e-01 1.357880000000000198e-01 2.972619999999999862e+01 1.532599999999999909e+02 1.962759999999999991e+03
1.219999999999999973e-01 1.357619999999999938e-01 2.885105000000000075e+01 1.524314999999999998e+02 1.962500000000000000e+03
1.229999999999999982e-01 1.357360000000000233e-01 2.800724999999999909e+01 1.516394999999999982e+02 1.962244999999999891e+03
1.239999999999999991e-01 1.357115000000000127e-01 2.719664999999999822e+01 1.508854999999999791e+02 1.961994999999999891e+03
1.250000000000000000e-01 1.356870000000000021e-01 2.641935000000000144e+01 1.501659999999999968e+02 1.961755000000000109e+03
1.260000000000000009e-01 1.356640000000000068e-01 2.567370000000000019e+01 1.494739999999999895e+02 1.961519999999999982e+03
1.270000000000000018e-01 1.356404999999999972e-01 2.495669999999999789e+01 1.488004999999999995e+02 1.961295000000000073e+03
1.280000000000000027e-01 1.356180000000000163e-01 2.426409999999999911e+01 1.481329999999999814e+02 1.961070000000000164e+03
1.290000000000000036e-01 1.355959999999999943e-01 2.359049999999999869e+01 1.474594999999999914e+02 1.960845000000000027e+03
1.300000000000000044e-01 1.355735000000000134e-01 2.293019999999999925e+01 1.467644999999999982e+02 1.960615000000000009e+03
1.310000000000000053e-01 1.355500000000000038e-01 2.227700000000000102e+01 1.460349999999999966e+02 1.960384999999999991e+03
1.320000000000000062e-01 1.355250000000000066e-01 2.162454999999999927e+01 1.452579999999999814e+02 1.960139999999999873e+03
1.330000000000000071e-01 1.354990000000000083e-01 2.096705000000000041e+01 1.444194999999999993e+02 1.959884999999999991e+03
1.340000000000000080e-01 1.354715000000000225e-01 2.029935000000000045e+01 1.435105000000000075e+02 1.959605000000000018e+03
1.350000000000000089e-01 1.354410000000000058e-01 1.961694999999999922e+01 1.425235000000000127e+02 1.959309999999999945e+03
1.360000000000000098e-01 1.354090000000000016e-01 1.891669999999999874e+01 1.414530000000000030e+02 1.958990000000000009e+03
1.370000000000000107e-01 1.353739999999999943e-01 1.819675000000000153e+01 1.402975000000000136e+02 1.958644999999999982e+03
1.380000000000000115e-01 1.353364999999999985e-01 1.745659999999999812e+01 1.390595000000000141e+02 1.958279999999999973e+03
1.390000000000000124e-01 1.352964999999999862e-01 1.669740000000000180e+01 1.377439999999999998e+02 1.957885000000000218e+03
1.400000000000000133e-01 1.352544999999999997e-01 1.592180000000000106e+01 1.363605000000000018e+02 1.957470000000000027e+03
1.410000000000000142e-01 1.352099999999999969e-01 1.513379999999999903e+01 1.349209999999999923e+02 1.957034999999999854e+03
1.420000000000000151e-01 1.351634999999999920e-01 1.433885000000000076e+01 1.334399999999999977e+02 1.956579999999999927e+03
1.430000000000000160e-01 1.351160000000000139e-01 1.354350000000000165e+01 1.319360000000000070e+02 1.956115000000000009e+03
1.440000000000000169e-01 1.350675000000000070e-01 1.275499999999999901e+01 1.304265000000000043e+02 1.955644999999999982e+03
1.450000000000000178e-01 1.350190000000000001e-01 1.198157999999999923e+01 1.289325000000000045e+02 1.955164999999999964e+03
1.459999999999999909e-01 1.349704999999999933e-01 1.123133999999999943e+01 1.274745000000000061e+02 1.954695000000000164e+03
1.469999999999999918e-01 1.349235000000000018e-01 1.051240999999999914e+01 1.260700000000000074e+02 1.954224999999999909e+03
1.479999999999999927e-01 1.348779999999999979e-01 9.832644999999999413e+00 1.247390000000000043e+02 1.953775000000000091e+03
1.489999999999999936e-01 1.348344999999999960e-01 9.199079999999998591e+00 1.234960000000000093e+02 1.953345000000000027e+03
1.499999999999999944e-01 1.347929999999999962e-01 8.617765000000000342e+00 1.223555000000000064e+02 1.952940000000000055e+03
1.509999999999999953e-01 1.347550000000000137e-01 8.093679999999999097e+00 1.213264999999999958e+02 1.952559999999999945e+03
1.519999999999999962e-01 1.347200000000000064e-01 7.630399999999999849e+00 1.204174999999999898e+02 1.952215000000000146e+03
1.529999999999999971e-01 1.346890000000000032e-01 7.230119999999999436e+00 1.196310000000000002e+02 1.951909999999999854e+03
1.539999999999999980e-01 1.346614999999999895e-01 6.893610000000000682e+00 1.189675000000000011e+02 1.951630000000000109e+03
1.549999999999999989e-01 1.346379999999999799e-01 6.620224999999999582e+00 1.184244999999999948e+02 1.951394999999999982e+03
1.559999999999999998e-01 1.346175000000000010e-01 6.408030000000000115e+00 1.179964999999999975e+02 1.951190000000000055e+03
1.570000000000000007e-01 1.346009999999999984e-01 6.253940000000000055e+00 1.176754999999999995e+02 1.951019999999999982e+03
1.580000000000000016e-01 1.345875000000000266e-01 6.153834999999999944e+00 1.174515000000000100e+02 1.950884999999999991e+03
1.590000000000000024e-01 1.345780000000000032e-01 6.102819999999999467e+00 1.173135000000000048e+02 1.950779999999999973e+03
