# t [s], A [cm^2], U [cm/s], P [cPa], c [cm/s]
1.000000000000000021e-03 5.054624999999999257e-01 5.278800000000000159e-03 1.076520000000000010e+02 1.547110000000000127e+03
2.000000000000000042e-03 5.054535000000000000e-01 -2.376731999999999890e-03 1.076285000000000025e+02 1.547105000000000018e+03
3.000000000000000062e-03 5.054864999999999498e-01 6.356839999999999713e-02 1.076964999999999861e+02 1.547125000000000000e+03
4.000000000000000083e-03 5.055309999999999526e-01 1.578803000000000012e-01 1.078139999999999930e+02 1.547150000000000091e+03
5.000000000000000104e-03 5.055290000000000061e-01 1.671799999999999953e-01 1.078174999999999955e+02 1.547159999999999854e+03
6.000000000000000125e-03 5.054845000000000033e-01 8.962849999999999984e-02 1.076680000000000064e+02 1.547125000000000000e+03
7.000000000000000146e-03 5.054419999999999469e-01 1.044049999999996370e-02 1.074549999999999983e+02 1.547079999999999927e+03
8.000000000000000167e-03 5.053935000000000510e-01 -8.739849999999999008e-02 1.071769999999999925e+02 1.547014999999999873e+03
9.000000000000001055e-03 5.053104999999999958e-01 -2.720150000000000068e-01 1.067519999999999953e+02 1.546924999999999955e+03
1.000000000000000194e-02 5.051839999999999664e-01 -5.585700000000001220e-01 1.061345000000000027e+02 1.546785000000000082e+03
1.099999999999999936e-02 5.050095000000000001e-01 -9.524500000000000188e-01 1.052864999999999895e+02 1.546595000000000027e+03
1.200000000000000025e-02 5.047719999999999985e-01 -1.470975000000000144e+00 1.041525000000000034e+02 1.546335000000000036e+03
1.300000000000000114e-02 5.044724999999999904e-01 -2.098530000000000229e+00 1.027114500000000135e+02 1.546000000000000000e+03
1.400000000000000203e-02 5.041370000000000573e-01 -2.754660000000000331e+00 1.010289999999999964e+02 1.545599999999999909e+03
1.499999999999999944e-02 5.038084999999999924e-01 -3.318595000000000184e+00 9.924564999999999770e+01 1.545160000000000082e+03
1.600000000000000033e-02 5.035239999999999716e-01 -3.683048000000000322e+00 9.751619999999999777e+01 1.544710000000000036e+03
1.700000000000000122e-02 5.032959999999999656e-01 -3.793413499999999772e+00 9.594950000000000045e+01 1.544284999999999854e+03
1.800000000000000211e-02 5.031155000000000488e-01 -3.655832150000000169e+00 9.457820000000000960e+01 1.543889999999999873e+03
1.900000000000000300e-02 5.029585000000000861e-01 -3.321709499999999871e+00 9.336609999999998877e+01 1.543519999999999982e+03
2.000000000000000042e-02 5.027960000000000207e-01 -2.862199500000000008e+00 9.223320000000001073e+01 1.543159999999999854e+03
2.100000000000000130e-02 5.026055000000000383e-01 -2.342991000000000046e+00 9.108944999999999936e+01 1.542804999999999836e+03
2.200000000000000219e-02 5.023765000000000036e-01 -1.805940000000000101e+00 8.986589999999999634e+01 1.542430000000000064e+03
2.299999999999999961e-02 5.021120000000000028e-01 -1.261800000000000033e+00 8.853395000000000437e+01 1.542030000000000200e+03
2.400000000000000050e-02 5.018245000000000067e-01 -6.953800000000001091e-01 8.710775000000001000e+01 1.541610000000000127e+03
2.500000000000000139e-02 5.015309999999999491e-01 -8.018999999999998352e-02 8.563110000000000355e+01 1.541174999999999955e+03
2.600000000000000228e-02 5.012434999999999530e-01 6.041150000000001796e-01 8.415434999999999377e+01 1.540735000000000127e+03
2.700000000000000316e-02 5.009679999999999689e-01 1.358095000000000274e+00 8.271254999999999313e+01 1.540299999999999955e+03
2.800000000000000058e-02 5.006994999999999640e-01 2.156600000000000072e+00 8.131020000000000891e+01 1.539875000000000000e+03
2.900000000000000147e-02 5.004250000000000087e-01 2.951004999999999878e+00 7.991724999999999568e+01 1.539449999999999818e+03
3.000000000000000236e-02 5.001265000000000294e-01 3.677890000000000104e+00 7.847440000000000282e+01 1.539014999999999873e+03
3.099999999999999978e-02 4.997854999999999936e-01 4.271535000000000082e+00 7.690774999999999295e+01 1.538555000000000064e+03
3.200000000000000067e-02 4.993874999999999842e-01 4.677484999999999893e+00 7.514674999999999727e+01 1.538054999999999836e+03
3.300000000000000155e-02 4.989284999999999970e-01 4.863904999999999923e+00 7.314305000000000234e+01 1.537505000000000109e+03
3.400000000000000244e-02 4.984119999999999662e-01 4.828084999999999738e+00 7.088509999999999422e+01 1.536900000000000091e+03
3.500000000000000333e-02 4.978534999999999489e-01 4.596695000000000420e+00 6.840434999999999377e+01 1.536240000000000009e+03
3.600000000000000422e-02 4.972750000000000226e-01 4.219345000000000567e+00 6.577179999999999893e+01 1.535545000000000073e+03
3.700000000000000511e-02 4.967019999999999769e-01 3.758480000000000043e+00 6.308715000000000117e+01 1.534825000000000045e+03
3.799999999999999906e-02 4.961585000000000578e-01 3.278269999999999573e+00 6.046320000000000050e+01 1.534119999999999891e+03
3.899999999999999994e-02 4.956659999999999955e-01 2.835540000000000393e+00 5.801069999999999993e+01 1.533450000000000045e+03
4.000000000000000083e-02 4.952400000000000135e-01 2.474604999999999944e+00 5.582604999999999507e+01 1.532835000000000036e+03
4.100000000000000172e-02 4.948905000000000109e-01 2.224914999999999754e+00 5.398359999999999559e+01 1.532300000000000182e+03
4.200000000000000261e-02 4.946224999999999650e-01 2.102689999999999948e+00 5.253269999999999840e+01 1.531855000000000018e+03
4.300000000000000350e-02 4.944365000000000010e-01 2.113920000000000243e+00 5.149915000000000020e+01 1.531519999999999982e+03
4.400000000000000439e-02 4.943305000000000060e-01 2.258459999999999912e+00 5.088930000000000575e+01 1.531289999999999964e+03
4.499999999999999833e-02 4.943020000000000191e-01 2.533994999999999997e+00 5.069604999999999961e+01 1.531170000000000073e+03
4.599999999999999922e-02 4.943469999999999809e-01 2.938909999999999911e+00 5.090465000000000373e+01 1.531155000000000200e+03
4.700000000000000011e-02 4.944644999999999735e-01 3.473730000000000206e+00 5.149734999999999729e+01 1.531255000000000109e+03
4.800000000000000100e-02 4.946510000000000074e-01 4.140874999999999417e+00 5.245624999999999716e+01 1.531450000000000045e+03
4.900000000000000189e-02 4.949049999999999838e-01 4.943230000000000679e+00 5.376390000000000668e+01 1.531740000000000009e+03
5.000000000000000278e-02 4.952245000000000119e-01 5.881920000000000037e+00 5.540214999999999890e+01 1.532125000000000000e+03
5.100000000000000366e-02 4.956049999999999622e-01 6.954295000000000115e+00 5.735014999999999930e+01 1.532595000000000027e+03
5.200000000000000455e-02 4.960410000000000097e-01 8.152115000000000222e+00 5.958220000000000027e+01 1.533150000000000091e+03
5.300000000000000544e-02 4.965249999999999941e-01 9.461269999999998959e+00 6.206655000000000655e+01 1.533775000000000091e+03
5.399999999999999939e-02 4.970494999999999775e-01 1.086203499999999877e+01 6.476484999999999559e+01 1.534465000000000146e+03
5.500000000000000028e-02 4.976039999999999908e-01 1.233020000000000138e+01 6.763309999999999889e+01 1.535210000000000036e+03
5.600000000000000117e-02 4.981784999999999686e-01 1.383902999999999928e+01 7.062359999999999616e+01 1.535994999999999891e+03
5.700000000000000205e-02 4.987634999999999708e-01 1.536141499999999915e+01 7.368764999999999077e+01 1.536804999999999836e+03
5.800000000000000294e-02 4.993495000000000017e-01 1.687141000000000091e+01 7.677814999999999657e+01 1.537634999999999991e+03
5.900000000000000383e-02 4.999290000000000678e-01 1.834635000000000105e+01 7.985265000000001123e+01 1.538470000000000027e+03
6.000000000000000472e-02 5.004960000000000520e-01 1.976745000000000019e+01 8.287529999999999575e+01 1.539300000000000182e+03
6.099999999999999867e-02 5.010470000000000201e-01 2.112075000000000102e+01 8.581835000000000946e+01 1.540125000000000000e+03
6.199999999999999956e-02 5.015789999999999971e-01 2.239699999999999847e+01 8.866290000000000759e+01 1.540925000000000182e+03
6.300000000000000044e-02 5.020909999999999540e-01 2.359114999999999895e+01 9.139859999999998763e+01 1.541700000000000045e+03
6.400000000000000133e-02 5.025840000000000307e-01 2.470199999999999818e+01 9.402344999999999686e+01 1.542454999999999927e+03
6.500000000000000222e-02 5.030590000000000339e-01 2.573109999999999786e+01 9.654080000000000439e+01 1.543190000000000055e+03
6.600000000000000311e-02 5.035190000000000499e-01 2.668224999999999980e+01 9.896049999999999613e+01 1.543889999999999873e+03
6.700000000000000400e-02 5.039660000000000251e-01 2.756070000000000064e+01 1.012952999999999975e+02 1.544570000000000164e+03
6.800000000000000488e-02 5.044030000000000458e-01 2.837225000000000108e+01 1.035590499999999992e+02 1.545234999999999900e+03
6.900000000000000577e-02 5.048329999999999762e-01 2.912295000000000300e+01 1.057669999999999959e+02 1.545884999999999991e+03
7.000000000000000666e-02 5.052570000000000672e-01 2.981835000000000235e+01 1.079319999999999879e+02 1.546514999999999873e+03
7.100000000000000755e-02 5.056780000000000719e-01 3.046300000000000097e+01 1.100660000000000025e+02 1.547144999999999982e+03
7.200000000000000844e-02 5.060955000000000314e-01 3.106034999999999968e+01 1.121769999999999925e+02 1.547759999999999991e+03
7.300000000000000933e-02 5.065115000000000034e-01 3.161214999999999975e+01 1.142674999999999983e+02 1.548375000000000000e+03
7.399999999999999634e-02 5.069234999999999713e-01 3.211849999999999739e+01 1.163375000000000057e+02 1.548980000000000018e+03
7.499999999999999722e-02 5.073309999999999764e-01 3.257795000000000130e+01 1.183820000000000050e+02 1.549579999999999927e+03
7.599999999999999811e-02 5.077304999999999735e-01 3.298749999999999716e+01 1.203915000000000077e+02 1.550164999999999964e+03
7.699999999999999900e-02 5.081204999999999750e-01 3.334295000000000186e+01 1.223530000000000086e+02 1.550744999999999891e+03
7.799999999999999989e-02 5.084969999999999768e-01 3.363939999999999486e+01 1.242520000000000095e+02 1.551304999999999836e+03
7.900000000000000078e-02 5.088570000000000038e-01 3.387175000000000580e+01 1.260699999999999932e+02 1.551845000000000027e+03
8.000000000000000167e-02 5.091965000000000519e-01 3.403490000000000038e+01 1.277915000000000134e+02 1.552355000000000018e+03
8.100000000000000255e-02 5.095140000000000224e-01 3.412425000000000352e+01 1.293990000000000009e+02 1.552840000000000146e+03
8.200000000000000344e-02 5.098050000000000637e-01 3.413629999999999853e+01 1.308774999999999977e+02 1.553295000000000073e+03
8.300000000000000433e-02 5.100675000000000070e-01 3.406834999999999525e+01 1.322135000000000105e+02 1.553704999999999927e+03
8.400000000000000522e-02 5.103010000000000046e-01 3.391904999999999859e+01 1.333975000000000080e+02 1.554085000000000036e+03
8.500000000000000611e-02 5.105029999999999291e-01 3.368824999999999648e+01 1.344219999999999970e+02 1.554410000000000082e+03
8.600000000000000699e-02 5.106739999999999613e-01 3.337740000000000151e+01 1.352835000000000036e+02 1.554700000000000045e+03
8.700000000000000788e-02 5.108135000000000314e-01 3.298895000000000266e+01 1.359809999999999945e+02 1.554934999999999945e+03
8.800000000000000877e-02 5.109225000000000572e-01 3.252684999999999604e+01 1.365169999999999959e+02 1.555134999999999991e+03
8.899999999999999578e-02 5.110025000000000261e-01 3.199620000000000175e+01 1.368985000000000127e+02 1.555279999999999973e+03
8.999999999999999667e-02 5.110544999999999671e-01 3.140315000000000012e+01 1.371315000000000168e+02 1.555384999999999991e+03
9.099999999999999756e-02 5.110804999999999376e-01 3.075515000000000043e+01 1.372280000000000086e+02 1.555460000000000036e+03
9.199999999999999845e-02 5.110839999999999828e-01 3.006009999999999849e+01 1.372009999999999934e+02 1.555490000000000009e+03
9.299999999999999933e-02 5.110670000000000490e-01 2.932690000000000197e+01 1.370645000000000095e+02 1.555485000000000127e+03
9.400000000000000022e-02 5.110330000000000705e-01 2.856479999999999819e+01 1.368349999999999795e+02 1.555454999999999927e+03
9.500000000000000111e-02 5.109844999999999526e-01 2.778330000000000410e+01 1.365280000000000200e+02 1.555400000000000091e+03
9.600000000000000200e-02 5.109255000000000324e-01 2.699170000000000158e+01 1.361610000000000014e+02 1.555319999999999936e+03
9.700000000000000289e-02 5.108584999999999932e-01 2.619910000000000139e+01 1.357495000000000118e+02 1.555224999999999909e+03
9.800000000000000377e-02 5.107865000000000322e-01 2.541369999999999862e+01 1.353089999999999975e+02 1.555119999999999891e+03
9.900000000000000466e-02 5.107114999999999849e-01 2.464284999999999926e+01 1.348544999999999732e+02 1.555005000000000109e+03
1.000000000000000056e-01 5.106359999999999788e-01 2.389244999999999663e+01 1.343969999999999914e+02 1.554884999999999991e+03
1.010000000000000064e-01 5.105619999999999603e-01 2.316720000000000113e+01 1.339454999999999814e+02 1.554759999999999991e+03
1.020000000000000073e-01 5.104899999999999993e-01 2.246995000000000076e+01 1.335084999999999980e+02 1.554640000000000100e+03
1.030000000000000082e-01 5.104199999999999848e-01 2.180219999999999914e+01 1.330889999999999986e+02 1.554519999999999982e+03
1.040000000000000091e-01 5.103530000000000566e-01 2.116369999999999862e+01 1.326895000000000095e+02 1.554409999999999854e+03
1.050000000000000100e-01 5.102885000000000337e-01 2.055279999999999774e+01 1.323075000000000045e+02 1.554295000000000073e+03
1.059999999999999970e-01 5.102250000000000396e-01 1.996669999999999945e+01 1.319410000000000025e+02 1.554184999999999945e+03
1.069999999999999979e-01 5.101609999999999756e-01 1.940140000000000242e+01 1.315829999999999984e+02 1.554079999999999927e+03
1.079999999999999988e-01 5.100965000000000638e-01 1.885229999999999961e+01 1.312274999999999920e+02 1.553974999999999909e+03
1.089999999999999997e-01 5.100290000000000656e-01 1.831419999999999959e+01 1.308670000000000186e+02 1.553869999999999891e+03
1.100000000000000006e-01 5.099569999999999936e-01 1.778180000000000049e+01 1.304925000000000068e+02 1.553759999999999991e+03
1.110000000000000014e-01 5.098789999999999711e-01 1.724985000000000213e+01 1.300960000000000036e+02 1.553639999999999873e+03
1.120000000000000023e-01 5.097940000000000804e-01 1.671340000000000003e+01 1.296694999999999993e+02 1.553519999999999982e+03
1.130000000000000032e-01 5.097009999999999597e-01 1.616809999999999903e+01 1.292069999999999936e+02 1.553389999999999873e+03
1.140000000000000041e-01 5.095985000000000653e-01 1.561025000000000063e+01 1.287025000000000148e+02 1.553250000000000000e+03
1.150000000000000050e-01 5.094864999999999533e-01 1.503725000000000023e+01 1.281525000000000034e+02 1.553099999999999909e+03
1.160000000000000059e-01 5.093650000000000677e-01 1.444739999999999824e+01 1.275550000000000068e+02 1.552934999999999945e+03
1.170000000000000068e-01 5.092339999999999645e-01 1.384032000000000018e+01 1.269110000000000014e+02 1.552755000000000109e+03
1.180000000000000077e-01 5.090939999999999355e-01 1.321649999999999991e+01 1.262220000000000084e+02 1.552570000000000164e+03
1.190000000000000085e-01 5.089470000000000383e-01 1.257799499999999959e+01 1.254929999999999950e+02 1.552369999999999891e+03
1.200000000000000094e-01 5.087939999999999685e-01 1.192770999999999937e+01 1.247299999999999898e+02 1.552164999999999964e+03
1.209999999999999964e-01 5.086365000000000469e-01 1.126972999999999914e+01 1.239420000000000073e+02 1.551945000000000164e+03
1.219999999999999973e-01 5.084770000000000678e-01 1.060903499999999866e+01 1.231370000000000005e+02 1.551720000000000027e+03
1.229999999999999982e-01 5.083174999999999777e-01 9.951209999999999667e+00 1.223280000000000030e+02 1.551500000000000000e+03
1.239999999999999991e-01 5.081609999999999738e-01 9.302524999999999267e+00 1.215254999999999939e+02 1.551275000000000091e+03
1.250000000000000000e-01 5.080084999999999740e-01 8.669444999999999624e+00 1.207425000000000068e+02 1.551054999999999836e+03
1.260000000000000009e-01 5.078639999999999821e-01 8.058474999999999611e+00 1.199909999999999997e+02 1.550840000000000146e+03
1.270000000000000018e-01 5.077285000000000270e-01 7.475919999999999455e+00 1.192820000000000107e+02 1.550639999999999873e+03
1.280000000000000027e-01 5.076045000000000140e-01 6.927660000000000373e+00 1.186269999999999953e+02 1.550445000000000164e+03
1.290000000000000036e-01 5.074935000000000418e-01 6.418890000000000207e+00 1.180345000000000084e+02 1.550275000000000091e+03
1.300000000000000044e-01 5.073969999999999869e-01 5.954035000000000188e+00 1.175134999999999934e+02 1.550110000000000127e+03
1.310000000000000053e-01 5.073159999999999892e-01 5.536429999999999296e+00 1.170690000000000026e+02 1.549974999999999909e+03
1.320000000000000062e-01 5.072510000000000074e-01 5.168330000000000091e+00 1.167055000000000007e+02 1.549855000000000018e+03
1.330000000000000071e-01 5.072020000000000417e-01 4.850810000000000066e+00 1.164240000000000066e+02 1.549759999999999991e+03
1.340000000000000080e-01 5.071685000000000221e-01 4.583779999999999966e+00 1.162235000000000014e+02 1.549690000000000055e+03
1.350000000000000089e-01 5.071495000000000308e-01 4.366004999999999470e+00 1.161025000000000063e+02 1.549634999999999991e+03
1.360000000000000098e-01 5.071449999999999569e-01 4.195204999999999629e+00 1.160550000000000068e+02 1.549605000000000018e+03
1.370000000000000107e-01 5.071520000000000472e-01 4.068190000000000417e+00 1.160750000000000028e+02 1.549585000000000036e+03
1.380000000000000115e-01 5.071704999999999686e-01 3.981015000000000192e+00 1.161550000000000011e+02 1.549590000000000146e+03
1.390000000000000124e-01 5.071980000000000377e-01 3.929180000000000117e+00 1.162854999999999990e+02 1.549610000000000127e+03
1.400000000000000133e-01 5.072324999999999751e-01 3.907795000000000130e+00 1.164579999999999984e+02 1.549644999999999982e+03
1.410000000000000142e-01 5.072725000000000151e-01 3.911785000000000068e+00 1.166624999999999943e+02 1.549684999999999945e+03
1.420000000000000151e-01 5.073159999999999892e-01 3.936060000000000336e+00 1.168900000000000006e+02 1.549740000000000009e+03
1.430000000000000160e-01 5.073615000000000208e-01 3.975694999999999979e+00 1.171310000000000002e+02 1.549789999999999964e+03
1.440000000000000169e-01 5.074075000000000113e-01 4.026040000000000063e+00 1.173774999999999977e+02 1.549855000000000018e+03
1.450000000000000178e-01 5.074524999999999730e-01 4.082830000000000403e+00 1.176214999999999975e+02 1.549914999999999964e+03
1.459999999999999909e-01 5.074954999999999883e-01 4.142284999999999329e+00 1.178580000000000041e+02 1.549974999999999909e+03
1.469999999999999918e-01 5.075359999999999872e-01 4.201145000000000351e+00 1.180815000000000055e+02 1.550034999999999854e+03
1.479999999999999927e-01 5.075735000000000108e-01 4.256719999999999615e+00 1.182884999999999991e+02 1.550090000000000146e+03
1.489999999999999936e-01 5.076065000000000715e-01 4.306865000000000165e+00 1.184754999999999967e+02 1.550144999999999982e+03
1.499999999999999944e-01 5.076359999999999761e-01 4.350004999999999455e+00 1.186415000000000077e+02 1.550190000000000055e+03
1.509999999999999953e-01 5.076614999999999878e-01 4.385104999999999364e+00 1.187854999999999990e+02 1.550230000000000018e+03
1.519999999999999962e-01 5.076829999999999954e-01 4.411609999999999587e+00 1.189085000000000036e+02 1.550269999999999982e+03
1.529999999999999971e-01 5.077009999999999579e-01 4.429429999999999978e+00 1.190115000000000123e+02 1.550305000000000064e+03
1.539999999999999980e-01 5.077154999999999863e-01 4.438860000000000028e+00 1.190955000000000013e+02 1.550329999999999927e+03
1.549999999999999989e-01 5.077279999999999571e-01 4.440545000000000186e+00 1.191634999999999991e+02 1.550355000000000018e+03
1.559999999999999998e-01 5.077380000000000226e-01 4.435365000000000002e+00 1.192175000000000011e+02 1.550369999999999891e+03
1.570000000000000007e-01 5.077460000000000306e-01 4.424430000000000085e+00 1.192609999999999957e+02 1.550384999999999991e+03
1.580000000000000016e-01 5.077530000000000099e-01 4.408949999999999925e+00 1.192955000000000041e+02 1.550400000000000091e+03
1.590000000000000024e-01 5.077590000000000714e-01 4.390195000000000292e+00 1.193239999999999981e+02 1.550414999999999964e+03
