# t [s], A [cm^2], U [cm/s], P [cPa], c [cm/s]
1.000000000000000021e-03 1.237044999999999950e-01 2.584809999999999608e-01 9.035824999999999818e+01 1.966340000000000146e+03
2.000000000000000042e-03 1.236784999999999968e-01 1.645565500000000014e+00 8.751069999999999993e+01 1.965974999999999909e+03
3.000000000000000062e-03 1.235974999999999990e-01 3.366958499999999965e+00 8.360800000000000409e+01 1.964894999999999982e+03
4.000000000000000083e-03 1.234824999999999950e-01 5.297246499999999969e+00 7.925565000000000282e+01 1.963375000000000000e+03
5.000000000000000104e-03 1.233544999999999919e-01 7.383015000000000327e+00 7.522395000000000209e+01 1.961694999999999936e+03
6.000000000000000125e-03 1.232280000000000042e-01 9.497054999999999580e+00 7.186615000000000464e+01 1.960054999999999836e+03
7.000000000000000146e-03 1.231084999999999957e-01 1.145104500000000058e+01 6.905630000000000734e+01 1.958534999999999854e+03
8.000000000000000167e-03 1.229969999999999952e-01 1.312881000000000142e+01 6.653945000000000221e+01 1.957144999999999982e+03
9.000000000000001055e-03 1.228969999999999924e-01 1.454046499999999931e+01 6.428430000000000177e+01 1.955905000000000200e+03
1.000000000000000194e-02 1.228094999999999881e-01 1.572659999999999947e+01 6.237730000000000530e+01 1.954839999999999918e+03
1.099999999999999936e-02 1.227359999999999979e-01 1.670605000000000118e+01 6.083554999999999779e+01 1.953954999999999927e+03
1.200000000000000025e-02 1.226760000000000073e-01 1.749295000000000044e+01 5.962324999999999875e+01 1.953239999999999782e+03
1.300000000000000114e-02 1.226279999999999870e-01 1.809775000000000134e+01 5.868465000000000487e+01 1.952675000000000182e+03
1.400000000000000203e-02 1.225894999999999901e-01 1.852065000000000339e+01 5.792659999999999343e+01 1.952224999999999909e+03
1.499999999999999944e-02 1.225569999999999993e-01 1.877590000000000003e+01 5.726069999999999993e+01 1.951865000000000009e+03
1.600000000000000033e-02 1.225310000000000010e-01 1.892924999999999969e+01 5.671549999999999869e+01 1.951579999999999927e+03
1.700000000000000122e-02 1.225139999999999840e-01 1.909975000000000023e+01 5.649380000000000024e+01 1.951394999999999982e+03
1.800000000000000211e-02 1.225119999999999959e-01 1.941185000000000116e+01 5.688700000000000045e+01 1.951384999999999991e+03
1.900000000000000300e-02 1.225300000000000000e-01 1.993290000000000006e+01 5.809949999999999903e+01 1.951605000000000018e+03
2.000000000000000042e-02 1.225680000000000103e-01 2.063660000000000139e+01 6.010235000000000127e+01 1.952069999999999936e+03
2.100000000000000130e-02 1.226229999999999959e-01 2.141080000000000183e+01 6.260240000000000293e+01 1.952740000000000009e+03
2.200000000000000219e-02 1.226860000000000034e-01 2.210125000000000028e+01 6.513245000000000573e+01 1.953509999999999991e+03
2.299999999999999961e-02 1.227460000000000079e-01 2.256625000000000014e+01 6.720850000000000080e+01 1.954265000000000100e+03
2.400000000000000050e-02 1.227939999999999865e-01 2.272194999999999965e+01 6.848279999999999745e+01 1.954869999999999891e+03
2.500000000000000139e-02 1.228235000000000021e-01 2.256179999999999808e+01 6.883774999999999977e+01 1.955264999999999873e+03
2.600000000000000228e-02 1.228345000000000131e-01 2.214889999999999759e+01 6.839364999999999384e+01 1.955425000000000182e+03
2.700000000000000316e-02 1.228289999999999937e-01 2.158605000000000018e+01 6.743954999999999700e+01 1.955384999999999991e+03
2.800000000000000058e-02 1.228134999999999921e-01 2.097814999999999941e+01 6.631874999999999432e+01 1.955220000000000027e+03
2.900000000000000147e-02 1.227955000000000019e-01 2.039999999999999858e+01 6.531565000000000509e+01 1.955000000000000000e+03
3.000000000000000236e-02 1.227784999999999987e-01 1.987975000000000136e+01 6.457980000000000587e+01 1.954784999999999854e+03
3.099999999999999978e-02 1.227639999999999842e-01 1.939974999999999739e+01 6.410595000000000709e+01 1.954615000000000009e+03
3.200000000000000067e-02 1.227535000000000015e-01 1.891240000000000165e+01 6.376610000000000156e+01 1.954474999999999909e+03
3.300000000000000155e-02 1.227419999999999900e-01 1.836330000000000240e+01 6.337579999999999814e+01 1.954339999999999918e+03
3.400000000000000244e-02 1.227270000000000028e-01 1.771419999999999817e+01 6.276985000000000525e+01 1.954159999999999854e+03
3.500000000000000333e-02 1.227064999999999961e-01 1.696054999999999779e+01 6.186695000000000277e+01 1.953920000000000073e+03
3.600000000000000422e-02 1.226794999999999969e-01 1.613755000000000095e+01 6.070470000000000255e+01 1.953595000000000027e+03
3.700000000000000511e-02 1.226479999999999931e-01 1.531459999999999866e+01 5.943670000000000186e+01 1.953215000000000146e+03
3.799999999999999906e-02 1.226160000000000028e-01 1.457904999999999873e+01 5.829475000000000051e+01 1.952829999999999927e+03
3.899999999999999994e-02 1.225900000000000045e-01 1.401490000000000080e+01 5.752660000000000196e+01 1.952505000000000109e+03
4.000000000000000083e-02 1.225745000000000029e-01 1.368189999999999884e+01 5.733029999999999404e+01 1.952300000000000182e+03
4.100000000000000172e-02 1.225735000000000019e-01 1.360170000000000101e+01 5.780195000000000505e+01 1.952275000000000091e+03
4.200000000000000261e-02 1.225880000000000025e-01 1.375319999999999965e+01 5.891159999999999997e+01 1.952429999999999836e+03
4.300000000000000350e-02 1.226170000000000038e-01 1.407755000000000045e+01 6.050945000000000107e+01 1.952764999999999873e+03
4.400000000000000439e-02 1.226565000000000016e-01 1.449014999999999986e+01 6.235764999999999958e+01 1.953230000000000018e+03
4.499999999999999833e-02 1.227005000000000040e-01 1.489644999999999975e+01 6.417740000000000578e+01 1.953764999999999873e+03
4.599999999999999922e-02 1.227430000000000049e-01 1.520674999999999955e+01 6.569810000000001082e+01 1.954279999999999973e+03
4.700000000000000011e-02 1.227784999999999849e-01 1.534880000000000067e+01 6.669950000000000045e+01 1.954720000000000027e+03
4.800000000000000100e-02 1.228009999999999935e-01 1.527489999999999881e+01 6.703909999999999059e+01 1.955005000000000109e+03
4.900000000000000189e-02 1.228069999999999995e-01 1.496405000000000030e+01 6.666190000000000282e+01 1.955095000000000027e+03
5.000000000000000278e-02 1.227965000000000029e-01 1.441980000000000040e+01 6.559430000000000405e+01 1.954974999999999909e+03
5.100000000000000366e-02 1.227690000000000031e-01 1.366465000000000174e+01 6.392570000000000618e+01 1.954650000000000091e+03
5.200000000000000455e-02 1.227260000000000018e-01 1.273355000000000103e+01 6.178494999999999493e+01 1.954144999999999982e+03
5.300000000000000544e-02 1.226710000000000023e-01 1.166765000000000008e+01 5.931654999999999944e+01 1.953474999999999909e+03
5.399999999999999939e-02 1.226069999999999938e-01 1.050954499999999925e+01 5.666155000000000541e+01 1.952699999999999818e+03
5.500000000000000028e-02 1.225370000000000070e-01 9.300765000000000171e+00 5.394644999999999868e+01 1.951844999999999800e+03
5.600000000000000117e-02 1.224635000000000029e-01 8.080729999999999080e+00 5.127915000000000134e+01 1.950960000000000036e+03
5.700000000000000205e-02 1.223909999999999998e-01 6.887620000000000076e+00 4.875104999999999933e+01 1.950065000000000055e+03
5.800000000000000294e-02 1.223204999999999987e-01 5.759129999999999860e+00 4.644265000000000043e+01 1.949204999999999927e+03
5.900000000000000383e-02 1.222560000000000036e-01 4.733839999999999826e+00 4.442965000000000231e+01 1.948409999999999854e+03
6.000000000000000472e-02 1.221985000000000016e-01 3.851339999999999986e+00 4.278780000000000427e+01 1.947700000000000045e+03
6.099999999999999867e-02 1.221509999999999957e-01 3.151784999999999837e+00 4.159454999999999814e+01 1.947105000000000018e+03
6.199999999999999956e-02 1.221154999999999879e-01 2.674450000000000216e+00 4.092764999999999986e+01 1.946664999999999964e+03
6.300000000000000044e-02 1.220950000000000091e-01 2.455585000000000129e+00 4.086135000000000161e+01 1.946394999999999982e+03
6.400000000000000133e-02 1.220910000000000051e-01 2.526015000000000121e+00 4.146009999999999707e+01 1.946325000000000045e+03
6.500000000000000222e-02 1.221050000000000052e-01 2.908739999999999881e+00 4.277239999999999753e+01 1.946474999999999909e+03
6.600000000000000311e-02 1.221394999999999981e-01 3.617020000000000124e+00 4.482524999999999693e+01 1.946869999999999891e+03
6.700000000000000400e-02 1.221934999999999966e-01 4.653234999999999566e+00 4.762004999999999910e+01 1.947509999999999991e+03
6.800000000000000488e-02 1.222690000000000027e-01 6.008504999999999541e+00 5.113170000000000215e+01 1.948405000000000200e+03
6.900000000000000577e-02 1.223640000000000005e-01 7.663215000000000110e+00 5.530910000000000082e+01 1.949550000000000182e+03
7.000000000000000666e-02 1.224780000000000035e-01 9.588195000000000690e+00 6.007874999999999943e+01 1.950920000000000073e+03
7.100000000000000755e-02 1.226089999999999958e-01 1.174649999999999928e+01 6.534935000000000116e+01 1.952505000000000109e+03
7.200000000000000844e-02 1.227540000000000020e-01 1.409522000000000119e+01 7.101734999999999332e+01 1.954279999999999973e+03
7.300000000000000933e-02 1.229109999999999925e-01 1.658790000000000120e+01 7.697294999999999732e+01 1.956199999999999818e+03
7.399999999999999634e-02 1.230775000000000063e-01 1.917660000000000053e+01 8.310609999999999786e+01 1.958240000000000009e+03
7.499999999999999722e-02 1.232499999999999984e-01 2.181405000000000172e+01 8.931170000000000186e+01 1.960365000000000009e+03
7.599999999999999811e-02 1.234254999999999936e-01 2.445554999999999879e+01 9.549450000000000216e+01 1.962539999999999964e+03
7.699999999999999900e-02 1.236019999999999897e-01 2.706084999999999852e+01 1.015722000000000094e+02 1.964735000000000127e+03
7.799999999999999989e-02 1.237764999999999976e-01 2.959544999999999959e+01 1.074808000000000021e+02 1.966914999999999964e+03
7.900000000000000078e-02 1.239480000000000026e-01 3.203175000000000239e+01 1.131735000000000042e+02 1.969065000000000055e+03
8.000000000000000167e-02 1.241144999999999887e-01 3.434955000000000069e+01 1.186235000000000070e+02 1.971159999999999854e+03
8.100000000000000255e-02 1.242754999999999971e-01 3.653605000000000302e+01 1.238215000000000003e+02 1.973190000000000055e+03
8.200000000000000344e-02 1.244304999999999994e-01 3.858565000000000111e+01 1.287750000000000057e+02 1.975154999999999973e+03
8.300000000000000433e-02 1.245795000000000097e-01 4.049855000000000160e+01 1.335045000000000073e+02 1.977049999999999955e+03
8.400000000000000522e-02 1.247230000000000005e-01 4.228000000000000114e+01 1.380389999999999873e+02 1.978880000000000109e+03
8.500000000000000611e-02 1.248615000000000141e-01 4.393840000000000146e+01 1.424130000000000109e+02 1.980644999999999982e+03
8.600000000000000699e-02 1.249955000000000094e-01 4.548404999999999632e+01 1.466599999999999966e+02 1.982360000000000127e+03
8.700000000000000788e-02 1.251265000000000016e-01 4.692759999999999820e+01 1.508109999999999786e+02 1.984025000000000091e+03
8.800000000000000877e-02 1.252534999999999898e-01 4.827890000000000015e+01 1.548894999999999982e+02 1.985664999999999964e+03
8.899999999999999578e-02 1.253795000000000048e-01 4.954594999999999771e+01 1.589105000000000132e+02 1.987275000000000091e+03
8.999999999999999667e-02 1.255024999999999891e-01 5.073434999999999917e+01 1.628804999999999836e+02 1.988865000000000009e+03
9.099999999999999756e-02 1.256240000000000134e-01 5.184675000000000011e+01 1.667944999999999993e+02 1.990424999999999955e+03
9.199999999999999845e-02 1.257429999999999937e-01 5.288325000000000387e+01 1.706405000000000030e+02 1.991964999999999918e+03
9.299999999999999933e-02 1.258604999999999863e-01 5.384105000000000274e+01 1.743969999999999914e+02 1.993474999999999909e+03
9.400000000000000022e-02 1.259744999999999893e-01 5.471524999999999750e+01 1.780380000000000109e+02 1.994944999999999936e+03
9.500000000000000111e-02 1.260850000000000026e-01 5.549904999999999688e+01 1.815335000000000036e+02 1.996375000000000000e+03
9.600000000000000200e-02 1.261915000000000120e-01 5.618460000000000321e+01 1.848524999999999920e+02 1.997750000000000000e+03
9.700000000000000289e-02 1.262925000000000020e-01 5.676330000000000098e+01 1.879615000000000009e+02 1.999059999999999945e+03
9.800000000000000377e-02 1.263869999999999993e-01 5.722679999999999723e+01 1.908309999999999889e+02 2.000299999999999955e+03
9.900000000000000466e-02 1.264754999999999907e-01 5.756695000000000562e+01 1.934345000000000141e+02 2.001449999999999818e+03
1.000000000000000056e-01 1.265554999999999874e-01 5.777684999999999604e+01 1.957479999999999905e+02 2.002500000000000000e+03
1.010000000000000064e-01 1.266279999999999906e-01 5.785125000000000028e+01 1.977535000000000025e+02 2.003445000000000164e+03
1.020000000000000073e-01 1.266919999999999991e-01 5.778655000000000541e+01 1.994395000000000095e+02 2.004279999999999973e+03
1.030000000000000082e-01 1.267459999999999976e-01 5.758150000000000546e+01 2.007990000000000066e+02 2.005005000000000109e+03
1.040000000000000091e-01 1.267915000000000014e-01 5.723734999999999928e+01 2.018325000000000102e+02 2.005605000000000018e+03
1.050000000000000100e-01 1.268275000000000097e-01 5.675795000000000101e+01 2.025475000000000136e+02 2.006085000000000036e+03
1.059999999999999970e-01 1.268544999999999812e-01 5.614985000000000070e+01 2.029574999999999818e+02 2.006450000000000045e+03
1.069999999999999979e-01 1.268724999999999992e-01 5.542210000000000036e+01 2.030829999999999984e+02 2.006699999999999818e+03
1.079999999999999988e-01 1.268825000000000092e-01 5.458630000000000138e+01 2.029474999999999909e+02 2.006840000000000146e+03
1.089999999999999997e-01 1.268849999999999978e-01 5.365605000000000047e+01 2.025829999999999984e+02 2.006884999999999991e+03
1.100000000000000006e-01 1.268805000000000072e-01 5.264650000000000318e+01 2.020219999999999914e+02 2.006840000000000146e+03
1.110000000000000014e-01 1.268700000000000105e-01 5.157389999999999475e+01 2.012994999999999948e+02 2.006710000000000036e+03
1.120000000000000023e-01 1.268545000000000089e-01 5.045510000000000161e+01 2.004540000000000077e+02 2.006519999999999982e+03
1.130000000000000032e-01 1.268350000000000033e-01 4.930675000000000097e+01 1.995204999999999984e+02 2.006279999999999973e+03
1.140000000000000041e-01 1.268124999999999947e-01 4.814494999999999436e+01 1.985325000000000273e+02 2.005994999999999891e+03
1.150000000000000050e-01 1.267880000000000118e-01 4.698449999999999704e+01 1.975210000000000150e+02 2.005684999999999945e+03
1.160000000000000059e-01 1.267619999999999858e-01 4.583865000000000123e+01 1.965134999999999934e+02 2.005349999999999909e+03
1.170000000000000068e-01 1.267360000000000153e-01 4.471850000000000591e+01 1.955294999999999845e+02 2.005005000000000109e+03
1.180000000000000077e-01 1.267095000000000027e-01 4.363285000000000480e+01 1.945875000000000057e+02 2.004670000000000073e+03
1.190000000000000085e-01 1.266840000000000188e-01 4.258794999999999931e+01 1.936954999999999814e+02 2.004335000000000036e+03
1.200000000000000094e-01 1.266589999999999938e-01 4.158740000000000236e+01 1.928594999999999970e+02 2.004009999999999991e+03
1.209999999999999964e-01 1.266354999999999842e-01 4.063224999999999909e+01 1.920765000000000100e+02 2.003700000000000045e+03
1.219999999999999973e-01 1.266130000000000033e-01 3.972100000000000364e+01 1.913414999999999964e+02 2.003404999999999973e+03
1.229999999999999982e-01 1.265910000000000091e-01 3.885004999999999598e+01 1.906415000000000077e+02 2.003119999999999891e+03
1.239999999999999991e-01 1.265705000000000024e-01 3.801354999999999507e+01 1.899624999999999773e+02 2.002844999999999800e+03
1.250000000000000000e-01 1.265494999999999814e-01 3.720435000000000514e+01 1.892855000000000132e+02 2.002570000000000164e+03
1.260000000000000009e-01 1.265284999999999882e-01 3.641400000000000148e+01 1.885904999999999916e+02 2.002295000000000073e+03
1.270000000000000018e-01 1.265074999999999950e-01 3.563330000000000553e+01 1.878559999999999945e+02 2.002019999999999982e+03
1.280000000000000027e-01 1.264850000000000141e-01 3.485300000000000153e+01 1.870625000000000000e+02 2.001720000000000027e+03
1.290000000000000036e-01 1.264605000000000035e-01 3.406400000000000006e+01 1.861884999999999764e+02 2.001410000000000082e+03
1.300000000000000044e-01 1.264349999999999918e-01 3.325795000000000101e+01 1.852185000000000059e+02 2.001065000000000055e+03
1.310000000000000053e-01 1.264055000000000040e-01 3.242775000000000318e+01 1.841380000000000052e+02 2.000695000000000164e+03
1.320000000000000062e-01 1.263739999999999863e-01 3.156779999999999831e+01 1.829375000000000000e+02 2.000284999999999854e+03
1.330000000000000071e-01 1.263385000000000202e-01 3.067419999999999902e+01 1.816115000000000066e+02 1.999829999999999927e+03
1.340000000000000080e-01 1.262999999999999956e-01 2.974510000000000076e+01 1.801589999999999918e+02 1.999335000000000036e+03
1.350000000000000089e-01 1.262580000000000091e-01 2.878094999999999715e+01 1.785854999999999961e+02 1.998799999999999955e+03
1.360000000000000098e-01 1.262129999999999919e-01 2.778405000000000058e+01 1.768994999999999891e+02 1.998215000000000146e+03
1.370000000000000107e-01 1.261645000000000127e-01 2.675889999999999702e+01 1.751159999999999854e+02 1.997595000000000027e+03
1.380000000000000115e-01 1.261134999999999895e-01 2.571184999999999832e+01 1.732520000000000095e+02 1.996940000000000055e+03
1.390000000000000124e-01 1.260594999999999910e-01 2.465075000000000216e+01 1.713294999999999959e+02 1.996259999999999991e+03
1.400000000000000133e-01 1.260050000000000059e-01 2.358480000000000132e+01 1.693725000000000023e+02 1.995555000000000064e+03
1.410000000000000142e-01 1.259484999999999910e-01 2.252400000000000091e+01 1.674050000000000011e+02 1.994835000000000036e+03
1.420000000000000151e-01 1.258920000000000039e-01 2.147874999999999801e+01 1.654524999999999864e+02 1.994105000000000018e+03
1.430000000000000160e-01 1.258354999999999890e-01 2.045940000000000225e+01 1.635405000000000086e+02 1.993384999999999991e+03
1.440000000000000169e-01 1.257805000000000173e-01 1.947590000000000288e+01 1.616914999999999907e+02 1.992674999999999955e+03
1.450000000000000178e-01 1.257260000000000044e-01 1.853710000000000235e+01 1.599254999999999995e+02 1.991974999999999909e+03
1.459999999999999909e-01 1.256744999999999945e-01 1.765095000000000169e+01 1.582595000000000027e+02 1.991315000000000055e+03
1.469999999999999918e-01 1.256249999999999867e-01 1.682349999999999923e+01 1.567065000000000055e+02 1.990679999999999836e+03
1.479999999999999927e-01 1.255784999999999818e-01 1.605955000000000155e+01 1.552750000000000057e+02 1.990079999999999927e+03
1.489999999999999936e-01 1.255355000000000221e-01 1.536175000000000068e+01 1.539695000000000107e+02 1.989519999999999982e+03
1.499999999999999944e-01 1.254955000000000098e-01 1.473114999999999952e+01 1.527905000000000086e+02 1.989005000000000109e+03
1.509999999999999953e-01 1.254589999999999872e-01 1.416700000000000159e+01 1.517350000000000136e+02 1.988535000000000082e+03
1.519999999999999962e-01 1.254260000000000097e-01 1.366709999999999958e+01 1.507939999999999827e+02 1.988105000000000018e+03
1.529999999999999971e-01 1.253960000000000075e-01 1.322780000000000022e+01 1.499600000000000080e+02 1.987720000000000027e+03
1.539999999999999980e-01 1.253690000000000082e-01 1.284450000000000003e+01 1.492204999999999870e+02 1.987365000000000009e+03
1.549999999999999989e-01 1.253449999999999842e-01 1.251144999999999996e+01 1.485625000000000000e+02 1.987049999999999955e+03
1.559999999999999998e-01 1.253229999999999900e-01 1.222284999999999933e+01 1.479730000000000132e+02 1.986764999999999873e+03
1.570000000000000007e-01 1.253035000000000121e-01 1.197210000000000107e+01 1.474364999999999952e+02 1.986505000000000109e+03
1.580000000000000016e-01 1.252854999999999941e-01 1.175280000000000058e+01 1.469420000000000073e+02 1.986269999999999982e+03
1.590000000000000024e-01 1.252679999999999905e-01 1.155869999999999997e+01 1.464755000000000109e+02 1.986049999999999955e+03
