# t [s], A [cm^2], U [cm/s], P [cPa], c [cm/s]
1.000000000000000021e-03 2.036184999999999801e-01 1.389803500000000025e-01 1.033499999999999943e+02 2.107315000000000055e+03
2.000000000000000042e-03 2.035830000000000140e-01 1.453221500000000166e+00 1.005501000000000005e+02 2.107045000000000073e+03
3.000000000000000062e-03 2.034624999999999906e-01 3.166063499999999920e+00 9.656995000000000573e+01 2.106190000000000055e+03
4.000000000000000083e-03 2.032844999999999791e-01 5.121825999999999546e+00 9.187825000000000841e+01 2.104954999999999927e+03
5.000000000000000104e-03 2.030804999999999971e-01 7.260545000000000471e+00 8.726680000000000348e+01 2.103555000000000291e+03
6.000000000000000125e-03 2.028754999999999864e-01 9.470779999999999532e+00 8.322184999999998922e+01 2.102159999999999854e+03
7.000000000000000146e-03 2.026799999999999990e-01 1.157170999999999950e+01 7.976494999999999891e+01 2.100845000000000255e+03
8.000000000000000167e-03 2.024960000000000093e-01 1.341879999999999917e+01 7.668760000000000332e+01 2.099635000000000218e+03
9.000000000000001055e-03 2.023280000000000078e-01 1.498582999999999998e+01 7.392019999999999413e+01 2.098550000000000182e+03
1.000000000000000194e-02 2.021809999999999996e-01 1.630264999999999986e+01 7.153600000000000136e+01 2.097609999999999673e+03
1.099999999999999936e-02 2.020575000000000010e-01 1.739320000000000022e+01 6.958174999999999955e+01 2.096824999999999818e+03
1.200000000000000025e-02 2.019559999999999966e-01 1.827224999999999966e+01 6.804025000000000034e+01 2.096190000000000055e+03
1.300000000000000114e-02 2.018745000000000123e-01 1.894679999999999964e+01 6.684694999999999254e+01 2.095689999999999600e+03
1.400000000000000203e-02 2.018095000000000028e-01 1.941584999999999894e+01 6.589204999999999757e+01 2.095295000000000073e+03
1.499999999999999944e-02 2.017559999999999909e-01 1.969415000000000049e+01 6.507389999999999475e+01 2.094980000000000018e+03
1.600000000000000033e-02 2.017130000000000034e-01 1.984394999999999953e+01 6.440295000000000414e+01 2.094724999999999909e+03
1.700000000000000122e-02 2.016844999999999888e-01 1.997445000000000093e+01 6.405089999999999861e+01 2.094564999999999600e+03
1.800000000000000211e-02 2.016780000000000239e-01 2.020195000000000007e+01 6.427689999999999770e+01 2.094534999999999854e+03
1.900000000000000300e-02 2.016990000000000172e-01 2.059705000000000297e+01 6.527625000000000455e+01 2.094675000000000182e+03
2.000000000000000042e-02 2.017499999999999849e-01 2.115409999999999968e+01 6.705360000000000298e+01 2.095005000000000109e+03
2.100000000000000130e-02 2.018254999999999910e-01 2.179639999999999844e+01 6.939095000000000368e+01 2.095489999999999782e+03
2.200000000000000219e-02 2.019150000000000111e-01 2.240964999999999918e+01 7.191575000000000273e+01 2.096069999999999709e+03
2.299999999999999961e-02 2.020055000000000045e-01 2.288419999999999987e+01 7.422459999999999525e+01 2.096659999999999854e+03
2.400000000000000050e-02 2.020850000000000146e-01 2.314910000000000068e+01 7.600440000000000396e+01 2.097190000000000055e+03
2.500000000000000139e-02 2.021470000000000211e-01 2.318750000000000000e+01 7.710849999999999227e+01 2.097609999999999673e+03
2.600000000000000228e-02 2.021875000000000200e-01 2.303125000000000000e+01 7.756855000000000189e+01 2.097890000000000327e+03
2.700000000000000316e-02 2.022100000000000009e-01 2.274150000000000205e+01 7.754874999999999829e+01 2.098055000000000291e+03
2.800000000000000058e-02 2.022189999999999821e-01 2.238235000000000241e+01 7.726619999999999777e+01 2.098125000000000000e+03
2.900000000000000147e-02 2.022204999999999975e-01 2.199879999999999924e+01 7.690944999999999254e+01 2.098135000000000218e+03
3.000000000000000236e-02 2.022174999999999945e-01 2.160555000000000092e+01 7.658220000000000027e+01 2.098125000000000000e+03
3.099999999999999978e-02 2.022125000000000172e-01 2.118800000000000239e+01 7.628579999999999472e+01 2.098095000000000255e+03
3.200000000000000067e-02 2.022039999999999949e-01 2.071359999999999957e+01 7.594095000000000084e+01 2.098039999999999964e+03
3.300000000000000155e-02 2.021890000000000076e-01 2.014939999999999998e+01 7.543500000000000227e+01 2.097949999999999818e+03
3.400000000000000244e-02 2.021660000000000124e-01 1.947804999999999964e+01 7.467804999999999893e+01 2.097810000000000400e+03
3.500000000000000333e-02 2.021324999999999927e-01 1.870974999999999966e+01 7.364894999999999925e+01 2.097600000000000364e+03
3.600000000000000422e-02 2.020905000000000062e-01 1.788485000000000014e+01 7.241839999999999122e+01 2.097340000000000146e+03
3.700000000000000511e-02 2.020440000000000014e-01 1.706719999999999970e+01 7.114124999999999943e+01 2.097039999999999964e+03
3.799999999999999906e-02 2.019994999999999985e-01 1.633014999999999972e+01 7.002235000000000298e+01 2.096755000000000109e+03
3.899999999999999994e-02 2.019634999999999903e-01 1.573995000000000033e+01 6.926560000000000628e+01 2.096519999999999982e+03
4.000000000000000083e-02 2.019425000000000248e-01 1.534039999999999893e+01 6.902324999999999022e+01 2.096375000000000000e+03
4.100000000000000172e-02 2.019405000000000228e-01 1.514414999999999978e+01 6.935919999999998709e+01 2.096345000000000255e+03
4.200000000000000261e-02 2.019579999999999986e-01 1.513139999999999930e+01 7.023510000000000275e+01 2.096444999999999709e+03
4.300000000000000350e-02 2.019929999999999781e-01 1.525549999999999962e+01 7.152105000000000246e+01 2.096654999999999745e+03
4.400000000000000439e-02 2.020405000000000117e-01 1.545345000000000013e+01 7.302434999999999832e+01 2.096949999999999818e+03
4.499999999999999833e-02 2.020929999999999949e-01 1.565769999999999840e+01 7.452834999999998900e+01 2.097284999999999854e+03
4.599999999999999922e-02 2.021445000000000047e-01 1.580679999999999907e+01 7.582989999999999498e+01 2.097614999999999782e+03
4.700000000000000011e-02 2.021874999999999922e-01 1.585344999999999871e+01 7.676924999999999955e+01 2.097900000000000091e+03
4.800000000000000100e-02 2.022180000000000089e-01 1.576739999999999853e+01 7.724639999999999418e+01 2.098095000000000255e+03
4.900000000000000189e-02 2.022319999999999951e-01 1.553594999999999970e+01 7.722384999999999877e+01 2.098194999999999709e+03
5.000000000000000278e-02 2.022285000000000055e-01 1.516014999999999979e+01 7.671770000000000778e+01 2.098184999999999945e+03
5.100000000000000366e-02 2.022079999999999989e-01 1.465064999999999884e+01 7.578170000000000073e+01 2.098059999999999945e+03
5.200000000000000455e-02 2.021719999999999906e-01 1.402280000000000015e+01 7.448860000000000525e+01 2.097829999999999927e+03
5.300000000000000544e-02 2.021219999999999961e-01 1.329305000000000092e+01 7.291464999999999463e+01 2.097520000000000437e+03
5.399999999999999939e-02 2.020605000000000040e-01 1.247690000000000055e+01 7.112810000000000343e+01 2.097130000000000109e+03
5.500000000000000028e-02 2.019909999999999761e-01 1.158865000000000123e+01 6.918529999999999802e+01 2.096680000000000291e+03
5.600000000000000117e-02 2.019139999999999824e-01 1.064189000000000007e+01 6.713159999999999172e+01 2.096184999999999945e+03
5.700000000000000205e-02 2.018314999999999970e-01 9.651665000000001271e+00 6.500634999999999764e+01 2.095659999999999854e+03
5.800000000000000294e-02 2.017454999999999943e-01 8.635894999999999655e+00 6.284944999999999737e+01 2.095105000000000018e+03
5.900000000000000383e-02 2.016580000000000039e-01 7.616580000000000794e+00 6.070720000000000027e+01 2.094539999999999964e+03
6.000000000000000472e-02 2.015710000000000002e-01 6.620359999999999800e+00 5.863649999999999807e+01 2.093980000000000018e+03
6.099999999999999867e-02 2.014869999999999994e-01 5.677925000000000111e+00 5.670520000000000493e+01 2.093434999999999945e+03
6.199999999999999956e-02 2.014090000000000047e-01 4.822540000000000049e+00 5.499014999999999986e+01 2.092929999999999836e+03
6.300000000000000044e-02 2.013400000000000190e-01 4.088049999999999962e+00 5.357200000000000273e+01 2.092474999999999909e+03
6.400000000000000133e-02 2.012835000000000041e-01 3.506499999999999950e+00 5.252895000000000181e+01 2.092099999999999909e+03
6.500000000000000222e-02 2.012420000000000042e-01 3.105785000000000018e+00 5.192969999999999686e+01 2.091819999999999709e+03
6.600000000000000311e-02 2.012185000000000223e-01 2.907715000000000050e+00 5.182789999999999964e+01 2.091654999999999745e+03
6.700000000000000400e-02 2.012145000000000183e-01 2.926574999999999704e+00 5.225704999999999956e+01 2.091614999999999782e+03
6.800000000000000488e-02 2.012315000000000076e-01 3.168370000000000353e+00 5.322854999999999848e+01 2.091710000000000036e+03
6.900000000000000577e-02 2.012694999999999901e-01 3.630780000000000118e+00 5.473114999999999952e+01 2.091940000000000055e+03
7.000000000000000666e-02 2.013284999999999936e-01 4.303690000000000460e+00 5.673264999999999958e+01 2.092300000000000182e+03
7.100000000000000755e-02 2.014080000000000037e-01 5.170214999999999783e+00 5.918314999999999770e+01 2.092795000000000073e+03
7.200000000000000844e-02 2.015045000000000031e-01 6.208135000000000403e+00 6.201970000000000027e+01 2.093404999999999745e+03
7.300000000000000933e-02 2.016164999999999763e-01 7.391495000000000815e+00 6.517099999999999227e+01 2.094119999999999891e+03
7.399999999999999634e-02 2.017420000000000047e-01 8.692379999999999995e+00 6.856279999999999575e+01 2.094914999999999964e+03
7.499999999999999722e-02 2.018774999999999875e-01 1.008247000000000071e+01 7.212284999999999968e+01 2.095784999999999854e+03
7.599999999999999811e-02 2.020210000000000061e-01 1.153475000000000072e+01 7.578515000000000157e+01 2.096710000000000036e+03
7.699999999999999900e-02 2.021689999999999876e-01 1.302451999999999899e+01 7.949330000000000496e+01 2.097659999999999854e+03
7.799999999999999989e-02 2.023194999999999855e-01 1.453044999999999831e+01 8.320265000000000555e+01 2.098640000000000327e+03
7.900000000000000078e-02 2.024719999999999853e-01 1.603490000000000038e+01 8.688114999999999100e+01 2.099630000000000109e+03
8.000000000000000167e-02 2.026239999999999986e-01 1.752405000000000257e+01 9.050880000000000791e+01 2.100619999999999891e+03
8.100000000000000255e-02 2.027754999999999974e-01 1.898760000000000048e+01 9.407589999999999009e+01 2.101605000000000018e+03
8.200000000000000344e-02 2.029254999999999809e-01 2.041819999999999879e+01 9.758124999999999716e+01 2.102585000000000036e+03
8.300000000000000433e-02 2.030740000000000045e-01 2.181054999999999922e+01 1.010281499999999966e+02 2.103555000000000291e+03
8.400000000000000522e-02 2.032204999999999984e-01 2.316105000000000302e+01 1.044217999999999904e+02 2.104519999999999982e+03
8.500000000000000611e-02 2.033655000000000046e-01 2.446649999999999991e+01 1.077680000000000007e+02 2.105470000000000255e+03
8.600000000000000699e-02 2.035089999999999955e-01 2.572429999999999950e+01 1.110705000000000098e+02 2.106414999999999964e+03
8.700000000000000788e-02 2.036509999999999987e-01 2.693160000000000309e+01 1.143275000000000006e+02 2.107345000000000255e+03
8.800000000000000877e-02 2.037909999999999999e-01 2.808545000000000158e+01 1.175370000000000061e+02 2.108275000000000091e+03
8.899999999999999578e-02 2.039294999999999858e-01 2.918250000000000099e+01 1.206905000000000001e+02 2.109185000000000400e+03
8.999999999999999667e-02 2.040655000000000108e-01 3.021959999999999980e+01 1.237789999999999964e+02 2.110079999999999927e+03
9.099999999999999756e-02 2.041990000000000194e-01 3.119324999999999903e+01 1.267920000000000016e+02 2.110965000000000146e+03
9.199999999999999845e-02 2.043289999999999829e-01 3.210030000000000427e+01 1.297160000000000082e+02 2.111829999999999927e+03
9.299999999999999933e-02 2.044555000000000122e-01 3.293764999999999787e+01 1.325389999999999873e+02 2.112664999999999964e+03
9.400000000000000022e-02 2.045780000000000098e-01 3.370234999999999559e+01 1.352495000000000118e+02 2.113480000000000018e+03
9.500000000000000111e-02 2.046959999999999891e-01 3.439144999999999897e+01 1.378344999999999914e+02 2.114265000000000327e+03
9.600000000000000200e-02 2.048085000000000044e-01 3.500204999999999700e+01 1.402824999999999989e+02 2.115015000000000327e+03
9.700000000000000289e-02 2.049155000000000004e-01 3.553114999999999668e+01 1.425815000000000055e+02 2.115725000000000364e+03
9.800000000000000377e-02 2.050160000000000038e-01 3.597554999999999836e+01 1.447189999999999941e+02 2.116399999999999636e+03
9.900000000000000466e-02 2.051100000000000145e-01 3.633230000000000359e+01 1.466825000000000045e+02 2.117024999999999636e+03
1.000000000000000056e-01 2.051970000000000183e-01 3.659834999999999638e+01 1.484604999999999961e+02 2.117610000000000127e+03
1.010000000000000064e-01 2.052754999999999996e-01 3.677129999999999654e+01 1.500425000000000182e+02 2.118140000000000327e+03
1.020000000000000073e-01 2.053464999999999874e-01 3.684929999999999950e+01 1.514184999999999945e+02 2.118610000000000127e+03
1.030000000000000082e-01 2.054084999999999939e-01 3.683164999999999623e+01 1.525829999999999984e+02 2.119034999999999854e+03
1.040000000000000091e-01 2.054614999999999914e-01 3.671890000000000498e+01 1.535319999999999823e+02 2.119394999999999982e+03
1.050000000000000100e-01 2.055059999999999942e-01 3.651314999999999600e+01 1.542674999999999841e+02 2.119694999999999709e+03
1.059999999999999970e-01 2.055414999999999881e-01 3.621815000000000140e+01 1.547944999999999993e+02 2.119940000000000055e+03
1.069999999999999979e-01 2.055684999999999873e-01 3.583929999999999438e+01 1.551239999999999952e+02 2.120125000000000000e+03
1.079999999999999988e-01 2.055870000000000197e-01 3.538335000000000008e+01 1.552690000000000055e+02 2.120260000000000218e+03
1.089999999999999997e-01 2.055980000000000030e-01 3.485864999999999725e+01 1.552485000000000070e+02 2.120340000000000146e+03
1.100000000000000006e-01 2.056020000000000070e-01 3.427424999999999500e+01 1.550824999999999818e+02 2.120375000000000000e+03
1.110000000000000014e-01 2.056000000000000050e-01 3.363989999999999725e+01 1.547930000000000064e+02 2.120364999999999782e+03
1.120000000000000023e-01 2.055925000000000114e-01 3.296580000000000155e+01 1.544030000000000200e+02 2.120320000000000164e+03
1.130000000000000032e-01 2.055804999999999993e-01 3.226180000000000092e+01 1.539339999999999975e+02 2.120244999999999891e+03
1.140000000000000041e-01 2.055649999999999977e-01 3.153750000000000142e+01 1.534064999999999941e+02 2.120144999999999982e+03
1.150000000000000050e-01 2.055464999999999931e-01 3.080170000000000030e+01 1.528400000000000034e+02 2.120029999999999745e+03
1.160000000000000059e-01 2.055259999999999865e-01 3.006224999999999881e+01 1.522490000000000236e+02 2.119895000000000437e+03
1.170000000000000068e-01 2.055039999999999922e-01 2.932580000000000098e+01 1.516469999999999914e+02 2.119755000000000109e+03
1.180000000000000077e-01 2.054809999999999970e-01 2.859779999999999944e+01 1.510434999999999945e+02 2.119600000000000364e+03
1.190000000000000085e-01 2.054575000000000151e-01 2.788230000000000075e+01 1.504449999999999932e+02 2.119449999999999818e+03
1.200000000000000094e-01 2.054340000000000055e-01 2.718195000000000050e+01 1.498534999999999968e+02 2.119289999999999964e+03
1.209999999999999964e-01 2.054104999999999959e-01 2.649794999999999945e+01 1.492690000000000055e+02 2.119135000000000218e+03
1.219999999999999973e-01 2.053864999999999996e-01 2.583024999999999949e+01 1.486884999999999764e+02 2.118975000000000364e+03
1.229999999999999982e-01 2.053625000000000034e-01 2.517764999999999986e+01 1.481050000000000182e+02 2.118814999999999600e+03
1.239999999999999991e-01 2.053379999999999928e-01 2.453780000000000072e+01 1.475124999999999886e+02 2.118644999999999982e+03
1.250000000000000000e-01 2.053129999999999955e-01 2.390760000000000218e+01 1.468999999999999773e+02 2.118480000000000018e+03
1.260000000000000009e-01 2.052864999999999829e-01 2.328325000000000244e+01 1.462574999999999932e+02 2.118305000000000291e+03
1.270000000000000018e-01 2.052589999999999970e-01 2.266065000000000040e+01 1.455749999999999886e+02 2.118125000000000000e+03
1.280000000000000027e-01 2.052295000000000091e-01 2.203565000000000040e+01 1.448410000000000082e+02 2.117925000000000182e+03
1.290000000000000036e-01 2.051979999999999915e-01 2.140420000000000300e+01 1.440465000000000089e+02 2.117715000000000146e+03
1.300000000000000044e-01 2.051640000000000130e-01 2.076259999999999906e+01 1.431834999999999809e+02 2.117489999999999782e+03
1.310000000000000053e-01 2.051264999999999894e-01 2.010800000000000054e+01 1.422459999999999809e+02 2.117244999999999891e+03
1.320000000000000062e-01 2.050865000000000049e-01 1.943834999999999980e+01 1.412300000000000182e+02 2.116979999999999563e+03
1.330000000000000071e-01 2.050434999999999897e-01 1.875280000000000058e+01 1.401360000000000241e+02 2.116694999999999709e+03
1.340000000000000080e-01 2.049964999999999982e-01 1.805154999999999887e+01 1.389664999999999964e+02 2.116389999999999873e+03
1.350000000000000089e-01 2.049475000000000047e-01 1.733619999999999806e+01 1.377269999999999754e+02 2.116069999999999709e+03
1.360000000000000098e-01 2.048949999999999938e-01 1.660954999999999870e+01 1.364275000000000091e+02 2.115724999999999909e+03
1.370000000000000107e-01 2.048404999999999809e-01 1.587579999999999991e+01 1.350805000000000007e+02 2.115364999999999782e+03
1.380000000000000115e-01 2.047840000000000216e-01 1.513994999999999891e+01 1.337005000000000052e+02 2.114989999999999782e+03
1.390000000000000124e-01 2.047265000000000057e-01 1.440814999999999912e+01 1.323045000000000186e+02 2.114609999999999673e+03
1.400000000000000133e-01 2.046680000000000166e-01 1.368694999999999951e+01 1.309114999999999895e+02 2.114224999999999909e+03
1.410000000000000142e-01 2.046100000000000141e-01 1.298339999999999961e+01 1.295399999999999920e+02 2.113845000000000255e+03
1.420000000000000151e-01 2.045520000000000116e-01 1.230454999999999899e+01 1.282075000000000102e+02 2.113465000000000146e+03
1.430000000000000160e-01 2.044964999999999977e-01 1.165701999999999927e+01 1.269320000000000022e+02 2.113095000000000255e+03
1.440000000000000169e-01 2.044424999999999992e-01 1.104695500000000052e+01 1.257295000000000016e+02 2.112739999999999782e+03
1.450000000000000178e-01 2.043915000000000037e-01 1.047982000000000014e+01 1.246124999999999972e+02 2.112400000000000091e+03
1.459999999999999909e-01 2.043444999999999845e-01 9.959925000000000139e+00 1.235914999999999964e+02 2.112085000000000036e+03
1.469999999999999918e-01 2.042999999999999816e-01 9.490550000000000708e+00 1.226735000000000042e+02 2.111789999999999964e+03
1.479999999999999927e-01 2.042605000000000115e-01 9.073764999999999858e+00 1.218635000000000019e+02 2.111525000000000091e+03
1.489999999999999936e-01 2.042249999999999899e-01 8.710499999999999687e+00 1.211615000000000038e+02 2.111289999999999964e+03
1.499999999999999944e-01 2.041939999999999866e-01 8.400594999999999146e+00 1.205660000000000025e+02 2.111079999999999927e+03
1.509999999999999953e-01 2.041669999999999874e-01 8.142799999999999372e+00 1.200734999999999957e+02 2.110894999999999982e+03
1.519999999999999962e-01 2.041445000000000065e-01 7.934960000000000235e+00 1.196779999999999973e+02 2.110744999999999891e+03
1.529999999999999971e-01 2.041255000000000153e-01 7.774169999999999803e+00 1.193719999999999999e+02 2.110614999999999782e+03
1.539999999999999980e-01 2.041105000000000003e-01 7.656869999999999621e+00 1.191465000000000032e+02 2.110510000000000218e+03
1.549999999999999989e-01 2.040985000000000160e-01 7.579050000000000509e+00 1.189925000000000068e+02 2.110430000000000291e+03
1.559999999999999998e-01 2.040894999999999793e-01 7.536350000000000549e+00 1.189000000000000057e+02 2.110364999999999782e+03
1.570000000000000007e-01 2.040835000000000010e-01 7.524219999999999686e+00 1.188594999999999970e+02 2.110320000000000164e+03
1.580000000000000016e-01 2.040794999999999970e-01 7.538069999999999382e+00 1.188615000000000066e+02 2.110289999999999964e+03
1.590000000000000024e-01 2.040774999999999950e-01 7.573330000000000339e+00 1.188960000000000008e+02 2.110275000000000091e+03
