# t [s], A [cm^2], U [cm/s], P [cPa], c [cm/s]
1.000000000000000021e-03 6.149375000000000258e-01 3.609100000000003972e-03 9.193260000000000787e+01 1.487514999999999873e+03
2.000000000000000042e-03 6.149270000000000014e-01 -2.361931999999999747e-03 9.191069999999999141e+01 1.487514999999999873e+03
3.000000000000000062e-03 6.149720000000000741e-01 7.195269999999999444e-02 9.197944999999999993e+01 1.487535000000000082e+03
4.000000000000000083e-03 6.150264999999999205e-01 1.682428999999999730e-01 9.209029999999999916e+01 1.487559999999999945e+03
5.000000000000000104e-03 6.150199999999999001e-01 1.724284999999999846e-01 9.208535000000000537e+01 1.487559999999999945e+03
6.000000000000000125e-03 6.149625000000000785e-01 9.109650000000002468e-02 9.193305000000000859e+01 1.487529999999999973e+03
7.000000000000000146e-03 6.149065000000000225e-01 4.243500000000011152e-03 9.171394999999999698e+01 1.487480000000000018e+03
8.000000000000000167e-03 6.148375000000000368e-01 -1.097279999999999922e-01 9.142015000000000668e+01 1.487409999999999854e+03
9.000000000000001055e-03 6.147205000000000030e-01 -3.177499999999999769e-01 9.097119999999999607e+01 1.487304999999999836e+03
1.000000000000000194e-02 6.145460000000000367e-01 -6.325950000000000184e-01 9.032399999999999807e+01 1.487154999999999973e+03
1.099999999999999936e-02 6.143100000000000227e-01 -1.056030000000000024e+00 8.944679999999999609e+01 1.486950000000000045e+03
1.200000000000000025e-02 6.139950000000000685e-01 -1.603619999999999823e+00 8.829134999999999422e+01 1.486670000000000073e+03
1.300000000000000114e-02 6.135990000000000055e-01 -2.263364999999999849e+00 8.683695000000000164e+01 1.486309999999999945e+03
1.400000000000000203e-02 6.131545000000000467e-01 -2.960515000000000008e+00 8.514334999999999809e+01 1.485889999999999873e+03
1.499999999999999944e-02 6.127149999999998986e-01 -3.575174999999999770e+00 8.334789999999999566e+01 1.485424999999999955e+03
1.600000000000000033e-02 6.123315000000000285e-01 -3.993505499999999930e+00 8.161179999999998813e+01 1.484954999999999927e+03
1.700000000000000122e-02 6.120295000000000041e-01 -4.150271700000000230e+00 8.005885000000000673e+01 1.484515000000000100e+03
1.800000000000000211e-02 6.118010000000000392e-01 -4.042593499999999729e+00 7.874045000000000982e+01 1.484115000000000009e+03
1.900000000000000300e-02 6.116194999999999826e-01 -3.718793999999999933e+00 7.763339999999999463e+01 1.483760000000000218e+03
2.000000000000000042e-02 6.114465000000000039e-01 -3.254608500000000237e+00 7.666015000000000157e+01 1.483430000000000064e+03
2.100000000000000130e-02 6.112485000000000834e-01 -2.726691250000000011e+00 7.572155000000000769e+01 1.483105000000000018e+03
2.200000000000000219e-02 6.110044999999999504e-01 -2.190755000000000230e+00 7.473005000000000564e+01 1.482779999999999973e+03
2.299999999999999961e-02 6.107110000000000039e-01 -1.669804999999999762e+00 7.363474999999999682e+01 1.482429999999999836e+03
2.400000000000000050e-02 6.103799999999999226e-01 -1.155555000000000110e+00 7.243025000000000091e+01 1.482054999999999836e+03
2.500000000000000139e-02 6.100319999999999077e-01 -6.214449999999998031e-01 7.114820000000000277e+01 1.481655000000000200e+03
2.600000000000000228e-02 6.096855000000001024e-01 -4.081499999999982364e-02 6.983669999999999334e+01 1.481259999999999991e+03
2.700000000000000316e-02 6.093515000000000459e-01 5.970349999999999824e-01 6.853655000000000541e+01 1.480849999999999909e+03
2.800000000000000058e-02 6.090284999999999727e-01 1.277959999999999985e+00 6.726364999999999839e+01 1.480449999999999818e+03
2.900000000000000147e-02 6.087029999999999941e-01 1.962594999999999867e+00 6.600064999999999316e+01 1.480054999999999836e+03
3.000000000000000236e-02 6.083529999999999216e-01 2.593034999999999535e+00 6.469899999999999807e+01 1.479644999999999982e+03
3.099999999999999978e-02 6.079555000000000931e-01 3.104305000000000092e+00 6.328970000000000340e+01 1.479215000000000146e+03
3.200000000000000067e-02 6.074884999999999868e-01 3.437755000000000116e+00 6.169995000000000118e+01 1.478744999999999891e+03
3.300000000000000155e-02 6.069415000000000227e-01 3.553459999999999841e+00 5.987174999999999869e+01 1.478220000000000027e+03
3.400000000000000244e-02 6.063149999999999373e-01 3.439100000000000268e+00 5.777805000000000035e+01 1.477630000000000109e+03
3.500000000000000333e-02 6.056215000000000348e-01 3.112624999999999975e+00 5.543274999999999864e+01 1.476985000000000127e+03
3.600000000000000422e-02 6.048864999999999936e-01 2.619029999999999969e+00 5.289225000000000421e+01 1.476289999999999964e+03
3.700000000000000511e-02 6.041419999999999568e-01 2.021605000000000096e+00 5.024790000000000134e+01 1.475559999999999945e+03
3.799999999999999906e-02 6.034224999999999728e-01 1.391239999999999810e+00 4.761280000000000001e+01 1.474835000000000036e+03
3.899999999999999994e-02 6.027595000000000036e-01 7.961099999999996513e-01 4.510715000000000430e+01 1.474119999999999891e+03
4.000000000000000083e-02 6.021794999999999787e-01 2.940249999999999808e-01 4.284345000000000425e+01 1.473470000000000027e+03
4.100000000000000172e-02 6.017015000000000002e-01 -7.166000000000005699e-02 4.091639999999999588e+01 1.472889999999999873e+03
4.200000000000000261e-02 6.013370000000000104e-01 -2.729049999999997311e-01 3.939629999999999654e+01 1.472410000000000082e+03
4.300000000000000350e-02 6.010919999999999597e-01 -2.952650000000001107e-01 3.832764999999999844e+01 1.472045000000000073e+03
4.400000000000000439e-02 6.009664999999999591e-01 -1.344899999999999984e-01 3.773085000000000377e+01 1.471799999999999955e+03
4.499999999999999833e-02 6.009565000000000046e-01 2.073605000000000032e-01 3.760654999999999859e+01 1.471684999999999945e+03
4.599999999999999922e-02 6.010584999999999400e-01 7.255249999999999755e-01 3.794185000000000230e+01 1.471700000000000045e+03
4.700000000000000011e-02 6.012655000000000083e-01 1.415015000000000134e+00 3.871529999999999916e+01 1.471835000000000036e+03
4.800000000000000100e-02 6.015740000000000531e-01 2.271694999999999798e+00 3.990160000000000196e+01 1.472089999999999918e+03
4.900000000000000189e-02 6.019780000000000131e-01 3.291889999999999539e+00 4.147409999999999997e+01 1.472460000000000036e+03
5.000000000000000278e-02 6.024715000000000487e-01 4.471039999999999459e+00 4.340505000000000280e+01 1.472924999999999955e+03
5.100000000000000366e-02 6.030480000000000285e-01 5.801800000000000068e+00 4.566530000000000200e+01 1.473500000000000000e+03
5.200000000000000455e-02 6.037000000000000144e-01 7.272575999999999929e+00 4.822230000000000416e+01 1.474159999999999854e+03
5.300000000000000544e-02 6.044169999999999821e-01 8.866481000000000279e+00 5.103945000000000221e+01 1.474900000000000091e+03
5.399999999999999939e-02 6.051874999999999893e-01 1.056141500000000022e+01 5.407504999999999740e+01 1.475710000000000036e+03
5.500000000000000028e-02 6.059989999999999544e-01 1.233070999999999984e+01 5.728255000000000052e+01 1.476575000000000045e+03
5.600000000000000117e-02 6.068370000000000708e-01 1.414483000000000068e+01 6.061240000000000094e+01 1.477485000000000127e+03
5.700000000000000205e-02 6.076890000000000347e-01 1.597325499999999820e+01 6.401355000000000928e+01 1.478429999999999836e+03
5.800000000000000294e-02 6.085415000000000685e-01 1.778636499999999998e+01 6.743659999999999854e+01 1.479389999999999873e+03
5.900000000000000383e-02 6.093839999999999257e-01 1.955720000000000169e+01 7.083594999999999686e+01 1.480355000000000018e+03
6.000000000000000472e-02 6.102075000000000138e-01 2.126304999999999978e+01 7.417229999999999279e+01 1.481315000000000055e+03
6.099999999999999867e-02 6.110055000000000902e-01 2.288589999999999947e+01 7.741429999999999723e+01 1.482255000000000109e+03
6.199999999999999956e-02 6.117740000000000400e-01 2.441310000000000002e+01 8.053960000000000719e+01 1.483180000000000064e+03
6.300000000000000044e-02 6.125110000000000277e-01 2.583704999999999785e+01 8.353499999999999659e+01 1.484065000000000055e+03
6.400000000000000133e-02 6.132170000000000121e-01 2.715474999999999994e+01 8.639609999999998990e+01 1.484929999999999836e+03
6.500000000000000222e-02 6.138935000000000919e-01 2.836720000000000041e+01 8.912614999999999554e+01 1.485755000000000109e+03
6.600000000000000311e-02 6.145439999999999792e-01 2.947869999999999990e+01 9.173465000000000202e+01 1.486550000000000182e+03
6.700000000000000400e-02 6.151725000000000110e-01 3.049569999999999936e+01 9.423695000000000732e+01 1.487325000000000045e+03
6.800000000000000488e-02 6.157839999999999980e-01 3.142670000000000030e+01 9.665000000000000568e+01 1.488069999999999936e+03
6.900000000000000577e-02 6.163829999999999032e-01 3.228105000000000047e+01 9.899430000000000973e+01 1.488795000000000073e+03
7.000000000000000666e-02 6.169744999999999813e-01 3.306824999999999903e+01 1.012888999999999982e+02 1.489500000000000000e+03
7.100000000000000755e-02 6.175619999999999443e-01 3.379779999999999518e+01 1.035527000000000015e+02 1.490199999999999818e+03
7.200000000000000844e-02 6.181494999999999074e-01 3.447794999999999987e+01 1.058015000000000043e+02 1.490894999999999982e+03
7.300000000000000933e-02 6.187389999999999279e-01 3.511574999999999847e+01 1.080485000000000042e+02 1.491579999999999927e+03
7.399999999999999634e-02 6.193319999999999936e-01 3.571614999999999895e+01 1.103000000000000114e+02 1.492269999999999982e+03
7.499999999999999722e-02 6.199285000000001045e-01 3.628180000000000405e+01 1.125584999999999951e+02 1.492954999999999927e+03
7.599999999999999811e-02 6.205255000000000631e-01 3.681305000000000405e+01 1.148215000000000003e+02 1.493644999999999982e+03
7.699999999999999900e-02 6.211219999999999519e-01 3.730785000000000196e+01 1.170799999999999983e+02 1.494329999999999927e+03
7.799999999999999989e-02 6.217120000000000424e-01 3.776184999999999548e+01 1.193205000000000098e+02 1.495014999999999873e+03
7.900000000000000078e-02 6.222920000000000673e-01 3.816920000000000357e+01 1.215260000000000105e+02 1.495684999999999945e+03
8.000000000000000167e-02 6.228560000000000763e-01 3.852264999999999873e+01 1.236749999999999972e+02 1.496349999999999909e+03
8.100000000000000255e-02 6.233975000000000488e-01 3.881439999999999912e+01 1.257455000000000069e+02 1.496985000000000127e+03
8.200000000000000344e-02 6.239114999999999522e-01 3.903674999999999784e+01 1.277154999999999916e+02 1.497594999999999800e+03
8.300000000000000433e-02 6.243920000000000581e-01 3.918224999999999625e+01 1.295625000000000000e+02 1.498174999999999955e+03
8.400000000000000522e-02 6.248350000000000293e-01 3.924465000000000003e+01 1.312665000000000077e+02 1.498710000000000036e+03
8.500000000000000611e-02 6.252364999999999728e-01 3.921900000000000119e+01 1.328110000000000070e+02 1.499215000000000146e+03
8.600000000000000699e-02 6.255924999999999958e-01 3.910195000000000221e+01 1.341825000000000045e+02 1.499659999999999854e+03
8.700000000000000788e-02 6.259025000000000283e-01 3.889204999999999757e+01 1.353720000000000141e+02 1.500059999999999945e+03
8.800000000000000877e-02 6.261650000000000826e-01 3.858974999999999511e+01 1.363745000000000118e+02 1.500404999999999973e+03
8.899999999999999578e-02 6.263799999999999368e-01 3.819754999999999967e+01 1.371890000000000214e+02 1.500695000000000164e+03
8.999999999999999667e-02 6.265495000000000925e-01 3.771954999999999814e+01 1.378205000000000098e+02 1.500934999999999945e+03
9.099999999999999756e-02 6.266749999999999821e-01 3.716205000000000069e+01 1.382769999999999868e+02 1.501115000000000009e+03
9.199999999999999845e-02 6.267605000000000537e-01 3.653244999999999720e+01 1.385690000000000168e+02 1.501255000000000109e+03
9.299999999999999933e-02 6.268089999999999495e-01 3.583979999999999677e+01 1.387124999999999773e+02 1.501345000000000027e+03
9.400000000000000022e-02 6.268249999999999655e-01 3.509420000000000073e+01 1.387224999999999966e+02 1.501394999999999982e+03
9.500000000000000111e-02 6.268145000000000522e-01 3.430634999999999479e+01 1.386195000000000164e+02 1.501409999999999854e+03
9.600000000000000200e-02 6.267804999999999627e-01 3.348754999999999882e+01 1.384230000000000018e+02 1.501384999999999991e+03
9.700000000000000289e-02 6.267294999999999394e-01 3.264914999999999878e+01 1.381535000000000082e+02 1.501340000000000146e+03
9.800000000000000377e-02 6.266650000000000276e-01 3.180225000000000080e+01 1.378299999999999841e+02 1.501275000000000091e+03
9.900000000000000466e-02 6.265929999999999556e-01 3.095714999999999861e+01 1.374725000000000250e+02 1.501190000000000055e+03
1.000000000000000056e-01 6.265169999999999906e-01 3.012335000000000207e+01 1.370985000000000014e+02 1.501099999999999909e+03
1.010000000000000064e-01 6.264410000000000256e-01 2.930910000000000082e+01 1.367235000000000014e+02 1.501005000000000109e+03
1.020000000000000073e-01 6.263674999999999660e-01 2.852090000000000103e+01 1.363600000000000136e+02 1.500904999999999973e+03
1.030000000000000082e-01 6.262989999999999391e-01 2.776375000000000171e+01 1.360169999999999959e+02 1.500809999999999945e+03
1.040000000000000091e-01 6.262364999999999737e-01 2.704079999999999728e+01 1.357030000000000030e+02 1.500715000000000146e+03
1.050000000000000100e-01 6.261799999999999589e-01 2.635334999999999894e+01 1.354199999999999875e+02 1.500634999999999991e+03
1.059999999999999970e-01 6.261305000000000343e-01 2.570094999999999885e+01 1.351684999999999945e+02 1.500554999999999836e+03
1.069999999999999979e-01 6.260864999999999903e-01 2.508149999999999835e+01 1.349465000000000146e+02 1.500485000000000127e+03
1.079999999999999988e-01 6.260464999999999502e-01 2.449150000000000205e+01 1.347485000000000070e+02 1.500420000000000073e+03
1.089999999999999997e-01 6.260084999999999678e-01 2.392634999999999934e+01 1.345670000000000073e+02 1.500360000000000127e+03
1.100000000000000006e-01 6.259699999999999154e-01 2.338040000000000163e+01 1.343935000000000173e+02 1.500295000000000073e+03
1.110000000000000014e-01 6.259289999999999576e-01 2.284740000000000038e+01 1.342175000000000011e+02 1.500240000000000009e+03
1.120000000000000023e-01 6.258824999999998973e-01 2.232110000000000127e+01 1.340285000000000082e+02 1.500175000000000182e+03
1.130000000000000032e-01 6.258280000000000509e-01 2.179495000000000005e+01 1.338160000000000025e+02 1.500114999999999782e+03
1.140000000000000041e-01 6.257624999999999993e-01 2.126279999999999859e+01 1.335704999999999814e+02 1.500039999999999964e+03
1.150000000000000050e-01 6.256850000000000467e-01 2.071920000000000073e+01 1.332814999999999941e+02 1.499954999999999927e+03
1.160000000000000059e-01 6.255934999999999135e-01 2.015934999999999988e+01 1.329435000000000002e+02 1.499855000000000018e+03
1.170000000000000068e-01 6.254870000000000152e-01 1.957965000000000089e+01 1.325490000000000066e+02 1.499744999999999891e+03
1.180000000000000077e-01 6.253640000000000310e-01 1.897749999999999915e+01 1.320955000000000155e+02 1.499615000000000009e+03
1.190000000000000085e-01 6.252260000000000595e-01 1.835170000000000101e+01 1.315810000000000173e+02 1.499474999999999909e+03
1.200000000000000094e-01 6.250725000000000309e-01 1.770234999999999914e+01 1.310070000000000050e+02 1.499309999999999945e+03
1.209999999999999964e-01 6.249055000000000026e-01 1.703105000000000047e+01 1.303770000000000095e+02 1.499139999999999873e+03
1.219999999999999973e-01 6.247260000000000035e-01 1.634060000000000201e+01 1.296959999999999980e+02 1.498944999999999936e+03
1.229999999999999982e-01 6.245359999999999800e-01 1.563504999999999967e+01 1.289730000000000132e+02 1.498744999999999891e+03
1.239999999999999991e-01 6.243395000000000472e-01 1.491955000000000098e+01 1.282164999999999964e+02 1.498529999999999973e+03
1.250000000000000000e-01 6.241384999999999295e-01 1.420012000000000008e+01 1.274385000000000048e+02 1.498309999999999945e+03
1.260000000000000009e-01 6.239365000000000050e-01 1.348351000000000077e+01 1.266504999999999939e+02 1.498085000000000036e+03
1.270000000000000018e-01 6.237369999999999859e-01 1.277689000000000163e+01 1.258659999999999997e+02 1.497855000000000018e+03
1.280000000000000027e-01 6.235429999999999584e-01 1.208750999999999998e+01 1.250974999999999966e+02 1.497630000000000109e+03
1.290000000000000036e-01 6.233575000000000088e-01 1.142248000000000019e+01 1.243589999999999947e+02 1.497414999999999964e+03
1.300000000000000044e-01 6.231839999999999602e-01 1.078867999999999938e+01 1.236605000000000132e+02 1.497204999999999927e+03
1.310000000000000053e-01 6.230244999999999811e-01 1.019219499999999989e+01 1.230139999999999958e+02 1.497009999999999991e+03
1.320000000000000062e-01 6.228815000000000879e-01 9.638210000000000832e+00 1.224279999999999973e+02 1.496829999999999927e+03
1.330000000000000071e-01 6.227564999999999351e-01 9.131069999999999354e+00 1.219099999999999966e+02 1.496664999999999964e+03
1.340000000000000080e-01 6.226504999999999956e-01 8.673719999999999430e+00 1.214650000000000034e+02 1.496519999999999982e+03
1.350000000000000089e-01 6.225635000000000474e-01 8.267929999999999779e+00 1.210949999999999989e+02 1.496389999999999873e+03
1.360000000000000098e-01 6.224959999999999383e-01 7.914205000000000823e+00 1.208015000000000043e+02 1.496289999999999964e+03
1.370000000000000107e-01 6.224460000000000548e-01 7.611729999999999663e+00 1.205815000000000055e+02 1.496204999999999927e+03
1.380000000000000115e-01 6.224140000000000228e-01 7.358544999999999447e+00 1.204309999999999974e+02 1.496144999999999982e+03
1.390000000000000124e-01 6.223974999999999369e-01 7.151645000000000252e+00 1.203449999999999989e+02 1.496099999999999909e+03
1.400000000000000133e-01 6.223935000000000439e-01 6.987129999999999619e+00 1.203160000000000025e+02 1.496069999999999936e+03
1.410000000000000142e-01 6.224009999999999820e-01 6.860419999999999519e+00 1.203340000000000032e+02 1.496059999999999945e+03
1.420000000000000151e-01 6.224174999999999569e-01 6.766445000000000043e+00 1.203919999999999959e+02 1.496054999999999836e+03
1.430000000000000160e-01 6.224399999999999933e-01 6.699849999999999639e+00 1.204789999999999992e+02 1.496065000000000055e+03
1.440000000000000169e-01 6.224665000000000337e-01 6.655215000000000103e+00 1.205854999999999961e+02 1.496085000000000036e+03
1.450000000000000178e-01 6.224950000000000205e-01 6.627205000000000013e+00 1.207030000000000030e+02 1.496105000000000018e+03
1.459999999999999909e-01 6.225229999999999375e-01 6.610759999999999970e+00 1.208220000000000027e+02 1.496134999999999991e+03
1.469999999999999918e-01 6.225484999999999491e-01 6.601224999999999454e+00 1.209364999999999952e+02 1.496154999999999973e+03
1.479999999999999927e-01 6.225709999999999855e-01 6.594409999999999883e+00 1.210390000000000015e+02 1.496184999999999945e+03
1.489999999999999936e-01 6.225890000000000590e-01 6.586705000000000254e+00 1.211244999999999976e+02 1.496204999999999927e+03
1.499999999999999944e-01 6.226009999999999600e-01 6.575129999999999697e+00 1.211895000000000095e+02 1.496220000000000027e+03
1.509999999999999953e-01 6.226074999999999804e-01 6.557290000000000063e+00 1.212309999999999945e+02 1.496230000000000018e+03
1.519999999999999962e-01 6.226074999999999804e-01 6.531425000000000480e+00 1.212475000000000023e+02 1.496235000000000127e+03
1.529999999999999971e-01 6.226015000000000299e-01 6.496344999999999814e+00 1.212390000000000043e+02 1.496234999999999900e+03
1.539999999999999980e-01 6.225894999999999069e-01 6.451414999999999900e+00 1.212065000000000055e+02 1.496230000000000018e+03
1.549999999999999989e-01 6.225720000000000143e-01 6.396494999999999820e+00 1.211500000000000057e+02 1.496220000000000027e+03
1.559999999999999998e-01 6.225495000000000889e-01 6.331855000000000011e+00 1.210730000000000075e+02 1.496195000000000164e+03
1.570000000000000007e-01 6.225225000000000897e-01 6.258150000000000546e+00 1.209765000000000015e+02 1.496175000000000182e+03
1.580000000000000016e-01 6.224925000000000042e-01 6.176320000000000476e+00 1.208644999999999925e+02 1.496139999999999873e+03
1.590000000000000024e-01 6.224594999999999434e-01 6.087555000000000049e+00 1.207390000000000043e+02 1.496110000000000127e+03
