# t [s], A [cm^2], U [cm/s], P [cPa], c [cm/s]
1.000000000000000021e-03 5.742414999999999603e-01 4.266849999999995646e-03 1.090455000000000041e+02 1.476970000000000027e+03
2.000000000000000042e-03 5.742335000000000633e-01 -1.310229999999999956e-04 1.090289999999999964e+02 1.476964999999999918e+03
3.000000000000000062e-03 5.742605000000000626e-01 4.313354999999999273e-02 1.090709999999999980e+02 1.476980000000000018e+03
4.000000000000000083e-03 5.743104999999999460e-01 1.260469999999999924e-01 1.091724999999999994e+02 1.477005000000000109e+03
5.000000000000000104e-03 5.743245000000000156e-01 1.543210000000000137e-01 1.092109999999999985e+02 1.477019999999999982e+03
6.000000000000000125e-03 5.742924999999999836e-01 1.079065500000000039e-01 1.091324999999999932e+02 1.477000000000000000e+03
7.000000000000000146e-03 5.742515000000000258e-01 4.223499999999999477e-02 1.089834999999999923e+02 1.476970000000000027e+03
8.000000000000000167e-03 5.742129999999999734e-01 -2.174500000000001432e-02 1.087955000000000041e+02 1.476924999999999955e+03
9.000000000000001055e-03 5.741530000000000244e-01 -1.307685000000000097e-01 1.085229999999999961e+02 1.476860000000000127e+03
1.000000000000000194e-02 5.740534999999999943e-01 -3.171800000000000175e-01 1.081170000000000044e+02 1.476764999999999873e+03
1.099999999999999936e-02 5.739099999999999202e-01 -5.883650000000001379e-01 1.075444999999999993e+02 1.476625000000000000e+03
1.200000000000000025e-02 5.737119999999999997e-01 -9.554050000000000598e-01 1.067674999999999983e+02 1.476434999999999945e+03
1.300000000000000114e-02 5.734504999999999741e-01 -1.423465000000000202e+00 1.057505000000000024e+02 1.476179999999999836e+03
1.400000000000000203e-02 5.731325000000000447e-01 -1.962919999999999998e+00 1.044980500000000063e+02 1.475860000000000127e+03
1.499999999999999944e-02 5.727880000000000749e-01 -2.503470000000000084e+00 1.030708500000000072e+02 1.475485000000000127e+03
1.600000000000000033e-02 5.724515000000000020e-01 -2.958200000000000163e+00 1.015686000000000035e+02 1.475075000000000045e+03
1.700000000000000122e-02 5.721494999999999775e-01 -3.255745000000000111e+00 1.000902000000000100e+02 1.474660000000000082e+03
1.800000000000000211e-02 5.718924999999999148e-01 -3.360197499999999948e+00 9.870555000000000234e+01 1.474250000000000000e+03
1.900000000000000300e-02 5.716725000000000279e-01 -3.273670000000000080e+00 9.743904999999999461e+01 1.473855000000000018e+03
2.000000000000000042e-02 5.714719999999999800e-01 -3.026647499999999713e+00 9.627385000000001014e+01 1.473480000000000018e+03
2.100000000000000130e-02 5.712699999999999445e-01 -2.663185000000000358e+00 9.516649999999999920e+01 1.473105000000000018e+03
2.200000000000000219e-02 5.710480000000000000e-01 -2.226424999999999876e+00 9.406444999999999368e+01 1.472735000000000127e+03
2.299999999999999961e-02 5.707959999999999701e-01 -1.747654999999999959e+00 9.292305000000000348e+01 1.472349999999999909e+03
2.400000000000000050e-02 5.705124999999999780e-01 -1.241040000000000143e+00 9.171729999999999450e+01 1.471950000000000045e+03
2.500000000000000139e-02 5.702039999999999331e-01 -7.046799999999997510e-01 9.044585000000000719e+01 1.471525000000000091e+03
2.600000000000000228e-02 5.698824999999999585e-01 -1.270850000000001145e-01 8.912669999999999959e+01 1.471095000000000027e+03
2.700000000000000316e-02 5.695584999999999676e-01 5.037250000000002004e-01 8.778714999999999691e+01 1.470655000000000200e+03
2.800000000000000058e-02 5.692375000000000629e-01 1.191705000000000236e+00 8.645204999999999984e+01 1.470210000000000036e+03
2.900000000000000147e-02 5.689214999999999689e-01 1.927440000000000042e+00 8.513400000000000034e+01 1.469769999999999982e+03
3.000000000000000236e-02 5.686039999999999983e-01 2.687014999999999709e+00 8.382819999999999538e+01 1.469325000000000045e+03
3.099999999999999978e-02 5.682749999999999746e-01 3.434804999999999886e+00 8.251215000000000543e+01 1.468889999999999873e+03
3.200000000000000067e-02 5.679210000000000091e-01 4.129129999999999967e+00 8.115019999999999811e+01 1.468434999999999945e+03
3.300000000000000155e-02 5.675304999999999378e-01 4.729510000000000325e+00 7.970189999999999486e+01 1.467960000000000036e+03
3.400000000000000244e-02 5.670960000000000445e-01 5.203434999999999810e+00 7.813114999999999100e+01 1.467460000000000036e+03
3.500000000000000333e-02 5.666145000000000209e-01 5.532504999999999562e+00 7.641564999999999941e+01 1.466924999999999955e+03
3.600000000000000422e-02 5.660910000000000108e-01 5.715065000000000062e+00 7.455340000000001055e+01 1.466360000000000127e+03
3.700000000000000511e-02 5.655375000000000263e-01 5.766039999999999388e+00 7.256569999999999254e+01 1.465759999999999991e+03
3.799999999999999906e-02 5.649695000000000134e-01 5.713859999999999495e+00 7.049535000000000196e+01 1.465140000000000100e+03
3.899999999999999994e-02 5.644059999999999633e-01 5.595225000000000115e+00 6.840139999999999532e+01 1.464509999999999991e+03
4.000000000000000083e-02 5.638670000000000071e-01 5.449360000000000426e+00 6.635184999999999889e+01 1.463889999999999873e+03
4.100000000000000172e-02 5.633690000000000087e-01 5.313064999999999927e+00 6.441604999999999848e+01 1.463295000000000073e+03
4.200000000000000261e-02 5.629260000000000375e-01 5.217120000000000424e+00 6.265760000000000218e+01 1.462744999999999891e+03
4.300000000000000350e-02 5.625480000000000480e-01 5.184974999999999667e+00 6.112995000000000090e+01 1.462255000000000109e+03
4.400000000000000439e-02 5.622424999999999784e-01 5.232546999999999393e+00 5.987395000000000067e+01 1.461835000000000036e+03
4.499999999999999833e-02 5.620119999999999560e-01 5.369533000000000555e+00 5.891760000000000019e+01 1.461494999999999891e+03
4.599999999999999922e-02 5.618585000000000385e-01 5.601404999999999745e+00 5.827729999999999677e+01 1.461250000000000000e+03
4.700000000000000011e-02 5.617820000000000036e-01 5.931300000000000239e+00 5.796025000000000205e+01 1.461094999999999800e+03
4.800000000000000100e-02 5.617830000000000323e-01 6.361810000000000187e+00 5.796739999999999782e+01 1.461034999999999854e+03
4.900000000000000189e-02 5.618589999999999973e-01 6.896005000000000607e+00 5.829569999999999652e+01 1.461070000000000164e+03
5.000000000000000278e-02 5.620110000000000383e-01 7.537720000000000198e+00 5.894010000000000105e+01 1.461200000000000045e+03
5.100000000000000366e-02 5.622385000000000854e-01 8.291055000000000064e+00 5.989404999999999291e+01 1.461420000000000073e+03
5.200000000000000455e-02 5.625390000000000112e-01 9.159394999999999953e+00 6.114985000000000070e+01 1.461735000000000127e+03
5.300000000000000544e-02 5.629115000000000091e-01 1.014426500000000075e+01 6.269760000000000133e+01 1.462139999999999873e+03
5.399999999999999939e-02 5.633520000000000749e-01 1.124424999999999919e+01 6.452450000000000330e+01 1.462630000000000109e+03
5.500000000000000028e-02 5.638575000000000115e-01 1.245406999999999975e+01 6.661345000000000027e+01 1.463200000000000045e+03
5.600000000000000117e-02 5.644200000000000328e-01 1.376458000000000048e+01 6.894310000000000116e+01 1.463855000000000018e+03
5.700000000000000205e-02 5.650340000000000362e-01 1.516289499999999890e+01 7.148724999999998886e+01 1.464570000000000164e+03
5.800000000000000294e-02 5.656904999999999850e-01 1.663280999999999921e+01 7.421580000000000155e+01 1.465349999999999909e+03
5.900000000000000383e-02 5.663810000000000233e-01 1.815630000000000166e+01 7.709550000000000125e+01 1.466180000000000064e+03
6.000000000000000472e-02 5.670965000000000034e-01 1.971430000000000149e+01 8.009165000000000134e+01 1.467055000000000064e+03
6.099999999999999867e-02 5.678284999999999583e-01 2.128770000000000095e+01 8.316965000000000430e+01 1.467960000000000036e+03
6.199999999999999956e-02 5.685700000000000198e-01 2.285879999999999868e+01 8.629634999999998968e+01 1.468894999999999982e+03
6.300000000000000044e-02 5.693129999999999580e-01 2.441185000000000116e+01 8.944225000000000136e+01 1.469840000000000146e+03
6.400000000000000133e-02 5.700529999999999209e-01 2.593345000000000056e+01 9.258159999999999457e+01 1.470795000000000073e+03
6.500000000000000222e-02 5.707865000000000855e-01 2.741295000000000215e+01 9.569325000000000614e+01 1.471744999999999891e+03
6.600000000000000311e-02 5.715099999999999625e-01 2.884234999999999971e+01 9.876179999999999382e+01 1.472699999999999818e+03
6.700000000000000400e-02 5.722220000000000084e-01 3.021624999999999872e+01 1.017766000000000020e+02 1.473634999999999991e+03
6.800000000000000488e-02 5.729214999999999725e-01 3.153120000000000189e+01 1.047317000000000036e+02 1.474559999999999945e+03
6.900000000000000577e-02 5.736084999999999656e-01 3.278549999999999898e+01 1.076247000000000043e+02 1.475480000000000018e+03
7.000000000000000666e-02 5.742845000000000866e-01 3.397875000000000512e+01 1.104569999999999936e+02 1.476380000000000109e+03
7.100000000000000755e-02 5.749495000000000022e-01 3.511129999999999995e+01 1.132319999999999993e+02 1.477259999999999991e+03
7.200000000000000844e-02 5.756050000000000333e-01 3.618399999999999750e+01 1.159519999999999982e+02 1.478134999999999991e+03
7.300000000000000933e-02 5.762504999999999988e-01 3.719780000000000086e+01 1.186239999999999952e+02 1.478994999999999891e+03
7.399999999999999634e-02 5.768885000000000263e-01 3.815319999999999823e+01 1.212494999999999976e+02 1.479840000000000146e+03
7.499999999999999722e-02 5.775185000000000457e-01 3.905070000000000618e+01 1.238329999999999984e+02 1.480670000000000073e+03
7.599999999999999811e-02 5.781395000000000284e-01 3.988974999999999937e+01 1.263750000000000000e+02 1.481494999999999891e+03
7.699999999999999900e-02 5.787519999999999332e-01 4.066944999999999766e+01 1.288745000000000118e+02 1.482305000000000064e+03
7.799999999999999989e-02 5.793535000000000768e-01 4.138800000000000523e+01 1.313290000000000077e+02 1.483105000000000018e+03
7.900000000000000078e-02 5.799434999999999452e-01 4.204319999999999879e+01 1.337314999999999827e+02 1.483884999999999991e+03
8.000000000000000167e-02 5.805199999999999250e-01 4.263199999999999790e+01 1.360765000000000100e+02 1.484650000000000091e+03
8.100000000000000255e-02 5.810794999999999710e-01 4.315149999999999864e+01 1.383534999999999968e+02 1.485400000000000091e+03
8.200000000000000344e-02 5.816200000000000259e-01 4.359825000000000017e+01 1.405534999999999854e+02 1.486125000000000000e+03
8.300000000000000433e-02 5.821389999999999620e-01 4.396925000000000239e+01 1.426664999999999850e+02 1.486825000000000045e+03
8.400000000000000522e-02 5.826335000000000264e-01 4.426160000000000139e+01 1.446800000000000068e+02 1.487494999999999891e+03
8.500000000000000611e-02 5.831014999999999393e-01 4.447310000000000230e+01 1.465844999999999914e+02 1.488140000000000100e+03
8.600000000000000699e-02 5.835409999999999764e-01 4.460195000000000221e+01 1.483714999999999975e+02 1.488740000000000009e+03
8.700000000000000788e-02 5.839499999999999691e-01 4.464744999999999919e+01 1.500319999999999823e+02 1.489309999999999945e+03
8.800000000000000877e-02 5.843270000000000408e-01 4.460930000000000462e+01 1.515595000000000141e+02 1.489839999999999918e+03
8.899999999999999578e-02 5.846704999999999819e-01 4.448834999999999695e+01 1.529490000000000123e+02 1.490324999999999818e+03
8.999999999999999667e-02 5.849815000000000431e-01 4.428614999999999924e+01 1.541984999999999957e+02 1.490769999999999982e+03
9.099999999999999756e-02 5.852585000000000148e-01 4.400525000000000375e+01 1.553059999999999832e+02 1.491175000000000182e+03
9.199999999999999845e-02 5.855025000000000368e-01 4.364884999999999593e+01 1.562725000000000080e+02 1.491529999999999973e+03
9.299999999999999933e-02 5.857134999999999980e-01 4.322095000000000198e+01 1.571014999999999873e+02 1.491840000000000146e+03
9.400000000000000022e-02 5.858929999999999971e-01 4.272634999999999650e+01 1.577959999999999923e+02 1.492110000000000127e+03
9.500000000000000111e-02 5.860429999999999806e-01 4.217065000000000197e+01 1.583629999999999995e+02 1.492340000000000146e+03
9.600000000000000200e-02 5.861644999999999772e-01 4.155975000000000108e+01 1.588100000000000023e+02 1.492529999999999973e+03
9.700000000000000289e-02 5.862595000000000445e-01 4.090050000000000097e+01 1.591444999999999936e+02 1.492679999999999836e+03
9.800000000000000377e-02 5.863315000000000055e-01 4.019979999999999620e+01 1.593779999999999859e+02 1.492795000000000073e+03
9.900000000000000466e-02 5.863819999999999588e-01 3.946519999999999584e+01 1.595199999999999818e+02 1.492884999999999991e+03
1.000000000000000056e-01 5.864135000000000320e-01 3.870414999999999850e+01 1.595810000000000173e+02 1.492945000000000164e+03
1.010000000000000064e-01 5.864289999999999781e-01 3.792414999999999736e+01 1.595740000000000123e+02 1.492980000000000018e+03
1.020000000000000073e-01 5.864314999999999944e-01 3.713250000000000028e+01 1.595099999999999909e+02 1.492990000000000009e+03
1.030000000000000082e-01 5.864230000000000276e-01 3.633599999999999852e+01 1.593985000000000127e+02 1.492980000000000018e+03
1.040000000000000091e-01 5.864059999999999828e-01 3.554104999999999848e+01 1.592515000000000214e+02 1.492954999999999927e+03
1.050000000000000100e-01 5.863825000000000287e-01 3.475289999999999679e+01 1.590774999999999864e+02 1.492920000000000073e+03
1.059999999999999970e-01 5.863540000000000418e-01 3.397614999999999696e+01 1.588845000000000027e+02 1.492880000000000109e+03
1.069999999999999979e-01 5.863220000000000098e-01 3.321414999999999651e+01 1.586789999999999736e+02 1.492824999999999818e+03
1.079999999999999988e-01 5.862870000000000026e-01 3.246925000000000239e+01 1.584650000000000034e+02 1.492769999999999982e+03
1.089999999999999997e-01 5.862499999999999378e-01 3.174264999999999759e+01 1.582454999999999927e+02 1.492710000000000036e+03
1.100000000000000006e-01 5.862100000000000088e-01 3.103450000000000131e+01 1.580219999999999914e+02 1.492644999999999982e+03
1.110000000000000014e-01 5.861680000000000224e-01 3.034384999999999977e+01 1.577930000000000064e+02 1.492570000000000164e+03
1.120000000000000023e-01 5.861224999999999907e-01 2.966890000000000072e+01 1.575579999999999927e+02 1.492500000000000000e+03
1.130000000000000032e-01 5.860729999999999551e-01 2.900740000000000052e+01 1.573129999999999882e+02 1.492425000000000182e+03
1.140000000000000041e-01 5.860184999999999977e-01 2.835630000000000095e+01 1.570534999999999854e+02 1.492344999999999800e+03
1.150000000000000050e-01 5.859569999999999501e-01 2.771244999999999692e+01 1.567744999999999891e+02 1.492255000000000109e+03
1.160000000000000059e-01 5.858885000000000343e-01 2.707230000000000203e+01 1.564730000000000132e+02 1.492159999999999854e+03
1.170000000000000068e-01 5.858114999999999295e-01 2.643265000000000242e+01 1.561419999999999959e+02 1.492059999999999945e+03
1.180000000000000077e-01 5.857250000000000512e-01 2.579019999999999868e+01 1.557785000000000082e+02 1.491949999999999818e+03
1.190000000000000085e-01 5.856280000000000374e-01 2.514235000000000042e+01 1.553779999999999859e+02 1.491825000000000045e+03
1.200000000000000094e-01 5.855209999999999582e-01 2.448659999999999926e+01 1.549375000000000000e+02 1.491690000000000055e+03
1.209999999999999964e-01 5.854025000000000478e-01 2.382119999999999749e+01 1.544550000000000125e+02 1.491539999999999964e+03
1.219999999999999973e-01 5.852730000000000432e-01 2.314504999999999768e+01 1.539304999999999950e+02 1.491384999999999991e+03
1.229999999999999982e-01 5.851330000000000142e-01 2.245769999999999911e+01 1.533634999999999877e+02 1.491215000000000146e+03
1.239999999999999991e-01 5.849830000000000307e-01 2.175925000000000153e+01 1.527560000000000002e+02 1.491029999999999973e+03
1.250000000000000000e-01 5.848234999999999406e-01 2.105079999999999885e+01 1.521109999999999900e+02 1.490835000000000036e+03
1.260000000000000009e-01 5.846565000000000234e-01 2.033389999999999986e+01 1.514329999999999927e+02 1.490630000000000109e+03
1.270000000000000018e-01 5.844830000000000858e-01 1.961080000000000112e+01 1.507255000000000109e+02 1.490409999999999854e+03
1.280000000000000027e-01 5.843040000000000456e-01 1.888439999999999941e+01 1.499960000000000093e+02 1.490184999999999945e+03
1.290000000000000036e-01 5.841220000000000301e-01 1.815800000000000125e+01 1.492510000000000048e+02 1.489960000000000036e+03
1.300000000000000044e-01 5.839395000000000557e-01 1.743554999999999922e+01 1.484975000000000023e+02 1.489724999999999909e+03
1.310000000000000053e-01 5.837565000000000115e-01 1.672090000000000032e+01 1.477445000000000164e+02 1.489494999999999891e+03
1.320000000000000062e-01 5.835770000000000124e-01 1.601849999999999952e+01 1.469984999999999786e+02 1.489259999999999991e+03
1.330000000000000071e-01 5.834015000000000173e-01 1.533259999999999934e+01 1.462684999999999889e+02 1.489035000000000082e+03
1.340000000000000080e-01 5.832330000000000014e-01 1.466748499999999922e+01 1.455620000000000118e+02 1.488809999999999945e+03
1.350000000000000089e-01 5.830720000000000347e-01 1.402716500000000011e+01 1.448860000000000241e+02 1.488589999999999918e+03
1.360000000000000098e-01 5.829210000000000225e-01 1.341549999999999976e+01 1.442475000000000023e+02 1.488384999999999991e+03
1.370000000000000107e-01 5.827804999999999236e-01 1.283572000000000024e+01 1.436514999999999986e+02 1.488190000000000055e+03
1.380000000000000115e-01 5.826520000000000588e-01 1.229067500000000024e+01 1.431039999999999850e+02 1.488009999999999991e+03
1.390000000000000124e-01 5.825365000000000126e-01 1.178265000000000029e+01 1.426075000000000159e+02 1.487840000000000146e+03
1.400000000000000133e-01 5.824344999999999661e-01 1.131309999999999860e+01 1.421655000000000086e+02 1.487690000000000055e+03
1.410000000000000142e-01 5.823454999999999604e-01 1.088298499999999969e+01 1.417785000000000082e+02 1.487550000000000182e+03
1.420000000000000151e-01 5.822694999999999954e-01 1.049246499999999926e+01 1.414465000000000146e+02 1.487430000000000064e+03
1.430000000000000160e-01 5.822065000000000712e-01 1.014110999999999940e+01 1.411684999999999945e+02 1.487329999999999927e+03
1.440000000000000169e-01 5.821554999999999369e-01 9.827829999999998734e+00 1.409420000000000073e+02 1.487240000000000009e+03
1.450000000000000178e-01 5.821159999999999668e-01 9.550885000000000957e+00 1.407640000000000100e+02 1.487170000000000073e+03
1.459999999999999909e-01 5.820859999999999923e-01 9.308220000000000383e+00 1.406299999999999955e+02 1.487105000000000018e+03
1.469999999999999918e-01 5.820650000000000546e-01 9.097249999999998948e+00 1.405355000000000132e+02 1.487065000000000055e+03
1.479999999999999927e-01 5.820520000000000138e-01 8.915240000000000720e+00 1.404750000000000227e+02 1.487025000000000091e+03
1.489999999999999936e-01 5.820450000000000346e-01 8.759090000000000487e+00 1.404440000000000168e+02 1.487005000000000109e+03
1.499999999999999944e-01 5.820434999999999359e-01 8.625859999999999417e+00 1.404365000000000236e+02 1.486990000000000009e+03
1.509999999999999953e-01 5.820450000000000346e-01 8.512439999999999785e+00 1.404474999999999909e+02 1.486980000000000018e+03
1.519999999999999962e-01 5.820499999999999563e-01 8.415910000000000224e+00 1.404714999999999918e+02 1.486969999999999800e+03
1.529999999999999971e-01 5.820560000000000178e-01 8.333510000000000417e+00 1.405040000000000191e+02 1.486974999999999909e+03
1.539999999999999980e-01 5.820635000000000669e-01 8.262700000000000600e+00 1.405414999999999850e+02 1.486974999999999909e+03
1.549999999999999989e-01 5.820705000000000462e-01 8.201204999999999856e+00 1.405805000000000007e+02 1.486980000000000018e+03
1.559999999999999998e-01 5.820775000000000254e-01 8.147045000000000314e+00 1.406184999999999832e+02 1.486985000000000127e+03
1.570000000000000007e-01 5.820840000000000458e-01 8.098549999999999471e+00 1.406535000000000082e+02 1.486994999999999891e+03
1.580000000000000016e-01 5.820890000000000786e-01 8.054325000000000401e+00 1.406839999999999975e+02 1.486994999999999891e+03
1.590000000000000024e-01 5.820925000000000127e-01 8.013265000000000526e+00 1.407090000000000032e+02 1.487005000000000109e+03
