# t [s], A [cm^2], U [cm/s], P [cPa], c [cm/s]
1.000000000000000021e-03 1.923654999999999948e-01 2.814035000000000286e-01 9.451689999999999259e+01 2.056355000000000018e+03
2.000000000000000042e-03 1.923245000000000093e-01 1.701049000000000033e+00 9.145720000000000027e+01 2.056050000000000182e+03
3.000000000000000062e-03 1.922010000000000107e-01 3.456572000000000422e+00 8.727670000000000528e+01 2.055154999999999745e+03
4.000000000000000083e-03 1.920264999999999889e-01 5.427180499999999519e+00 8.267470000000000141e+01 2.053905000000000200e+03
5.000000000000000104e-03 1.918340000000000045e-01 7.552509999999999835e+00 7.847175000000000011e+01 2.052545000000000073e+03
6.000000000000000125e-03 1.916450000000000098e-01 9.685500000000001108e+00 7.498924999999999841e+01 2.051230000000000018e+03
7.000000000000000146e-03 1.914665000000000117e-01 1.163202500000000050e+01 7.204484999999999673e+01 2.049994999999999891e+03
8.000000000000000167e-03 1.913005000000000122e-01 1.329638999999999882e+01 6.940094999999999459e+01 2.048869999999999891e+03
9.000000000000001055e-03 1.911515000000000020e-01 1.469974999999999987e+01 6.706680000000000064e+01 2.047875000000000000e+03
1.000000000000000194e-02 1.910229999999999984e-01 1.587669999999999959e+01 6.512235000000001151e+01 2.047034999999999854e+03
1.099999999999999936e-02 1.909164999999999890e-01 1.684094999999999942e+01 6.356269999999999243e+01 2.046335000000000036e+03
1.200000000000000025e-02 1.908289999999999986e-01 1.760034999999999883e+01 6.232854999999999990e+01 2.045769999999999982e+03
1.300000000000000114e-02 1.907580000000000109e-01 1.815719999999999956e+01 6.132894999999999897e+01 2.045320000000000164e+03
1.400000000000000203e-02 1.906990000000000074e-01 1.851780000000000115e+01 6.045799999999999841e+01 2.044949999999999818e+03
1.499999999999999944e-02 1.906490000000000129e-01 1.872630000000000194e+01 5.968564999999999543e+01 2.044650000000000091e+03
1.600000000000000033e-02 1.906110000000000027e-01 1.888465000000000060e+01 5.915279999999999916e+01 2.044420000000000073e+03
1.700000000000000122e-02 1.905919999999999837e-01 1.912344999999999828e+01 5.914369999999999550e+01 2.044304999999999836e+03
1.800000000000000211e-02 1.905995000000000050e-01 1.954155000000000086e+01 5.992934999999999945e+01 2.044365000000000009e+03
1.900000000000000300e-02 1.906384999999999885e-01 2.015615000000000023e+01 6.159114999999999895e+01 2.044625000000000000e+03
2.000000000000000042e-02 1.907065000000000010e-01 2.089399999999999835e+01 6.393925000000000125e+01 2.045075000000000045e+03
2.100000000000000130e-02 1.907925000000000038e-01 2.162239999999999895e+01 6.656229999999999336e+01 2.045650000000000091e+03
2.200000000000000219e-02 1.908834999999999837e-01 2.220009999999999906e+01 6.896885000000000332e+01 2.046255000000000109e+03
2.299999999999999961e-02 1.909635000000000082e-01 2.252469999999999928e+01 7.074835000000000207e+01 2.046804999999999836e+03
2.400000000000000050e-02 1.910235000000000127e-01 2.255944999999999823e+01 7.168609999999999616e+01 2.047219999999999800e+03
2.500000000000000139e-02 1.910580000000000056e-01 2.233399999999999963e+01 7.179890000000000327e+01 2.047469999999999800e+03
2.600000000000000228e-02 1.910684999999999745e-01 2.192249999999999943e+01 7.128864999999998986e+01 2.047565000000000055e+03
2.700000000000000316e-02 1.910620000000000096e-01 2.141104999999999947e+01 7.044310000000000116e+01 2.047534999999999854e+03
2.800000000000000058e-02 1.910445000000000060e-01 2.086715000000000231e+01 6.952625000000000455e+01 2.047429999999999836e+03
2.900000000000000147e-02 1.910229999999999984e-01 2.032244999999999990e+01 6.869935000000000969e+01 2.047295000000000073e+03
3.000000000000000236e-02 1.910009999999999764e-01 1.977170000000000272e+01 6.799254999999999427e+01 2.047144999999999982e+03
3.099999999999999978e-02 1.909784999999999955e-01 1.918484999999999729e+01 6.732824999999999704e+01 2.046994999999999891e+03
3.200000000000000067e-02 1.909524999999999972e-01 1.852759999999999962e+01 6.657949999999999591e+01 2.046824999999999818e+03
3.300000000000000155e-02 1.909200000000000064e-01 1.778090000000000259e+01 6.563859999999999673e+01 2.046619999999999891e+03
3.400000000000000244e-02 1.908805000000000085e-01 1.695504999999999995e+01 6.447360000000000468e+01 2.046360000000000127e+03
3.500000000000000333e-02 1.908340000000000036e-01 1.609315000000000140e+01 6.315529999999999688e+01 2.046055000000000064e+03
3.600000000000000422e-02 1.907844999999999958e-01 1.526409999999999911e+01 6.184864999999999924e+01 2.045730000000000018e+03
3.700000000000000511e-02 1.907384999999999775e-01 1.454645000000000010e+01 6.077250000000000085e+01 2.045424999999999955e+03
3.799999999999999906e-02 1.907034999999999980e-01 1.400980000000000025e+01 6.014065000000000083e+01 2.045190000000000055e+03
3.899999999999999994e-02 1.906849999999999934e-01 1.369730000000000025e+01 6.010349999999999682e+01 2.045055000000000064e+03
4.000000000000000083e-02 1.906875000000000098e-01 1.361560000000000059e+01 6.070704999999999529e+01 2.045055000000000064e+03
4.100000000000000172e-02 1.907109999999999916e-01 1.373370000000000068e+01 6.187919999999999732e+01 2.045199999999999818e+03
4.200000000000000261e-02 1.907530000000000059e-01 1.398965000000000103e+01 6.344395000000000095e+01 2.045465000000000146e+03
4.300000000000000350e-02 1.908064999999999900e-01 1.430264999999999986e+01 6.515789999999999793e+01 2.045809999999999945e+03
4.400000000000000439e-02 1.908640000000000059e-01 1.458755000000000024e+01 6.675600000000000023e+01 2.046190000000000055e+03
4.499999999999999833e-02 1.909164999999999890e-01 1.476774999999999949e+01 6.799644999999999584e+01 2.046530000000000200e+03
4.599999999999999922e-02 1.909560000000000146e-01 1.478419999999999845e+01 6.869514999999999816e+01 2.046799999999999955e+03
4.700000000000000011e-02 1.909775000000000222e-01 1.460019999999999918e+01 6.874430000000000973e+01 2.046950000000000045e+03
4.800000000000000100e-02 1.909770000000000079e-01 1.420169999999999888e+01 6.811469999999999914e+01 2.046954999999999927e+03
4.900000000000000189e-02 1.909520000000000106e-01 1.359379999999999988e+01 6.684475000000000477e+01 2.046800000000000182e+03
5.000000000000000278e-02 1.909055000000000057e-01 1.279564999999999841e+01 6.502125000000000909e+01 2.046495000000000118e+03
5.100000000000000366e-02 1.908380000000000076e-01 1.183526499999999970e+01 6.275739999999999696e+01 2.046059999999999945e+03
5.200000000000000455e-02 1.907539999999999791e-01 1.074455999999999989e+01 6.017385000000000161e+01 2.045509999999999991e+03
5.300000000000000544e-02 1.906570000000000209e-01 9.556755000000000777e+00 5.738539999999999708e+01 2.044869999999999891e+03
5.399999999999999939e-02 1.905505000000000115e-01 8.304895000000000138e+00 5.449460000000000548e+01 2.044164999999999964e+03
5.500000000000000028e-02 1.904385000000000105e-01 7.021679999999999922e+00 5.159094999999999942e+01 2.043424999999999955e+03
5.600000000000000117e-02 1.903249999999999942e-01 5.740610000000000213e+00 4.875494999999999379e+01 2.042670000000000073e+03
5.700000000000000205e-02 1.902125000000000066e-01 4.496315000000000062e+00 4.606269999999999953e+01 2.041924999999999955e+03
5.800000000000000294e-02 1.901045000000000096e-01 3.325260499999999730e+00 4.359035000000000082e+01 2.041204999999999927e+03
5.900000000000000383e-02 1.900044999999999928e-01 2.265269500000000047e+00 4.141624999999999801e+01 2.040534999999999854e+03
6.000000000000000472e-02 1.899154999999999871e-01 1.354427000000000048e+00 3.962045000000000528e+01 2.039940000000000055e+03
6.099999999999999867e-02 1.898409999999999820e-01 6.292800000000000615e-01 3.828135000000000332e+01 2.039434999999999945e+03
6.199999999999999956e-02 1.897840000000000082e-01 1.226349999999999385e-01 3.747039999999999793e+01 2.039045000000000073e+03
6.300000000000000044e-02 1.897475000000000134e-01 -1.386600000000000055e-01 3.724640000000000128e+01 2.038795000000000073e+03
6.400000000000000133e-02 1.897340000000000138e-01 -1.356924999999999937e-01 3.764945000000000164e+01 2.038684999999999945e+03
6.500000000000000222e-02 1.897455000000000114e-01 1.411344999999999683e-01 3.869705000000000439e+01 2.038740000000000009e+03
6.600000000000000311e-02 1.897810000000000052e-01 6.914015000000000022e-01 4.038170000000000215e+01 2.038964999999999918e+03
6.700000000000000400e-02 1.898414999999999964e-01 1.504750500000000102e+00 4.267099999999999937e+01 2.039345000000000027e+03
6.800000000000000488e-02 1.899260000000000115e-01 2.561644500000000324e+00 4.550955000000000439e+01 2.039889999999999873e+03
6.900000000000000577e-02 1.900324999999999931e-01 3.834725000000000161e+00 4.882335000000000491e+01 2.040579999999999927e+03
7.000000000000000666e-02 1.901579999999999937e-01 5.290569999999999773e+00 5.252455000000000496e+01 2.041394999999999982e+03
7.100000000000000755e-02 1.902999999999999969e-01 6.891759999999999664e+00 5.651744999999999663e+01 2.042329999999999927e+03
7.200000000000000844e-02 1.904540000000000122e-01 8.599005000000000010e+00 6.070475000000000421e+01 2.043345000000000027e+03
7.300000000000000933e-02 1.906180000000000097e-01 1.037326499999999996e+01 6.499309999999999832e+01 2.044430000000000064e+03
7.399999999999999634e-02 1.907869999999999844e-01 1.217766500000000107e+01 6.929840000000000089e+01 2.045555000000000064e+03
7.499999999999999722e-02 1.909585000000000032e-01 1.397930000000000028e+01 7.354970000000000141e+01 2.046694999999999936e+03
7.599999999999999811e-02 1.911300000000000221e-01 1.575029999999999930e+01 7.769245000000000800e+01 2.047839999999999918e+03
7.699999999999999900e-02 1.912984999999999824e-01 1.746894999999999953e+01 8.168985000000000696e+01 2.048970000000000255e+03
7.799999999999999989e-02 1.914629999999999943e-01 1.911980000000000146e+01 8.552285000000000537e+01 2.050079999999999927e+03
7.900000000000000078e-02 1.916229999999999878e-01 2.069359999999999999e+01 8.918864999999999554e+01 2.051155000000000200e+03
8.000000000000000167e-02 1.917780000000000040e-01 2.218659999999999854e+01 9.269849999999999568e+01 2.052199999999999818e+03
8.100000000000000255e-02 1.919279999999999875e-01 2.359984999999999999e+01 9.607365000000000066e+01 2.053215000000000146e+03
8.200000000000000344e-02 1.920724999999999794e-01 2.493760000000000332e+01 9.934164999999998713e+01 2.054199999999999818e+03
8.300000000000000433e-02 1.922145000000000103e-01 2.620645000000000024e+01 1.025320000000000107e+02 2.055159999999999854e+03
8.400000000000000522e-02 1.923529999999999962e-01 2.741389999999999816e+01 1.056740000000000066e+02 2.056105000000000018e+03
8.500000000000000611e-02 1.924899999999999944e-01 2.856729999999999947e+01 1.087914999999999992e+02 2.057034999999999854e+03
8.600000000000000699e-02 1.926255000000000051e-01 2.967295000000000016e+01 1.119014999999999986e+02 2.057960000000000036e+03
8.700000000000000788e-02 1.927610000000000157e-01 3.073559999999999803e+01 1.150140000000000100e+02 2.058880000000000109e+03
8.800000000000000877e-02 1.928964999999999985e-01 3.175789999999999935e+01 1.181310000000000002e+02 2.059800000000000182e+03
8.899999999999999578e-02 1.930310000000000081e-01 3.274009999999999820e+01 1.212454999999999927e+02 2.060720000000000255e+03
8.999999999999999667e-02 1.931654999999999900e-01 3.368030000000000257e+01 1.243435000000000059e+02 2.061639999999999873e+03
9.099999999999999756e-02 1.932995000000000130e-01 3.457465000000000543e+01 1.274060000000000059e+02 2.062550000000000182e+03
9.199999999999999845e-02 1.934305000000000052e-01 3.541734999999999900e+01 1.304079999999999870e+02 2.063444999999999709e+03
9.299999999999999933e-02 1.935600000000000098e-01 3.620114999999999839e+01 1.333230000000000075e+02 2.064329999999999927e+03
9.400000000000000022e-02 1.936860000000000248e-01 3.691779999999999973e+01 1.361209999999999809e+02 2.065185000000000400e+03
9.500000000000000111e-02 1.938064999999999927e-01 3.755839999999999890e+01 1.387724999999999795e+02 2.066015000000000327e+03
9.600000000000000200e-02 1.939214999999999967e-01 3.811390000000000100e+01 1.412485000000000070e+02 2.066800000000000182e+03
9.700000000000000289e-02 1.940290000000000070e-01 3.857560000000000144e+01 1.435219999999999914e+02 2.067539999999999964e+03
9.800000000000000377e-02 1.941289999999999960e-01 3.893550000000000466e+01 1.455699999999999932e+02 2.068224999999999909e+03
9.900000000000000466e-02 1.942194999999999894e-01 3.918685000000000684e+01 1.473725000000000023e+02 2.068850000000000364e+03
1.000000000000000056e-01 1.943000000000000005e-01 3.932460000000000377e+01 1.489139999999999873e+02 2.069409999999999854e+03
1.010000000000000064e-01 1.943705000000000016e-01 3.934574999999999534e+01 1.501854999999999905e+02 2.069899999999999636e+03
1.020000000000000073e-01 1.944305000000000061e-01 3.924949999999999761e+01 1.511834999999999809e+02 2.070315000000000055e+03
1.030000000000000082e-01 1.944790000000000130e-01 3.903770000000000095e+01 1.519124999999999943e+02 2.070654999999999745e+03
1.040000000000000091e-01 1.945160000000000222e-01 3.871474999999999511e+01 1.523815000000000168e+02 2.070920000000000073e+03
1.050000000000000100e-01 1.945434999999999803e-01 3.828750000000000142e+01 1.526069999999999993e+02 2.071114999999999782e+03
1.059999999999999970e-01 1.945604999999999973e-01 3.776515000000000555e+01 1.526105000000000018e+02 2.071239999999999782e+03
1.069999999999999979e-01 1.945680000000000187e-01 3.715885000000000105e+01 1.524189999999999827e+02 2.071300000000000182e+03
1.079999999999999988e-01 1.945679999999999910e-01 3.648114999999999952e+01 1.520609999999999786e+02 2.071309999999999945e+03
1.089999999999999997e-01 1.945604999999999973e-01 3.574569999999999936e+01 1.515680000000000121e+02 2.071265000000000327e+03
1.100000000000000006e-01 1.945469999999999977e-01 3.496659999999999968e+01 1.509714999999999918e+02 2.071175000000000182e+03
1.110000000000000014e-01 1.945284999999999931e-01 3.415775000000000006e+01 1.503029999999999973e+02 2.071059999999999945e+03
1.120000000000000023e-01 1.945064999999999988e-01 3.333239999999999981e+01 1.495905000000000200e+02 2.070914999999999964e+03
1.130000000000000032e-01 1.944815000000000016e-01 3.250280000000000058e+01 1.488600000000000136e+02 2.070750000000000000e+03
1.140000000000000041e-01 1.944559999999999900e-01 3.167960000000000065e+01 1.481324999999999932e+02 2.070574999999999818e+03
1.150000000000000050e-01 1.944290000000000185e-01 3.087174999999999869e+01 1.474240000000000066e+02 2.070394999999999982e+03
1.160000000000000059e-01 1.944025000000000059e-01 3.008599999999999852e+01 1.467470000000000141e+02 2.070215000000000146e+03
1.170000000000000068e-01 1.943765000000000076e-01 2.932695000000000007e+01 1.461064999999999827e+02 2.070034999999999854e+03
1.180000000000000077e-01 1.943515000000000104e-01 2.859725000000000250e+01 1.455045000000000073e+02 2.069859999999999673e+03
1.190000000000000085e-01 1.943274999999999864e-01 2.789719999999999800e+01 1.449364999999999952e+02 2.069694999999999709e+03
1.200000000000000094e-01 1.943040000000000045e-01 2.722525000000000261e+01 1.443960000000000150e+02 2.069529999999999745e+03
1.209999999999999964e-01 1.942810000000000092e-01 2.657820000000000249e+01 1.438709999999999809e+02 2.069369999999999891e+03
1.219999999999999973e-01 1.942585000000000006e-01 2.595125000000000171e+01 1.433480000000000132e+02 2.069220000000000255e+03
1.229999999999999982e-01 1.942355000000000054e-01 2.533865000000000123e+01 1.428104999999999905e+02 2.069065000000000055e+03
1.239999999999999991e-01 1.942125000000000101e-01 2.473385000000000034e+01 1.422429999999999950e+02 2.068900000000000091e+03
1.250000000000000000e-01 1.941875000000000129e-01 2.413020000000000209e+01 1.416274999999999977e+02 2.068730000000000018e+03
1.260000000000000009e-01 1.941610000000000003e-01 2.352090000000000103e+01 1.409490000000000123e+02 2.068545000000000073e+03
1.270000000000000018e-01 1.941319999999999990e-01 2.289974999999999739e+01 1.401945000000000050e+02 2.068349999999999909e+03
1.280000000000000027e-01 1.940999999999999948e-01 2.226149999999999807e+01 1.393525000000000205e+02 2.068130000000000109e+03
1.290000000000000036e-01 1.940645000000000009e-01 2.160195000000000221e+01 1.384155000000000086e+02 2.067885000000000218e+03
1.300000000000000044e-01 1.940250000000000030e-01 2.091844999999999999e+01 1.373799999999999955e+02 2.067614999999999782e+03
1.310000000000000053e-01 1.939819999999999878e-01 2.020984999999999943e+01 1.362454999999999927e+02 2.067324999999999818e+03
1.320000000000000062e-01 1.939349999999999963e-01 1.947695000000000221e+01 1.350185000000000173e+02 2.067005000000000109e+03
1.330000000000000071e-01 1.938845000000000152e-01 1.872220000000000084e+01 1.337079999999999984e+02 2.066670000000000073e+03
1.340000000000000080e-01 1.938305000000000167e-01 1.794975000000000165e+01 1.323265000000000100e+02 2.066300000000000182e+03
1.350000000000000089e-01 1.937740000000000018e-01 1.716535000000000011e+01 1.308915000000000077e+02 2.065914999999999964e+03
1.360000000000000098e-01 1.937149999999999983e-01 1.637615000000000265e+01 1.294234999999999900e+02 2.065514999999999873e+03
1.370000000000000107e-01 1.936545000000000072e-01 1.559025000000000105e+01 1.279440000000000026e+02 2.065109999999999673e+03
1.380000000000000115e-01 1.935935000000000017e-01 1.481630000000000003e+01 1.264749999999999943e+02 2.064694999999999709e+03
1.390000000000000124e-01 1.935330000000000106e-01 1.406334999999999980e+01 1.250409999999999968e+02 2.064284999999999854e+03
1.400000000000000133e-01 1.934735000000000205e-01 1.334019999999999939e+01 1.236634999999999991e+02 2.063880000000000109e+03
1.410000000000000142e-01 1.934164999999999912e-01 1.265530000000000044e+01 1.223624999999999972e+02 2.063485000000000127e+03
1.420000000000000151e-01 1.933615000000000195e-01 1.201594000000000051e+01 1.211560000000000059e+02 2.063114999999999782e+03
1.430000000000000160e-01 1.933104999999999962e-01 1.142847499999999883e+01 1.200575000000000045e+02 2.062764999999999873e+03
1.440000000000000169e-01 1.932635000000000047e-01 1.089778499999999894e+01 1.190784999999999911e+02 2.062440000000000055e+03
1.450000000000000178e-01 1.932209999999999761e-01 1.042716499999999868e+01 1.182245000000000061e+02 2.062144999999999982e+03
1.459999999999999909e-01 1.931829999999999936e-01 1.001844000000000001e+01 1.174975000000000023e+02 2.061885000000000218e+03
1.469999999999999918e-01 1.931505000000000027e-01 9.671670000000000655e+00 1.168974999999999937e+02 2.061659999999999854e+03
1.479999999999999927e-01 1.931220000000000159e-01 9.385595000000000354e+00 1.164184999999999945e+02 2.061465000000000146e+03
1.489999999999999936e-01 1.930990000000000206e-01 9.157399999999999096e+00 1.160529999999999973e+02 2.061300000000000182e+03
1.499999999999999944e-01 1.930810000000000026e-01 8.983340000000000103e+00 1.157909999999999968e+02 2.061175000000000182e+03
1.509999999999999953e-01 1.930665000000000020e-01 8.858510000000000773e+00 1.156194999999999879e+02 2.061069999999999709e+03
1.519999999999999962e-01 1.930554999999999910e-01 8.777395000000000280e+00 1.155260000000000105e+02 2.060994999999999891e+03
1.529999999999999971e-01 1.930485000000000118e-01 8.734004999999999797e+00 1.154969999999999999e+02 2.060940000000000055e+03
1.539999999999999980e-01 1.930439999999999934e-01 8.722100000000001074e+00 1.155180000000000007e+02 2.060904999999999745e+03
1.549999999999999989e-01 1.930415000000000048e-01 8.735419999999999519e+00 1.155755000000000052e+02 2.060885000000000218e+03
1.559999999999999998e-01 1.930415000000000048e-01 8.767879999999999896e+00 1.156585000000000036e+02 2.060880000000000109e+03
1.570000000000000007e-01 1.930419999999999914e-01 8.813755000000000450e+00 1.157545000000000073e+02 2.060885000000000218e+03
1.580000000000000016e-01 1.930435000000000068e-01 8.867795000000000982e+00 1.158545000000000016e+02 2.060889999999999873e+03
1.590000000000000024e-01 1.930459999999999954e-01 8.925349999999999895e+00 1.159499999999999886e+02 2.060905000000000200e+03
