# t [s], A [cm^2], U [cm/s], P [cPa], c [cm/s]
1.000000000000000021e-03 1.738895000000000024e-01 3.287555500000000075e-01 9.047939999999999827e+01 2.092489999999999782e+03
2.000000000000000042e-03 1.738425000000000109e-01 1.797078499999999801e+00 8.722690000000000055e+01 2.092069999999999709e+03
3.000000000000000062e-03 1.737195000000000267e-01 3.594767500000000116e+00 8.275889999999999702e+01 2.091010000000000218e+03
4.000000000000000083e-03 1.735534999999999994e-01 5.614796000000000120e+00 7.801054999999999495e+01 2.089599999999999909e+03
5.000000000000000104e-03 1.733790000000000053e-01 7.781344999999999956e+00 7.388315000000000055e+01 2.088130000000000109e+03
6.000000000000000125e-03 1.732124999999999915e-01 9.895565000000001277e+00 7.058334999999999582e+01 2.086750000000000000e+03
7.000000000000000146e-03 1.730579999999999896e-01 1.173662999999999990e+01 6.776820000000000732e+01 2.085494999999999891e+03
8.000000000000000167e-03 1.729175000000000018e-01 1.325150000000000006e+01 6.522820000000000107e+01 2.084369999999999891e+03
9.000000000000001055e-03 1.727960000000000051e-01 1.449580000000000091e+01 6.306685000000000230e+01 2.083409999999999854e+03
1.000000000000000194e-02 1.726949999999999874e-01 1.550165000000000148e+01 6.134909999999999286e+01 2.082625000000000000e+03
1.099999999999999936e-02 1.726139999999999897e-01 1.628399999999999892e+01 6.003059999999999974e+01 2.082000000000000000e+03
1.200000000000000025e-02 1.725510000000000099e-01 1.685740000000000194e+01 5.903855000000000075e+01 2.081525000000000091e+03
1.300000000000000114e-02 1.725014999999999743e-01 1.722350000000000136e+01 5.825459999999999638e+01 2.081154999999999745e+03
1.400000000000000203e-02 1.724610000000000032e-01 1.740194999999999936e+01 5.756584999999999752e+01 2.080864999999999782e+03
1.499999999999999944e-02 1.724289999999999989e-01 1.748574999999999946e+01 5.703929999999999723e+01 2.080640000000000327e+03
1.600000000000000033e-02 1.724129999999999829e-01 1.763839999999999719e+01 5.699915000000000020e+01 2.080534999999999854e+03
1.700000000000000122e-02 1.724229999999999929e-01 1.801489999999999725e+01 5.785855000000000103e+01 2.080619999999999891e+03
1.800000000000000211e-02 1.724664999999999948e-01 1.866850000000000165e+01 5.982625000000000171e+01 2.080960000000000036e+03
1.900000000000000300e-02 1.725420000000000009e-01 1.951314999999999955e+01 6.271150000000000091e+01 2.081559999999999945e+03
2.000000000000000042e-02 1.726380000000000137e-01 2.035810000000000031e+01 6.595059999999999434e+01 2.082315000000000055e+03
2.100000000000000130e-02 1.727354999999999863e-01 2.098879999999999768e+01 6.881865000000000521e+01 2.083095000000000255e+03
2.200000000000000219e-02 1.728160000000000251e-01 2.124880000000000280e+01 7.070279999999999632e+01 2.083750000000000000e+03
2.299999999999999961e-02 1.728665000000000063e-01 2.109015000000000128e+01 7.131040000000000134e+01 2.084175000000000182e+03
2.400000000000000050e-02 1.728824999999999945e-01 2.057629999999999981e+01 7.073550000000000182e+01 2.084329999999999927e+03
2.500000000000000139e-02 1.728689999999999949e-01 1.984280000000000044e+01 6.937300000000000466e+01 2.084255000000000109e+03
2.600000000000000228e-02 1.728379999999999916e-01 1.903790000000000049e+01 6.773460000000000036e+01 2.084024999999999636e+03
2.700000000000000316e-02 1.728009999999999824e-01 1.826934999999999931e+01 6.625164999999999793e+01 2.083730000000000018e+03
2.800000000000000058e-02 1.727659999999999751e-01 1.757594999999999885e+01 6.514355000000000473e+01 2.083454999999999927e+03
2.900000000000000147e-02 1.727374999999999883e-01 1.693090000000000117e+01 6.438739999999999952e+01 2.083229999999999563e+03
3.000000000000000236e-02 1.727124999999999910e-01 1.626845000000000141e+01 6.378164999999999907e+01 2.083029999999999745e+03
3.099999999999999978e-02 1.726870000000000072e-01 1.552125000000000199e+01 6.306394999999999840e+01 2.082829999999999927e+03
3.200000000000000067e-02 1.726550000000000029e-01 1.465470000000000006e+01 6.203659999999999997e+01 2.082579999999999927e+03
3.300000000000000155e-02 1.726135000000000030e-01 1.368809999999999860e+01 6.065780000000000172e+01 2.082255000000000109e+03
3.400000000000000244e-02 1.725639999999999952e-01 1.269565000000000055e+01 5.907235000000000014e+01 2.081869999999999891e+03
3.500000000000000333e-02 1.725129999999999997e-01 1.178843499999999977e+01 5.757444999999999879e+01 2.081470000000000255e+03
3.600000000000000422e-02 1.724694999999999978e-01 1.108331500000000069e+01 5.651780000000000115e+01 2.081119999999999891e+03
3.700000000000000511e-02 1.724430000000000129e-01 1.066911999999999949e+01 5.620465000000000089e+01 2.080900000000000091e+03
3.799999999999999906e-02 1.724410000000000109e-01 1.058159999999999989e+01 5.679219999999999402e+01 2.080869999999999891e+03
3.899999999999999994e-02 1.724664999999999948e-01 1.079364999999999952e+01 5.824275000000000091e+01 2.081039999999999964e+03
4.000000000000000083e-02 1.725145000000000151e-01 1.122124999999999950e+01 6.032954999999999757e+01 2.081414999999999964e+03
4.100000000000000172e-02 1.725794999999999968e-01 1.174275000000000091e+01 6.268914999999999793e+01 2.081909999999999854e+03
4.200000000000000261e-02 1.726495000000000113e-01 1.222309999999999874e+01 6.490059999999999718e+01 2.082454999999999927e+03
4.300000000000000350e-02 1.727124999999999910e-01 1.253795000000000037e+01 6.656850000000000023e+01 2.082949999999999818e+03
4.400000000000000439e-02 1.727575000000000083e-01 1.259185000000000088e+01 6.738980000000000814e+01 2.083309999999999945e+03
4.499999999999999833e-02 1.727754999999999985e-01 1.232804999999999929e+01 6.719294999999999618e+01 2.083469999999999800e+03
4.599999999999999922e-02 1.727629999999999999e-01 1.172969999999999935e+01 6.594575000000000387e+01 2.083385000000000218e+03
4.700000000000000011e-02 1.727179999999999827e-01 1.081460500000000025e+01 6.373649999999999949e+01 2.083045000000000073e+03
4.800000000000000100e-02 1.726435000000000053e-01 9.625325000000000131e+00 6.073775000000000546e+01 2.082474999999999909e+03
4.900000000000000189e-02 1.725444999999999895e-01 8.218675000000001063e+00 5.716485000000000127e+01 2.081694999999999709e+03
5.000000000000000278e-02 1.724264999999999826e-01 6.656755000000000422e+00 5.323860000000000525e+01 2.080769999999999982e+03
5.100000000000000366e-02 1.722954999999999903e-01 5.000735000000000596e+00 4.916025000000000489e+01 2.079739999999999782e+03
5.200000000000000455e-02 1.721579999999999777e-01 3.308381999999999934e+00 4.509959999999999525e+01 2.078654999999999745e+03
5.300000000000000544e-02 1.720194999999999919e-01 1.633745000000000003e+00 4.119509999999999650e+01 2.077559999999999945e+03
5.399999999999999939e-02 1.718844999999999956e-01 2.841500000000007908e-02 3.756130000000000280e+01 2.076494999999999891e+03
5.500000000000000028e-02 1.717580000000000218e-01 -1.457065000000000055e+00 3.429889999999999617e+01 2.075484999999999673e+03
5.600000000000000117e-02 1.716429999999999900e-01 -2.772553499999999893e+00 3.150280000000000058e+01 2.074569999999999709e+03
5.700000000000000205e-02 1.715430000000000010e-01 -3.868935000000000013e+00 2.926610000000000156e+01 2.073769999999999982e+03
5.800000000000000294e-02 1.714625000000000177e-01 -4.700075000000000003e+00 2.767875000000000085e+01 2.073119999999999891e+03
5.900000000000000383e-02 1.714050000000000018e-01 -5.225680000000000547e+00 2.682164999999999822e+01 2.072639999999999873e+03
6.000000000000000472e-02 1.713715000000000099e-01 -5.414534999999999876e+00 2.675820000000000221e+01 2.072359999999999673e+03
6.099999999999999867e-02 1.713655000000000039e-01 -5.247415000000000163e+00 2.752599999999999980e+01 2.072295000000000073e+03
6.199999999999999956e-02 1.713890000000000136e-01 -4.719110000000000582e+00 2.912975000000000136e+01 2.072449999999999818e+03
6.300000000000000044e-02 1.714399999999999813e-01 -3.839160000000000128e+00 3.153825000000000145e+01 2.072829999999999927e+03
6.400000000000000133e-02 1.715194999999999914e-01 -2.631383299999999981e+00 3.468509999999999849e+01 2.073435000000000400e+03
6.500000000000000222e-02 1.716239999999999988e-01 -1.132135000000000113e+00 3.847299999999999898e+01 2.074239999999999782e+03
6.600000000000000311e-02 1.717509999999999870e-01 6.121850000000002012e-01 4.278114999999999668e+01 2.075219999999999800e+03
6.700000000000000400e-02 1.718959999999999932e-01 2.548105000000000064e+00 4.747374999999999545e+01 2.076355000000000018e+03
6.800000000000000488e-02 1.720555000000000001e-01 4.618276499999999452e+00 5.240925000000000011e+01 2.077600000000000364e+03
6.900000000000000577e-02 1.722245000000000026e-01 6.764545000000000030e+00 5.744890000000000185e+01 2.078930000000000291e+03
7.000000000000000666e-02 1.723979999999999957e-01 8.930904999999999205e+00 6.246424999999999272e+01 2.080305000000000291e+03
7.100000000000000755e-02 1.725720000000000032e-01 1.106603499999999940e+01 6.734409999999999741e+01 2.081689999999999600e+03
7.200000000000000844e-02 1.727434999999999943e-01 1.312578000000000067e+01 7.199899999999999523e+01 2.083054999999999836e+03
7.300000000000000933e-02 1.729084999999999928e-01 1.507484999999999964e+01 7.636539999999999395e+01 2.084375000000000000e+03
7.399999999999999634e-02 1.730654999999999832e-01 1.688790000000000191e+01 8.040725000000000477e+01 2.085639999999999873e+03
7.499999999999999722e-02 1.732124999999999915e-01 1.855065000000000097e+01 8.411639999999999873e+01 2.086824999999999818e+03
7.599999999999999811e-02 1.733494999999999897e-01 2.005890000000000128e+01 8.751035000000000252e+01 2.087930000000000291e+03
7.699999999999999900e-02 1.734765000000000057e-01 2.141805000000000092e+01 9.062864999999999327e+01 2.088970000000000255e+03
7.799999999999999989e-02 1.735955000000000137e-01 2.264134999999999920e+01 9.352705000000000268e+01 2.089934999999999945e+03
7.900000000000000078e-02 1.737075000000000147e-01 2.374759999999999849e+01 9.627100000000000080e+01 2.090850000000000364e+03
8.000000000000000167e-02 1.738149999999999973e-01 2.475905000000000200e+01 9.892990000000000350e+01 2.091724999999999909e+03
8.100000000000000255e-02 1.739195000000000046e-01 2.569875000000000043e+01 1.015671999999999997e+02 2.092574999999999818e+03
8.200000000000000344e-02 1.740224999999999966e-01 2.658849999999999980e+01 1.042394999999999925e+02 2.093420000000000073e+03
8.300000000000000433e-02 1.741274999999999906e-01 2.744685000000000130e+01 1.069874999999999972e+02 2.094269999999999982e+03
8.400000000000000522e-02 1.742340000000000000e-01 2.828790000000000049e+01 1.098359999999999985e+02 2.095135000000000218e+03
8.500000000000000611e-02 1.743425000000000114e-01 2.912040000000000006e+01 1.127930000000000064e+02 2.096019999999999982e+03
8.600000000000000699e-02 1.744549999999999990e-01 2.994709999999999894e+01 1.158479999999999990e+02 2.096930000000000291e+03
8.700000000000000788e-02 1.745700000000000029e-01 3.076539999999999964e+01 1.189755000000000109e+02 2.097864999999999782e+03
8.800000000000000877e-02 1.746869999999999812e-01 3.156739999999999924e+01 1.221380000000000052e+02 2.098815000000000055e+03
8.899999999999999578e-02 1.748040000000000149e-01 3.234100000000000108e+01 1.252864999999999895e+02 2.099764999999999873e+03
8.999999999999999667e-02 1.749204999999999788e-01 3.307090000000000174e+01 1.283679999999999950e+02 2.100720000000000255e+03
9.099999999999999756e-02 1.750344999999999818e-01 3.373969999999999914e+01 1.313245000000000005e+02 2.101644999999999982e+03
9.199999999999999845e-02 1.751439999999999941e-01 3.432909999999999684e+01 1.341009999999999991e+02 2.102534999999999854e+03
9.299999999999999933e-02 1.752469999999999861e-01 3.482104999999999961e+01 1.366454999999999984e+02 2.103375000000000000e+03
9.400000000000000022e-02 1.753419999999999979e-01 3.519899999999999807e+01 1.389124999999999943e+02 2.104150000000000091e+03
9.500000000000000111e-02 1.754269999999999996e-01 3.544880000000000564e+01 1.408650000000000091e+02 2.104855000000000018e+03
9.600000000000000200e-02 1.755009999999999903e-01 3.555949999999999989e+01 1.424749999999999943e+02 2.105465000000000146e+03
9.700000000000000289e-02 1.755634999999999835e-01 3.552389999999999759e+01 1.437269999999999754e+02 2.105984999999999673e+03
9.800000000000000377e-02 1.756130000000000191e-01 3.533930000000000149e+01 1.446170000000000186e+02 2.106400000000000091e+03
9.900000000000000466e-02 1.756504999999999872e-01 3.500750000000000028e+01 1.451510000000000105e+02 2.106715000000000146e+03
1.000000000000000056e-01 1.756759999999999988e-01 3.453470000000000084e+01 1.453485000000000014e+02 2.106930000000000291e+03
1.010000000000000064e-01 1.756889999999999841e-01 3.393134999999999479e+01 1.452370000000000232e+02 2.107050000000000182e+03
1.020000000000000073e-01 1.756915000000000004e-01 3.321184999999999832e+01 1.448524999999999920e+02 2.107079999999999927e+03
1.030000000000000082e-01 1.756834999999999924e-01 3.239325000000000188e+01 1.442384999999999877e+02 2.107029999999999745e+03
1.040000000000000091e-01 1.756679999999999908e-01 3.149524999999999864e+01 1.434420000000000073e+02 2.106909999999999854e+03
1.050000000000000100e-01 1.756455000000000100e-01 3.053865000000000407e+01 1.425115000000000123e+02 2.106735000000000127e+03
1.059999999999999970e-01 1.756175000000000097e-01 2.954479999999999862e+01 1.414954999999999927e+02 2.106519999999999982e+03
1.069999999999999979e-01 1.755865000000000065e-01 2.853459999999999752e+01 1.404399999999999977e+02 2.106270000000000437e+03
1.079999999999999988e-01 1.755529999999999868e-01 2.752754999999999797e+01 1.393865000000000123e+02 2.106000000000000000e+03
1.089999999999999997e-01 1.755189999999999806e-01 2.654119999999999990e+01 1.383709999999999809e+02 2.105725000000000364e+03
1.100000000000000006e-01 1.754855000000000165e-01 2.559049999999999869e+01 1.374230000000000018e+02 2.105454999999999927e+03
1.110000000000000014e-01 1.754539999999999988e-01 2.468710000000000093e+01 1.365625000000000000e+02 2.105195000000000164e+03
1.120000000000000023e-01 1.754244999999999832e-01 2.383940000000000126e+01 1.358025000000000091e+02 2.104954999999999927e+03
1.130000000000000032e-01 1.753979999999999984e-01 2.305205000000000126e+01 1.351460000000000150e+02 2.104734999999999673e+03
1.140000000000000041e-01 1.753744999999999887e-01 2.232590000000000074e+01 1.345900000000000034e+02 2.104539999999999964e+03
1.150000000000000050e-01 1.753540000000000099e-01 2.165854999999999819e+01 1.341214999999999975e+02 2.104369999999999891e+03
1.160000000000000059e-01 1.753359999999999919e-01 2.104429999999999978e+01 1.337224999999999966e+02 2.104220000000000255e+03
1.170000000000000068e-01 1.753204999999999902e-01 2.047480000000000189e+01 1.333684999999999832e+02 2.104085000000000036e+03
1.180000000000000077e-01 1.753055000000000030e-01 1.993945000000000078e+01 1.330305000000000177e+02 2.103965000000000146e+03
1.190000000000000085e-01 1.752914999999999890e-01 1.942650000000000077e+01 1.326800000000000068e+02 2.103840000000000146e+03
1.200000000000000094e-01 1.752765000000000017e-01 1.892324999999999946e+01 1.322844999999999800e+02 2.103715000000000146e+03
1.209999999999999964e-01 1.752604999999999857e-01 1.841714999999999947e+01 1.318154999999999859e+02 2.103579999999999927e+03
1.219999999999999973e-01 1.752409999999999801e-01 1.789639999999999986e+01 1.312475000000000023e+02 2.103425000000000182e+03
1.229999999999999982e-01 1.752190000000000136e-01 1.735085000000000122e+01 1.305575000000000045e+02 2.103244999999999891e+03
1.239999999999999991e-01 1.751925000000000010e-01 1.677234999999999943e+01 1.297314999999999827e+02 2.103029999999999745e+03
1.250000000000000000e-01 1.751619999999999844e-01 1.615559999999999974e+01 1.287605000000000075e+02 2.102780000000000200e+03
1.260000000000000009e-01 1.751260000000000039e-01 1.549789999999999957e+01 1.276444999999999936e+02 2.102489999999999782e+03
1.270000000000000018e-01 1.750855000000000050e-01 1.480004999999999882e+01 1.263905000000000030e+02 2.102164999999999964e+03
1.280000000000000027e-01 1.750400000000000011e-01 1.406575000000000131e+01 1.250144999999999982e+02 2.101800000000000182e+03
1.290000000000000036e-01 1.749904999999999933e-01 1.330180000000000007e+01 1.235370000000000061e+02 2.101400000000000091e+03
1.300000000000000044e-01 1.749380000000000102e-01 1.251750000000000007e+01 1.219869999999999948e+02 2.100974999999999909e+03
1.310000000000000053e-01 1.748824999999999963e-01 1.172424499999999981e+01 1.203954999999999984e+02 2.100529999999999745e+03
1.320000000000000062e-01 1.748264999999999958e-01 1.093498999999999910e+01 1.187980000000000018e+02 2.100074999999999818e+03
1.330000000000000071e-01 1.747694999999999943e-01 1.016340500000000091e+01 1.172305000000000064e+02 2.099609999999999673e+03
1.340000000000000080e-01 1.747134999999999938e-01 9.423284999999999911e+00 1.157270000000000039e+02 2.099159999999999854e+03
1.350000000000000089e-01 1.746594999999999953e-01 8.727689999999999060e+00 1.143195000000000050e+02 2.098720000000000255e+03
1.360000000000000098e-01 1.746090000000000142e-01 8.088625000000000398e+00 1.130364999999999895e+02 2.098305000000000291e+03
1.370000000000000107e-01 1.745619999999999949e-01 7.516059999999999519e+00 1.119010000000000105e+02 2.097925000000000182e+03
1.380000000000000115e-01 1.745200000000000085e-01 7.017875000000000085e+00 1.109284999999999997e+02 2.097579999999999927e+03
1.390000000000000124e-01 1.744835000000000136e-01 6.599375000000000213e+00 1.101299999999999955e+02 2.097279999999999745e+03
1.400000000000000133e-01 1.744534999999999836e-01 6.263230000000000075e+00 1.095074999999999932e+02 2.097029999999999745e+03
1.410000000000000142e-01 1.744284999999999863e-01 6.009454999999999991e+00 1.090579999999999927e+02 2.096824999999999818e+03
1.420000000000000151e-01 1.744100000000000095e-01 5.835525000000000517e+00 1.087729999999999961e+02 2.096664999999999964e+03
1.430000000000000160e-01 1.743965000000000098e-01 5.736650000000000027e+00 1.086380000000000052e+02 2.096559999999999945e+03
1.440000000000000169e-01 1.743890000000000162e-01 5.706055000000000099e+00 1.086355000000000075e+02 2.096485000000000127e+03
1.450000000000000178e-01 1.743859999999999855e-01 5.735405000000000086e+00 1.087435000000000116e+02 2.096454999999999927e+03
1.459999999999999909e-01 1.743864999999999998e-01 5.815199999999999925e+00 1.089399999999999977e+02 2.096454999999999927e+03
1.469999999999999918e-01 1.743910000000000182e-01 5.935215000000000352e+00 1.092009999999999934e+02 2.096480000000000018e+03
1.479999999999999927e-01 1.743970000000000242e-01 6.084929999999999950e+00 1.095030000000000001e+02 2.096529999999999745e+03
1.489999999999999936e-01 1.744054999999999911e-01 6.253910000000000302e+00 1.098239999999999981e+02 2.096590000000000146e+03
1.499999999999999944e-01 1.744149999999999867e-01 6.432180000000000675e+00 1.101435000000000031e+02 2.096659999999999854e+03
1.509999999999999953e-01 1.744239999999999957e-01 6.610545000000000115e+00 1.104429999999999978e+02 2.096735000000000127e+03
1.519999999999999962e-01 1.744330000000000047e-01 6.780839999999999534e+00 1.107074999999999960e+02 2.096804999999999836e+03
1.529999999999999971e-01 1.744410000000000127e-01 6.936144999999999783e+00 1.109249999999999972e+02 2.096875000000000000e+03
1.539999999999999980e-01 1.744479999999999920e-01 7.070935000000000414e+00 1.110875000000000057e+02 2.096925000000000182e+03
1.549999999999999989e-01 1.744529999999999970e-01 7.181160000000000210e+00 1.111885000000000048e+02 2.096965000000000146e+03
1.559999999999999998e-01 1.744560000000000000e-01 7.264269999999999783e+00 1.112259999999999991e+02 2.096994999999999891e+03
1.570000000000000007e-01 1.744574999999999876e-01 7.319189999999999863e+00 1.112019999999999982e+02 2.097010000000000218e+03
1.580000000000000016e-01 1.744565000000000143e-01 7.346225000000000449e+00 1.111200000000000045e+02 2.097005000000000109e+03
1.590000000000000024e-01 1.744539999999999980e-01 7.346875000000000711e+00 1.109865000000000066e+02 2.096984999999999673e+03
