# t [s], A [cm^2], U [cm/s], P [cPa], c [cm/s]
1.000000000000000021e-03 6.546655000000000113e-01 4.965350000000000319e-03 9.485684999999999434e+01 1.662125000000000000e+03
2.000000000000000042e-03 6.546560000000000157e-01 9.888249999999996001e-04 9.482805000000000462e+01 1.662119999999999891e+03
3.000000000000000062e-03 6.547214999999999563e-01 1.193391500000000049e-01 9.495740000000000691e+01 1.662150000000000091e+03
4.000000000000000083e-03 6.547629999999999839e-01 2.107004999999999850e-01 9.506880000000001019e+01 1.662175000000000182e+03
5.000000000000000104e-03 6.547175000000000633e-01 1.553815000000000057e-01 9.495304999999999040e+01 1.662150000000000091e+03
6.000000000000000125e-03 6.546425000000000161e-01 4.160199999999997234e-02 9.467525000000000546e+01 1.662095000000000027e+03
7.000000000000000146e-03 6.545710000000000139e-01 -7.771100000000003005e-02 9.431999999999999318e+01 1.662014999999999873e+03
8.000000000000000167e-03 6.544455000000000133e-01 -3.083050000000000512e-01 9.376484999999999559e+01 1.661900000000000091e+03
9.000000000000001055e-03 6.542475000000000929e-01 -6.862750000000000794e-01 9.292510000000000048e+01 1.661710000000000036e+03
1.000000000000000194e-02 6.539719999999999978e-01 -1.212679999999999758e+00 9.175395000000000323e+01 1.661460000000000036e+03
1.099999999999999936e-02 6.535954999999999959e-01 -1.914680000000000160e+00 9.017085000000000150e+01 1.661105000000000018e+03
1.200000000000000025e-02 6.531199999999999228e-01 -2.766824999999999868e+00 8.815540000000000020e+01 1.660650000000000091e+03
1.300000000000000114e-02 6.526049999999999907e-01 -3.632039999999999935e+00 8.585150000000000148e+01 1.660115000000000009e+03
1.400000000000000203e-02 6.521375000000000366e-01 -4.317204999999999515e+00 8.352944999999999709e+01 1.659555000000000064e+03
1.499999999999999944e-02 6.517760000000000220e-01 -4.675853000000000037e+00 8.144960000000000377e+01 1.659025000000000091e+03
1.600000000000000033e-02 6.515295000000000947e-01 -4.667049999999999699e+00 7.975090000000000146e+01 1.658559999999999945e+03
1.700000000000000122e-02 6.513584999999999514e-01 -4.350849999999999440e+00 7.841840000000000543e+01 1.658164999999999964e+03
1.800000000000000211e-02 6.512074999999999392e-01 -3.845610000000000195e+00 7.731889999999999930e+01 1.657815000000000055e+03
1.900000000000000300e-02 6.510199999999999321e-01 -3.274804999999999744e+00 7.627084999999999582e+01 1.657480000000000018e+03
2.000000000000000042e-02 6.507680000000000131e-01 -2.722669999999999924e+00 7.511955000000000382e+01 1.657134999999999991e+03
2.100000000000000130e-02 6.504505000000000425e-01 -2.212456999999999674e+00 7.378999999999999204e+01 1.656750000000000000e+03
2.200000000000000219e-02 6.500934999999999908e-01 -1.714169999999999972e+00 7.229865000000000919e+01 1.656335000000000036e+03
2.299999999999999961e-02 6.497295000000000709e-01 -1.175479999999999858e+00 7.072370000000000800e+01 1.655900000000000091e+03
2.400000000000000050e-02 6.493835000000000024e-01 -5.584799999999998654e-01 6.915315000000001078e+01 1.655465000000000146e+03
2.500000000000000139e-02 6.490605000000000402e-01 1.343950000000000422e-01 6.763625000000000398e+01 1.655029999999999973e+03
2.600000000000000228e-02 6.487424999999999997e-01 8.528450000000000752e-01 6.615659999999999741e+01 1.654605000000000018e+03
2.700000000000000316e-02 6.483970000000000011e-01 1.508444999999999814e+00 6.463074999999999193e+01 1.654170000000000073e+03
2.800000000000000058e-02 6.479855000000001031e-01 1.996265000000000178e+00 6.292949999999999733e+01 1.653699999999999818e+03
2.900000000000000147e-02 6.474739999999999940e-01 2.221655000000000157e+00 6.091505000000000081e+01 1.653170000000000073e+03
3.000000000000000236e-02 6.468445000000000444e-01 2.125335000000000196e+00 5.848275000000000290e+01 1.652550000000000182e+03
3.099999999999999978e-02 6.461029999999999829e-01 1.699775000000000258e+00 5.559624999999999773e+01 1.651824999999999818e+03
3.200000000000000067e-02 6.452769999999999895e-01 9.914300000000002555e-01 5.230494999999999806e+01 1.651014999999999873e+03
3.300000000000000155e-02 6.444095000000000795e-01 8.921999999999918884e-02 4.873884999999999934e+01 1.650134999999999991e+03
3.400000000000000244e-02 6.435530000000000417e-01 -8.963050000000007955e-01 4.508379999999999654e+01 1.649224999999999909e+03
3.500000000000000333e-02 6.427560000000001050e-01 -1.854939999999999589e+00 4.154789999999999850e+01 1.648329999999999927e+03
3.600000000000000422e-02 6.420584999999999765e-01 -2.693569999999999798e+00 3.832860000000000156e+01 1.647489999999999782e+03
3.700000000000000511e-02 6.414885000000000170e-01 -3.345654999999999824e+00 3.558785000000000309e+01 1.646750000000000000e+03
3.799999999999999906e-02 6.410599999999999632e-01 -3.772664999999999935e+00 3.343885000000000218e+01 1.646139999999999873e+03
3.899999999999999994e-02 6.407764999999999711e-01 -3.960025499999999976e+00 3.194290000000000163e+01 1.645679999999999836e+03
4.000000000000000083e-02 6.406350000000000655e-01 -3.909629999999999939e+00 3.111580000000000013e+01 1.645380000000000109e+03
4.100000000000000172e-02 6.406270000000000575e-01 -3.631655000000000300e+00 3.093970000000000198e+01 1.645244999999999891e+03
4.200000000000000261e-02 6.407430000000000625e-01 -3.137725000000000097e+00 3.137644999999999840e+01 1.645259999999999991e+03
4.300000000000000350e-02 6.409745000000000026e-01 -2.437028999999999890e+00 3.237950000000000017e+01 1.645429999999999836e+03
4.400000000000000439e-02 6.413130000000000219e-01 -1.535845000000000127e+00 3.390125000000000455e+01 1.645740000000000009e+03
4.499999999999999833e-02 6.417530000000000179e-01 -4.398699999999999832e-01 3.589540000000000219e+01 1.646170000000000073e+03
4.599999999999999922e-02 6.422835000000000072e-01 8.420200000000002127e-01 3.831565000000000509e+01 1.646715000000000146e+03
4.700000000000000011e-02 6.428960000000000230e-01 2.294219999999999704e+00 4.111149999999999949e+01 1.647369999999999891e+03
4.800000000000000100e-02 6.435754999999999670e-01 3.892334999999999656e+00 4.422540000000000049e+01 1.648110000000000127e+03
4.900000000000000189e-02 6.443065000000000042e-01 5.603094999999999715e+00 4.759085000000000321e+01 1.648925000000000182e+03
5.000000000000000278e-02 6.450709999999999500e-01 7.386270000000000557e+00 5.113304999999999723e+01 1.649800000000000182e+03
5.100000000000000366e-02 6.458500000000000352e-01 9.197991000000000028e+00 5.477280000000000371e+01 1.650710000000000036e+03
5.200000000000000455e-02 6.466260000000000341e-01 1.099449999999999861e+01 5.843080000000000496e+01 1.651630000000000109e+03
5.300000000000000544e-02 6.473839999999999595e-01 1.273577000000000048e+01 6.203369999999999607e+01 1.652559999999999945e+03
5.399999999999999939e-02 6.481114999999999515e-01 1.438870499999999986e+01 6.551900000000000546e+01 1.653474999999999909e+03
5.500000000000000028e-02 6.488005000000000022e-01 1.592846000000000117e+01 6.883920000000000528e+01 1.654349999999999909e+03
5.600000000000000117e-02 6.494465000000000376e-01 1.733950000000000102e+01 7.196365000000000123e+01 1.655195000000000164e+03
5.700000000000000205e-02 6.500490000000000990e-01 1.861500000000000199e+01 7.487895000000000323e+01 1.655990000000000009e+03
5.800000000000000294e-02 6.506110000000000504e-01 1.975564999999999927e+01 7.758785000000000309e+01 1.656740000000000009e+03
5.900000000000000383e-02 6.511369999999999658e-01 2.076859999999999928e+01 8.010654999999999859e+01 1.657445000000000164e+03
6.000000000000000472e-02 6.516345000000000054e-01 2.166530000000000200e+01 8.246184999999999832e+01 1.658110000000000127e+03
6.099999999999999867e-02 6.521099999999999675e-01 2.246059999999999945e+01 8.468770000000000664e+01 1.658744999999999891e+03
6.199999999999999956e-02 6.525735000000000285e-01 2.317105000000000103e+01 8.682175000000000864e+01 1.659349999999999909e+03
6.300000000000000044e-02 6.530310000000000281e-01 2.381365000000000265e+01 8.890225000000000932e+01 1.659934999999999945e+03
6.400000000000000133e-02 6.534900000000000153e-01 2.440494999999999948e+01 9.096520000000001005e+01 1.660519999999999982e+03
6.500000000000000222e-02 6.539570000000000105e-01 2.495949999999999847e+01 9.304120000000000346e+01 1.661095000000000027e+03
6.600000000000000311e-02 6.544350000000001000e-01 2.548904999999999887e+01 9.515344999999999231e+01 1.661680000000000064e+03
6.700000000000000400e-02 6.549264999999999670e-01 2.600150000000000006e+01 9.731600000000000250e+01 1.662275000000000091e+03
6.800000000000000488e-02 6.554305000000000270e-01 2.650059999999999860e+01 9.953209999999999980e+01 1.662880000000000109e+03
6.900000000000000577e-02 6.559444999999999304e-01 2.698539999999999850e+01 1.017939000000000078e+02 1.663494999999999891e+03
7.000000000000000666e-02 6.564630000000000187e-01 2.745090000000000074e+01 1.040844999999999914e+02 1.664114999999999782e+03
7.100000000000000755e-02 6.569795000000000496e-01 2.788859999999999673e+01 1.063770000000000095e+02 1.664740000000000009e+03
7.200000000000000844e-02 6.574860000000000149e-01 2.828710000000000235e+01 1.086375000000000028e+02 1.665360000000000127e+03
7.300000000000000933e-02 6.579749999999999766e-01 2.863364999999999938e+01 1.108299999999999983e+02 1.665960000000000036e+03
7.399999999999999634e-02 6.584369999999999390e-01 2.891525000000000034e+01 1.129155000000000086e+02 1.666539999999999964e+03
7.499999999999999722e-02 6.588654999999999928e-01 2.911929999999999907e+01 1.148564999999999969e+02 1.667079999999999927e+03
7.599999999999999811e-02 6.592519999999999492e-01 2.923499999999999943e+01 1.166195000000000022e+02 1.667585000000000036e+03
7.699999999999999900e-02 6.595925000000000260e-01 2.925365000000000038e+01 1.181769999999999925e+02 1.668034999999999854e+03
7.799999999999999989e-02 6.598824999999999275e-01 2.916949999999999932e+01 1.195060000000000002e+02 1.668429999999999836e+03
7.900000000000000078e-02 6.601194999999999702e-01 2.897970000000000113e+01 1.205949999999999989e+02 1.668764999999999873e+03
8.000000000000000167e-02 6.603029999999999733e-01 2.868464999999999776e+01 1.214370000000000118e+02 1.669034999999999854e+03
8.100000000000000255e-02 6.604345000000000354e-01 2.828810000000000002e+01 1.220349999999999966e+02 1.669244999999999891e+03
8.200000000000000344e-02 6.605164999999999509e-01 2.779650000000000176e+01 1.223994999999999891e+02 1.669389999999999873e+03
8.300000000000000433e-02 6.605535000000000156e-01 2.721934999999999860e+01 1.225465000000000089e+02 1.669474999999999909e+03
8.400000000000000522e-02 6.605495000000000116e-01 2.656840000000000046e+01 1.224994999999999976e+02 1.669509999999999991e+03
8.500000000000000611e-02 6.605115000000000292e-01 2.585725000000000051e+01 1.222849999999999966e+02 1.669500000000000000e+03
8.600000000000000699e-02 6.604460000000000885e-01 2.510094999999999743e+01 1.219335000000000093e+02 1.669440000000000055e+03
8.700000000000000788e-02 6.603594999999999882e-01 2.431520000000000081e+01 1.214770000000000039e+02 1.669355000000000018e+03
8.800000000000000877e-02 6.602600000000000691e-01 2.351579999999999870e+01 1.209490000000000123e+02 1.669244999999999891e+03
8.899999999999999578e-02 6.601520000000000721e-01 2.271774999999999878e+01 1.203804999999999978e+02 1.669115000000000009e+03
8.999999999999999667e-02 6.600439999999999641e-01 2.193500000000000227e+01 1.198015000000000043e+02 1.668974999999999909e+03
9.099999999999999756e-02 6.599395000000000122e-01 2.117940000000000111e+01 1.192379999999999995e+02 1.668835000000000036e+03
9.199999999999999845e-02 6.598424999999999985e-01 2.046059999999999945e+01 1.187104999999999961e+02 1.668700000000000045e+03
9.299999999999999933e-02 6.597569999999999268e-01 1.978539999999999921e+01 1.182349999999999994e+02 1.668575000000000045e+03
9.400000000000000022e-02 6.596835000000000893e-01 1.915760000000000218e+01 1.178220000000000027e+02 1.668465000000000146e+03
9.500000000000000111e-02 6.596235000000000293e-01 1.857829999999999870e+01 1.174749999999999943e+02 1.668365000000000009e+03
9.600000000000000200e-02 6.595750000000000224e-01 1.804554999999999865e+01 1.171924999999999955e+02 1.668275000000000091e+03
9.700000000000000289e-02 6.595370000000000399e-01 1.755485000000000184e+01 1.169685000000000059e+02 1.668204999999999927e+03
9.800000000000000377e-02 6.595060000000000366e-01 1.709975000000000023e+01 1.167909999999999968e+02 1.668144999999999982e+03
9.900000000000000466e-02 6.594800000000000662e-01 1.667195000000000249e+01 1.166454999999999984e+02 1.668095000000000027e+03
1.000000000000000056e-01 6.594534999999999147e-01 1.626210000000000022e+01 1.165155000000000030e+02 1.668049999999999955e+03
1.010000000000000064e-01 6.594245000000000800e-01 1.586020000000000074e+01 1.163810000000000002e+02 1.668005000000000109e+03
1.020000000000000073e-01 6.593875000000000153e-01 1.545629999999999882e+01 1.162249999999999943e+02 1.667960000000000036e+03
1.030000000000000082e-01 6.593390000000000084e-01 1.504095000000000049e+01 1.160300000000000011e+02 1.667900000000000091e+03
1.040000000000000091e-01 6.592774999999999608e-01 1.460580000000000034e+01 1.157794999999999987e+02 1.667835000000000036e+03
1.050000000000000100e-01 6.591994999999999383e-01 1.414400000000000013e+01 1.154615000000000009e+02 1.667755000000000109e+03
1.059999999999999970e-01 6.591034999999999533e-01 1.365064999999999884e+01 1.150670000000000073e+02 1.667650000000000091e+03
1.069999999999999979e-01 6.589905000000000346e-01 1.312286000000000108e+01 1.145919999999999987e+02 1.667529999999999973e+03
1.079999999999999988e-01 6.588594999999999313e-01 1.256036999999999892e+01 1.140360000000000014e+02 1.667394999999999982e+03
1.089999999999999997e-01 6.587119999999999642e-01 1.196507000000000076e+01 1.134035000000000082e+02 1.667235000000000127e+03
1.100000000000000006e-01 6.585514999999999564e-01 1.134128999999999898e+01 1.127044999999999959e+02 1.667059999999999945e+03
1.110000000000000014e-01 6.583805000000000351e-01 1.069561999999999991e+01 1.119519999999999982e+02 1.666869999999999891e+03
1.120000000000000023e-01 6.582040000000000113e-01 1.003617999999999988e+01 1.111630000000000109e+02 1.666670000000000073e+03
1.130000000000000032e-01 6.580255000000000409e-01 9.372775000000000745e+00 1.103564999999999969e+02 1.666465000000000146e+03
1.140000000000000041e-01 6.578505000000000047e-01 8.715970000000000439e+00 1.095550000000000068e+02 1.666255000000000109e+03
1.150000000000000050e-01 6.576830000000000176e-01 8.076814999999999856e+00 1.087789999999999964e+02 1.666050000000000182e+03
1.160000000000000059e-01 6.575284999999999602e-01 7.466145000000000032e+00 1.080515000000000043e+02 1.665855000000000018e+03
1.170000000000000068e-01 6.573899999999999189e-01 6.894140000000000157e+00 1.073919999999999959e+02 1.665680000000000064e+03
1.180000000000000077e-01 6.572725000000000373e-01 6.369825000000000514e+00 1.068180000000000121e+02 1.665514999999999873e+03
1.190000000000000085e-01 6.571774999999999700e-01 5.900609999999999467e+00 1.063439999999999941e+02 1.665380000000000109e+03
1.200000000000000094e-01 6.571074999999999555e-01 5.491994999999999294e+00 1.059799999999999898e+02 1.665269999999999982e+03
1.209999999999999964e-01 6.570629999999999526e-01 5.147330000000000183e+00 1.057319999999999993e+02 1.665184999999999945e+03
1.219999999999999973e-01 6.570445000000000313e-01 4.867779999999999774e+00 1.056014999999999873e+02 1.665130000000000109e+03
1.229999999999999982e-01 6.570495000000000640e-01 4.652285000000000004e+00 1.055854999999999961e+02 1.665105000000000018e+03
1.239999999999999991e-01 6.570774999999999810e-01 4.497774999999999856e+00 1.056769999999999925e+02 1.665110000000000127e+03
1.250000000000000000e-01 6.571249999999999591e-01 4.399375000000000036e+00 1.058634999999999877e+02 1.665134999999999991e+03
1.260000000000000009e-01 6.571884999999999533e-01 4.350744999999999862e+00 1.061334999999999980e+02 1.665190000000000055e+03
1.270000000000000018e-01 6.572655000000000580e-01 4.344409999999999883e+00 1.064689999999999941e+02 1.665259999999999991e+03
1.280000000000000027e-01 6.573510000000000186e-01 4.372205000000000119e+00 1.068550000000000040e+02 1.665345000000000027e+03
1.290000000000000036e-01 6.574424999999999297e-01 4.425605000000000011e+00 1.072719999999999914e+02 1.665440000000000055e+03
1.300000000000000044e-01 6.575349999999999806e-01 4.496124999999999261e+00 1.077040000000000077e+02 1.665545000000000073e+03
1.310000000000000053e-01 6.576269999999999616e-01 4.575619999999999798e+00 1.081349999999999909e+02 1.665650000000000091e+03
1.320000000000000062e-01 6.577139999999999098e-01 4.656584999999999752e+00 1.085499999999999972e+02 1.665750000000000000e+03
1.330000000000000071e-01 6.577939999999999898e-01 4.732340000000000657e+00 1.089370000000000118e+02 1.665855000000000018e+03
1.340000000000000080e-01 6.578654999999999919e-01 4.797209999999999752e+00 1.092864999999999895e+02 1.665945000000000164e+03
1.350000000000000089e-01 6.579264999999999697e-01 4.846650000000000347e+00 1.095904999999999916e+02 1.666029999999999973e+03
1.360000000000000098e-01 6.579770000000000341e-01 4.877254999999999896e+00 1.098435000000000059e+02 1.666095000000000027e+03
1.370000000000000107e-01 6.580165000000000042e-01 4.886809999999999654e+00 1.100449999999999875e+02 1.666154999999999973e+03
1.380000000000000115e-01 6.580445000000000322e-01 4.874220000000000219e+00 1.101929999999999978e+02 1.666204999999999927e+03
1.390000000000000124e-01 6.580624999999999947e-01 4.839470000000000383e+00 1.102900000000000063e+02 1.666240000000000009e+03
1.400000000000000133e-01 6.580705000000000027e-01 4.783479999999999954e+00 1.103400000000000034e+02 1.666259999999999991e+03
1.410000000000000142e-01 6.580699999999999328e-01 4.708034999999999748e+00 1.103470000000000084e+02 1.666269999999999982e+03
1.420000000000000151e-01 6.580624999999999947e-01 4.615560000000000329e+00 1.103179999999999978e+02 1.666269999999999982e+03
1.430000000000000160e-01 6.580500000000000238e-01 4.509019999999999584e+00 1.102590000000000003e+02 1.666264999999999873e+03
1.440000000000000169e-01 6.580325000000000202e-01 4.391719999999999402e+00 1.101769999999999925e+02 1.666244999999999891e+03
1.450000000000000178e-01 6.580125000000000002e-01 4.267094999999999416e+00 1.100784999999999911e+02 1.666230000000000018e+03
1.459999999999999909e-01 6.579915000000000624e-01 4.138574999999999449e+00 1.099705000000000013e+02 1.666210000000000036e+03
1.469999999999999918e-01 6.579699999999999438e-01 4.009409999999999918e+00 1.098584999999999923e+02 1.666184999999999945e+03
1.479999999999999927e-01 6.579494999999999649e-01 3.882509999999999906e+00 1.097485000000000070e+02 1.666159999999999854e+03
1.489999999999999936e-01 6.579300000000000148e-01 3.760329999999999728e+00 1.096430000000000007e+02 1.666130000000000109e+03
1.499999999999999944e-01 6.579125000000000112e-01 3.644804999999999851e+00 1.095444999999999993e+02 1.666110000000000127e+03
1.509999999999999953e-01 6.578975000000000239e-01 3.537275000000000169e+00 1.094555000000000007e+02 1.666079999999999927e+03
1.519999999999999962e-01 6.578840000000000243e-01 3.438500000000000334e+00 1.093755000000000024e+02 1.666065000000000055e+03
1.529999999999999971e-01 6.578720000000000123e-01 3.348685000000000134e+00 1.093029999999999973e+02 1.666045000000000073e+03
1.539999999999999980e-01 6.578610000000000291e-01 3.267525000000000013e+00 1.092369999999999948e+02 1.666025000000000091e+03
1.549999999999999989e-01 6.578500000000000458e-01 3.194309999999999761e+00 1.091740000000000066e+02 1.666009999999999991e+03
1.559999999999999998e-01 6.578390000000000626e-01 3.128009999999999735e+00 1.091099999999999994e+02 1.665990000000000009e+03
1.570000000000000007e-01 6.578264999999999807e-01 3.067425000000000068e+00 1.090434999999999945e+02 1.665969999999999800e+03
1.580000000000000016e-01 6.578120000000000633e-01 3.011239999999999917e+00 1.089699999999999989e+02 1.665949999999999818e+03
1.590000000000000024e-01 6.577954999999999774e-01 2.958190000000000097e+00 1.088864999999999981e+02 1.665929999999999836e+03
