# t [s], A [cm^2], U [cm/s], P [cPa], c [cm/s]
1.000000000000000021e-03 6.103270000000000639e-01 3.852450000000000319e-03 9.859555000000000291e+01 1.532724999999999909e+03
2.000000000000000042e-03 6.103180000000000271e-01 -1.166643499999999931e-03 9.857479999999999620e+01 1.532719999999999800e+03
3.000000000000000062e-03 6.103600000000000136e-01 7.023200000000000276e-02 9.864555000000000007e+01 1.532744999999999891e+03
4.000000000000000083e-03 6.104110000000000369e-01 1.610971500000000223e-01 9.875730000000000075e+01 1.532769999999999982e+03
5.000000000000000104e-03 6.104065000000000740e-01 1.643224999999999825e-01 9.875570000000000448e+01 1.532775000000000091e+03
6.000000000000000125e-03 6.103574999999999973e-01 9.072649999999998771e-02 9.861464999999999748e+01 1.532744999999999891e+03
7.000000000000000146e-03 6.103089999999999904e-01 1.299800000000000955e-02 9.840954999999999586e+01 1.532700000000000045e+03
8.000000000000000167e-03 6.102499999999999591e-01 -9.041699999999996962e-02 9.813049999999999784e+01 1.532639999999999873e+03
9.000000000000001055e-03 6.101469999999999949e-01 -2.806899999999999951e-01 9.770095000000000596e+01 1.532539999999999964e+03
1.000000000000000194e-02 6.099900000000000322e-01 -5.745850000000000124e-01 9.707344999999999402e+01 1.532394999999999982e+03
1.099999999999999936e-02 6.097714999999999108e-01 -9.803100000000001257e-01 9.620754999999999768e+01 1.532195000000000164e+03
1.200000000000000025e-02 6.094764999999999766e-01 -1.511325000000000252e+00 9.505389999999999873e+01 1.531920000000000073e+03
1.300000000000000114e-02 6.091079999999999828e-01 -2.146714999999999929e+00 9.360160000000000480e+01 1.531575000000000045e+03
1.400000000000000203e-02 6.086994999999999489e-01 -2.807255000000000056e+00 9.191960000000000264e+01 1.531155000000000200e+03
1.499999999999999944e-02 6.082985000000000753e-01 -3.379979999999999762e+00 9.014345000000000141e+01 1.530704999999999927e+03
1.600000000000000033e-02 6.079470000000000152e-01 -3.765804000000000151e+00 8.842019999999999413e+01 1.530250000000000000e+03
1.700000000000000122e-02 6.076615000000000766e-01 -3.913388000000000311e+00 8.685540000000000305e+01 1.529809999999999945e+03
1.800000000000000211e-02 6.074330000000000007e-01 -3.826235500000000123e+00 8.548720000000000141e+01 1.529405000000000200e+03
1.900000000000000300e-02 6.072364999999999569e-01 -3.549360000000000070e+00 8.428934999999999889e+01 1.529034999999999854e+03
2.000000000000000042e-02 6.070419999999999705e-01 -3.146947500000000009e+00 8.319294999999999618e+01 1.528679999999999836e+03
2.100000000000000130e-02 6.068234999999999602e-01 -2.679884000000000377e+00 8.211615000000000464e+01 1.528325000000000045e+03
2.200000000000000219e-02 6.065675000000000372e-01 -2.189105000000000079e+00 8.099165000000000703e+01 1.527960000000000036e+03
2.299999999999999961e-02 6.062750000000000083e-01 -1.688510000000000177e+00 7.978520000000000323e+01 1.527585000000000036e+03
2.400000000000000050e-02 6.059565000000000090e-01 -1.168780000000000152e+00 7.849930000000000518e+01 1.527190000000000055e+03
2.500000000000000139e-02 6.056274999999999853e-01 -6.095399999999999707e-01 7.716335000000000832e+01 1.526779999999999973e+03
2.600000000000000228e-02 6.053024999999999656e-01 5.705000000000293170e-03 7.581520000000000437e+01 1.526360000000000127e+03
2.700000000000000316e-02 6.049849999999999950e-01 6.776150000000003004e-01 7.448210000000000264e+01 1.525950000000000045e+03
2.800000000000000058e-02 6.046715000000000284e-01 1.385554999999999870e+00 7.316759999999999309e+01 1.525539999999999964e+03
2.900000000000000147e-02 6.043490000000000251e-01 2.089094999999999924e+00 7.184735000000000582e+01 1.525125000000000000e+03
3.000000000000000236e-02 6.039989999999999526e-01 2.735274999999999679e+00 7.047329999999999472e+01 1.524699999999999818e+03
3.099999999999999978e-02 6.036034999999999595e-01 3.269175000000000608e+00 6.898519999999999186e+01 1.524250000000000000e+03
3.200000000000000067e-02 6.031480000000000175e-01 3.645325000000000149e+00 6.732595000000000596e+01 1.523759999999999991e+03
3.300000000000000155e-02 6.026285000000000114e-01 3.837285000000000501e+00 6.545709999999999695e+01 1.523224999999999909e+03
3.400000000000000244e-02 6.020490000000000563e-01 3.843430000000000124e+00 6.337144999999999584e+01 1.522639999999999873e+03
3.500000000000000333e-02 6.014254999999999463e-01 3.686919999999999753e+00 6.109794999999999732e+01 1.522009999999999991e+03
3.600000000000000422e-02 6.007814999999999683e-01 3.411430000000000184e+00 5.870064999999999600e+01 1.521349999999999909e+03
3.700000000000000511e-02 6.001449999999999285e-01 3.072420000000000151e+00 5.626939999999999742e+01 1.520679999999999836e+03
3.799999999999999906e-02 5.995435000000000070e-01 2.728530000000000122e+00 5.390780000000000172e+01 1.520014999999999873e+03
3.899999999999999994e-02 5.990014999999999645e-01 2.433440000000000047e+00 5.172020000000000550e+01 1.519389999999999873e+03
4.000000000000000083e-02 5.985395000000000021e-01 2.230859999999999843e+00 4.980055000000000121e+01 1.518825000000000045e+03
4.100000000000000172e-02 5.981710000000000083e-01 2.152369999999999450e+00 4.822534999999999883e+01 1.518340000000000146e+03
4.200000000000000261e-02 5.979035000000000322e-01 2.217754999999999477e+00 4.704970000000000141e+01 1.517960000000000036e+03
4.300000000000000350e-02 5.977414999999999257e-01 2.437325500000000034e+00 4.630769999999999698e+01 1.517690000000000055e+03
4.400000000000000439e-02 5.976850000000000218e-01 2.815100000000000158e+00 4.601520000000000010e+01 1.517534999999999854e+03
4.499999999999999833e-02 5.977324999999999999e-01 3.351879999999999971e+00 4.617430000000000234e+01 1.517500000000000000e+03
4.599999999999999922e-02 5.978825000000000944e-01 4.047670000000000101e+00 4.677774999999999750e+01 1.517590000000000146e+03
4.700000000000000011e-02 5.981325000000000669e-01 4.902890000000000192e+00 4.781309999999999860e+01 1.517800000000000182e+03
4.800000000000000100e-02 5.984795000000000531e-01 5.918305000000000149e+00 4.926485000000000269e+01 1.518130000000000109e+03
4.900000000000000189e-02 5.989210000000000367e-01 7.094005000000000116e+00 5.111565000000000225e+01 1.518569999999999936e+03
5.000000000000000278e-02 5.994525000000000547e-01 8.427754999999999441e+00 5.334530000000000172e+01 1.519125000000000000e+03
5.100000000000000366e-02 6.000689999999999635e-01 9.913465000000000416e+00 5.592999999999999972e+01 1.519779999999999973e+03
5.200000000000000455e-02 6.007624999999999771e-01 1.153998999999999953e+01 5.884059999999999491e+01 1.520530000000000200e+03
5.300000000000000544e-02 6.015249999999999764e-01 1.329093500000000105e+01 6.204200000000000159e+01 1.521369999999999891e+03
5.399999999999999939e-02 6.023439999999999905e-01 1.514474000000000053e+01 6.549330000000000496e+01 1.522284999999999854e+03
5.500000000000000028e-02 6.032089999999999952e-01 1.707622500000000088e+01 6.914849999999999852e+01 1.523264999999999873e+03
5.600000000000000117e-02 6.041064999999999907e-01 1.905780999999999992e+01 7.295844999999999914e+01 1.524305000000000064e+03
5.700000000000000205e-02 6.050254999999999939e-01 2.106145000000000067e+01 7.687319999999999709e+01 1.525380000000000109e+03
5.800000000000000294e-02 6.059535000000000338e-01 2.306034999999999968e+01 8.084420000000000073e+01 1.526480000000000018e+03
5.900000000000000383e-02 6.068810000000000038e-01 2.503020000000000067e+01 8.482724999999999227e+01 1.527599999999999909e+03
6.000000000000000472e-02 6.078004999999999658e-01 2.695039999999999836e+01 8.878434999999998922e+01 1.528724999999999909e+03
6.099999999999999867e-02 6.087055000000000105e-01 2.880444999999999922e+01 9.268449999999999989e+01 1.529844999999999800e+03
6.199999999999999956e-02 6.095920000000000227e-01 3.058030000000000115e+01 9.650454999999999472e+01 1.530954999999999927e+03
6.300000000000000044e-02 6.104579999999999451e-01 3.226985000000000525e+01 1.002302999999999997e+02 1.532045000000000073e+03
6.400000000000000133e-02 6.113024999999999709e-01 3.386865000000000236e+01 1.038543999999999983e+02 1.533115000000000009e+03
6.500000000000000222e-02 6.121269999999999767e-01 3.537545000000000073e+01 1.073760499999999922e+02 1.534159999999999854e+03
6.600000000000000311e-02 6.129329999999999501e-01 3.679119999999999635e+01 1.108004999999999995e+02 1.535184999999999945e+03
6.700000000000000400e-02 6.137209999999999610e-01 3.811870000000000402e+01 1.141359999999999957e+02 1.536184999999999945e+03
6.800000000000000488e-02 6.144960000000000422e-01 3.936189999999999856e+01 1.173930000000000007e+02 1.537164999999999964e+03
6.900000000000000577e-02 6.152590000000000003e-01 4.052495000000000402e+01 1.205829999999999984e+02 1.538130000000000109e+03
7.000000000000000666e-02 6.160125000000000739e-01 4.161214999999999975e+01 1.237164999999999964e+02 1.539074999999999818e+03
7.100000000000000755e-02 6.167580000000000284e-01 4.262715000000000032e+01 1.268040000000000020e+02 1.540014999999999873e+03
7.200000000000000844e-02 6.174969999999999626e-01 4.357265000000000299e+01 1.298499999999999943e+02 1.540940000000000055e+03
7.300000000000000933e-02 6.182279999999999998e-01 4.445009999999999906e+01 1.328589999999999804e+02 1.541849999999999909e+03
7.399999999999999634e-02 6.189510000000000289e-01 4.525955000000000439e+01 1.358274999999999864e+02 1.542755000000000109e+03
7.499999999999999722e-02 6.196639999999999926e-01 4.599954999999999927e+01 1.387520000000000095e+02 1.543640000000000100e+03
7.599999999999999811e-02 6.203644999999999854e-01 4.666749999999999687e+01 1.416214999999999975e+02 1.544514999999999873e+03
7.699999999999999900e-02 6.210480000000000445e-01 4.725969999999999516e+01 1.444244999999999948e+02 1.545375000000000000e+03
7.799999999999999989e-02 6.217120000000000424e-01 4.777165000000000106e+01 1.471449999999999818e+02 1.546210000000000036e+03
7.900000000000000078e-02 6.223509999999999875e-01 4.819875000000000398e+01 1.497659999999999911e+02 1.547019999999999982e+03
8.000000000000000167e-02 6.229609999999999870e-01 4.853620000000000090e+01 1.522704999999999984e+02 1.547795000000000073e+03
8.100000000000000255e-02 6.235384999999999955e-01 4.877994999999999948e+01 1.546410000000000196e+02 1.548539999999999964e+03
8.200000000000000344e-02 6.240795000000000092e-01 4.892650000000000432e+01 1.568619999999999948e+02 1.549235000000000127e+03
8.300000000000000433e-02 6.245814999999999007e-01 4.897339999999999804e+01 1.589180000000000064e+02 1.549894999999999982e+03
8.400000000000000522e-02 6.250415000000000276e-01 4.891960000000000264e+01 1.607994999999999948e+02 1.550500000000000000e+03
8.500000000000000611e-02 6.254579999999999584e-01 4.876515000000000555e+01 1.624979999999999905e+02 1.551054999999999836e+03
8.600000000000000699e-02 6.258295000000000385e-01 4.851170000000000471e+01 1.640080000000000098e+02 1.551554999999999836e+03
8.700000000000000788e-02 6.261574999999999225e-01 4.816214999999999691e+01 1.653285000000000196e+02 1.552005000000000109e+03
8.800000000000000877e-02 6.264414999999999845e-01 4.772100000000000364e+01 1.664610000000000127e+02 1.552394999999999982e+03
8.899999999999999578e-02 6.266819999999999613e-01 4.719395000000000095e+01 1.674105000000000132e+02 1.552735000000000127e+03
8.999999999999999667e-02 6.268825000000000092e-01 4.658804999999999552e+01 1.681864999999999952e+02 1.553019999999999982e+03
9.099999999999999756e-02 6.270455000000000334e-01 4.591150000000000375e+01 1.687990000000000066e+02 1.553259999999999991e+03
9.199999999999999845e-02 6.271740000000000093e-01 4.517334999999999923e+01 1.692624999999999886e+02 1.553449999999999818e+03
9.299999999999999933e-02 6.272709999999999120e-01 4.438339999999999463e+01 1.695905000000000200e+02 1.553594999999999800e+03
9.400000000000000022e-02 6.273409999999999265e-01 4.355219999999999914e+01 1.698009999999999877e+02 1.553704999999999927e+03
9.500000000000000111e-02 6.273885000000000156e-01 4.269020000000000437e+01 1.699114999999999895e+02 1.553779999999999973e+03
9.600000000000000200e-02 6.274170000000000025e-01 4.180790000000000362e+01 1.699399999999999977e+02 1.553824999999999818e+03
9.700000000000000289e-02 6.274305000000000021e-01 4.091550000000000153e+01 1.699030000000000200e+02 1.553849999999999909e+03
9.800000000000000377e-02 6.274324999999999486e-01 4.002224999999999966e+01 1.698185000000000002e+02 1.553855000000000018e+03
9.900000000000000466e-02 6.274269999999999570e-01 3.913660000000000139e+01 1.697004999999999768e+02 1.553845000000000027e+03
1.000000000000000056e-01 6.274165000000000436e-01 3.826545000000000130e+01 1.695629999999999882e+02 1.553824999999999818e+03
1.010000000000000064e-01 6.274035000000000029e-01 3.741440000000000055e+01 1.694159999999999968e+02 1.553795000000000073e+03
1.020000000000000073e-01 6.273885000000000156e-01 3.658724999999999739e+01 1.692680000000000007e+02 1.553760000000000218e+03
1.030000000000000082e-01 6.273739999999999872e-01 3.578625000000000256e+01 1.691235000000000070e+02 1.553724999999999909e+03
1.040000000000000091e-01 6.273590000000000000e-01 3.501174999999999926e+01 1.689850000000000136e+02 1.553690000000000055e+03
1.050000000000000100e-01 6.273429999999999840e-01 3.426290000000000191e+01 1.688520000000000039e+02 1.553650000000000091e+03
1.059999999999999970e-01 6.273260000000000502e-01 3.353710000000000235e+01 1.687214999999999918e+02 1.553615000000000009e+03
1.069999999999999979e-01 6.273054999999999604e-01 3.283100000000000307e+01 1.685869999999999891e+02 1.553575000000000045e+03
1.079999999999999988e-01 6.272805000000000186e-01 3.214014999999999844e+01 1.684424999999999955e+02 1.553530000000000200e+03
1.089999999999999997e-01 6.272495000000000154e-01 3.145955000000000013e+01 1.682810000000000059e+02 1.553485000000000127e+03
1.100000000000000006e-01 6.272100000000000453e-01 3.078410000000000224e+01 1.680930000000000177e+02 1.553425000000000182e+03
1.110000000000000014e-01 6.271595000000000919e-01 3.010855000000000103e+01 1.678704999999999927e+02 1.553365000000000009e+03
1.120000000000000023e-01 6.270979999999999333e-01 2.942814999999999870e+01 1.676055000000000064e+02 1.553289999999999964e+03
1.130000000000000032e-01 6.270225000000000382e-01 2.873850000000000193e+01 1.672914999999999850e+02 1.553200000000000045e+03
1.140000000000000041e-01 6.269335000000000324e-01 2.803589999999999804e+01 1.669230000000000018e+02 1.553095000000000027e+03
1.150000000000000050e-01 6.268285000000000107e-01 2.731765000000000043e+01 1.664960000000000093e+02 1.552974999999999909e+03
1.160000000000000059e-01 6.267095000000000304e-01 2.658190000000000097e+01 1.660079999999999814e+02 1.552840000000000146e+03
1.170000000000000068e-01 6.265749999999999931e-01 2.582784999999999798e+01 1.654599999999999795e+02 1.552690000000000055e+03
1.180000000000000077e-01 6.264269999999999561e-01 2.505590000000000117e+01 1.648530000000000086e+02 1.552519999999999982e+03
1.190000000000000085e-01 6.262649999999999606e-01 2.426740000000000208e+01 1.641914999999999907e+02 1.552340000000000146e+03
1.200000000000000094e-01 6.260924999999999407e-01 2.346475000000000222e+01 1.634800000000000182e+02 1.552139999999999873e+03
1.209999999999999964e-01 6.259105000000000363e-01 2.265135000000000076e+01 1.627269999999999754e+02 1.551924999999999955e+03
1.219999999999999973e-01 6.257215000000000416e-01 2.183119999999999905e+01 1.619404999999999859e+02 1.551704999999999927e+03
1.229999999999999982e-01 6.255269999999999442e-01 2.100929999999999964e+01 1.611299999999999955e+02 1.551480000000000018e+03
1.239999999999999991e-01 6.253299999999999415e-01 2.019089999999999918e+01 1.603059999999999832e+02 1.551240000000000009e+03
1.250000000000000000e-01 6.251339999999999675e-01 1.938170000000000215e+01 1.594794999999999732e+02 1.551005000000000109e+03
1.260000000000000009e-01 6.249409999999999688e-01 1.858755000000000024e+01 1.586614999999999895e+02 1.550764999999999873e+03
1.270000000000000018e-01 6.247534999999999616e-01 1.781419999999999959e+01 1.578619999999999948e+02 1.550530000000000200e+03
1.280000000000000027e-01 6.245730000000000448e-01 1.706719999999999970e+01 1.570914999999999964e+02 1.550305000000000064e+03
1.290000000000000036e-01 6.244030000000000413e-01 1.635184999999999889e+01 1.563589999999999804e+02 1.550085000000000036e+03
1.300000000000000044e-01 6.242449999999999388e-01 1.567249999999999943e+01 1.556734999999999900e+02 1.549880000000000109e+03
1.310000000000000053e-01 6.240989999999999593e-01 1.503325000000000067e+01 1.550400000000000205e+02 1.549684999999999945e+03
1.320000000000000062e-01 6.239680000000000781e-01 1.443705000000000105e+01 1.544650000000000034e+02 1.549505000000000109e+03
1.330000000000000071e-01 6.238510000000000444e-01 1.388609999999999900e+01 1.539505000000000052e+02 1.549340000000000146e+03
1.340000000000000080e-01 6.237494999999999568e-01 1.338155000000000072e+01 1.534989999999999952e+02 1.549195000000000164e+03
1.350000000000000089e-01 6.236619999999999386e-01 1.292374500000000026e+01 1.531100000000000136e+02 1.549059999999999945e+03
1.360000000000000098e-01 6.235895000000000188e-01 1.251203500000000091e+01 1.527814999999999941e+02 1.548950000000000045e+03
1.370000000000000107e-01 6.235295000000000698e-01 1.214485499999999973e+01 1.525115000000000123e+02 1.548849999999999909e+03
1.380000000000000115e-01 6.234815000000000218e-01 1.181997499999999945e+01 1.522944999999999993e+02 1.548769999999999982e+03
1.390000000000000124e-01 6.234444999999999570e-01 1.153438500000000033e+01 1.521250000000000000e+02 1.548704999999999927e+03
1.400000000000000133e-01 6.234159999999999702e-01 1.128472499999999989e+01 1.519960000000000093e+02 1.548650000000000091e+03
1.410000000000000142e-01 6.233949999999999214e-01 1.106707000000000107e+01 1.519014999999999986e+02 1.548605000000000018e+03
1.420000000000000151e-01 6.233794999999999753e-01 1.087744499999999981e+01 1.518335000000000150e+02 1.548570000000000164e+03
1.430000000000000160e-01 6.233680000000000332e-01 1.071161500000000011e+01 1.517855000000000132e+02 1.548545000000000073e+03
1.440000000000000169e-01 6.233584999999999265e-01 1.056562500000000071e+01 1.517504999999999882e+02 1.548525000000000091e+03
1.450000000000000178e-01 6.233500000000000707e-01 1.043544499999999964e+01 1.517214999999999918e+02 1.548500000000000000e+03
1.459999999999999909e-01 6.233410000000000339e-01 1.031741500000000045e+01 1.516929999999999836e+02 1.548484999999999900e+03
1.469999999999999918e-01 6.233310000000000795e-01 1.020828500000000005e+01 1.516605000000000132e+02 1.548464999999999918e+03
1.479999999999999927e-01 6.233184999999999976e-01 1.010501999999999967e+01 1.516200000000000045e+02 1.548449999999999818e+03
1.489999999999999936e-01 6.233024999999999816e-01 1.000523000000000096e+01 1.515685000000000002e+02 1.548429999999999836e+03
1.499999999999999944e-01 6.232839999999999492e-01 9.906874999999999432e+00 1.515035000000000025e+02 1.548404999999999973e+03
1.509999999999999953e-01 6.232625000000000526e-01 9.808329999999999771e+00 1.514250000000000114e+02 1.548380000000000109e+03
1.519999999999999962e-01 6.232370000000000410e-01 9.708489999999999398e+00 1.513305000000000007e+02 1.548355000000000018e+03
1.529999999999999971e-01 6.232085000000000541e-01 9.606654999999999944e+00 1.512224999999999966e+02 1.548320000000000164e+03
1.539999999999999980e-01 6.231765000000000221e-01 9.502494999999999692e+00 1.511009999999999991e+02 1.548285000000000082e+03
1.549999999999999989e-01 6.231430000000000025e-01 9.395984999999999587e+00 1.509679999999999893e+02 1.548244999999999891e+03
1.559999999999999998e-01 6.231070000000000775e-01 9.287435000000000329e+00 1.508255000000000052e+02 1.548204999999999927e+03
1.570000000000000007e-01 6.230694999999999428e-01 9.177315000000000111e+00 1.506750000000000114e+02 1.548164999999999964e+03
1.580000000000000016e-01 6.230314999999999603e-01 9.066219999999999501e+00 1.505194999999999936e+02 1.548119999999999891e+03
1.590000000000000024e-01 6.229930000000000190e-01 8.954980000000000828e+00 1.503605000000000018e+02 1.548075000000000045e+03
