# t [s], A [cm^2], U [cm/s], P [cPa], c [cm/s]
1.000000000000000021e-03 1.621199999999999863e-01 2.776115000000000110e-01 9.401720000000000255e+01 1.929674999999999955e+03
2.000000000000000042e-03 1.620900000000000118e-01 1.704474499999999892e+00 9.111109999999999332e+01 1.929394999999999982e+03
3.000000000000000062e-03 1.619884999999999797e-01 3.463181500000000135e+00 8.722245000000000914e+01 1.928509999999999991e+03
4.000000000000000083e-03 1.618384999999999962e-01 5.425406500000000243e+00 8.289054999999999040e+01 1.927235000000000127e+03
5.000000000000000104e-03 1.616684999999999928e-01 7.539295000000000080e+00 7.884369999999999834e+01 1.925795000000000073e+03
6.000000000000000125e-03 1.614980000000000027e-01 9.689165000000000916e+00 7.543055000000001087e+01 1.924360000000000127e+03
7.000000000000000146e-03 1.613339999999999774e-01 1.170646499999999968e+01 7.256504999999999939e+01 1.923005000000000109e+03
8.000000000000000167e-03 1.611799999999999899e-01 1.347753999999999941e+01 7.001869999999999550e+01 1.921750000000000000e+03
9.000000000000001055e-03 1.610389999999999877e-01 1.499662000000000006e+01 6.773005000000000564e+01 1.920619999999999891e+03
1.000000000000000194e-02 1.609145000000000159e-01 1.629670000000000130e+01 6.576140000000000896e+01 1.919625000000000000e+03
1.099999999999999936e-02 1.608069999999999777e-01 1.739535000000000053e+01 6.413445000000000107e+01 1.918784999999999854e+03
1.200000000000000025e-02 1.607169999999999987e-01 1.830114999999999981e+01 6.281374999999999886e+01 1.918085000000000036e+03
1.300000000000000114e-02 1.606424999999999936e-01 1.902060000000000173e+01 6.174134999999999707e+01 1.917509999999999991e+03
1.400000000000000203e-02 1.605805000000000149e-01 1.955664999999999765e+01 6.083990000000000009e+01 1.917039999999999964e+03
1.499999999999999944e-02 1.605280000000000040e-01 1.992314999999999969e+01 6.003924999999999557e+01 1.916650000000000091e+03
1.600000000000000033e-02 1.604835000000000012e-01 2.017074999999999818e+01 5.935040000000000049e+01 1.916325000000000045e+03
1.700000000000000122e-02 1.604499999999999815e-01 2.039160000000000039e+01 5.891360000000000241e+01 1.916079999999999927e+03
1.800000000000000211e-02 1.604325000000000057e-01 2.069084999999999752e+01 5.895454999999999757e+01 1.915960000000000036e+03
1.900000000000000300e-02 1.604369999999999963e-01 2.114144999999999897e+01 5.966544999999999987e+01 1.916005000000000109e+03
2.000000000000000042e-02 1.604659999999999975e-01 2.175104999999999933e+01 6.108845000000000169e+01 1.916240000000000009e+03
2.100000000000000130e-02 1.605175000000000074e-01 2.245850000000000080e+01 6.306695000000000562e+01 1.916650000000000091e+03
2.200000000000000219e-02 1.605850000000000055e-01 2.315680000000000049e+01 6.528395000000000437e+01 1.917184999999999945e+03
2.299999999999999961e-02 1.606575000000000086e-01 2.373065000000000069e+01 6.736015000000000441e+01 1.917764999999999873e+03
2.400000000000000050e-02 1.607244999999999924e-01 2.409185000000000088e+01 6.896625000000000227e+01 1.918309999999999945e+03
2.500000000000000139e-02 1.607775000000000176e-01 2.420100000000000051e+01 6.990854999999999109e+01 1.918750000000000000e+03
2.600000000000000228e-02 1.608114999999999961e-01 2.407180000000000319e+01 7.016374999999999318e+01 1.919045000000000073e+03
2.700000000000000316e-02 1.608269999999999977e-01 2.375795000000000101e+01 6.985750000000000171e+01 1.919184999999999945e+03
2.800000000000000058e-02 1.608269999999999977e-01 2.333070000000000022e+01 6.920289999999999964e+01 1.919204999999999927e+03
2.900000000000000147e-02 1.608169999999999877e-01 2.285504999999999853e+01 6.842259999999998854e+01 1.919134999999999991e+03
3.000000000000000236e-02 1.608020000000000005e-01 2.237245000000000061e+01 6.768319999999999936e+01 1.919019999999999982e+03
3.099999999999999978e-02 1.607850000000000112e-01 2.189444999999999908e+01 6.705924999999999159e+01 1.918900000000000091e+03
3.200000000000000067e-02 1.607689999999999952e-01 2.140725000000000122e+01 6.653245000000001141e+01 1.918769999999999982e+03
3.300000000000000155e-02 1.607520000000000060e-01 2.088374999999999915e+01 6.602110000000000412e+01 1.918639999999999873e+03
3.400000000000000244e-02 1.607330000000000148e-01 2.029834999999999923e+01 6.542475000000000307e+01 1.918485000000000127e+03
3.500000000000000333e-02 1.607089999999999907e-01 1.964055000000000106e+01 6.467029999999999745e+01 1.918300000000000182e+03
3.600000000000000422e-02 1.606795000000000029e-01 1.892295000000000016e+01 6.374554999999999438e+01 1.918070000000000164e+03
3.700000000000000511e-02 1.606450000000000100e-01 1.818220000000000169e+01 6.271289999999999765e+01 1.917804999999999836e+03
3.799999999999999906e-02 1.606084999999999874e-01 1.747294999999999732e+01 6.169885000000000019e+01 1.917519999999999982e+03
3.899999999999999994e-02 1.605745000000000089e-01 1.685630000000000095e+01 6.086549999999999727e+01 1.917250000000000000e+03
4.000000000000000083e-02 1.605480000000000240e-01 1.638609999999999900e+01 6.037010000000000076e+01 1.917039999999999964e+03
4.100000000000000172e-02 1.605330000000000090e-01 1.609724999999999895e+01 6.032649999999999579e+01 1.916910000000000082e+03
4.200000000000000261e-02 1.605329999999999813e-01 1.599790000000000134e+01 6.077634999999999366e+01 1.916894999999999982e+03
4.300000000000000350e-02 1.605484999999999829e-01 1.606780000000000186e+01 6.167839999999999634e+01 1.917009999999999991e+03
4.400000000000000439e-02 1.605779999999999985e-01 1.626249999999999929e+01 6.291559999999999775e+01 1.917230000000000018e+03
4.499999999999999833e-02 1.606175000000000241e-01 1.652109999999999701e+01 6.431674999999999898e+01 1.917535000000000082e+03
4.599999999999999922e-02 1.606619999999999993e-01 1.677665000000000006e+01 6.568644999999999357e+01 1.917880000000000109e+03
4.700000000000000011e-02 1.607055000000000011e-01 1.696529999999999916e+01 6.683644999999999925e+01 1.918220000000000027e+03
4.800000000000000100e-02 1.607419999999999960e-01 1.703455000000000297e+01 6.761175000000000068e+01 1.918509999999999991e+03
4.900000000000000189e-02 1.607664999999999789e-01 1.694744999999999990e+01 6.790735000000000809e+01 1.918710000000000036e+03
5.000000000000000278e-02 1.607764999999999889e-01 1.668459999999999965e+01 6.767494999999999550e+01 1.918795000000000073e+03
5.100000000000000366e-02 1.607689999999999952e-01 1.624295000000000044e+01 6.691974999999999341e+01 1.918739999999999782e+03
5.200000000000000455e-02 1.607445000000000124e-01 1.563265000000000171e+01 6.568984999999999275e+01 1.918554999999999836e+03
5.300000000000000544e-02 1.607034999999999991e-01 1.487349999999999994e+01 6.406270000000000664e+01 1.918235000000000127e+03
5.399999999999999939e-02 1.606480000000000130e-01 1.399095000000000155e+01 6.213030000000000541e+01 1.917809999999999945e+03
5.500000000000000028e-02 1.605810000000000015e-01 1.301324999999999932e+01 5.998789999999999623e+01 1.917284999999999854e+03
5.600000000000000117e-02 1.605059999999999820e-01 1.196978999999999971e+01 5.772594999999999743e+01 1.916695000000000164e+03
5.700000000000000205e-02 1.604244999999999977e-01 1.089001999999999981e+01 5.542690000000000339e+01 1.916050000000000182e+03
5.800000000000000294e-02 1.603404999999999969e-01 9.803660000000000707e+00 5.316485000000000127e+01 1.915385000000000218e+03
5.900000000000000383e-02 1.602560000000000096e-01 8.741059999999999164e+00 5.100860000000000127e+01 1.914720000000000027e+03
6.000000000000000472e-02 1.601744999999999974e-01 7.733704999999999607e+00 4.902424999999999500e+01 1.914070000000000164e+03
6.099999999999999867e-02 1.600975000000000037e-01 6.814395000000000202e+00 4.727795000000000414e+01 1.913460000000000036e+03
6.199999999999999956e-02 1.600290000000000046e-01 6.016664999999999708e+00 4.583709999999999951e+01 1.912914999999999964e+03
6.300000000000000044e-02 1.599714999999999887e-01 5.374159999999999826e+00 4.476975000000000193e+01 1.912450000000000045e+03
6.400000000000000133e-02 1.599275000000000002e-01 4.919130000000000003e+00 4.414220000000000255e+01 1.912090000000000146e+03
6.500000000000000222e-02 1.598984999999999990e-01 4.680854999999999322e+00 4.401539999999999964e+01 1.911855000000000018e+03
6.600000000000000311e-02 1.598884999999999890e-01 4.683915000000000717e+00 4.444069999999999965e+01 1.911759999999999991e+03
6.700000000000000400e-02 1.598984999999999990e-01 4.946659999999999613e+00 4.545579999999999643e+01 1.911824999999999818e+03
6.800000000000000488e-02 1.599305000000000032e-01 5.480029999999999291e+00 4.708155000000000001e+01 1.912065000000000055e+03
6.900000000000000577e-02 1.599849999999999883e-01 6.286820000000000519e+00 4.931960000000000122e+01 1.912474999999999909e+03
7.000000000000000666e-02 1.600624999999999964e-01 7.361514999999999809e+00 5.215214999999999890e+01 1.913069999999999936e+03
7.100000000000000755e-02 1.601624999999999854e-01 8.690654999999999575e+00 5.554254999999999853e+01 1.913849999999999909e+03
7.200000000000000844e-02 1.602839999999999820e-01 1.025356000000000023e+01 5.943774999999999409e+01 1.914795000000000073e+03
7.300000000000000933e-02 1.604249999999999843e-01 1.202364499999999836e+01 6.377139999999999986e+01 1.915900000000000091e+03
7.399999999999999634e-02 1.605834999999999901e-01 1.396967499999999873e+01 6.846779999999999688e+01 1.917144999999999982e+03
7.499999999999999722e-02 1.607574999999999976e-01 1.605749999999999744e+01 7.344615000000000293e+01 1.918515000000000100e+03
7.599999999999999811e-02 1.609435000000000171e-01 1.825150000000000006e+01 7.862479999999999336e+01 1.919994999999999891e+03
7.699999999999999900e-02 1.611385000000000178e-01 2.051620000000000132e+01 8.392519999999998959e+01 1.921545000000000073e+03
7.799999999999999989e-02 1.613399999999999834e-01 2.281799999999999784e+01 8.927559999999999718e+01 1.923150000000000091e+03
7.900000000000000078e-02 1.615460000000000229e-01 2.512600000000000122e+01 9.461390000000000100e+01 1.924795000000000073e+03
8.000000000000000167e-02 1.617530000000000079e-01 2.741335000000000122e+01 9.988910000000001332e+01 1.926454999999999927e+03
8.100000000000000255e-02 1.619594999999999785e-01 2.965785000000000338e+01 1.050646500000000003e+02 1.928119999999999891e+03
8.200000000000000344e-02 1.621644999999999892e-01 3.184215000000000018e+01 1.101149999999999949e+02 1.929769999999999982e+03
8.300000000000000433e-02 1.623665000000000247e-01 3.395389999999999731e+01 1.150289999999999964e+02 1.931404999999999973e+03
8.400000000000000522e-02 1.625645000000000007e-01 3.598534999999999684e+01 1.198050000000000068e+02 1.933009999999999991e+03
8.500000000000000611e-02 1.627585000000000004e-01 3.793274999999999864e+01 1.244505000000000052e+02 1.934579999999999927e+03
8.600000000000000699e-02 1.629479999999999817e-01 3.979554999999999865e+01 1.289780000000000086e+02 1.936130000000000109e+03
8.700000000000000788e-02 1.631345000000000156e-01 4.157549999999999812e+01 1.334055000000000177e+02 1.937650000000000091e+03
8.800000000000000877e-02 1.633165000000000033e-01 4.327564999999999884e+01 1.377479999999999905e+02 1.939144999999999982e+03
8.899999999999999578e-02 1.634964999999999891e-01 4.489960000000000662e+01 1.420215000000000032e+02 1.940619999999999891e+03
8.999999999999999667e-02 1.636734999999999995e-01 4.645064999999999600e+01 1.462359999999999900e+02 1.942069999999999936e+03
9.099999999999999756e-02 1.638485000000000080e-01 4.793130000000000024e+01 1.503985000000000127e+02 1.943500000000000000e+03
9.199999999999999845e-02 1.640210000000000001e-01 4.934274999999999523e+01 1.545079999999999814e+02 1.944925000000000182e+03
9.299999999999999933e-02 1.641914999999999902e-01 5.068449999999999989e+01 1.585590000000000259e+02 1.946325000000000045e+03
9.400000000000000022e-02 1.643594999999999917e-01 5.195485000000000042e+01 1.625405000000000086e+02 1.947710000000000036e+03
9.500000000000000111e-02 1.645244999999999902e-01 5.315019999999999811e+01 1.664354999999999905e+02 1.949070000000000164e+03
9.600000000000000200e-02 1.646859999999999991e-01 5.426574999999999704e+01 1.702249999999999943e+02 1.950405000000000200e+03
9.700000000000000289e-02 1.648430000000000173e-01 5.529560000000000031e+01 1.738860000000000241e+02 1.951704999999999927e+03
9.800000000000000377e-02 1.649954999999999894e-01 5.623304999999999865e+01 1.773930000000000007e+02 1.952965000000000146e+03
9.900000000000000466e-02 1.651420000000000110e-01 5.707094999999999629e+01 1.807224999999999966e+02 1.954179999999999836e+03
1.000000000000000056e-01 1.652814999999999979e-01 5.780214999999999748e+01 1.838495000000000061e+02 1.955339999999999918e+03
1.010000000000000064e-01 1.654134999999999911e-01 5.841975000000000051e+01 1.867515000000000214e+02 1.956440000000000055e+03
1.020000000000000073e-01 1.655365000000000031e-01 5.891760000000000019e+01 1.894085000000000036e+02 1.957465000000000146e+03
1.030000000000000082e-01 1.656505000000000061e-01 5.929040000000000532e+01 1.918034999999999854e+02 1.958420000000000073e+03
1.040000000000000091e-01 1.657545000000000268e-01 5.953435000000000343e+01 1.939225000000000136e+02 1.959289999999999964e+03
1.050000000000000100e-01 1.658479999999999954e-01 5.964705000000000013e+01 1.957570000000000050e+02 1.960070000000000164e+03
1.059999999999999970e-01 1.659299999999999942e-01 5.962824999999999420e+01 1.973034999999999854e+02 1.960764999999999873e+03
1.069999999999999979e-01 1.660014999999999963e-01 5.947939999999999827e+01 1.985620000000000118e+02 1.961369999999999891e+03
1.079999999999999988e-01 1.660615000000000008e-01 5.920435000000000514e+01 1.995384999999999991e+02 1.961880000000000109e+03
1.089999999999999997e-01 1.661110000000000086e-01 5.880894999999999584e+01 2.002459999999999809e+02 1.962295000000000073e+03
1.100000000000000006e-01 1.661489999999999911e-01 5.830109999999999815e+01 2.006995000000000005e+02 1.962625000000000000e+03
1.110000000000000014e-01 1.661770000000000191e-01 5.769065000000000509e+01 2.009194999999999993e+02 1.962875000000000000e+03
1.120000000000000023e-01 1.661960000000000104e-01 5.698895000000000266e+01 2.009309999999999832e+02 1.963039999999999964e+03
1.130000000000000032e-01 1.662065000000000070e-01 5.620870000000000033e+01 2.007599999999999909e+02 1.963139999999999873e+03
1.140000000000000041e-01 1.662095000000000100e-01 5.536329999999999529e+01 2.004354999999999905e+02 1.963164999999999964e+03
1.150000000000000050e-01 1.662049999999999916e-01 5.446645000000000181e+01 1.999859999999999900e+02 1.963144999999999982e+03
1.160000000000000059e-01 1.661960000000000104e-01 5.353195000000000192e+01 1.994404999999999859e+02 1.963070000000000164e+03
1.170000000000000068e-01 1.661814999999999820e-01 5.257285000000000252e+01 1.988249999999999886e+02 1.962960000000000036e+03
1.180000000000000077e-01 1.661634999999999918e-01 5.160129999999999484e+01 1.981655000000000086e+02 1.962819999999999936e+03
1.190000000000000085e-01 1.661434999999999995e-01 5.062810000000000343e+01 1.974805000000000064e+02 1.962650000000000091e+03
1.200000000000000094e-01 1.661209999999999909e-01 4.966255000000000308e+01 1.967889999999999873e+02 1.962474999999999909e+03
1.209999999999999964e-01 1.660979999999999956e-01 4.871200000000000330e+01 1.961030000000000086e+02 1.962280000000000200e+03
1.219999999999999973e-01 1.660739999999999994e-01 4.778199999999999648e+01 1.954309999999999832e+02 1.962079999999999927e+03
1.229999999999999982e-01 1.660500000000000032e-01 4.687614999999999554e+01 1.947780000000000200e+02 1.961880000000000109e+03
1.239999999999999991e-01 1.660254999999999925e-01 4.599609999999999843e+01 1.941435000000000173e+02 1.961679999999999836e+03
1.250000000000000000e-01 1.660015000000000240e-01 4.514180000000000348e+01 1.935244999999999891e+02 1.961474999999999909e+03
1.260000000000000009e-01 1.659775000000000000e-01 4.431159999999999854e+01 1.929145000000000039e+02 1.961275000000000091e+03
1.270000000000000018e-01 1.659535000000000038e-01 4.350249999999999773e+01 1.923050000000000068e+02 1.961074999999999818e+03
1.280000000000000027e-01 1.659295000000000075e-01 4.271045000000000158e+01 1.916845000000000141e+02 1.960875000000000000e+03
1.290000000000000036e-01 1.659045000000000103e-01 4.193054999999999666e+01 1.910414999999999850e+02 1.960659999999999854e+03
1.300000000000000044e-01 1.658789999999999987e-01 4.115740000000000265e+01 1.903640000000000043e+02 1.960444999999999936e+03
1.310000000000000053e-01 1.658509999999999984e-01 4.038550000000000040e+01 1.896384999999999934e+02 1.960214999999999918e+03
1.320000000000000062e-01 1.658219999999999972e-01 3.960939999999999372e+01 1.888559999999999945e+02 1.959969999999999800e+03
1.330000000000000071e-01 1.657910000000000217e-01 3.882410000000000139e+01 1.880045000000000073e+02 1.959710000000000036e+03
1.340000000000000080e-01 1.657565000000000011e-01 3.802514999999999645e+01 1.870765000000000100e+02 1.959429999999999836e+03
1.350000000000000089e-01 1.657200000000000062e-01 3.720895000000000152e+01 1.860670000000000073e+02 1.959125000000000000e+03
1.360000000000000098e-01 1.656805000000000083e-01 3.637284999999999968e+01 1.849714999999999918e+02 1.958799999999999955e+03
1.370000000000000107e-01 1.656370000000000064e-01 3.551545000000000130e+01 1.837905000000000086e+02 1.958440000000000055e+03
1.380000000000000115e-01 1.655909999999999882e-01 3.463629999999999853e+01 1.825250000000000057e+02 1.958059999999999945e+03
1.390000000000000124e-01 1.655415000000000081e-01 3.373649999999999949e+01 1.811804999999999950e+02 1.957654999999999973e+03
1.400000000000000133e-01 1.654889999999999972e-01 3.281804999999999950e+01 1.797644999999999982e+02 1.957219999999999800e+03
1.410000000000000142e-01 1.654339999999999977e-01 3.188430000000000319e+01 1.782860000000000014e+02 1.956764999999999873e+03
1.420000000000000151e-01 1.653759999999999952e-01 3.093965000000000032e+01 1.767584999999999980e+02 1.956289999999999964e+03
1.430000000000000160e-01 1.653164999999999774e-01 2.998930000000000007e+01 1.751954999999999814e+02 1.955795000000000073e+03
1.440000000000000169e-01 1.652549999999999852e-01 2.903924999999999912e+01 1.736114999999999782e+02 1.955300000000000182e+03
1.450000000000000178e-01 1.651929999999999787e-01 2.809604999999999819e+01 1.720229999999999961e+02 1.954780000000000200e+03
1.459999999999999909e-01 1.651305000000000134e-01 2.716649999999999920e+01 1.704465000000000146e+02 1.954265000000000100e+03
1.469999999999999918e-01 1.650679999999999925e-01 2.625760000000000005e+01 1.688990000000000009e+02 1.953755000000000109e+03
1.479999999999999927e-01 1.650065000000000004e-01 2.537599999999999767e+01 1.673949999999999818e+02 1.953244999999999891e+03
1.489999999999999936e-01 1.649460000000000093e-01 2.452810000000000201e+01 1.659490000000000123e+02 1.952750000000000000e+03
1.499999999999999944e-01 1.648880000000000068e-01 2.371954999999999814e+01 1.645740000000000123e+02 1.952264999999999873e+03
1.509999999999999953e-01 1.648320000000000063e-01 2.295534999999999926e+01 1.632810000000000059e+02 1.951804999999999836e+03
1.519999999999999962e-01 1.647790000000000088e-01 2.223944999999999794e+01 1.620774999999999864e+02 1.951365000000000009e+03
1.529999999999999971e-01 1.647290000000000143e-01 2.157485000000000142e+01 1.609699999999999989e+02 1.950949999999999818e+03
1.539999999999999980e-01 1.646829999999999961e-01 2.096340000000000003e+01 1.599615000000000009e+02 1.950565000000000055e+03
1.549999999999999989e-01 1.646400000000000086e-01 2.040590000000000259e+01 1.590529999999999973e+02 1.950204999999999927e+03
1.559999999999999998e-01 1.646005000000000107e-01 1.990205000000000268e+01 1.582429999999999950e+02 1.949880000000000109e+03
1.570000000000000007e-01 1.645655000000000034e-01 1.945035000000000025e+01 1.575275000000000034e+02 1.949585000000000036e+03
1.580000000000000016e-01 1.645329999999999848e-01 1.904874999999999829e+01 1.569010000000000105e+02 1.949320000000000164e+03
1.590000000000000024e-01 1.645050000000000123e-01 1.869409999999999883e+01 1.563559999999999945e+02 1.949079999999999927e+03
