# t [s], A [cm^2], U [cm/s], P [cPa], c [cm/s]
1.000000000000000021e-03 6.198285000000000045e-01 7.721999999999999698e-03 9.995385000000000275e+01 1.862275000000000091e+03
2.000000000000000042e-03 6.198204999999999965e-01 3.266350000000000330e-03 9.991689999999999827e+01 1.862269999999999982e+03
3.000000000000000062e-03 6.198850000000000193e-01 1.461273000000000155e-01 1.000964999999999918e+02 1.862304999999999836e+03
4.000000000000000083e-03 6.199105000000000310e-01 2.287799999999999834e-01 1.001955999999999989e+02 1.862319999999999936e+03
5.000000000000000104e-03 6.198434999999999917e-01 1.259984999999999855e-01 9.995839999999999748e+01 1.862279999999999973e+03
6.000000000000000125e-03 6.197760000000001046e-01 9.851999999999971891e-03 9.958879999999999200e+01 1.862210000000000036e+03
7.000000000000000146e-03 6.196969999999999423e-01 -1.463999999999999746e-01 9.909774999999999068e+01 1.862115000000000009e+03
8.000000000000000167e-03 6.195484999999999465e-01 -4.737000000000000099e-01 9.828725000000000023e+01 1.861960000000000036e+03
9.000000000000001055e-03 6.193299999999999361e-01 -9.727650000000001018e-01 9.709619999999999607e+01 1.861724999999999909e+03
1.000000000000000194e-02 6.190189999999999859e-01 -1.678745000000000154e+00 9.541669999999999163e+01 1.861404999999999973e+03
1.099999999999999936e-02 6.186019999999999852e-01 -2.601164999999999949e+00 9.316034999999999400e+01 1.860960000000000036e+03
1.200000000000000025e-02 6.181370000000000475e-01 -3.582250000000000156e+00 9.049399999999999977e+01 1.860424999999999955e+03
1.300000000000000114e-02 6.177259999999999973e-01 -4.358212499999999601e+00 8.781440000000000623e+01 1.859865000000000009e+03
1.400000000000000203e-02 6.174340000000000384e-01 -4.734634999999999927e+00 8.549495000000000289e+01 1.859344999999999800e+03
1.499999999999999944e-02 6.172564999999999857e-01 -4.681675000000000253e+00 8.368659999999999854e+01 1.858905000000000200e+03
1.600000000000000033e-02 6.171355000000000590e-01 -4.310830000000000162e+00 8.229085000000000605e+01 1.858539999999999964e+03
1.700000000000000122e-02 6.169994999999999230e-01 -3.791710000000000136e+00 8.105790000000000362e+01 1.858204999999999927e+03
1.800000000000000211e-02 6.167985000000000273e-01 -3.265635000000000066e+00 7.972849999999999682e+01 1.857860000000000127e+03
1.900000000000000300e-02 6.165214999999999446e-01 -2.790260904999999791e+00 7.815205000000000268e+01 1.857470000000000027e+03
2.000000000000000042e-02 6.161944999999999784e-01 -2.333544999999999980e+00 7.633529999999998950e+01 1.857039999999999964e+03
2.100000000000000130e-02 6.158609999999999918e-01 -1.814735000000000209e+00 7.440545000000000186e+01 1.856585000000000036e+03
2.200000000000000219e-02 6.155559999999999921e-01 -1.165759999999999907e+00 7.251800000000000068e+01 1.856130000000000109e+03
2.299999999999999961e-02 6.152874999999999872e-01 -3.793349999999999778e-01 7.076314999999999600e+01 1.855694999999999936e+03
2.400000000000000050e-02 6.150335000000000107e-01 4.748400000000001508e-01 6.911230000000000473e+01 1.855284999999999854e+03
2.500000000000000139e-02 6.147499999999999076e-01 1.265700000000000047e+00 6.741674999999999329e+01 1.854860000000000127e+03
2.600000000000000228e-02 6.143859999999999877e-01 1.838385000000000158e+00 6.545314999999999372e+01 1.854394999999999982e+03
2.700000000000000316e-02 6.139019999999999477e-01 2.061545000000000183e+00 6.299809999999999377e+01 1.853844999999999800e+03
2.800000000000000058e-02 6.132854999999999279e-01 1.869664999999999466e+00 5.990949999999999420e+01 1.853174999999999955e+03
2.900000000000000147e-02 6.125559999999999894e-01 1.284700000000000397e+00 5.618484999999999729e+01 1.852380000000000109e+03
3.000000000000000236e-02 6.117604999999999293e-01 4.075950000000005957e-01 5.197230000000000416e+01 1.851480000000000018e+03
3.099999999999999978e-02 6.109594999999999887e-01 -6.148600000000001842e-01 4.753300000000000125e+01 1.850534999999999854e+03
3.200000000000000067e-02 6.102110000000000589e-01 -1.631025000000000169e+00 4.317584999999999695e+01 1.849579999999999927e+03
3.300000000000000155e-02 6.095614999999999783e-01 -2.516869999999999941e+00 3.919149999999999778e+01 1.848684999999999945e+03
3.400000000000000244e-02 6.090364999999999807e-01 -3.191899999999999959e+00 3.580590000000000117e+01 1.847900000000000091e+03
3.500000000000000333e-02 6.086454999999999504e-01 -3.619650000000000034e+00 3.315944999999999965e+01 1.847255000000000109e+03
3.600000000000000422e-02 6.083870000000000111e-01 -3.797683999999999838e+00 3.130834999999999724e+01 1.846769999999999982e+03
3.700000000000000511e-02 6.082499999999999574e-01 -3.741954999999999920e+00 3.024350000000000094e+01 1.846454999999999927e+03
3.799999999999999906e-02 6.082239999999999869e-01 -3.471675000000000288e+00 2.991754999999999853e+01 1.846305000000000064e+03
3.899999999999999994e-02 6.082990000000000341e-01 -2.998469999999999747e+00 3.027084999999999937e+01 1.846305000000000064e+03
4.000000000000000083e-02 6.084715000000000540e-01 -2.322630499999999820e+00 3.125014999999999787e+01 1.846445000000000164e+03
4.100000000000000172e-02 6.087380000000000013e-01 -1.436549999999999772e+00 3.281439999999999912e+01 1.846724999999999909e+03
4.200000000000000261e-02 6.090975000000000694e-01 -3.328199999999998937e-01 3.493030000000000257e+01 1.847134999999999991e+03
4.300000000000000350e-02 6.095435000000000159e-01 9.869599999999998374e-01 3.756099999999999994e+01 1.847654999999999973e+03
4.400000000000000439e-02 6.100665000000000671e-01 2.505989999999999718e+00 4.065525000000000233e+01 1.848284999999999854e+03
4.499999999999999833e-02 6.106519999999999726e-01 4.190535000000000565e+00 4.414050000000000296e+01 1.849009999999999991e+03
4.599999999999999922e-02 6.112805000000000044e-01 5.992560000000000109e+00 4.792289999999999850e+01 1.849809999999999945e+03
4.700000000000000011e-02 6.119315000000000726e-01 7.855421999999999905e+00 5.189339999999999975e+01 1.850664999999999964e+03
4.800000000000000100e-02 6.125849999999999351e-01 9.720995000000000275e+00 5.593739999999999668e+01 1.851550000000000182e+03
4.900000000000000189e-02 6.132234999999999214e-01 1.153628000000000142e+01 5.994680000000000319e+01 1.852430000000000064e+03
5.000000000000000278e-02 6.138339999999999907e-01 1.325855500000000120e+01 6.383035000000000281e+01 1.853309999999999945e+03
5.100000000000000366e-02 6.144085000000000241e-01 1.485792499999999983e+01 6.752074999999999250e+01 1.854154999999999973e+03
5.200000000000000455e-02 6.149435000000000873e-01 1.631765000000000043e+01 7.097835000000000605e+01 1.854954999999999927e+03
5.300000000000000544e-02 6.154405000000000570e-01 1.763319999999999865e+01 7.419044999999999845e+01 1.855715000000000146e+03
5.399999999999999939e-02 6.159034999999999371e-01 1.880920000000000059e+01 7.716794999999999050e+01 1.856425000000000182e+03
5.500000000000000028e-02 6.163385000000000113e-01 1.985745000000000005e+01 7.994015000000000271e+01 1.857090000000000146e+03
5.600000000000000117e-02 6.167534999999999545e-01 2.079424999999999812e+01 8.254919999999999902e+01 1.857724999999999909e+03
5.700000000000000205e-02 6.171575000000000255e-01 2.163804999999999978e+01 8.504380000000000450e+01 1.858324999999999818e+03
5.800000000000000294e-02 6.175574999999999815e-01 2.240805000000000291e+01 8.747405000000000541e+01 1.858909999999999854e+03
5.900000000000000383e-02 6.179599999999999538e-01 2.312180000000000035e+01 8.988589999999999236e+01 1.859490000000000009e+03
6.000000000000000472e-02 6.183695000000000164e-01 2.379370000000000118e+01 9.231665000000000987e+01 1.860065000000000055e+03
6.099999999999999867e-02 6.187899999999999512e-01 2.443375000000000341e+01 9.479075000000000273e+01 1.860650000000000091e+03
6.199999999999999956e-02 6.192210000000000214e-01 2.504654999999999987e+01 9.731810000000000116e+01 1.861244999999999891e+03
6.300000000000000044e-02 6.196585000000000010e-01 2.563080000000000069e+01 9.989170000000000016e+01 1.861844999999999800e+03
6.400000000000000133e-02 6.200995000000000257e-01 2.618025000000000091e+01 1.024903999999999940e+02 1.862454999999999927e+03
6.500000000000000222e-02 6.205365000000000464e-01 2.668455000000000155e+01 1.050810000000000031e+02 1.863065000000000055e+03
6.600000000000000311e-02 6.209620000000000140e-01 2.713094999999999857e+01 1.076210000000000093e+02 1.863659999999999854e+03
6.700000000000000400e-02 6.213684999999999903e-01 2.750594999999999857e+01 1.100655000000000001e+02 1.864240000000000009e+03
6.800000000000000488e-02 6.217485000000000372e-01 2.779679999999999751e+01 1.123675000000000068e+02 1.864789999999999964e+03
6.900000000000000577e-02 6.220959999999999823e-01 2.799235000000000184e+01 1.144869999999999948e+02 1.865300000000000182e+03
7.000000000000000666e-02 6.224060000000000148e-01 2.808415000000000106e+01 1.163875000000000028e+02 1.865769999999999982e+03
7.100000000000000755e-02 6.226749999999999785e-01 2.806664999999999921e+01 1.180424999999999898e+02 1.866184999999999945e+03
7.200000000000000844e-02 6.228994999999999393e-01 2.793720000000000070e+01 1.194339999999999975e+02 1.866539999999999964e+03
7.300000000000000933e-02 6.230799999999999672e-01 2.769640000000000057e+01 1.205540000000000020e+02 1.866835000000000036e+03
7.399999999999999634e-02 6.232169999999999099e-01 2.734799999999999898e+01 1.214029999999999916e+02 1.867075000000000045e+03
7.499999999999999722e-02 6.233124999999999361e-01 2.689880000000000138e+01 1.219909999999999997e+02 1.867244999999999891e+03
7.599999999999999811e-02 6.233695000000000208e-01 2.635869999999999891e+01 1.223349999999999937e+02 1.867365000000000009e+03
7.699999999999999900e-02 6.233925000000000161e-01 2.574034999999999940e+01 1.224604999999999961e+02 1.867430000000000064e+03
7.799999999999999989e-02 6.233865000000000656e-01 2.505884999999999962e+01 1.223965000000000032e+02 1.867449999999999818e+03
7.900000000000000078e-02 6.233575000000000088e-01 2.433084999999999809e+01 1.221790000000000020e+02 1.867430000000000064e+03
8.000000000000000167e-02 6.233115000000000183e-01 2.357430000000000092e+01 1.218455000000000013e+02 1.867384999999999991e+03
8.100000000000000255e-02 6.232550000000000034e-01 2.280684999999999718e+01 1.214344999999999857e+02 1.867315000000000055e+03
8.200000000000000344e-02 6.231940000000000257e-01 2.204534999999999911e+01 1.209819999999999993e+02 1.867230000000000018e+03
8.300000000000000433e-02 6.231329999999999369e-01 2.130454999999999899e+01 1.205215000000000032e+02 1.867130000000000109e+03
8.400000000000000522e-02 6.230759999999999632e-01 2.059639999999999915e+01 1.200805000000000007e+02 1.867034999999999854e+03
8.500000000000000611e-02 6.230259999999999687e-01 1.992954999999999899e+01 1.196795000000000044e+02 1.866945000000000164e+03
8.600000000000000699e-02 6.229850000000000110e-01 1.930859999999999843e+01 1.193315000000000055e+02 1.866865000000000009e+03
8.700000000000000788e-02 6.229515000000001024e-01 1.873470000000000013e+01 1.190405000000000086e+02 1.866795000000000073e+03
8.800000000000000877e-02 6.229249999999999510e-01 1.820519999999999783e+01 1.188040000000000020e+02 1.866735000000000127e+03
8.899999999999999578e-02 6.229040000000000132e-01 1.771454999999999913e+01 1.186119999999999948e+02 1.866679999999999836e+03
8.999999999999999667e-02 6.228845000000000631e-01 1.725455000000000183e+01 1.184480000000000075e+02 1.866639999999999873e+03
9.099999999999999756e-02 6.228644999999999321e-01 1.681535000000000224e+01 1.182930000000000064e+02 1.866595000000000027e+03
9.199999999999999845e-02 6.228389999999999205e-01 1.638589999999999947e+01 1.181239999999999952e+02 1.866550000000000182e+03
9.299999999999999933e-02 6.228039999999999132e-01 1.595485000000000042e+01 1.179180000000000064e+02 1.866500000000000000e+03
9.400000000000000022e-02 6.227575000000000749e-01 1.551129999999999853e+01 1.176520000000000010e+02 1.866434999999999945e+03
9.500000000000000111e-02 6.226954999999999574e-01 1.504550000000000054e+01 1.173064999999999998e+02 1.866360000000000127e+03
9.600000000000000200e-02 6.226154999999999884e-01 1.454945000000000022e+01 1.168644999999999925e+02 1.866264999999999873e+03
9.700000000000000289e-02 6.225175000000000569e-01 1.401774999999999949e+01 1.163160000000000025e+02 1.866144999999999982e+03
9.800000000000000377e-02 6.224000000000000643e-01 1.344765000000000121e+01 1.156564999999999941e+02 1.866005000000000109e+03
9.900000000000000466e-02 6.222649999999999570e-01 1.283980500000000013e+01 1.148880000000000052e+02 1.865835000000000036e+03
1.000000000000000056e-01 6.221140000000000558e-01 1.219800000000000040e+01 1.140190000000000055e+02 1.865644999999999982e+03
1.010000000000000064e-01 6.219505000000000727e-01 1.152901999999999916e+01 1.130655000000000001e+02 1.865440000000000055e+03
1.020000000000000073e-01 6.217779999999999418e-01 1.084243000000000023e+01 1.120490000000000066e+02 1.865220000000000027e+03
1.030000000000000082e-01 6.216025000000000578e-01 1.014977000000000018e+01 1.109960000000000093e+02 1.864985000000000127e+03
1.040000000000000091e-01 6.214275000000000215e-01 9.464124999999999233e+00 1.099360000000000070e+02 1.864744999999999891e+03
1.050000000000000100e-01 6.212590000000000057e-01 8.799044999999999561e+00 1.088995000000000033e+02 1.864509999999999991e+03
1.059999999999999970e-01 6.211014999999999731e-01 8.167965000000000586e+00 1.079164999999999992e+02 1.864285000000000082e+03
1.069999999999999979e-01 6.209599999999999564e-01 7.583309999999999107e+00 1.070159999999999911e+02 1.864075000000000045e+03
1.079999999999999988e-01 6.208369999999999722e-01 7.055894999999999584e+00 1.062210000000000036e+02 1.863880000000000109e+03
1.089999999999999997e-01 6.207365000000000244e-01 6.594145000000000145e+00 1.055515000000000043e+02 1.863720000000000027e+03
1.100000000000000006e-01 6.206594999999999196e-01 6.203910000000000480e+00 1.050204999999999984e+02 1.863579999999999927e+03
1.110000000000000014e-01 6.206055000000000321e-01 5.888125000000000497e+00 1.046345000000000027e+02 1.863474999999999909e+03
1.120000000000000023e-01 6.205760000000000165e-01 5.646799999999999820e+00 1.043940000000000055e+02 1.863404999999999973e+03
1.130000000000000032e-01 6.205680000000000085e-01 5.477190000000000225e+00 1.042915000000000134e+02 1.863360000000000127e+03
1.140000000000000041e-01 6.205799999999999095e-01 5.374100000000000321e+00 1.043155000000000001e+02 1.863344999999999800e+03
1.150000000000000050e-01 6.206080000000000485e-01 5.330379999999999896e+00 1.044509999999999934e+02 1.863355000000000018e+03
1.160000000000000059e-01 6.206490000000000062e-01 5.337419999999999831e+00 1.046769999999999925e+02 1.863390000000000100e+03
1.170000000000000068e-01 6.207004999999999884e-01 5.385704999999999742e+00 1.049735000000000014e+02 1.863440000000000055e+03
1.180000000000000077e-01 6.207575000000000731e-01 5.465379999999999683e+00 1.053185000000000002e+02 1.863505000000000109e+03
1.190000000000000085e-01 6.208179999999999810e-01 5.566689999999999472e+00 1.056910000000000025e+02 1.863574999999999818e+03
1.200000000000000094e-01 6.208784999999999998e-01 5.680439999999999934e+00 1.060720000000000027e+02 1.863655000000000200e+03
1.209999999999999964e-01 6.209365000000000023e-01 5.798239999999999839e+00 1.064455000000000098e+02 1.863735000000000127e+03
1.219999999999999973e-01 6.209899999999999309e-01 5.912815000000000154e+00 1.067969999999999970e+02 1.863809999999999945e+03
1.229999999999999982e-01 6.210375000000000201e-01 6.018089999999999939e+00 1.071165000000000020e+02 1.863880000000000109e+03
1.239999999999999991e-01 6.210784999999999778e-01 6.109329999999999927e+00 1.073949999999999960e+02 1.863949999999999818e+03
1.250000000000000000e-01 6.211119999999999974e-01 6.183164999999999800e+00 1.076299999999999955e+02 1.864000000000000000e+03
1.260000000000000009e-01 6.211379999999999679e-01 6.237544999999999895e+00 1.078195000000000050e+02 1.864049999999999955e+03
1.270000000000000018e-01 6.211575000000000291e-01 6.271749999999999936e+00 1.079645000000000010e+02 1.864085000000000036e+03
1.280000000000000027e-01 6.211709999999999177e-01 6.286240000000000272e+00 1.080690000000000026e+02 1.864115000000000009e+03
1.290000000000000036e-01 6.211794999999999956e-01 6.282545000000000712e+00 1.081384999999999934e+02 1.864134999999999991e+03
1.300000000000000044e-01 6.211839999999999584e-01 6.263080000000000425e+00 1.081795000000000044e+02 1.864150000000000091e+03
1.310000000000000053e-01 6.211854999999999460e-01 6.230890000000000484e+00 1.081999999999999886e+02 1.864159999999999854e+03
1.320000000000000062e-01 6.211864999999999748e-01 6.189424999999999955e+00 1.082085000000000008e+02 1.864164999999999964e+03
1.330000000000000071e-01 6.211875000000000036e-01 6.142260000000000275e+00 1.082125000000000057e+02 1.864170000000000073e+03
1.340000000000000080e-01 6.211900000000000199e-01 6.092824999999999491e+00 1.082195000000000107e+02 1.864180000000000064e+03
1.350000000000000089e-01 6.211940000000000239e-01 6.044130000000000003e+00 1.082355000000000018e+02 1.864180000000000064e+03
1.360000000000000098e-01 6.212010000000000032e-01 5.998625000000000540e+00 1.082650000000000006e+02 1.864190000000000055e+03
1.370000000000000107e-01 6.212109999999999577e-01 5.958009999999999806e+00 1.083100000000000023e+02 1.864200000000000045e+03
1.380000000000000115e-01 6.212235000000000396e-01 5.923214999999999897e+00 1.083719999999999999e+02 1.864215000000000146e+03
1.390000000000000124e-01 6.212385000000000268e-01 5.894379999999999953e+00 1.084484999999999957e+02 1.864235000000000127e+03
1.400000000000000133e-01 6.212554999999999605e-01 5.870985000000000120e+00 1.085380000000000109e+02 1.864255000000000109e+03
1.410000000000000142e-01 6.212735000000000340e-01 5.851960000000000051e+00 1.086345000000000027e+02 1.864275000000000091e+03
1.420000000000000151e-01 6.212910000000000377e-01 5.835879999999999512e+00 1.087349999999999994e+02 1.864300000000000182e+03
1.430000000000000160e-01 6.213085000000000413e-01 5.821154999999999191e+00 1.088325000000000102e+02 1.864315000000000055e+03
1.440000000000000169e-01 6.213239999999999874e-01 5.806210000000000093e+00 1.089224999999999994e+02 1.864340000000000146e+03
1.450000000000000178e-01 6.213370000000000282e-01 5.789654999999999774e+00 1.090000000000000000e+02 1.864355000000000018e+03
1.459999999999999909e-01 6.213469999999999827e-01 5.770410000000000039e+00 1.090620000000000118e+02 1.864375000000000000e+03
1.469999999999999918e-01 6.213539999999999619e-01 5.747790000000000177e+00 1.091055000000000064e+02 1.864384999999999991e+03
1.479999999999999927e-01 6.213575000000000070e-01 5.721534999999999371e+00 1.091295000000000073e+02 1.864389999999999873e+03
1.489999999999999936e-01 6.213579999999999659e-01 5.691840000000000011e+00 1.091350000000000051e+02 1.864394999999999982e+03
1.499999999999999944e-01 6.213560000000000194e-01 5.659325000000000827e+00 1.091225000000000023e+02 1.864394999999999982e+03
1.509999999999999953e-01 6.213515000000000565e-01 5.625009999999999621e+00 1.090960000000000036e+02 1.864389999999999873e+03
1.519999999999999962e-01 6.213454999999999950e-01 5.590230000000000032e+00 1.090589999999999975e+02 1.864384999999999991e+03
1.529999999999999971e-01 6.213389999999999747e-01 5.556620000000000559e+00 1.090155000000000030e+02 1.864369999999999891e+03
1.539999999999999980e-01 6.213325000000000653e-01 5.525999999999999801e+00 1.089710000000000036e+02 1.864365000000000009e+03
1.549999999999999989e-01 6.213269999999999627e-01 5.500310000000000699e+00 1.089314999999999998e+02 1.864360000000000127e+03
1.559999999999999998e-01 6.213235000000000285e-01 5.481539999999999857e+00 1.089025000000000034e+02 1.864349999999999909e+03
1.570000000000000007e-01 6.213224999999999998e-01 5.471624999999999517e+00 1.088889999999999958e+02 1.864345000000000027e+03
1.580000000000000016e-01 6.213254999999999750e-01 5.472324999999999662e+00 1.088969999999999914e+02 1.864345000000000027e+03
1.590000000000000024e-01 6.213329999999999131e-01 5.485174999999999912e+00 1.089300000000000068e+02 1.864349999999999909e+03
