# t [s], A [cm^2], U [cm/s], P [cPa], c [cm/s]
1.000000000000000021e-03 7.566984999999999406e-01 6.854499999999999482e-03 1.000931999999999960e+02 1.720424999999999955e+03
2.000000000000000042e-03 7.566844999999999821e-01 -3.322680000000000165e-03 1.000569999999999879e+02 1.720414999999999964e+03
3.000000000000000062e-03 7.567544999999999966e-01 1.087144500000000041e-01 1.001859000000000037e+02 1.720440000000000055e+03
4.000000000000000083e-03 7.568055000000000199e-01 2.091793499999999861e-01 1.003104000000000013e+02 1.720470000000000027e+03
5.000000000000000104e-03 7.567525000000000501e-01 1.579347999999999863e-01 1.001925999999999988e+02 1.720445000000000164e+03
6.000000000000000125e-03 7.566644999999999621e-01 4.456099999999996175e-02 9.990299999999999159e+01 1.720384999999999991e+03
7.000000000000000146e-03 7.565899999999999848e-01 -5.874499999999999167e-02 9.956050000000000466e+01 1.720309999999999945e+03
8.000000000000000167e-03 7.564560000000000173e-01 -2.724050000000000082e-01 9.902625000000000455e+01 1.720195000000000164e+03
9.000000000000001055e-03 7.562439999999999163e-01 -6.335749999999999993e-01 9.821395000000001119e+01 1.720029999999999973e+03
1.000000000000000194e-02 7.559500000000000108e-01 -1.141430000000000167e+00 9.707900000000000773e+01 1.719789999999999964e+03
1.099999999999999936e-02 7.555419999999999359e-01 -1.831405000000000172e+00 9.552635000000000787e+01 1.719460000000000036e+03
1.200000000000000025e-02 7.550225000000000408e-01 -2.677999999999999936e+00 9.352830000000000155e+01 1.719025000000000091e+03
1.300000000000000114e-02 7.544680000000000275e-01 -3.528435000000000432e+00 9.125005000000000166e+01 1.718515000000000100e+03
1.400000000000000203e-02 7.539815000000000822e-01 -4.175352999999999426e+00 8.898550000000000182e+01 1.717990000000000009e+03
1.499999999999999944e-02 7.536240000000000716e-01 -4.474752999999999759e+00 8.699465000000000714e+01 1.717505000000000109e+03
1.600000000000000033e-02 7.533909999999999219e-01 -4.403059999999999974e+00 8.538575000000000159e+01 1.717079999999999927e+03
1.700000000000000122e-02 7.532250000000000334e-01 -4.040955000000000297e+00 8.409919999999999618e+01 1.716710000000000036e+03
1.800000000000000211e-02 7.530525000000000135e-01 -3.519225000000000048e+00 8.296444999999999936e+01 1.716380000000000109e+03
1.900000000000000300e-02 7.528144999999999420e-01 -2.959372500000000183e+00 8.178669999999999618e+01 1.716039999999999964e+03
2.000000000000000042e-02 7.524865000000000581e-01 -2.429732500000000073e+00 8.042764999999999986e+01 1.715664999999999964e+03
2.100000000000000130e-02 7.520839999999999748e-01 -1.930499999999999883e+00 7.885165000000000646e+01 1.715250000000000000e+03
2.200000000000000219e-02 7.516480000000000938e-01 -1.411315000000000097e+00 7.712149999999999750e+01 1.714795000000000073e+03
2.299999999999999961e-02 7.512219999999999454e-01 -8.100950000000002316e-01 7.535115000000000407e+01 1.714329999999999927e+03
2.400000000000000050e-02 7.508319999999999439e-01 -9.252499999999974634e-02 7.364294999999999902e+01 1.713869999999999891e+03
2.500000000000000139e-02 7.504759999999999209e-01 7.243400000000002059e-01 7.203770000000000095e+01 1.713434999999999945e+03
2.600000000000000228e-02 7.501255000000000006e-01 1.569744999999999946e+00 7.049299999999999500e+01 1.713005000000000109e+03
2.700000000000000316e-02 7.497329999999999828e-01 2.334945000000000270e+00 6.889170000000000016e+01 1.712574999999999818e+03
2.800000000000000058e-02 7.492499999999999716e-01 2.900520000000000209e+00 6.707464999999999122e+01 1.712099999999999909e+03
2.900000000000000147e-02 7.486375000000000668e-01 3.168004999999999960e+00 6.488835000000000264e+01 1.711550000000000182e+03
3.000000000000000236e-02 7.478835000000000344e-01 3.087305000000000188e+00 6.223470000000000368e+01 1.710904999999999973e+03
3.099999999999999978e-02 7.470075000000000465e-01 2.670854999999999535e+00 5.910654999999999859e+01 1.710170000000000073e+03
3.200000000000000067e-02 7.460525000000000073e-01 1.989494999999999791e+00 5.559720000000000084e+01 1.709339999999999918e+03
3.300000000000000155e-02 7.450799999999999645e-01 1.151950000000000252e+00 5.188080000000000069e+01 1.708454999999999927e+03
3.400000000000000244e-02 7.441520000000000357e-01 2.780899999999997263e-01 4.817454999999999643e+01 1.707570000000000164e+03
3.500000000000000333e-02 7.433199999999999807e-01 -5.251850000000004570e-01 4.469729999999999848e+01 1.706720000000000027e+03
3.600000000000000422e-02 7.426200000000000578e-01 -1.178370000000000140e+00 4.163559999999999661e+01 1.705945000000000164e+03
3.700000000000000511e-02 7.420725000000000238e-01 -1.634249999999999758e+00 3.912404999999999688e+01 1.705285000000000082e+03
3.799999999999999906e-02 7.416810000000000347e-01 -1.874560000000000004e+00 3.723884999999999934e+01 1.704764999999999873e+03
3.899999999999999994e-02 7.414399999999999880e-01 -1.901599999999999957e+00 3.600354999999999706e+01 1.704389999999999873e+03
4.000000000000000083e-02 7.413399999999999990e-01 -1.727993499999999960e+00 3.540255000000000507e+01 1.704164999999999964e+03
4.100000000000000172e-02 7.413684999999999858e-01 -1.367242000000000068e+00 3.539789999999999992e+01 1.704089999999999918e+03
4.200000000000000261e-02 7.415169999999999817e-01 -8.275550000000000406e-01 3.594445000000000334e+01 1.704150000000000091e+03
4.300000000000000350e-02 7.417789999999999662e-01 -1.100250000000000394e-01 3.700074999999999648e+01 1.704340000000000146e+03
4.400000000000000439e-02 7.421500000000000874e-01 7.889199999999998436e-01 3.853219999999999601e+01 1.704650000000000091e+03
4.499999999999999833e-02 7.426265000000000782e-01 1.872374999999999901e+00 4.050844999999999629e+01 1.705074999999999818e+03
4.599999999999999922e-02 7.432024999999999881e-01 3.137305000000000454e+00 4.289735000000000298e+01 1.705599999999999909e+03
4.700000000000000011e-02 7.438664999999999861e-01 4.570450000000000124e+00 4.565810000000000457e+01 1.706230000000000018e+03
4.800000000000000100e-02 7.446040000000000436e-01 6.146760000000000446e+00 4.873760000000000048e+01 1.706934999999999945e+03
4.900000000000000189e-02 7.453950000000000298e-01 7.830549829999999822e+00 5.206899999999999551e+01 1.707715000000000146e+03
5.000000000000000278e-02 7.462195000000000356e-01 9.578980000000001382e+00 5.557450000000000045e+01 1.708545000000000073e+03
5.100000000000000366e-02 7.470550000000000246e-01 1.134638999999999953e+01 5.917114999999999725e+01 1.709409999999999854e+03
5.200000000000000455e-02 7.478834999999999233e-01 1.308902499999999947e+01 6.277759999999999962e+01 1.710284999999999854e+03
5.300000000000000544e-02 7.486880000000000202e-01 1.476905999999999963e+01 6.632075000000000387e+01 1.711159999999999854e+03
5.399999999999999939e-02 7.494574999999999987e-01 1.635694999999999766e+01 6.974165000000000703e+01 1.712014999999999873e+03
5.500000000000000028e-02 7.501845000000000319e-01 1.783285000000000053e+01 7.299864999999999782e+01 1.712845000000000027e+03
5.600000000000000117e-02 7.508680000000000909e-01 1.918629999999999924e+01 7.606884999999999764e+01 1.713630000000000109e+03
5.700000000000000205e-02 7.515095000000000525e-01 2.041510000000000247e+01 7.894685000000001196e+01 1.714380000000000109e+03
5.800000000000000294e-02 7.521134999999999904e-01 2.152369999999999806e+01 8.164269999999999072e+01 1.715089999999999918e+03
5.900000000000000383e-02 7.526865000000000361e-01 2.252139999999999986e+01 8.417810000000000059e+01 1.715765000000000100e+03
6.000000000000000472e-02 7.532370000000000454e-01 2.342074999999999818e+01 8.658324999999999250e+01 1.716404999999999973e+03
6.099999999999999867e-02 7.537724999999999564e-01 2.423615000000000208e+01 8.889279999999999404e+01 1.717019999999999982e+03
6.199999999999999956e-02 7.543014999999999581e-01 2.498250000000000171e+01 9.114275000000000659e+01 1.717615000000000009e+03
6.300000000000000044e-02 7.548310000000000297e-01 2.567405000000000115e+01 9.336690000000000111e+01 1.718204999999999927e+03
6.400000000000000133e-02 7.553659999999999819e-01 2.632325000000000159e+01 9.559414999999999907e+01 1.718789999999999964e+03
6.500000000000000222e-02 7.559109999999999996e-01 2.693949999999999889e+01 9.784560000000000457e+01 1.719380000000000109e+03
6.600000000000000311e-02 7.564675000000000704e-01 2.752875000000000227e+01 1.001336499999999887e+02 1.719974999999999909e+03
6.700000000000000400e-02 7.570330000000000670e-01 2.809255000000000280e+01 1.024581499999999892e+02 1.720579999999999927e+03
6.800000000000000488e-02 7.576049999999999729e-01 2.862829999999999941e+01 1.048104999999999905e+02 1.721184999999999945e+03
6.900000000000000577e-02 7.581765000000000310e-01 2.912964999999999804e+01 1.071715000000000089e+02 1.721800000000000182e+03
7.000000000000000666e-02 7.587409999999999988e-01 2.958749999999999858e+01 1.095120000000000005e+02 1.722404999999999973e+03
7.100000000000000755e-02 7.592889999999999917e-01 2.999080000000000013e+01 1.118009999999999877e+02 1.723000000000000000e+03
7.200000000000000844e-02 7.598130000000000717e-01 3.032804999999999751e+01 1.140014999999999930e+02 1.723579999999999927e+03
7.300000000000000933e-02 7.603044999999999387e-01 3.058805000000000263e+01 1.160790000000000077e+02 1.724130000000000109e+03
7.399999999999999634e-02 7.607559999999999878e-01 3.076109999999999900e+01 1.180005000000000024e+02 1.724640000000000100e+03
7.499999999999999722e-02 7.611619999999998942e-01 3.083944999999999936e+01 1.197385000000000019e+02 1.725110000000000127e+03
7.599999999999999811e-02 7.615184999999999871e-01 3.081784999999999997e+01 1.212700000000000102e+02 1.725534999999999854e+03
7.699999999999999900e-02 7.618219999999999992e-01 3.069350000000000023e+01 1.225799999999999983e+02 1.725904999999999973e+03
7.799999999999999989e-02 7.620720000000000827e-01 3.046655000000000157e+01 1.236604999999999990e+02 1.726215000000000146e+03
7.900000000000000078e-02 7.622689999999999744e-01 3.013985000000000269e+01 1.245120000000000005e+02 1.726474999999999909e+03
8.000000000000000167e-02 7.624144999999999950e-01 2.971865000000000023e+01 1.251394999999999982e+02 1.726670000000000073e+03
8.100000000000000255e-02 7.625124999999999265e-01 2.921095000000000041e+01 1.255545000000000044e+02 1.726820000000000164e+03
8.200000000000000344e-02 7.625664999999999250e-01 2.862680000000000291e+01 1.257764999999999986e+02 1.726909999999999854e+03
8.300000000000000433e-02 7.625835000000000807e-01 2.797820000000000107e+01 1.258265000000000100e+02 1.726965000000000146e+03
8.400000000000000522e-02 7.625690000000000524e-01 2.727870000000000061e+01 1.257309999999999945e+02 1.726974999999999909e+03
8.500000000000000611e-02 7.625295000000000822e-01 2.654285000000000139e+01 1.255184999999999889e+02 1.726950000000000045e+03
8.600000000000000699e-02 7.624710000000000099e-01 2.578535000000000110e+01 1.252180000000000035e+02 1.726900000000000091e+03
8.700000000000000788e-02 7.624020000000000241e-01 2.502069999999999794e+01 1.248584999999999923e+02 1.726829999999999927e+03
8.800000000000000877e-02 7.623269999999999769e-01 2.426265000000000072e+01 1.244675000000000011e+02 1.726750000000000000e+03
8.899999999999999578e-02 7.622529999999999584e-01 2.352295000000000158e+01 1.240695000000000050e+02 1.726660000000000082e+03
8.999999999999999667e-02 7.621824999999999850e-01 2.281134999999999735e+01 1.236854999999999905e+02 1.726570000000000164e+03
9.099999999999999756e-02 7.621189999999999909e-01 2.213504999999999967e+01 1.233305000000000007e+02 1.726480000000000018e+03
9.199999999999999845e-02 7.620640000000000747e-01 2.149824999999999875e+01 1.230144999999999982e+02 1.726404999999999973e+03
9.299999999999999933e-02 7.620180000000000842e-01 2.090234999999999843e+01 1.227415000000000020e+02 1.726329999999999927e+03
9.400000000000000022e-02 7.619804999999999495e-01 2.034604999999999819e+01 1.225109999999999957e+02 1.726264999999999873e+03
9.500000000000000111e-02 7.619489999999999874e-01 1.982540000000000191e+01 1.223160000000000025e+02 1.726210000000000036e+03
9.600000000000000200e-02 7.619200000000000417e-01 1.933449999999999847e+01 1.221465000000000032e+02 1.726160000000000082e+03
9.700000000000000289e-02 7.618905000000000260e-01 1.886585000000000178e+01 1.219879999999999995e+02 1.726115000000000009e+03
9.800000000000000377e-02 7.618575000000000763e-01 1.841075000000000017e+01 1.218234999999999957e+02 1.726065000000000055e+03
9.900000000000000466e-02 7.618150000000000199e-01 1.796014999999999873e+01 1.216370000000000005e+02 1.726014999999999873e+03
1.000000000000000056e-01 7.617599999999999927e-01 1.750479999999999947e+01 1.214099999999999966e+02 1.725954999999999927e+03
1.010000000000000064e-01 7.616895000000000193e-01 1.703620000000000090e+01 1.211270000000000095e+02 1.725884999999999991e+03
1.020000000000000073e-01 7.615994999999999848e-01 1.654670000000000130e+01 1.207720000000000056e+02 1.725795000000000073e+03
1.030000000000000082e-01 7.614885000000000126e-01 1.603030000000000044e+01 1.203350000000000080e+02 1.725690000000000055e+03
1.040000000000000091e-01 7.613544999999999341e-01 1.548274999999999935e+01 1.198079999999999927e+02 1.725559999999999945e+03
1.050000000000000100e-01 7.611985000000000001e-01 1.490210000000000079e+01 1.191879999999999882e+02 1.725414999999999964e+03
1.059999999999999970e-01 7.610209999999999475e-01 1.428869999999999862e+01 1.184759999999999991e+02 1.725244999999999891e+03
1.069999999999999979e-01 7.608234999999999859e-01 1.364537999999999940e+01 1.176784999999999997e+02 1.725054999999999836e+03
1.079999999999999988e-01 7.606104999999999672e-01 1.297723500000000030e+01 1.168070000000000022e+02 1.724840000000000146e+03
1.089999999999999997e-01 7.603850000000000886e-01 1.229149500000000117e+01 1.158769999999999953e+02 1.724615000000000009e+03
1.100000000000000006e-01 7.601525000000000087e-01 1.159723999999999933e+01 1.149060000000000059e+02 1.724380000000000109e+03
1.110000000000000014e-01 7.599179999999999824e-01 1.090466999999999942e+01 1.139170000000000016e+02 1.724134999999999991e+03
1.120000000000000023e-01 7.596870000000000012e-01 1.022490999999999950e+01 1.129314999999999998e+02 1.723889999999999873e+03
1.130000000000000032e-01 7.594655000000000156e-01 9.569179999999999353e+00 1.119745000000000061e+02 1.723650000000000091e+03
1.140000000000000041e-01 7.592585000000000583e-01 8.948425000000000296e+00 1.110670000000000073e+02 1.723414999999999964e+03
1.150000000000000050e-01 7.590700000000000225e-01 8.372579999999999245e+00 1.102319999999999993e+02 1.723200000000000045e+03
1.160000000000000059e-01 7.589049999999999407e-01 7.850239999999999441e+00 1.094855000000000018e+02 1.723005000000000109e+03
1.170000000000000068e-01 7.587654999999999816e-01 7.388234999999999886e+00 1.088414999999999964e+02 1.722824999999999818e+03
1.180000000000000077e-01 7.586530000000000218e-01 6.991235000000000532e+00 1.083119999999999976e+02 1.722679999999999836e+03
1.190000000000000085e-01 7.585690000000000488e-01 6.661799999999999500e+00 1.079004999999999939e+02 1.722559999999999945e+03
1.200000000000000094e-01 7.585125000000000339e-01 6.400154999999999816e+00 1.076080000000000041e+02 1.722465000000000146e+03
1.209999999999999964e-01 7.584819999999999895e-01 6.204380000000000450e+00 1.074309999999999974e+02 1.722400000000000091e+03
1.219999999999999973e-01 7.584755000000000802e-01 6.070615000000000094e+00 1.073605000000000018e+02 1.722360000000000127e+03
1.229999999999999982e-01 7.584895000000000387e-01 5.993325000000000458e+00 1.073864999999999981e+02 1.722349999999999909e+03
1.239999999999999991e-01 7.585205000000000419e-01 5.965714999999999435e+00 1.074945000000000022e+02 1.722360000000000127e+03
1.250000000000000000e-01 7.585655000000000037e-01 5.980080000000000062e+00 1.076680000000000064e+02 1.722384999999999991e+03
1.260000000000000009e-01 7.586200000000000720e-01 6.028249999999999886e+00 1.078915000000000077e+02 1.722425000000000182e+03
1.270000000000000018e-01 7.586800000000000210e-01 6.101939999999999920e+00 1.081490000000000009e+02 1.722474999999999909e+03
1.280000000000000027e-01 7.587429999999999453e-01 6.193105000000000082e+00 1.084244999999999948e+02 1.722535000000000082e+03
1.290000000000000036e-01 7.588049999999999518e-01 6.294224999999999959e+00 1.087034999999999911e+02 1.722595000000000027e+03
1.300000000000000044e-01 7.588639999999999830e-01 6.398505000000000109e+00 1.089749999999999943e+02 1.722659999999999854e+03
1.310000000000000053e-01 7.589179999999999815e-01 6.500080000000000524e+00 1.092280000000000086e+02 1.722719999999999800e+03
1.320000000000000062e-01 7.589654999999999596e-01 6.594065000000000509e+00 1.094549999999999983e+02 1.722775000000000091e+03
1.330000000000000071e-01 7.590049999999999297e-01 6.676660000000000039e+00 1.096514999999999986e+02 1.722825000000000045e+03
1.340000000000000080e-01 7.590365000000000029e-01 6.745120000000000005e+00 1.098135000000000048e+02 1.722865000000000009e+03
1.350000000000000089e-01 7.590604999999999158e-01 6.797734999999999417e+00 1.099410000000000025e+02 1.722900000000000091e+03
1.360000000000000098e-01 7.590764999999999318e-01 6.833809999999999718e+00 1.100345000000000084e+02 1.722929999999999836e+03
1.370000000000000107e-01 7.590859999999999275e-01 6.853519999999999612e+00 1.100960000000000036e+02 1.722949999999999818e+03
1.380000000000000115e-01 7.590894999999999726e-01 6.857859999999999623e+00 1.101310000000000002e+02 1.722965000000000146e+03
1.390000000000000124e-01 7.590889999999999027e-01 6.848489999999999966e+00 1.101440000000000055e+02 1.722970000000000027e+03
1.400000000000000133e-01 7.590859999999999275e-01 6.827589999999999826e+00 1.101394999999999982e+02 1.722970000000000027e+03
1.410000000000000142e-01 7.590810000000000057e-01 6.797704999999999664e+00 1.101244999999999976e+02 1.722970000000000027e+03
1.420000000000000151e-01 7.590755000000000141e-01 6.761560000000000237e+00 1.101045000000000016e+02 1.722970000000000027e+03
1.430000000000000160e-01 7.590715000000000101e-01 6.721919999999999895e+00 1.100854999999999961e+02 1.722970000000000027e+03
1.440000000000000169e-01 7.590695000000000636e-01 6.681384999999999685e+00 1.100720000000000027e+02 1.722970000000000027e+03
1.450000000000000178e-01 7.590704999999999814e-01 6.642260000000000275e+00 1.100679999999999978e+02 1.722965000000000146e+03
1.459999999999999909e-01 7.590745000000000964e-01 6.606444999999999901e+00 1.100769999999999982e+02 1.722970000000000027e+03
1.469999999999999918e-01 7.590825000000001044e-01 6.575314999999999799e+00 1.101005000000000109e+02 1.722974999999999909e+03
1.479999999999999927e-01 7.590945000000000054e-01 6.549714999999999954e+00 1.101389999999999958e+02 1.722990000000000009e+03
1.489999999999999936e-01 7.591094999999999926e-01 6.529925000000000423e+00 1.101920000000000073e+02 1.723000000000000000e+03
1.499999999999999944e-01 7.591280000000000250e-01 6.515710000000000335e+00 1.102574999999999932e+02 1.723014999999999873e+03
1.509999999999999953e-01 7.591479999999999340e-01 6.506420000000000314e+00 1.103325000000000102e+02 1.723029999999999973e+03
1.519999999999999962e-01 7.591689999999999827e-01 6.501065000000000538e+00 1.104145000000000039e+02 1.723054999999999836e+03
1.529999999999999971e-01 7.591904999999999903e-01 6.498435000000000628e+00 1.104989999999999952e+02 1.723075000000000045e+03
1.539999999999999980e-01 7.592105000000000103e-01 6.497275000000000134e+00 1.105819999999999936e+02 1.723090000000000146e+03
1.549999999999999989e-01 7.592299999999999605e-01 6.496360000000000134e+00 1.106604999999999990e+02 1.723115000000000009e+03
1.559999999999999998e-01 7.592470000000000052e-01 6.494624999999999204e+00 1.107309999999999945e+02 1.723130000000000109e+03
1.570000000000000007e-01 7.592609999999999637e-01 6.491254999999999775e+00 1.107909999999999968e+02 1.723144999999999982e+03
1.580000000000000016e-01 7.592714999999999881e-01 6.485725000000000406e+00 1.108389999999999986e+02 1.723159999999999854e+03
1.590000000000000024e-01 7.592794999999999961e-01 6.477835000000000676e+00 1.108744999999999976e+02 1.723170000000000073e+03
