# t [s], A [cm^2], U [cm/s], P [cPa], c [cm/s]
1.000000000000000021e-03 1.814859999999999807e-01 3.504639499999999686e-01 9.180490000000000350e+01 2.268869999999999891e+03
2.000000000000000042e-03 1.814330000000000109e-01 1.827138499999999999e+00 8.818719999999999004e+01 2.268420000000000073e+03
3.000000000000000062e-03 1.813040000000000207e-01 3.645731999999999751e+00 8.320279999999999632e+01 2.267369999999999891e+03
4.000000000000000083e-03 1.811384999999999801e-01 5.711034500000000236e+00 7.805689999999999884e+01 2.266034999999999854e+03
5.000000000000000104e-03 1.809700000000000197e-01 7.918285000000000018e+00 7.373460000000000036e+01 2.264684999999999945e+03
6.000000000000000125e-03 1.808124999999999871e-01 1.000585000000000058e+01 7.026919999999999789e+01 2.263444999999999709e+03
7.000000000000000146e-03 1.806655000000000066e-01 1.175845999999999947e+01 6.719050000000000011e+01 2.262315000000000055e+03
8.000000000000000167e-03 1.805344999999999867e-01 1.318617500000000042e+01 6.443104999999999905e+01 2.261329999999999927e+03
9.000000000000001055e-03 1.804240000000000010e-01 1.435085000000000122e+01 6.215935000000000343e+01 2.260505000000000109e+03
1.000000000000000194e-02 1.803345000000000087e-01 1.527210000000000001e+01 6.038139999999999930e+01 2.259840000000000146e+03
1.099999999999999936e-02 1.802634999999999932e-01 1.596330000000000027e+01 5.901345000000000596e+01 2.259319999999999709e+03
1.200000000000000025e-02 1.802080000000000071e-01 1.642450000000000188e+01 5.791349999999999909e+01 2.258920000000000073e+03
1.300000000000000114e-02 1.801610000000000156e-01 1.666530000000000200e+01 5.691304999999999836e+01 2.258594999999999800e+03
1.400000000000000203e-02 1.801220000000000043e-01 1.678365000000000151e+01 5.605839999999999890e+01 2.258324999999999818e+03
1.499999999999999944e-02 1.800994999999999957e-01 1.697885000000000133e+01 5.576885000000000048e+01 2.258170000000000073e+03
1.600000000000000033e-02 1.801055000000000017e-01 1.744675000000000153e+01 5.661379999999999768e+01 2.258224999999999909e+03
1.700000000000000122e-02 1.801495000000000180e-01 1.824815000000000254e+01 5.886834999999999951e+01 2.258550000000000182e+03
1.800000000000000211e-02 1.802285000000000137e-01 1.925874999999999915e+01 6.222799999999999443e+01 2.259135000000000218e+03
1.900000000000000300e-02 1.803265000000000007e-01 2.022834999999999894e+01 6.588245000000000573e+01 2.259875000000000000e+03
2.000000000000000042e-02 1.804204999999999837e-01 2.089840000000000231e+01 6.886654999999998950e+01 2.260595000000000255e+03
2.100000000000000130e-02 1.804894999999999972e-01 2.111075000000000301e+01 7.046545000000000414e+01 2.261135000000000218e+03
2.200000000000000219e-02 1.805220000000000158e-01 2.085815000000000197e+01 7.047220000000000084e+01 2.261414999999999964e+03
2.299999999999999961e-02 1.805174999999999974e-01 2.026350000000000051e+01 6.919865000000000066e+01 2.261409999999999854e+03
2.400000000000000050e-02 1.804874999999999952e-01 1.950744999999999862e+01 6.726775000000000659e+01 2.261204999999999927e+03
2.500000000000000139e-02 1.804459999999999953e-01 1.874514999999999887e+01 6.531034999999999968e+01 2.260894999999999982e+03
2.600000000000000228e-02 1.804034999999999944e-01 1.805030000000000001e+01 6.371535000000000082e+01 2.260574999999999818e+03
2.700000000000000316e-02 1.803659999999999985e-01 1.740574999999999761e+01 6.252974999999999994e+01 2.260289999999999964e+03
2.800000000000000058e-02 1.803325000000000067e-01 1.673414999999999964e+01 6.152139999999999986e+01 2.260034999999999854e+03
2.900000000000000147e-02 1.802960000000000118e-01 1.595124999999999815e+01 6.034940000000000282e+01 2.259760000000000218e+03
3.000000000000000236e-02 1.802509999999999946e-01 1.501664999999999850e+01 5.875950000000000273e+01 2.259425000000000182e+03
3.099999999999999978e-02 1.801944999999999797e-01 1.396434999999999960e+01 5.672844999999999516e+01 2.259005000000000109e+03
3.200000000000000067e-02 1.801300000000000123e-01 1.290279999999999916e+01 5.450515000000000043e+01 2.258530000000000200e+03
3.300000000000000155e-02 1.800674999999999915e-01 1.198358499999999971e+01 5.253820000000000334e+01 2.258050000000000182e+03
3.400000000000000244e-02 1.800180000000000113e-01 1.135308000000000028e+01 5.132075000000000387e+01 2.257675000000000182e+03
3.500000000000000333e-02 1.799939999999999873e-01 1.110444999999999993e+01 5.121600000000000108e+01 2.257474999999999909e+03
3.600000000000000422e-02 1.800019999999999953e-01 1.124845000000000006e+01 5.233004999999999995e+01 2.257510000000000218e+03
3.700000000000000511e-02 1.800404999999999922e-01 1.170990000000000109e+01 5.447164999999999679e+01 2.257779999999999745e+03
3.799999999999999906e-02 1.801019999999999843e-01 1.234850000000000136e+01 5.720329999999999870e+01 2.258230000000000018e+03
3.899999999999999994e-02 1.801749999999999741e-01 1.299300000000000033e+01 5.995454999999999757e+01 2.258764999999999873e+03
4.000000000000000083e-02 1.802439999999999876e-01 1.347830000000000084e+01 6.215680000000000405e+01 2.259284999999999854e+03
4.100000000000000172e-02 1.802945000000000242e-01 1.367474999999999952e+01 6.335859999999999559e+01 2.259670000000000073e+03
4.200000000000000261e-02 1.803164999999999907e-01 1.350464999999999982e+01 6.329699999999999704e+01 2.259855000000000018e+03
4.300000000000000350e-02 1.803040000000000198e-01 1.294525000000000148e+01 6.191474999999999795e+01 2.259775000000000091e+03
4.400000000000000439e-02 1.802559999999999996e-01 1.201990999999999943e+01 5.933129999999999882e+01 2.259430000000000291e+03
4.499999999999999833e-02 1.801760000000000028e-01 1.078383499999999984e+01 5.578430000000000177e+01 2.258840000000000146e+03
4.599999999999999922e-02 1.800690000000000068e-01 9.307795000000000485e+00 5.156305000000000405e+01 2.258045000000000073e+03
4.700000000000000011e-02 1.799430000000000196e-01 7.666204999999999714e+00 4.695349999999999824e+01 2.257100000000000364e+03
4.800000000000000100e-02 1.798049999999999926e-01 5.929699999999999527e+00 4.220405000000000229e+01 2.256065000000000055e+03
4.900000000000000189e-02 1.796619999999999884e-01 4.163112950000000367e+00 3.751509999999999678e+01 2.254985000000000127e+03
5.000000000000000278e-02 1.795184999999999975e-01 2.427204999999999835e+00 3.304635000000000389e+01 2.253909999999999854e+03
5.100000000000000366e-02 1.793814999999999993e-01 7.813700000000001200e-01 2.893315000000000126e+01 2.252869999999999891e+03
5.200000000000000455e-02 1.792539999999999967e-01 -7.141650000000001608e-01 2.530274999999999963e+01 2.251899999999999636e+03
5.300000000000000544e-02 1.791409999999999947e-01 -1.998128499999999974e+00 2.228434999999999988e+01 2.251039999999999964e+03
5.399999999999999939e-02 1.790474999999999983e-01 -3.010304500000000161e+00 2.000949999999999918e+01 2.250315000000000055e+03
5.500000000000000028e-02 1.789765000000000106e-01 -3.695520000000000138e+00 1.860450000000000159e+01 2.249769999999999982e+03
5.600000000000000117e-02 1.789330000000000087e-01 -4.008589999999999876e+00 1.817614999999999981e+01 2.249420000000000073e+03
5.700000000000000205e-02 1.789195000000000091e-01 -3.918954999999999522e+00 1.879690000000000083e+01 2.249295000000000073e+03
5.800000000000000294e-02 1.789385000000000003e-01 -3.414155000000000051e+00 2.049284999999999712e+01 2.249414999999999964e+03
5.900000000000000383e-02 1.789899999999999824e-01 -2.501329000000000136e+00 2.323669999999999902e+01 2.249774999999999636e+03
6.000000000000000472e-02 1.790740000000000109e-01 -1.206775000000000153e+00 2.694829999999999970e+01 2.250380000000000109e+03
6.099999999999999867e-02 1.791864999999999986e-01 4.262999999999999012e-01 3.150089999999999790e+01 2.251210000000000036e+03
6.199999999999999956e-02 1.793244999999999978e-01 2.341234999999999733e+00 3.673194999999999766e+01 2.252235000000000127e+03
6.300000000000000044e-02 1.794840000000000046e-01 4.472199500000000327e+00 4.245660000000000167e+01 2.253420000000000073e+03
6.400000000000000133e-02 1.796584999999999988e-01 6.748635000000000161e+00 4.848205000000000098e+01 2.254730000000000018e+03
6.500000000000000222e-02 1.798430000000000029e-01 9.099814999999999543e+00 5.462084999999999724e+01 2.256119999999999891e+03
6.600000000000000311e-02 1.800319999999999976e-01 1.145916500000000049e+01 6.070345000000000368e+01 2.257550000000000182e+03
6.700000000000000400e-02 1.802209999999999923e-01 1.376818500000000078e+01 6.658844999999999459e+01 2.258984999999999673e+03
6.800000000000000488e-02 1.804049999999999820e-01 1.597949999999999804e+01 7.217099999999999227e+01 2.260385000000000218e+03
6.900000000000000577e-02 1.805820000000000203e-01 1.805920000000000059e+01 7.738755000000000450e+01 2.261735000000000127e+03
7.000000000000000666e-02 1.807485000000000064e-01 1.998794999999999789e+01 8.221694999999999709e+01 2.263015000000000327e+03
7.100000000000000755e-02 1.809060000000000112e-01 2.176054999999999851e+01 8.667810000000000059e+01 2.264230000000000018e+03
7.200000000000000844e-02 1.810530000000000195e-01 2.338430000000000319e+01 9.082314999999999827e+01 2.265359999999999673e+03
7.300000000000000933e-02 1.811919999999999920e-01 2.487640000000000029e+01 9.472794999999999277e+01 2.266440000000000055e+03
7.399999999999999634e-02 1.813244999999999996e-01 2.626069999999999993e+01 9.848050000000000637e+01 2.267465000000000146e+03
7.499999999999999722e-02 1.814534999999999898e-01 2.756405000000000172e+01 1.021705000000000041e+02 2.268465000000000146e+03
7.599999999999999811e-02 1.815805000000000058e-01 2.881304999999999694e+01 1.058789999999999907e+02 2.269445000000000164e+03
7.699999999999999900e-02 1.817079999999999806e-01 3.003115000000000023e+01 1.096689999999999969e+02 2.270434999999999945e+03
7.799999999999999989e-02 1.818379999999999996e-01 3.123649999999999949e+01 1.135825000000000102e+02 2.271439999999999600e+03
7.900000000000000078e-02 1.819709999999999939e-01 3.244065000000000509e+01 1.176364999999999981e+02 2.272460000000000036e+03
8.000000000000000167e-02 1.821079999999999921e-01 3.364815000000000111e+01 1.218239999999999981e+02 2.273515000000000327e+03
8.100000000000000255e-02 1.822479999999999933e-01 3.485634999999999906e+01 1.261169999999999902e+02 2.274599999999999909e+03
8.200000000000000344e-02 1.823905000000000109e-01 3.605615000000000236e+01 1.304695000000000107e+02 2.275695000000000164e+03
8.300000000000000433e-02 1.825339999999999741e-01 3.723319999999999652e+01 1.348215000000000146e+02 2.276805000000000291e+03
8.400000000000000522e-02 1.826769999999999783e-01 3.836880000000000024e+01 1.391039999999999850e+02 2.277914999999999964e+03
8.500000000000000611e-02 1.828175000000000217e-01 3.944174999999999898e+01 1.432454999999999927e+02 2.279000000000000000e+03
8.600000000000000699e-02 1.829530000000000045e-01 4.042924999999999613e+01 1.471734999999999900e+02 2.280050000000000182e+03
8.700000000000000788e-02 1.830815000000000081e-01 4.130915000000000248e+01 1.508205000000000098e+02 2.281045000000000073e+03
8.800000000000000877e-02 1.832010000000000027e-01 4.206069999999999709e+01 1.541270000000000095e+02 2.281974999999999909e+03
8.899999999999999578e-02 1.833095000000000141e-01 4.266640000000000299e+01 1.570439999999999827e+02 2.282824999999999818e+03
8.999999999999999667e-02 1.834065000000000001e-01 4.311285000000000167e+01 1.595364999999999895e+02 2.283585000000000036e+03
9.099999999999999756e-02 1.834899999999999864e-01 4.339194999999999425e+01 1.615865000000000009e+02 2.284244999999999891e+03
9.199999999999999845e-02 1.835600000000000009e-01 4.350135000000000218e+01 1.631889999999999930e+02 2.284789999999999964e+03
9.299999999999999933e-02 1.836160000000000014e-01 4.344445000000000334e+01 1.643589999999999804e+02 2.285239999999999782e+03
9.400000000000000022e-02 1.836585000000000023e-01 4.323059999999999548e+01 1.651254999999999882e+02 2.285585000000000036e+03
9.500000000000000111e-02 1.836889999999999912e-01 4.287449999999999761e+01 1.655305000000000177e+02 2.285824999999999818e+03
9.600000000000000200e-02 1.837079999999999824e-01 4.239495000000000147e+01 1.656264999999999930e+02 2.285984999999999673e+03
9.700000000000000289e-02 1.837170000000000192e-01 4.181409999999999627e+01 1.654730000000000132e+02 2.286065000000000055e+03
9.800000000000000377e-02 1.837179999999999924e-01 4.115590000000000259e+01 1.651334999999999980e+02 2.286085000000000036e+03
9.900000000000000466e-02 1.837130000000000152e-01 4.044494999999999862e+01 1.646705000000000041e+02 2.286055000000000291e+03
1.000000000000000056e-01 1.837039999999999784e-01 3.970499999999999829e+01 1.641430000000000007e+02 2.285989999999999782e+03
1.010000000000000064e-01 1.836924999999999808e-01 3.895825000000000671e+01 1.636030000000000086e+02 2.285899999999999636e+03
1.020000000000000073e-01 1.836794999999999956e-01 3.822365000000000634e+01 1.630944999999999823e+02 2.285804999999999836e+03
1.030000000000000082e-01 1.836665000000000103e-01 3.751694999999999425e+01 1.626500000000000057e+02 2.285704999999999927e+03
1.040000000000000091e-01 1.836554999999999993e-01 3.684940000000000282e+01 1.622914999999999850e+02 2.285619999999999891e+03
1.050000000000000100e-01 1.836464999999999903e-01 3.622775000000000034e+01 1.620275000000000034e+02 2.285550000000000182e+03
1.059999999999999970e-01 1.836395000000000111e-01 3.565424999999999756e+01 1.618564999999999827e+02 2.285494999999999891e+03
1.069999999999999979e-01 1.836344999999999783e-01 3.512655000000000172e+01 1.617649999999999864e+02 2.285449999999999818e+03
1.079999999999999988e-01 1.836320000000000174e-01 3.463830000000000098e+01 1.617295000000000016e+02 2.285425000000000182e+03
1.089999999999999997e-01 1.836305000000000021e-01 3.417960000000000065e+01 1.617189999999999941e+02 2.285409999999999854e+03
1.100000000000000006e-01 1.836289999999999867e-01 3.373814999999999742e+01 1.616970000000000027e+02 2.285400000000000091e+03
1.110000000000000014e-01 1.836264999999999981e-01 3.329980000000000473e+01 1.616245000000000118e+02 2.285380000000000109e+03
1.120000000000000023e-01 1.836225000000000218e-01 3.284969999999999857e+01 1.614615000000000009e+02 2.285349999999999909e+03
1.130000000000000032e-01 1.836160000000000014e-01 3.237364999999999782e+01 1.611700000000000159e+02 2.285289999999999964e+03
1.140000000000000041e-01 1.836045000000000038e-01 3.185880000000000223e+01 1.607205000000000155e+02 2.285204999999999927e+03
1.150000000000000050e-01 1.835890000000000022e-01 3.129460000000000264e+01 1.600860000000000127e+02 2.285085000000000036e+03
1.160000000000000059e-01 1.835674999999999946e-01 3.067379999999999995e+01 1.592535000000000025e+02 2.284920000000000073e+03
1.170000000000000068e-01 1.835399999999999809e-01 2.999265000000000114e+01 1.582185000000000059e+02 2.284710000000000036e+03
1.180000000000000077e-01 1.835065000000000168e-01 2.925144999999999840e+01 1.569869999999999948e+02 2.284449999999999818e+03
1.190000000000000085e-01 1.834669999999999912e-01 2.845454999999999757e+01 1.555769999999999982e+02 2.284149999999999636e+03
1.200000000000000094e-01 1.834220000000000017e-01 2.761030000000000229e+01 1.540165000000000077e+02 2.283805000000000291e+03
1.209999999999999964e-01 1.833724999999999938e-01 2.673015000000000185e+01 1.523410000000000082e+02 2.283430000000000291e+03
1.219999999999999973e-01 1.833194999999999963e-01 2.582845000000000013e+01 1.505930000000000177e+02 2.283019999999999982e+03
1.229999999999999982e-01 1.832650000000000112e-01 2.492145000000000010e+01 1.488195000000000050e+02 2.282594999999999800e+03
1.239999999999999991e-01 1.832090000000000107e-01 2.402624999999999744e+01 1.470674999999999955e+02 2.282170000000000073e+03
1.250000000000000000e-01 1.831540000000000112e-01 2.315979999999999706e+01 1.453834999999999980e+02 2.281744999999999891e+03
1.260000000000000009e-01 1.831010000000000137e-01 2.233830000000000027e+01 1.438095000000000141e+02 2.281329999999999927e+03
1.270000000000000018e-01 1.830509999999999915e-01 2.157594999999999885e+01 1.423824999999999932e+02 2.280944999999999709e+03
1.280000000000000027e-01 1.830054999999999876e-01 2.088439999999999941e+01 1.411299999999999955e+02 2.280590000000000146e+03
1.290000000000000036e-01 1.829655000000000031e-01 2.027230000000000132e+01 1.400710000000000264e+02 2.280275000000000091e+03
1.300000000000000044e-01 1.829304999999999959e-01 1.974514999999999887e+01 1.392169999999999845e+02 2.280000000000000000e+03
1.310000000000000053e-01 1.829020000000000090e-01 1.930494999999999806e+01 1.385699999999999932e+02 2.279775000000000091e+03
1.320000000000000062e-01 1.828795000000000004e-01 1.895054999999999978e+01 1.381204999999999927e+02 2.279600000000000364e+03
1.330000000000000071e-01 1.828635000000000121e-01 1.867790000000000106e+01 1.378575000000000159e+02 2.279470000000000255e+03
1.340000000000000080e-01 1.828529999999999878e-01 1.848049999999999926e+01 1.377595000000000027e+02 2.279380000000000109e+03
1.350000000000000089e-01 1.828480000000000105e-01 1.834994999999999976e+01 1.378034999999999854e+02 2.279335000000000036e+03
1.360000000000000098e-01 1.828464999999999951e-01 1.827629999999999910e+01 1.379635000000000105e+02 2.279315000000000055e+03
1.370000000000000107e-01 1.828489999999999838e-01 1.824889999999999901e+01 1.382110000000000127e+02 2.279335000000000036e+03
1.380000000000000115e-01 1.828545000000000031e-01 1.825665000000000049e+01 1.385199999999999818e+02 2.279369999999999891e+03
1.390000000000000124e-01 1.828619999999999968e-01 1.828875000000000028e+01 1.388644999999999925e+02 2.279425000000000182e+03
1.400000000000000133e-01 1.828710000000000058e-01 1.833489999999999753e+01 1.392210000000000036e+02 2.279489999999999782e+03
1.410000000000000142e-01 1.828805000000000014e-01 1.838589999999999947e+01 1.395699999999999932e+02 2.279559999999999945e+03
1.420000000000000151e-01 1.828905000000000114e-01 1.843374999999999986e+01 1.398944999999999936e+02 2.279635000000000218e+03
1.430000000000000160e-01 1.828989999999999783e-01 1.847175000000000011e+01 1.401825000000000045e+02 2.279704999999999927e+03
1.440000000000000169e-01 1.829075000000000006e-01 1.849510000000000076e+01 1.404245000000000232e+02 2.279765000000000327e+03
1.450000000000000178e-01 1.829145000000000076e-01 1.850050000000000239e+01 1.406169999999999902e+02 2.279820000000000164e+03
1.459999999999999909e-01 1.829204999999999859e-01 1.848639999999999972e+01 1.407599999999999909e+02 2.279869999999999891e+03
1.469999999999999918e-01 1.829244999999999899e-01 1.845275000000000176e+01 1.408555000000000064e+02 2.279904999999999745e+03
1.479999999999999927e-01 1.829274999999999929e-01 1.840100000000000335e+01 1.409110000000000014e+02 2.279929999999999836e+03
1.489999999999999936e-01 1.829294999999999949e-01 1.833370000000000033e+01 1.409345000000000141e+02 2.279944999999999709e+03
1.499999999999999944e-01 1.829314999999999969e-01 1.825424999999999898e+01 1.409370000000000118e+02 2.279954999999999927e+03
1.509999999999999953e-01 1.829319999999999835e-01 1.816685000000000016e+01 1.409295000000000186e+02 2.279965000000000146e+03
1.519999999999999962e-01 1.829324999999999979e-01 1.807554999999999978e+01 1.409225000000000136e+02 2.279970000000000255e+03
1.529999999999999971e-01 1.829324999999999979e-01 1.798450000000000060e+01 1.409279999999999973e+02 2.279974999999999909e+03
1.539999999999999980e-01 1.829334999999999989e-01 1.789750000000000085e+01 1.409524999999999864e+02 2.279980000000000018e+03
1.549999999999999989e-01 1.829350000000000143e-01 1.781754999999999711e+01 1.410040000000000191e+02 2.279989999999999782e+03
1.559999999999999998e-01 1.829370000000000163e-01 1.774699999999999989e+01 1.410854999999999961e+02 2.280005000000000109e+03
1.570000000000000007e-01 1.829399999999999915e-01 1.768715000000000259e+01 1.411995000000000005e+02 2.280029999999999745e+03
1.580000000000000016e-01 1.829439999999999955e-01 1.763850000000000051e+01 1.413435000000000059e+02 2.280059999999999945e+03
1.590000000000000024e-01 1.829485000000000139e-01 1.760065000000000168e+01 1.415155000000000030e+02 2.280095000000000255e+03
