# t [s], A [cm^2], U [cm/s], P [cPa], c [cm/s]
1.000000000000000021e-03 1.787714999999999999e-01 3.544822999999999724e-01 8.608419999999999561e+01 2.136960000000000036e+03
2.000000000000000042e-03 1.787199999999999900e-01 1.798649999999999860e+00 8.274985000000000923e+01 2.136475000000000364e+03
3.000000000000000062e-03 1.785924999999999874e-01 3.554157500000000081e+00 7.820420000000000016e+01 2.135320000000000164e+03
4.000000000000000083e-03 1.784270000000000023e-01 5.531042000000000236e+00 7.351630000000000109e+01 2.133824999999999818e+03
5.000000000000000104e-03 1.782569999999999988e-01 7.641634999999999955e+00 6.959069999999999823e+01 2.132305000000000291e+03
6.000000000000000125e-03 1.780979999999999785e-01 9.654524999999999579e+00 6.650360000000000582e+01 2.130900000000000091e+03
7.000000000000000146e-03 1.779505000000000114e-01 1.135449000000000019e+01 6.382079999999999842e+01 2.129635000000000218e+03
8.000000000000000167e-03 1.778184999999999905e-01 1.273104499999999994e+01 6.140690000000000026e+01 2.128519999999999982e+03
9.000000000000001055e-03 1.777064999999999895e-01 1.384880000000000067e+01 5.940914999999999679e+01 2.127579999999999927e+03
1.000000000000000194e-02 1.776149999999999951e-01 1.473155000000000214e+01 5.785529999999999973e+01 2.126829999999999927e+03
1.099999999999999936e-02 1.775430000000000064e-01 1.539559999999999995e+01 5.668210000000000548e+01 2.126244999999999891e+03
1.200000000000000025e-02 1.774880000000000069e-01 1.585234999999999950e+01 5.580079999999999529e+01 2.125800000000000182e+03
1.300000000000000114e-02 1.774435000000000040e-01 1.610054999999999836e+01 5.506439999999999912e+01 2.125460000000000036e+03
1.400000000000000203e-02 1.774074999999999958e-01 1.618639999999999901e+01 5.440099999999999625e+01 2.125180000000000291e+03
1.499999999999999944e-02 1.773814999999999975e-01 1.625615000000000165e+01 5.403014999999999901e+01 2.124989999999999782e+03
1.600000000000000033e-02 1.773780000000000079e-01 1.650894999999999868e+01 5.443475000000000108e+01 2.124974999999999909e+03
1.700000000000000122e-02 1.774084999999999968e-01 1.707620000000000005e+01 5.603770000000000095e+01 2.125229999999999563e+03
1.800000000000000211e-02 1.774764999999999815e-01 1.792985000000000184e+01 5.885034999999999883e+01 2.125800000000000182e+03
1.900000000000000300e-02 1.775744999999999962e-01 1.888385000000000247e+01 6.236269999999999669e+01 2.126614999999999782e+03
2.000000000000000042e-02 1.776814999999999922e-01 1.967689999999999984e+01 6.572769999999999868e+01 2.127519999999999982e+03
2.100000000000000130e-02 1.777755000000000030e-01 2.008375000000000199e+01 6.810810000000000741e+01 2.128324999999999818e+03
2.200000000000000219e-02 1.778355000000000075e-01 1.999944999999999951e+01 6.899965000000000259e+01 2.128864999999999782e+03
2.299999999999999961e-02 1.778544999999999987e-01 1.946520000000000294e+01 6.838949999999999818e+01 2.129059999999999945e+03
2.400000000000000050e-02 1.778369999999999951e-01 1.863269999999999982e+01 6.670250000000000057e+01 2.128940000000000055e+03
2.500000000000000139e-02 1.777949999999999808e-01 1.769099999999999895e+01 6.458214999999999861e+01 2.128604999999999563e+03
2.600000000000000228e-02 1.777444999999999997e-01 1.679180000000000206e+01 6.262165000000000248e+01 2.128190000000000055e+03
2.700000000000000316e-02 1.776980000000000226e-01 1.600349999999999895e+01 6.116239999999999810e+01 2.127795000000000073e+03
2.800000000000000058e-02 1.776604999999999990e-01 1.530710000000000193e+01 6.022554999999999836e+01 2.127475000000000364e+03
2.900000000000000147e-02 1.776314999999999977e-01 1.462570000000000192e+01 5.957755000000000223e+01 2.127219999999999800e+03
3.000000000000000236e-02 1.776034999999999975e-01 1.387144999999999939e+01 5.887930000000000064e+01 2.126989999999999782e+03
3.099999999999999978e-02 1.775705000000000200e-01 1.299099999999999966e+01 5.785309999999999775e+01 2.126715000000000146e+03
3.200000000000000067e-02 1.775269999999999904e-01 1.199514999999999887e+01 5.640984999999999872e+01 2.126355000000000018e+03
3.300000000000000155e-02 1.774740000000000206e-01 1.096302500000000002e+01 5.469684999999999775e+01 2.125914999999999964e+03
3.400000000000000244e-02 1.774189999999999934e-01 1.002124500000000040e+01 5.305590000000000117e+01 2.125454999999999927e+03
3.500000000000000333e-02 1.773720000000000019e-01 9.305289999999999395e+00 5.190904999999999347e+01 2.125059999999999945e+03
3.600000000000000422e-02 1.773450000000000026e-01 8.917320000000000135e+00 5.161639999999999873e+01 2.124809999999999945e+03
3.700000000000000511e-02 1.773450000000000026e-01 8.895134999999999792e+00 5.235609999999999786e+01 2.124795000000000073e+03
3.799999999999999906e-02 1.773755000000000193e-01 9.200274999999999537e+00 5.406390000000000384e+01 2.125024999999999636e+03
3.899999999999999994e-02 1.774320000000000064e-01 9.727280000000000371e+00 5.644494999999999862e+01 2.125480000000000018e+03
4.000000000000000083e-02 1.775045000000000095e-01 1.032809500000000114e+01 5.904565000000000197e+01 2.126074999999999818e+03
4.100000000000000172e-02 1.775789999999999869e-01 1.084315499999999943e+01 6.135734999999999673e+01 2.126694999999999709e+03
4.200000000000000261e-02 1.776419999999999944e-01 1.113080000000000069e+01 6.292049999999999699e+01 2.127224999999999909e+03
4.300000000000000350e-02 1.776805000000000190e-01 1.108814999999999884e+01 6.340529999999999688e+01 2.127560000000000400e+03
4.400000000000000439e-02 1.776860000000000106e-01 1.066157499999999914e+01 6.265285000000000082e+01 2.127625000000000000e+03
4.499999999999999833e-02 1.776540000000000064e-01 9.846140000000000114e+00 6.067664999999999509e+01 2.127375000000000000e+03
4.599999999999999922e-02 1.775855000000000072e-01 8.676705000000000112e+00 5.763054999999999950e+01 2.126809999999999945e+03
4.700000000000000011e-02 1.774840000000000029e-01 7.215220000000000411e+00 5.375794999999999391e+01 2.125974999999999909e+03
4.800000000000000100e-02 1.773569999999999869e-01 5.537279999999999980e+00 4.933885000000000076e+01 2.124920000000000073e+03
4.900000000000000189e-02 1.772114999999999940e-01 3.721814999999999873e+00 4.464579999999999416e+01 2.123710000000000036e+03
5.000000000000000278e-02 1.770565000000000055e-01 1.844769999999999799e+00 3.991795000000000471e+01 2.122409999999999854e+03
5.100000000000000366e-02 1.768990000000000007e-01 -2.322500000000005116e-02 3.535150000000000148e+01 2.121085000000000036e+03
5.200000000000000455e-02 1.767444999999999988e-01 -1.816440000000000277e+00 3.110455000000000325e+01 2.119784999999999854e+03
5.300000000000000544e-02 1.765990000000000060e-01 -3.472535099999999986e+00 2.730854999999999677e+01 2.118555000000000291e+03
5.399999999999999939e-02 1.764680000000000137e-01 -4.931359999999999744e+00 2.407969999999999899e+01 2.117444999999999709e+03
5.500000000000000028e-02 1.763549999999999840e-01 -6.135099999999999554e+00 2.152684999999999960e+01 2.116485000000000127e+03
5.600000000000000117e-02 1.762644999999999906e-01 -7.030070000000000263e+00 1.975244999999999962e+01 2.115710000000000036e+03
5.700000000000000205e-02 1.762015000000000109e-01 -7.569815000000000182e+00 1.884730000000000061e+01 2.115154999999999745e+03
5.800000000000000294e-02 1.761670000000000180e-01 -7.718960000000000043e+00 1.888135000000000119e+01 2.114849999999999909e+03
5.900000000000000383e-02 1.761655000000000026e-01 -7.456735000000000113e+00 1.989290000000000092e+01 2.114805000000000291e+03
6.000000000000000472e-02 1.761964999999999781e-01 -6.779550000000000409e+00 2.188040000000000163e+01 2.115034999999999854e+03
6.099999999999999867e-02 1.762604999999999866e-01 -5.701905000000000001e+00 2.479789999999999850e+01 2.115545000000000073e+03
6.199999999999999956e-02 1.763560000000000128e-01 -4.255639999999999645e+00 2.855644999999999811e+01 2.116319999999999709e+03
6.300000000000000044e-02 1.764804999999999846e-01 -2.487554999999999961e+00 3.302980000000000160e+01 2.117340000000000146e+03
6.400000000000000133e-02 1.766294999999999948e-01 -4.560199999999998699e-01 3.806459999999999866e+01 2.118564999999999600e+03
6.500000000000000222e-02 1.767974999999999963e-01 1.772979999999999778e+00 4.349184999999999945e+01 2.119960000000000036e+03
6.600000000000000311e-02 1.769805000000000128e-01 4.129946499999999965e+00 4.913889999999999958e+01 2.121485000000000127e+03
6.700000000000000400e-02 1.771714999999999818e-01 6.545655000000000001e+00 5.484009999999999962e+01 2.123085000000000036e+03
6.800000000000000488e-02 1.773655000000000093e-01 8.954594999999999416e+00 6.044604999999999961e+01 2.124724999999999909e+03
6.900000000000000577e-02 1.775585000000000080e-01 1.129814000000000007e+01 6.583044999999999902e+01 2.126355000000000018e+03
7.000000000000000666e-02 1.777455000000000007e-01 1.352687500000000043e+01 7.089594999999999914e+01 2.127939999999999600e+03
7.100000000000000755e-02 1.779235000000000122e-01 1.560285000000000011e+01 7.557734999999999559e+01 2.129460000000000036e+03
7.200000000000000844e-02 1.780895000000000117e-01 1.750065000000000026e+01 7.984354999999999336e+01 2.130890000000000327e+03
7.300000000000000933e-02 1.782440000000000135e-01 1.920819999999999794e+01 8.369710000000000605e+01 2.132210000000000036e+03
7.399999999999999634e-02 1.783850000000000158e-01 2.072609999999999886e+01 8.717125000000000057e+01 2.133434999999999945e+03
7.499999999999999722e-02 1.785145000000000204e-01 2.206640000000000157e+01 9.032525000000001114e+01 2.134559999999999945e+03
7.599999999999999811e-02 1.786349999999999882e-01 2.325025000000000119e+01 9.323699999999999477e+01 2.135599999999999909e+03
7.699999999999999900e-02 1.787469999999999892e-01 2.430539999999999878e+01 9.599469999999999459e+01 2.136579999999999927e+03
7.799999999999999989e-02 1.788549999999999862e-01 2.526285000000000025e+01 9.868850000000000477e+01 2.137515000000000327e+03
7.900000000000000078e-02 1.789605000000000223e-01 2.615370000000000061e+01 1.014013999999999953e+02 2.138430000000000291e+03
8.000000000000000167e-02 1.790665000000000173e-01 2.700655000000000072e+01 1.042019999999999982e+02 2.139350000000000364e+03
8.100000000000000255e-02 1.791745000000000143e-01 2.784479999999999933e+01 1.071394999999999982e+02 2.140289999999999964e+03
8.200000000000000344e-02 1.792869999999999742e-01 2.868489999999999895e+01 1.102400000000000091e+02 2.141265000000000327e+03
8.300000000000000433e-02 1.794040000000000079e-01 2.953580000000000183e+01 1.135055000000000121e+02 2.142274999999999636e+03
8.400000000000000522e-02 1.795255000000000045e-01 3.039804999999999779e+01 1.169145000000000039e+02 2.143324999999999818e+03
8.500000000000000611e-02 1.796515000000000195e-01 3.126470000000000127e+01 1.204250000000000114e+02 2.144409999999999854e+03
8.600000000000000699e-02 1.797799999999999954e-01 3.212205000000000155e+01 1.239795000000000016e+02 2.145519999999999982e+03
8.700000000000000788e-02 1.799089999999999856e-01 3.295109999999999673e+01 1.275084999999999980e+02 2.146635000000000218e+03
8.800000000000000877e-02 1.800370000000000026e-01 3.372905000000000086e+01 1.309359999999999786e+02 2.147744999999999891e+03
8.899999999999999578e-02 1.801610000000000156e-01 3.443144999999999811e+01 1.341859999999999786e+02 2.148819999999999709e+03
8.999999999999999667e-02 1.802779999999999938e-01 3.503350000000000364e+01 1.371865000000000236e+02 2.149840000000000146e+03
9.099999999999999756e-02 1.803875000000000062e-01 3.551210000000000377e+01 1.398725000000000023e+02 2.150789999999999964e+03
9.199999999999999845e-02 1.804850000000000065e-01 3.584709999999999752e+01 1.421915000000000191e+02 2.151644999999999982e+03
9.299999999999999933e-02 1.805710000000000093e-01 3.602270000000000039e+01 1.441045000000000016e+02 2.152399999999999636e+03
9.400000000000000022e-02 1.806424999999999836e-01 3.602810000000000201e+01 1.455869999999999891e+02 2.153029999999999745e+03
9.500000000000000111e-02 1.806999999999999995e-01 3.585844999999999771e+01 1.466324999999999932e+02 2.153545000000000073e+03
9.600000000000000200e-02 1.807420000000000138e-01 3.551474999999999937e+01 1.472479999999999905e+02 2.153925000000000182e+03
9.700000000000000289e-02 1.807699999999999863e-01 3.500414999999999566e+01 1.474569999999999936e+02 2.154175000000000182e+03
9.800000000000000377e-02 1.807834999999999859e-01 3.433920000000000528e+01 1.472950000000000159e+02 2.154314999999999600e+03
9.900000000000000466e-02 1.807845000000000146e-01 3.353730000000000189e+01 1.468084999999999809e+02 2.154329999999999927e+03
1.000000000000000056e-01 1.807739999999999903e-01 3.261984999999999957e+01 1.460525000000000091e+02 2.154255000000000109e+03
1.010000000000000064e-01 1.807539999999999980e-01 3.161100000000000065e+01 1.450854999999999961e+02 2.154095000000000255e+03
1.020000000000000073e-01 1.807265000000000121e-01 3.053659999999999997e+01 1.439710000000000036e+02 2.153864999999999782e+03
1.030000000000000082e-01 1.806935000000000069e-01 2.942295000000000016e+01 1.427680000000000007e+02 2.153585000000000036e+03
1.040000000000000091e-01 1.806559999999999833e-01 2.829570000000000007e+01 1.415345000000000084e+02 2.153269999999999982e+03
1.050000000000000100e-01 1.806174999999999864e-01 2.717875000000000085e+01 1.403220000000000027e+02 2.152935000000000400e+03
1.059999999999999970e-01 1.805789999999999895e-01 2.609335000000000093e+01 1.391734999999999900e+02 2.152605000000000018e+03
1.069999999999999979e-01 1.805415000000000214e-01 2.505724999999999980e+01 1.381245000000000118e+02 2.152284999999999854e+03
1.079999999999999988e-01 1.805070000000000008e-01 2.408429999999999893e+01 1.371995000000000005e+02 2.151980000000000018e+03
1.089999999999999997e-01 1.804755000000000109e-01 2.318365000000000009e+01 1.364114999999999895e+02 2.151704999999999927e+03
1.100000000000000006e-01 1.804485000000000117e-01 2.236005000000000109e+01 1.357630000000000052e+02 2.151470000000000255e+03
1.110000000000000014e-01 1.804254999999999887e-01 2.161339999999999861e+01 1.352459999999999809e+02 2.151260000000000218e+03
1.120000000000000023e-01 1.804064999999999974e-01 2.093954999999999700e+01 1.348439999999999941e+02 2.151085000000000036e+03
1.130000000000000032e-01 1.803905000000000092e-01 2.033014999999999972e+01 1.345305000000000177e+02 2.150949999999999818e+03
1.140000000000000041e-01 1.803779999999999828e-01 1.977369999999999806e+01 1.342724999999999795e+02 2.150829999999999927e+03
1.150000000000000050e-01 1.803664999999999852e-01 1.925625000000000142e+01 1.340335000000000036e+02 2.150720000000000255e+03
1.160000000000000059e-01 1.803555000000000019e-01 1.876234999999999786e+01 1.337744999999999891e+02 2.150619999999999891e+03
1.170000000000000068e-01 1.803434999999999899e-01 1.827595000000000169e+01 1.334560000000000173e+02 2.150514999999999873e+03
1.180000000000000077e-01 1.803299999999999903e-01 1.778144999999999953e+01 1.330425000000000182e+02 2.150394999999999982e+03
1.190000000000000085e-01 1.803130000000000011e-01 1.726464999999999961e+01 1.325015000000000214e+02 2.150239999999999782e+03
1.200000000000000094e-01 1.802914999999999934e-01 1.671355000000000146e+01 1.318089999999999975e+02 2.150060000000000400e+03
1.209999999999999964e-01 1.802654999999999952e-01 1.611935000000000073e+01 1.309485000000000241e+02 2.149829999999999927e+03
1.219999999999999973e-01 1.802334999999999909e-01 1.547644999999999982e+01 1.299139999999999873e+02 2.149555000000000291e+03
1.229999999999999982e-01 1.801959999999999951e-01 1.478350000000000009e+01 1.287084999999999866e+02 2.149235000000000127e+03
1.239999999999999991e-01 1.801524999999999932e-01 1.404279999999999973e+01 1.273449999999999989e+02 2.148864999999999782e+03
1.250000000000000000e-01 1.801045000000000007e-01 1.326069999999999993e+01 1.258464999999999918e+02 2.148449999999999818e+03
1.260000000000000009e-01 1.800519999999999898e-01 1.244674999999999976e+01 1.242434999999999974e+02 2.148000000000000000e+03
1.270000000000000018e-01 1.799959999999999893e-01 1.161364500000000000e+01 1.225730000000000075e+02 2.147519999999999982e+03
1.280000000000000027e-01 1.799375000000000002e-01 1.077585499999999996e+01 1.208754999999999882e+02 2.147014999999999873e+03
1.290000000000000036e-01 1.798779999999999824e-01 9.949355000000000615e+00 1.191924999999999955e+02 2.146505000000000109e+03
1.300000000000000044e-01 1.798190000000000066e-01 9.150310000000001054e+00 1.175674999999999955e+02 2.145994999999999891e+03
1.310000000000000053e-01 1.797620000000000051e-01 8.394394999999999385e+00 1.160379999999999967e+02 2.145505000000000109e+03
1.320000000000000062e-01 1.797080000000000066e-01 7.696044999999999803e+00 1.146390000000000100e+02 2.145034999999999854e+03
1.330000000000000071e-01 1.796584999999999988e-01 7.067524999999999835e+00 1.133994999999999891e+02 2.144605000000000018e+03
1.340000000000000080e-01 1.796134999999999815e-01 6.518564999999999721e+00 1.123394999999999868e+02 2.144215000000000146e+03
1.350000000000000089e-01 1.795749999999999846e-01 6.055915000000000603e+00 1.114710000000000036e+02 2.143875000000000000e+03
1.360000000000000098e-01 1.795430000000000081e-01 5.683125000000000426e+00 1.108004999999999995e+02 2.143590000000000146e+03
1.370000000000000107e-01 1.795170000000000099e-01 5.400560000000000471e+00 1.103234999999999957e+02 2.143364999999999782e+03
1.380000000000000115e-01 1.794979999999999909e-01 5.205505000000000493e+00 1.100289999999999964e+02 2.143190000000000055e+03
1.390000000000000124e-01 1.794844999999999913e-01 5.092435000000000045e+00 1.099014999999999986e+02 2.143069999999999709e+03
1.400000000000000133e-01 1.794769999999999976e-01 5.053435000000000343e+00 1.099184999999999945e+02 2.142994999999999891e+03
1.410000000000000142e-01 1.794744999999999813e-01 5.078635000000000232e+00 1.100554999999999950e+02 2.142965000000000146e+03
1.420000000000000151e-01 1.794764999999999833e-01 5.156724999999999781e+00 1.102835000000000036e+02 2.142980000000000018e+03
1.430000000000000160e-01 1.794815000000000160e-01 5.275515000000000398e+00 1.105745000000000005e+02 2.143015000000000327e+03
1.440000000000000169e-01 1.794890000000000096e-01 5.422420000000000684e+00 1.109000000000000057e+02 2.143069999999999709e+03
1.450000000000000178e-01 1.794975000000000043e-01 5.585004999999999775e+00 1.112319999999999993e+02 2.143140000000000327e+03
1.459999999999999909e-01 1.795069999999999999e-01 5.751409999999999911e+00 1.115464999999999947e+02 2.143220000000000255e+03
1.469999999999999918e-01 1.795160000000000089e-01 5.910764999999999603e+00 1.118209999999999980e+02 2.143295000000000073e+03
1.479999999999999927e-01 1.795235000000000025e-01 6.053530000000000300e+00 1.120360000000000014e+02 2.143359999999999673e+03
1.489999999999999936e-01 1.795299999999999951e-01 6.171770000000000422e+00 1.121794999999999902e+02 2.143414999999999964e+03
1.499999999999999944e-01 1.795339999999999991e-01 6.259339999999999904e+00 1.122404999999999973e+02 2.143449999999999818e+03
1.509999999999999953e-01 1.795355000000000145e-01 6.312009999999999899e+00 1.122135000000000105e+02 2.143460000000000036e+03
1.519999999999999962e-01 1.795339999999999991e-01 6.327524999999999622e+00 1.120979999999999990e+02 2.143454999999999927e+03
1.529999999999999971e-01 1.795300000000000229e-01 6.305505000000000138e+00 1.118960000000000008e+02 2.143420000000000073e+03
1.539999999999999980e-01 1.795229999999999881e-01 6.247354999999999769e+00 1.116154999999999973e+02 2.143364999999999782e+03
1.549999999999999989e-01 1.795134999999999925e-01 6.156060000000000088e+00 1.112660000000000053e+02 2.143279999999999745e+03
1.559999999999999998e-01 1.795014999999999805e-01 6.035885000000000389e+00 1.108594999999999970e+02 2.143184999999999945e+03
1.570000000000000007e-01 1.794880000000000086e-01 5.892055000000000042e+00 1.104104999999999990e+02 2.143069999999999709e+03
1.580000000000000016e-01 1.794725000000000070e-01 5.730420000000000513e+00 1.099329999999999927e+02 2.142940000000000055e+03
1.590000000000000024e-01 1.794569999999999776e-01 5.557039999999999758e+00 1.094414999999999907e+02 2.142804999999999836e+03
