# t [s], A [cm^2], U [cm/s], P [cPa], c [cm/s]
1.000000000000000021e-03 6.730585000000000040e-01 4.533000000000002305e-03 9.039164999999999850e+01 1.697460000000000036e+03
2.000000000000000042e-03 6.730514999999999137e-01 5.250300000000000279e-03 9.036384999999999934e+01 1.697454999999999927e+03
3.000000000000000062e-03 6.731255000000000432e-01 1.422797999999999841e-01 9.051624999999999943e+01 1.697490000000000009e+03
4.000000000000000083e-03 6.731595000000000217e-01 2.246510000000000173e-01 9.061270000000000380e+01 1.697514999999999873e+03
5.000000000000000104e-03 6.730964999999999865e-01 1.428029999999999855e-01 9.044100000000000250e+01 1.697474999999999909e+03
6.000000000000000125e-03 6.730160000000000586e-01 1.860499999999998266e-02 9.011379999999999768e+01 1.697400000000000091e+03
7.000000000000000146e-03 6.729264999999999830e-01 -1.346049999999999747e-01 8.967600000000000193e+01 1.697299999999999955e+03
8.000000000000000167e-03 6.727650000000000574e-01 -4.352850000000000330e-01 8.897249999999999659e+01 1.697139999999999873e+03
9.000000000000001055e-03 6.725229999999999819e-01 -8.985400000000001164e-01 8.793244999999998868e+01 1.696904999999999973e+03
1.000000000000000194e-02 6.721884999999999666e-01 -1.533700000000000063e+00 8.649549999999999272e+01 1.696565000000000055e+03
1.099999999999999936e-02 6.717359999999999998e-01 -2.368730000000000224e+00 8.457205000000000439e+01 1.696115000000000009e+03
1.200000000000000025e-02 6.711884999999999657e-01 -3.335300000000000153e+00 8.219634999999999536e+01 1.695539999999999964e+03
1.300000000000000114e-02 6.706365000000000798e-01 -4.236771000000000065e+00 7.961339999999999861e+01 1.694900000000000091e+03
1.400000000000000203e-02 6.701785000000000103e-01 -4.852957299999999918e+00 7.717114999999999725e+01 1.694264999999999873e+03
1.499999999999999944e-02 6.698619999999999575e-01 -5.058739999999999348e+00 7.513960000000000150e+01 1.693700000000000045e+03
1.600000000000000033e-02 6.696694999999999176e-01 -4.865445000000000242e+00 7.360329999999999018e+01 1.693230000000000018e+03
1.700000000000000122e-02 6.695389999999999953e-01 -4.389850000000000030e+00 7.246070000000000277e+01 1.692845000000000027e+03
1.800000000000000211e-02 6.693964999999999499e-01 -3.789754999999999985e+00 7.149654999999999916e+01 1.692505000000000109e+03
1.900000000000000300e-02 6.691890000000000338e-01 -3.197955000000000325e+00 7.048284999999999911e+01 1.692164999999999964e+03
2.000000000000000042e-02 6.688985000000000625e-01 -2.677422500000000039e+00 6.926895000000000380e+01 1.691784999999999854e+03
2.100000000000000130e-02 6.685440000000000271e-01 -2.213641500000000040e+00 6.782519999999999527e+01 1.691365000000000009e+03
2.200000000000000219e-02 6.681660000000000377e-01 -1.744329999999999936e+00 6.622524999999998840e+01 1.690904999999999973e+03
2.299999999999999961e-02 6.677999999999999492e-01 -1.207295000000000007e+00 6.458435000000000059e+01 1.690430000000000064e+03
2.400000000000000050e-02 6.674625000000000696e-01 -5.810199999999998699e-01 6.299009999999999820e+01 1.689960000000000036e+03
2.500000000000000139e-02 6.671420000000000128e-01 9.719000000000033168e-02 6.145479999999999876e+01 1.689500000000000000e+03
2.600000000000000228e-02 6.668045000000000222e-01 7.370099999999999429e-01 5.990299999999999869e+01 1.689029999999999973e+03
2.700000000000000316e-02 6.664029999999999676e-01 1.218785000000000007e+00 5.819050000000000011e+01 1.688535000000000082e+03
2.800000000000000058e-02 6.658954999999999735e-01 1.426220000000000265e+00 5.614775000000000205e+01 1.687965000000000146e+03
2.900000000000000147e-02 6.652544999999999709e-01 1.279444999999999943e+00 5.363365000000000293e+01 1.687295000000000073e+03
3.000000000000000236e-02 6.644805000000000295e-01 7.586199999999996280e-01 5.058440000000000225e+01 1.686494999999999891e+03
3.099999999999999978e-02 6.636009999999999964e-01 -8.927499999999977121e-02 4.704180000000000206e+01 1.685585000000000036e+03
3.200000000000000067e-02 6.626674999999999649e-01 -1.162540000000000795e+00 4.315144999999999698e+01 1.684579999999999927e+03
3.300000000000000155e-02 6.617404999999999538e-01 -2.329549999999999788e+00 3.913425000000000153e+01 1.683534999999999854e+03
3.400000000000000244e-02 6.608795000000000641e-01 -3.456754999999999800e+00 3.524389999999999645e+01 1.682500000000000000e+03
3.500000000000000333e-02 6.601330000000000808e-01 -4.430424999999999613e+00 3.172379999999999711e+01 1.681539999999999964e+03
3.600000000000000422e-02 6.595359999999999001e-01 -5.169424999999999493e+00 2.877435000000000187e+01 1.680700000000000045e+03
3.700000000000000511e-02 6.591050000000000519e-01 -5.627570500000000031e+00 2.653410000000000224e+01 1.680019999999999982e+03
3.799999999999999906e-02 6.588450000000000140e-01 -5.788999999999999702e+00 2.507540000000000191e+01 1.679534999999999854e+03
3.899999999999999994e-02 6.587499999999999467e-01 -5.658865000000000478e+00 2.441239999999999810e+01 1.679250000000000000e+03
4.000000000000000083e-02 6.588089999999999780e-01 -5.253004999999999924e+00 2.451604999999999990e+01 1.679164999999999964e+03
4.100000000000000172e-02 6.590095000000000258e-01 -4.589430000000000121e+00 2.533160000000000167e+01 1.679269999999999982e+03
4.200000000000000261e-02 6.593390000000000084e-01 -3.683570000000000011e+00 2.679414999999999836e+01 1.679559999999999945e+03
4.300000000000000350e-02 6.597865000000000535e-01 -2.547815000000000385e+00 2.883784999999999954e+01 1.680009999999999991e+03
4.400000000000000439e-02 6.603415000000000257e-01 -1.194554999999999367e+00 3.139884999999999948e+01 1.680605000000000018e+03
4.499999999999999833e-02 6.609920000000000240e-01 3.593450000000002476e-01 3.441270000000000095e+01 1.681340000000000146e+03
4.599999999999999922e-02 6.617224999999999913e-01 2.088679999999999648e+00 3.781054999999999922e+01 1.682184999999999945e+03
4.700000000000000011e-02 6.625164999999999527e-01 3.958050000000000512e+00 4.151509999999999678e+01 1.683119999999999891e+03
4.800000000000000100e-02 6.633520000000000527e-01 5.922884999999999955e+00 4.543979999999999819e+01 1.684130000000000109e+03
4.900000000000000189e-02 6.642084999999999795e-01 7.932364999999999888e+00 4.949119999999999919e+01 1.685184999999999945e+03
5.000000000000000278e-02 6.650639999999999885e-01 9.933832999999999913e+00 5.357404999999999973e+01 1.686275000000000091e+03
5.100000000000000366e-02 6.658995000000000886e-01 1.187788499999999914e+01 5.759784999999999400e+01 1.687360000000000127e+03
5.200000000000000455e-02 6.667000000000000703e-01 1.372208999999999968e+01 6.148395000000000010e+01 1.688424999999999955e+03
5.300000000000000544e-02 6.674530000000000740e-01 1.543407000000000195e+01 6.517085000000000150e+01 1.689450000000000045e+03
5.399999999999999939e-02 6.681544999999999845e-01 1.699279999999999902e+01 6.861804999999999666e+01 1.690424999999999955e+03
5.500000000000000028e-02 6.688024999999999665e-01 1.838840000000000074e+01 7.180689999999999884e+01 1.691349999999999909e+03
5.600000000000000117e-02 6.693999999999999950e-01 1.962115000000000009e+01 7.473935000000000173e+01 1.692199999999999818e+03
5.700000000000000205e-02 6.699530000000000207e-01 2.069919999999999760e+01 7.743529999999999802e+01 1.693000000000000000e+03
5.800000000000000294e-02 6.704700000000000104e-01 2.163730000000000331e+01 7.992834999999999468e+01 1.693744999999999891e+03
5.900000000000000383e-02 6.709614999999999885e-01 2.245414999999999850e+01 8.226185000000000969e+01 1.694450000000000045e+03
6.000000000000000472e-02 6.714364999999999917e-01 2.317105000000000103e+01 8.448409999999999798e+01 1.695119999999999891e+03
6.099999999999999867e-02 6.719060000000000032e-01 2.381034999999999968e+01 8.664490000000000691e+01 1.695764999999999873e+03
6.199999999999999956e-02 6.723784999999999901e-01 2.439379999999999882e+01 8.879134999999999422e+01 1.696400000000000091e+03
6.300000000000000044e-02 6.728625000000000300e-01 2.494134999999999991e+01 9.096455000000000268e+01 1.697045000000000073e+03
6.400000000000000133e-02 6.733629999999999338e-01 2.546934999999999860e+01 9.319660000000000366e+01 1.697690000000000055e+03
6.500000000000000222e-02 6.738834999999999686e-01 2.598969999999999914e+01 9.550790000000000646e+01 1.698360000000000127e+03
6.600000000000000311e-02 6.744240000000000235e-01 2.650869999999999749e+01 9.790555000000000518e+01 1.699045000000000073e+03
6.700000000000000400e-02 6.749810000000000532e-01 2.702674999999999983e+01 1.003824999999999932e+02 1.699750000000000000e+03
6.800000000000000488e-02 6.755489999999999551e-01 2.753824999999999790e+01 1.029180000000000064e+02 1.700470000000000027e+03
6.900000000000000577e-02 6.761194999999999844e-01 2.803255000000000052e+01 1.054789999999999992e+02 1.701200000000000045e+03
7.000000000000000666e-02 6.766829999999999234e-01 2.849510000000000076e+01 1.080225000000000080e+02 1.701920000000000073e+03
7.100000000000000755e-02 6.772285000000000110e-01 2.890859999999999985e+01 1.105014999999999930e+02 1.702630000000000109e+03
7.200000000000000844e-02 6.777444999999999720e-01 2.925515000000000043e+01 1.128635000000000019e+02 1.703315000000000055e+03
7.300000000000000933e-02 6.782209999999999628e-01 2.951725000000000065e+01 1.150589999999999975e+02 1.703960000000000036e+03
7.399999999999999634e-02 6.786495000000000166e-01 2.967954999999999899e+01 1.170434999999999945e+02 1.704555000000000064e+03
7.499999999999999722e-02 6.790214999999999446e-01 2.972970000000000113e+01 1.187789999999999964e+02 1.705075000000000045e+03
7.599999999999999811e-02 6.793335000000000345e-01 2.965905000000000058e+01 1.202379999999999995e+02 1.705534999999999854e+03
7.699999999999999900e-02 6.795815000000000605e-01 2.946355000000000146e+01 1.214025000000000034e+02 1.705914999999999964e+03
7.799999999999999989e-02 6.797655000000000225e-01 2.914329999999999998e+01 1.222669999999999959e+02 1.706215000000000146e+03
7.900000000000000078e-02 6.798874999999999780e-01 2.870309999999999917e+01 1.228359999999999985e+02 1.706434999999999945e+03
8.000000000000000167e-02 6.799520000000000008e-01 2.815174999999999983e+01 1.231260000000000048e+02 1.706570000000000164e+03
8.100000000000000255e-02 6.799634999999999430e-01 2.750175000000000125e+01 1.231610000000000014e+02 1.706639999999999873e+03
8.200000000000000344e-02 6.799304999999999932e-01 2.676845000000000141e+01 1.229724999999999966e+02 1.706639999999999873e+03
8.300000000000000433e-02 6.798600000000000199e-01 2.596979999999999933e+01 1.225990000000000038e+02 1.706585000000000036e+03
8.400000000000000522e-02 6.797615000000000185e-01 2.512494999999999834e+01 1.220810000000000031e+02 1.706485000000000127e+03
8.500000000000000611e-02 6.796429999999999971e-01 2.425365000000000038e+01 1.214610000000000127e+02 1.706355000000000018e+03
8.600000000000000699e-02 6.795145000000000213e-01 2.337545000000000073e+01 1.207814999999999941e+02 1.706190000000000055e+03
8.700000000000000788e-02 6.793825000000000003e-01 2.250849999999999795e+01 1.200819999999999936e+02 1.706019999999999982e+03
8.800000000000000877e-02 6.792559999999999709e-01 2.166899999999999693e+01 1.193984999999999985e+02 1.705839999999999918e+03
8.899999999999999578e-02 6.791390000000000482e-01 2.087040000000000006e+01 1.187599999999999909e+02 1.705670000000000073e+03
8.999999999999999667e-02 6.790370000000000017e-01 2.012279999999999802e+01 1.181899999999999977e+02 1.705509999999999991e+03
9.099999999999999756e-02 6.789515000000000411e-01 1.943280000000000030e+01 1.177055000000000007e+02 1.705369999999999891e+03
9.199999999999999845e-02 6.788849999999999607e-01 1.880325000000000202e+01 1.173125000000000000e+02 1.705244999999999891e+03
9.299999999999999933e-02 6.788359999999999950e-01 1.823320000000000007e+01 1.170125000000000028e+02 1.705150000000000091e+03
9.400000000000000022e-02 6.788024999999999753e-01 1.771855000000000047e+01 1.167985000000000042e+02 1.705074999999999818e+03
9.500000000000000111e-02 6.787824999999999553e-01 1.725204999999999700e+01 1.166574999999999989e+02 1.705014999999999873e+03
9.600000000000000200e-02 6.787704999999999433e-01 1.682414999999999949e+01 1.165720000000000027e+02 1.704974999999999909e+03
9.700000000000000289e-02 6.787630000000000052e-01 1.642364999999999853e+01 1.165210000000000008e+02 1.704944999999999936e+03
9.800000000000000377e-02 6.787540000000000795e-01 1.603804999999999836e+01 1.164800000000000040e+02 1.704924999999999955e+03
9.900000000000000466e-02 6.787395000000000511e-01 1.565484999999999971e+01 1.164250000000000114e+02 1.704894999999999982e+03
1.000000000000000056e-01 6.787134999999999696e-01 1.526170000000000115e+01 1.163319999999999936e+02 1.704869999999999891e+03
1.010000000000000064e-01 6.786730000000000818e-01 1.484755000000000003e+01 1.161800000000000068e+02 1.704820000000000164e+03
1.020000000000000073e-01 6.786145000000000094e-01 1.440300000000000047e+01 1.159519999999999982e+02 1.704759999999999991e+03
1.030000000000000082e-01 6.785354999999999581e-01 1.392089999999999961e+01 1.156340000000000003e+02 1.704675000000000182e+03
1.040000000000000091e-01 6.784339999999999815e-01 1.339695000000000036e+01 1.152185000000000059e+02 1.704570000000000164e+03
1.050000000000000100e-01 6.783124999999999849e-01 1.282968500000000134e+01 1.147030000000000030e+02 1.704434999999999945e+03
1.059999999999999970e-01 6.781705000000000094e-01 1.222063999999999950e+01 1.140919999999999987e+02 1.704280000000000200e+03
1.069999999999999979e-01 6.780114999999999892e-01 1.157436000000000043e+01 1.133960000000000008e+02 1.704099999999999909e+03
1.079999999999999988e-01 6.778390000000000803e-01 1.089821500000000043e+01 1.126295000000000073e+02 1.703900000000000091e+03
1.089999999999999997e-01 6.776584999999999415e-01 1.020174500000000073e+01 1.118130000000000024e+02 1.703679999999999836e+03
1.100000000000000006e-01 6.774744999999999795e-01 9.496375000000000455e+00 1.109705000000000013e+02 1.703454999999999927e+03
1.110000000000000014e-01 6.772930000000000339e-01 8.794724999999999682e+00 1.101264999999999930e+02 1.703230000000000018e+03
1.120000000000000023e-01 6.771194999999999853e-01 8.109875000000000611e+00 1.093094999999999999e+02 1.703005000000000109e+03
1.130000000000000032e-01 6.769594999999999363e-01 7.454749999999999766e+00 1.085450000000000017e+02 1.702789999999999964e+03
1.140000000000000041e-01 6.768179999999999197e-01 6.841419999999999391e+00 1.078559999999999945e+02 1.702595000000000027e+03
1.150000000000000050e-01 6.766995000000000093e-01 6.280389999999999695e+00 1.072639999999999958e+02 1.702420000000000073e+03
1.160000000000000059e-01 6.766064999999999996e-01 5.780205000000000481e+00 1.067860000000000014e+02 1.702275000000000091e+03
1.170000000000000068e-01 6.765410000000000590e-01 5.346980000000000288e+00 1.064325000000000045e+02 1.702154999999999973e+03
1.180000000000000077e-01 6.765039999999999942e-01 4.984205000000000219e+00 1.062100000000000080e+02 1.702074999999999818e+03
1.190000000000000085e-01 6.764944999999999986e-01 4.692655000000000243e+00 1.061189999999999998e+02 1.702029999999999973e+03
1.200000000000000094e-01 6.765114999999999323e-01 4.470485000000000042e+00 1.061525000000000034e+02 1.702014999999999873e+03
1.209999999999999964e-01 6.765520000000000422e-01 4.313435000000000130e+00 1.063019999999999925e+02 1.702034999999999854e+03
1.219999999999999973e-01 6.766125000000000611e-01 4.215189999999999770e+00 1.065515000000000043e+02 1.702079999999999927e+03
1.229999999999999982e-01 6.766885000000000261e-01 4.167749999999999844e+00 1.068834999999999980e+02 1.702150000000000091e+03
1.239999999999999991e-01 6.767765000000000031e-01 4.161929999999999907e+00 1.072785000000000082e+02 1.702240000000000009e+03
1.250000000000000000e-01 6.768714999999999593e-01 4.187839999999999563e+00 1.077150000000000034e+02 1.702339999999999918e+03
1.260000000000000009e-01 6.769690000000000429e-01 4.235319999999999752e+00 1.081719999999999970e+02 1.702460000000000036e+03
1.270000000000000018e-01 6.770654999999999868e-01 4.294389999999999930e+00 1.086285000000000025e+02 1.702575000000000045e+03
1.280000000000000027e-01 6.771560000000000912e-01 4.355640000000000178e+00 1.090665000000000049e+02 1.702690000000000055e+03
1.290000000000000036e-01 6.772385000000000765e-01 4.410549999999999748e+00 1.094694999999999965e+02 1.702795000000000073e+03
1.300000000000000044e-01 6.773090000000000499e-01 4.451735000000000220e+00 1.098240000000000123e+02 1.702894999999999982e+03
1.310000000000000053e-01 6.773675000000000113e-01 4.473129999999999384e+00 1.101194999999999879e+02 1.702980000000000018e+03
1.320000000000000062e-01 6.774109999999999854e-01 4.470140000000000668e+00 1.103479999999999990e+02 1.703049999999999955e+03
1.330000000000000071e-01 6.774400000000000421e-01 4.439645000000000508e+00 1.105064999999999884e+02 1.703105000000000018e+03
1.340000000000000080e-01 6.774534999999999307e-01 4.380050000000000665e+00 1.105939999999999941e+02 1.703134999999999991e+03
1.350000000000000089e-01 6.774530000000000829e-01 4.291159999999999641e+00 1.106115000000000066e+02 1.703150000000000091e+03
1.360000000000000098e-01 6.774394999999999722e-01 4.174139999999999517e+00 1.105639999999999930e+02 1.703150000000000091e+03
1.370000000000000107e-01 6.774139999999999606e-01 4.031299999999999883e+00 1.104569999999999936e+02 1.703134999999999991e+03
1.380000000000000115e-01 6.773784999999999945e-01 3.865949999999999775e+00 1.103000000000000114e+02 1.703099999999999909e+03
1.390000000000000124e-01 6.773355000000000903e-01 3.682150000000000034e+00 1.100999999999999943e+02 1.703055000000000064e+03
1.400000000000000133e-01 6.772860000000000547e-01 3.484490000000000087e+00 1.098685000000000116e+02 1.703000000000000000e+03
1.410000000000000142e-01 6.772335000000000438e-01 3.277834999999999610e+00 1.096140000000000043e+02 1.702940000000000055e+03
1.420000000000000151e-01 6.771785000000000165e-01 3.067034999999999734e+00 1.093470000000000084e+02 1.702869999999999891e+03
1.430000000000000160e-01 6.771234999999999893e-01 2.856739999999999835e+00 1.090755000000000052e+02 1.702805000000000064e+03
1.440000000000000169e-01 6.770700000000000607e-01 2.651120000000000143e+00 1.088064999999999998e+02 1.702730000000000018e+03
1.450000000000000178e-01 6.770184999999999675e-01 2.453714999999999868e+00 1.085464999999999947e+02 1.702659999999999854e+03
1.459999999999999909e-01 6.769700000000000717e-01 2.267285000000000217e+00 1.082990000000000066e+02 1.702590000000000146e+03
1.469999999999999918e-01 6.769255000000000688e-01 2.093739999999999934e+00 1.080664999999999907e+02 1.702525000000000091e+03
1.479999999999999927e-01 6.768834999999999713e-01 1.934104999999999963e+00 1.078499999999999943e+02 1.702465000000000146e+03
1.489999999999999936e-01 6.768445000000000711e-01 1.788575000000000248e+00 1.076469999999999914e+02 1.702410000000000082e+03
1.499999999999999944e-01 6.768069999999999364e-01 1.656571500000000086e+00 1.074555000000000007e+02 1.702349999999999909e+03
1.509999999999999953e-01 6.767710000000000115e-01 1.536917499999999936e+00 1.072719999999999914e+02 1.702300000000000182e+03
1.519999999999999962e-01 6.767350000000000865e-01 1.427967500000000056e+00 1.070910000000000082e+02 1.702244999999999891e+03
1.529999999999999971e-01 6.766974999999999518e-01 1.327811999999999992e+00 1.069080000000000013e+02 1.702194999999999936e+03
1.539999999999999980e-01 6.766575000000000228e-01 1.234432999999999891e+00 1.067175000000000011e+02 1.702134999999999991e+03
1.549999999999999989e-01 6.766155000000000364e-01 1.145882999999999985e+00 1.065159999999999911e+02 1.702075000000000045e+03
1.559999999999999998e-01 6.765689999999999760e-01 1.060429000000000066e+00 1.062984999999999900e+02 1.702014999999999873e+03
1.570000000000000007e-01 6.765174999999999939e-01 9.766669999999999519e-01 1.060635000000000048e+02 1.701950000000000045e+03
1.580000000000000016e-01 6.764624999999999666e-01 8.935949999999999172e-01 1.058094999999999999e+02 1.701880000000000109e+03
1.590000000000000024e-01 6.764025000000000176e-01 8.106631644999999775e-01 1.055354999999999990e+02 1.701804999999999836e+03
