# t [s], A [cm^2], U [cm/s], P [cPa], c [cm/s]
1.000000000000000021e-03 1.628129999999999855e-01 1.840740000000000154e-01 9.871395000000001119e+01 1.872465000000000146e+03
2.000000000000000042e-03 1.627879999999999883e-01 1.567562500000000192e+00 9.604054999999999609e+01 1.872219999999999800e+03
3.000000000000000062e-03 1.626869999999999983e-01 3.326362999999999737e+00 9.241559999999999775e+01 1.871315000000000055e+03
4.000000000000000083e-03 1.625334999999999974e-01 5.303346499999999963e+00 8.818004999999999427e+01 1.869965000000000146e+03
5.000000000000000104e-03 1.623534999999999839e-01 7.447000000000000064e+00 8.400524999999998954e+01 1.868394999999999982e+03
6.000000000000000125e-03 1.621680000000000066e-01 9.668350000000000222e+00 8.032339999999999236e+01 1.866795000000000073e+03
7.000000000000000146e-03 1.619880000000000209e-01 1.181996000000000002e+01 7.719859999999999900e+01 1.865264999999999873e+03
8.000000000000000167e-03 1.618185000000000040e-01 1.376237500000000047e+01 7.446119999999999095e+01 1.863840000000000146e+03
9.000000000000001055e-03 1.616604999999999848e-01 1.544552499999999995e+01 7.198825000000000784e+01 1.862530000000000200e+03
1.000000000000000194e-02 1.615185000000000093e-01 1.688909999999999911e+01 6.980209999999999582e+01 1.861375000000000000e+03
1.099999999999999936e-02 1.613950000000000107e-01 1.811885000000000190e+01 6.795170000000000243e+01 1.860375000000000000e+03
1.200000000000000025e-02 1.612899999999999889e-01 1.914949999999999974e+01 6.643739999999999668e+01 1.859539999999999964e+03
1.300000000000000114e-02 1.612024999999999986e-01 1.999295000000000044e+01 6.522764999999999702e+01 1.858849999999999909e+03
1.400000000000000203e-02 1.611314999999999831e-01 2.065659999999999741e+01 6.426980000000000359e+01 1.858295000000000073e+03
1.499999999999999944e-02 1.610734999999999806e-01 2.114349999999999952e+01 6.348834999999999695e+01 1.857845000000000027e+03
1.600000000000000033e-02 1.610254999999999881e-01 2.146999999999999886e+01 6.281990000000000407e+01 1.857485000000000127e+03
1.700000000000000122e-02 1.609864999999999768e-01 2.168690000000000140e+01 6.227760000000000673e+01 1.857199999999999818e+03
1.800000000000000211e-02 1.609585000000000043e-01 2.187964999999999804e+01 6.198230000000000217e+01 1.857000000000000000e+03
1.900000000000000300e-02 1.609474999999999933e-01 2.214185000000000159e+01 6.212009999999999366e+01 1.856925000000000182e+03
2.000000000000000042e-02 1.609574999999999756e-01 2.253770000000000095e+01 6.284739999999999327e+01 1.857019999999999982e+03
2.100000000000000130e-02 1.609909999999999952e-01 2.307585000000000264e+01 6.420029999999999859e+01 1.857295000000000073e+03
2.200000000000000219e-02 1.610460000000000225e-01 2.370629999999999882e+01 6.605644999999999811e+01 1.857744999999999891e+03
2.299999999999999961e-02 1.611159999999999815e-01 2.433879999999999910e+01 6.816079999999999472e+01 1.858315000000000055e+03
2.400000000000000050e-02 1.611925000000000163e-01 2.487330000000000041e+01 7.019894999999999641e+01 1.858940000000000055e+03
2.500000000000000139e-02 1.612645000000000051e-01 2.522905000000000086e+01 7.188450000000000273e+01 1.859539999999999964e+03
2.600000000000000228e-02 1.613244999999999818e-01 2.536484999999999701e+01 7.303010000000000446e+01 1.860045000000000073e+03
2.700000000000000316e-02 1.613680000000000114e-01 2.528435000000000343e+01 7.358299999999999841e+01 1.860420000000000073e+03
2.800000000000000058e-02 1.613930000000000087e-01 2.502880000000000038e+01 7.361820000000000164e+01 1.860650000000000091e+03
2.900000000000000147e-02 1.614034999999999775e-01 2.465930000000000177e+01 7.329789999999999850e+01 1.860755000000000109e+03
3.000000000000000236e-02 1.614034999999999775e-01 2.423704999999999998e+01 7.281270000000000664e+01 1.860764999999999873e+03
3.099999999999999978e-02 1.613974999999999993e-01 2.380684999999999718e+01 7.232474999999999454e+01 1.860730000000000018e+03
3.200000000000000067e-02 1.613904999999999923e-01 2.338799999999999812e+01 7.192914999999999281e+01 1.860670000000000073e+03
3.300000000000000155e-02 1.613824999999999843e-01 2.297440000000000282e+01 7.164074999999999704e+01 1.860615000000000009e+03
3.400000000000000244e-02 1.613759999999999917e-01 2.254204999999999970e+01 7.140614999999999668e+01 1.860559999999999945e+03
3.500000000000000333e-02 1.613674999999999971e-01 2.206094999999999828e+01 7.113425000000000864e+01 1.860494999999999891e+03
3.600000000000000422e-02 1.613554999999999851e-01 2.150755000000000194e+01 7.073359999999999559e+01 1.860400000000000091e+03
3.700000000000000511e-02 1.613375000000000226e-01 2.087514999999999787e+01 7.014730000000000132e+01 1.860259999999999991e+03
3.799999999999999906e-02 1.613129999999999842e-01 2.017909999999999826e+01 6.937669999999999959e+01 1.860065000000000055e+03
3.899999999999999994e-02 1.612824999999999953e-01 1.945649999999999835e+01 6.848779999999999291e+01 1.859825000000000045e+03
4.000000000000000083e-02 1.612500000000000044e-01 1.875959999999999894e+01 6.760035000000000593e+01 1.859565000000000055e+03
4.100000000000000172e-02 1.612195000000000156e-01 1.814545000000000030e+01 6.686199999999999477e+01 1.859319999999999936e+03
4.200000000000000261e-02 1.611954999999999916e-01 1.766429999999999723e+01 6.641540000000000532e+01 1.859119999999999891e+03
4.300000000000000350e-02 1.611825000000000063e-01 1.734944999999999737e+01 6.636625000000000796e+01 1.859009999999999991e+03
4.400000000000000439e-02 1.611839999999999939e-01 1.721085000000000065e+01 6.676019999999999754e+01 1.859005000000000109e+03
4.499999999999999833e-02 1.612004999999999966e-01 1.723380000000000223e+01 6.757314999999999827e+01 1.859125000000000000e+03
4.599999999999999922e-02 1.612310000000000132e-01 1.738190000000000168e+01 6.871585000000000321e+01 1.859360000000000127e+03
4.700000000000000011e-02 1.612715000000000121e-01 1.760369999999999990e+01 7.005039999999999623e+01 1.859680000000000064e+03
4.800000000000000100e-02 1.613184999999999758e-01 1.784084999999999965e+01 7.141329999999999245e+01 1.860054999999999836e+03
4.900000000000000189e-02 1.613660000000000094e-01 1.803620000000000090e+01 7.264054999999999040e+01 1.860440000000000055e+03
5.000000000000000278e-02 1.614089999999999969e-01 1.814075000000000060e+01 7.359000000000000341e+01 1.860784999999999854e+03
5.100000000000000366e-02 1.614415000000000155e-01 1.811805000000000021e+01 7.415704999999999814e+01 1.861059999999999945e+03
5.200000000000000455e-02 1.614619999999999944e-01 1.794624999999999915e+01 7.428215000000000146e+01 1.861224999999999909e+03
5.300000000000000544e-02 1.614665000000000128e-01 1.761769999999999925e+01 7.395130000000000337e+01 1.861269999999999982e+03
5.399999999999999939e-02 1.614550000000000152e-01 1.713670000000000115e+01 7.318930000000000291e+01 1.861184999999999945e+03
5.500000000000000028e-02 1.614280000000000159e-01 1.651655000000000229e+01 7.204935000000000400e+01 1.860980000000000018e+03
5.600000000000000117e-02 1.613860000000000017e-01 1.577599999999999980e+01 7.060124999999999318e+01 1.860650000000000091e+03
5.700000000000000205e-02 1.613335000000000186e-01 1.493655000000000044e+01 6.892029999999999745e+01 1.860220000000000027e+03
5.800000000000000294e-02 1.612699999999999967e-01 1.402030000000000065e+01 6.707935000000000514e+01 1.859714999999999918e+03
5.900000000000000383e-02 1.612000000000000099e-01 1.304865000000000030e+01 6.514385000000000048e+01 1.859150000000000091e+03
6.000000000000000472e-02 1.611245000000000038e-01 1.204281999999999897e+01 6.317060000000000031e+01 1.858539999999999964e+03
6.099999999999999867e-02 1.610464999999999813e-01 1.102346999999999966e+01 6.120904999999999774e+01 1.857909999999999854e+03
6.199999999999999956e-02 1.609674999999999856e-01 1.001186000000000043e+01 5.930380000000000251e+01 1.857269999999999982e+03
6.300000000000000044e-02 1.608904999999999919e-01 9.030540000000000234e+00 5.749840000000000373e+01 1.856640000000000100e+03
6.400000000000000133e-02 1.608160000000000145e-01 8.103455000000000297e+00 5.583760000000000190e+01 1.856029999999999973e+03
6.500000000000000222e-02 1.607470000000000010e-01 7.256045000000000300e+00 5.436894999999999811e+01 1.855470000000000027e+03
6.600000000000000311e-02 1.606849999999999945e-01 6.514499999999999957e+00 5.314269999999999783e+01 1.854960000000000036e+03
6.700000000000000400e-02 1.606325000000000114e-01 5.904914999999999914e+00 5.221009999999999707e+01 1.854525000000000091e+03
6.800000000000000488e-02 1.605920000000000125e-01 5.451895000000000380e+00 5.162080000000000268e+01 1.854184999999999945e+03
6.900000000000000577e-02 1.605644999999999989e-01 5.177144999999999442e+00 5.141960000000000264e+01 1.853949999999999818e+03
7.000000000000000666e-02 1.605524999999999869e-01 5.098150000000000404e+00 5.164235000000000042e+01 1.853839999999999918e+03
7.100000000000000755e-02 1.605574999999999919e-01 5.227045000000000385e+00 5.231364999999999554e+01 1.853865000000000009e+03
7.200000000000000844e-02 1.605800000000000005e-01 5.569884999999999309e+00 5.344429999999999836e+01 1.854034999999999854e+03
7.300000000000000933e-02 1.606210000000000138e-01 6.126274999999999693e+00 5.503020000000000067e+01 1.854349999999999909e+03
7.399999999999999634e-02 1.606810000000000183e-01 6.889504999999999768e+00 5.705259999999999820e+01 1.854809999999999945e+03
7.499999999999999722e-02 1.607574999999999976e-01 7.846965000000000856e+00 5.947925000000000040e+01 1.855420000000000073e+03
7.599999999999999811e-02 1.608509999999999940e-01 8.980879999999999086e+00 6.226645000000000607e+01 1.856164999999999964e+03
7.699999999999999900e-02 1.609595000000000053e-01 1.026957499999999968e+01 6.536185000000000400e+01 1.857029999999999973e+03
7.799999999999999989e-02 1.610810000000000020e-01 1.168816999999999950e+01 6.870740000000000691e+01 1.858009999999999991e+03
7.900000000000000078e-02 1.612135000000000096e-01 1.321029000000000053e+01 7.224264999999999759e+01 1.859079999999999927e+03
8.000000000000000167e-02 1.613549999999999984e-01 1.480889999999999951e+01 7.590784999999999627e+01 1.860224999999999909e+03
8.100000000000000255e-02 1.615030000000000077e-01 1.645775000000000077e+01 7.964674999999999727e+01 1.861430000000000064e+03
8.200000000000000344e-02 1.616549999999999931e-01 1.813204999999999956e+01 8.340900000000000603e+01 1.862670000000000073e+03
8.300000000000000433e-02 1.618094999999999950e-01 1.980975000000000108e+01 8.715215000000000600e+01 1.863934999999999945e+03
8.400000000000000522e-02 1.619645000000000112e-01 2.147184999999999988e+01 9.084270000000000778e+01 1.865210000000000036e+03
8.500000000000000611e-02 1.621194999999999997e-01 2.310300000000000153e+01 9.445709999999999695e+01 1.866480000000000018e+03
8.600000000000000699e-02 1.622715000000000130e-01 2.469154999999999944e+01 9.798114999999999952e+01 1.867740000000000009e+03
8.700000000000000788e-02 1.624220000000000108e-01 2.622939999999999827e+01 1.014095499999999959e+02 1.868985000000000127e+03
8.800000000000000877e-02 1.625695000000000057e-01 2.771175000000000210e+01 1.047446500000000071e+02 1.870204999999999927e+03
8.899999999999999578e-02 1.627139999999999975e-01 2.913674999999999926e+01 1.079939999999999998e+02 1.871404999999999973e+03
8.999999999999999667e-02 1.628554999999999864e-01 3.050455000000000183e+01 1.111705000000000041e+02 1.872585000000000036e+03
9.099999999999999756e-02 1.629944999999999866e-01 3.181684999999999874e+01 1.142870000000000061e+02 1.873744999999999891e+03
9.199999999999999845e-02 1.631314999999999849e-01 3.307604999999999507e+01 1.173565000000000111e+02 1.874889999999999873e+03
9.299999999999999933e-02 1.632665000000000088e-01 3.428475000000000250e+01 1.203909999999999911e+02 1.876025000000000091e+03
9.400000000000000022e-02 1.634005000000000041e-01 3.544535000000000480e+01 1.233990000000000009e+02 1.877144999999999982e+03
9.500000000000000111e-02 1.635329999999999839e-01 3.655944999999999823e+01 1.263849999999999909e+02 1.878255000000000109e+03
9.600000000000000200e-02 1.636644999999999905e-01 3.762754999999999939e+01 1.293485000000000014e+02 1.879360000000000127e+03
9.700000000000000289e-02 1.637955000000000105e-01 3.864900000000000091e+01 1.322864999999999895e+02 1.880460000000000036e+03
9.800000000000000377e-02 1.639245000000000008e-01 3.962210000000000321e+01 1.351899999999999977e+02 1.881545000000000073e+03
9.900000000000000466e-02 1.640524999999999900e-01 4.054399999999999693e+01 1.380465000000000089e+02 1.882619999999999891e+03
1.000000000000000056e-01 1.641779999999999906e-01 4.141065000000000396e+01 1.408414999999999964e+02 1.883680000000000064e+03
1.010000000000000064e-01 1.643014999999999892e-01 4.221755000000000280e+01 1.435584999999999809e+02 1.884719999999999800e+03
1.020000000000000073e-01 1.644209999999999838e-01 4.295919999999999561e+01 1.461789999999999736e+02 1.885730000000000018e+03
1.030000000000000082e-01 1.645369999999999888e-01 4.363009999999999877e+01 1.486850000000000023e+02 1.886710000000000036e+03
1.040000000000000091e-01 1.646479999999999888e-01 4.422429999999999950e+01 1.510575000000000045e+02 1.887654999999999973e+03
1.050000000000000100e-01 1.647534999999999972e-01 4.473624999999999829e+01 1.532789999999999964e+02 1.888545000000000073e+03
1.059999999999999970e-01 1.648529999999999995e-01 4.516039999999999566e+01 1.553329999999999984e+02 1.889394999999999982e+03
1.069999999999999979e-01 1.649459999999999815e-01 4.549200000000000443e+01 1.572055000000000007e+02 1.890184999999999945e+03
1.079999999999999988e-01 1.650309999999999833e-01 4.572690000000000055e+01 1.588834999999999980e+02 1.890909999999999854e+03
1.089999999999999997e-01 1.651084999999999914e-01 4.586214999999999975e+01 1.603575000000000159e+02 1.891574999999999818e+03
1.100000000000000006e-01 1.651770000000000183e-01 4.589574999999999960e+01 1.616214999999999975e+02 1.892164999999999964e+03
1.110000000000000014e-01 1.652374999999999816e-01 4.582715000000000316e+01 1.626715000000000089e+02 1.892684999999999945e+03
1.120000000000000023e-01 1.652890000000000192e-01 4.565724999999999767e+01 1.635079999999999814e+02 1.893130000000000109e+03
1.130000000000000032e-01 1.653310000000000057e-01 4.538864999999999839e+01 1.641345000000000027e+02 1.893500000000000000e+03
1.140000000000000041e-01 1.653649999999999842e-01 4.502544999999999931e+01 1.645585000000000093e+02 1.893799999999999955e+03
1.150000000000000050e-01 1.653904999999999959e-01 4.457330000000000325e+01 1.647914999999999850e+02 1.894019999999999982e+03
1.160000000000000059e-01 1.654074999999999851e-01 4.403940000000000055e+01 1.648474999999999966e+02 1.894175000000000182e+03
1.170000000000000068e-01 1.654174999999999951e-01 4.343205000000000382e+01 1.647444999999999879e+02 1.894269999999999982e+03
1.180000000000000077e-01 1.654200000000000115e-01 4.276064999999999827e+01 1.645000000000000000e+02 1.894299999999999955e+03
1.190000000000000085e-01 1.654165000000000219e-01 4.203549999999999898e+01 1.641359999999999957e+02 1.894279999999999973e+03
1.200000000000000094e-01 1.654074999999999851e-01 4.126695000000000135e+01 1.636739999999999782e+02 1.894215000000000146e+03
1.209999999999999964e-01 1.653939999999999855e-01 4.046569999999999823e+01 1.631345000000000027e+02 1.894105000000000018e+03
1.219999999999999973e-01 1.653769999999999962e-01 3.964195000000000135e+01 1.625380000000000109e+02 1.893965000000000146e+03
1.229999999999999982e-01 1.653570000000000040e-01 3.880559999999999832e+01 1.619039999999999964e+02 1.893800000000000182e+03
1.239999999999999991e-01 1.653344999999999954e-01 3.796545000000000414e+01 1.612479999999999905e+02 1.893615000000000009e+03
1.250000000000000000e-01 1.653104999999999991e-01 3.712940000000000396e+01 1.605854999999999961e+02 1.893414999999999964e+03
1.260000000000000009e-01 1.652859999999999885e-01 3.630405000000000371e+01 1.599269999999999925e+02 1.893210000000000036e+03
1.270000000000000018e-01 1.652604999999999769e-01 3.549460000000000548e+01 1.592810000000000059e+02 1.892994999999999891e+03
1.280000000000000027e-01 1.652354999999999796e-01 3.470494999999999663e+01 1.586524999999999750e+02 1.892779999999999973e+03
1.290000000000000036e-01 1.652104999999999824e-01 3.393739999999999668e+01 1.580430000000000064e+02 1.892565000000000055e+03
1.300000000000000044e-01 1.651854999999999851e-01 3.319294999999999618e+01 1.574524999999999864e+02 1.892355000000000018e+03
1.310000000000000053e-01 1.651604999999999879e-01 3.247119999999999607e+01 1.568779999999999859e+02 1.892144999999999982e+03
1.320000000000000062e-01 1.651365000000000194e-01 3.177060000000000173e+01 1.563125000000000000e+02 1.891940000000000055e+03
1.330000000000000071e-01 1.651124999999999954e-01 3.108859999999999957e+01 1.557495000000000118e+02 1.891730000000000018e+03
1.340000000000000080e-01 1.650884999999999991e-01 3.042170000000000130e+01 1.551795000000000186e+02 1.891525000000000091e+03
1.350000000000000089e-01 1.650635000000000019e-01 2.976579999999999870e+01 1.545925000000000011e+02 1.891315000000000055e+03
1.360000000000000098e-01 1.650380000000000180e-01 2.911650000000000205e+01 1.539789999999999850e+02 1.891099999999999909e+03
1.370000000000000107e-01 1.650115000000000054e-01 2.846900000000000119e+01 1.533280000000000030e+02 1.890875000000000000e+03
1.380000000000000115e-01 1.649829999999999908e-01 2.781879999999999953e+01 1.526304999999999836e+02 1.890630000000000109e+03
1.390000000000000124e-01 1.649530000000000163e-01 2.716150000000000020e+01 1.518770000000000095e+02 1.890375000000000000e+03
1.400000000000000133e-01 1.649204999999999977e-01 2.649329999999999785e+01 1.510610000000000070e+02 1.890105000000000018e+03
1.410000000000000142e-01 1.648859999999999770e-01 2.581094999999999828e+01 1.501769999999999925e+02 1.889809999999999945e+03
1.420000000000000151e-01 1.648485000000000089e-01 2.511220000000000141e+01 1.492214999999999918e+02 1.889490000000000009e+03
1.430000000000000160e-01 1.648074999999999957e-01 2.439574999999999960e+01 1.481945000000000050e+02 1.889150000000000091e+03
1.440000000000000169e-01 1.647644999999999804e-01 2.366129999999999711e+01 1.470960000000000036e+02 1.888785000000000082e+03
1.450000000000000178e-01 1.647180000000000033e-01 2.290964999999999918e+01 1.459314999999999998e+02 1.888394999999999982e+03
1.459999999999999909e-01 1.646694999999999964e-01 2.214280000000000115e+01 1.447069999999999936e+02 1.887985000000000127e+03
1.469999999999999918e-01 1.646179999999999866e-01 2.136375000000000313e+01 1.434309999999999832e+02 1.887554999999999836e+03
1.479999999999999927e-01 1.645645000000000024e-01 2.057659999999999911e+01 1.421150000000000091e+02 1.887105000000000018e+03
1.489999999999999936e-01 1.645094999999999752e-01 1.978629999999999711e+01 1.407715000000000032e+02 1.886644999999999982e+03
1.499999999999999944e-01 1.644525000000000015e-01 1.899849999999999994e+01 1.394139999999999873e+02 1.886175000000000182e+03
1.509999999999999953e-01 1.643955000000000000e-01 1.821940000000000026e+01 1.380579999999999927e+02 1.885695000000000164e+03
1.519999999999999962e-01 1.643384999999999985e-01 1.745544999999999902e+01 1.367194999999999823e+02 1.885215000000000146e+03
1.529999999999999971e-01 1.642819999999999836e-01 1.671324999999999861e+01 1.354130000000000109e+02 1.884740000000000009e+03
1.539999999999999980e-01 1.642259999999999831e-01 1.599924999999999997e+01 1.341530000000000200e+02 1.884269999999999982e+03
1.549999999999999989e-01 1.641724999999999990e-01 1.531940000000000168e+01 1.329534999999999911e+02 1.883815000000000055e+03
1.559999999999999998e-01 1.641205000000000025e-01 1.467930000000000135e+01 1.318255000000000052e+02 1.883380000000000109e+03
1.570000000000000007e-01 1.640715000000000090e-01 1.408355000000000068e+01 1.307794999999999845e+02 1.882965000000000146e+03
1.580000000000000016e-01 1.640260000000000051e-01 1.353604999999999947e+01 1.298230000000000075e+02 1.882579999999999927e+03
1.590000000000000024e-01 1.639835000000000043e-01 1.303955000000000020e+01 1.289615000000000009e+02 1.882215000000000146e+03
