# t [s], A [cm^2], U [cm/s], P [cPa], c [cm/s]
1.000000000000000021e-03 6.129120000000000124e-01 4.421250000000001568e-03 1.029689999999999941e+02 1.487224999999999909e+03
2.000000000000000042e-03 6.129020000000000579e-01 -1.650570000000000075e-03 1.029505000000000052e+02 1.487224999999999909e+03
3.000000000000000062e-03 6.129324999999999912e-01 4.478725000000000067e-02 1.029950000000000045e+02 1.487240000000000009e+03
4.000000000000000083e-03 6.129869999999999486e-01 1.336181000000000174e-01 1.031015000000000015e+02 1.487269999999999982e+03
5.000000000000000104e-03 6.129990000000000716e-01 1.632589499999999860e-01 1.031364999999999981e+02 1.487279999999999973e+03
6.000000000000000125e-03 6.129580000000000028e-01 1.092839999999999923e-01 1.030409999999999968e+02 1.487255000000000109e+03
7.000000000000000146e-03 6.129085000000000782e-01 3.736199999999997856e-02 1.028725000000000023e+02 1.487215000000000146e+03
8.000000000000000167e-03 6.128630000000000466e-01 -3.246899999999997011e-02 1.026670000000000016e+02 1.487164999999999964e+03
9.000000000000001055e-03 6.127899999999999459e-01 -1.564665000000000084e-01 1.023679999999999950e+02 1.487090000000000146e+03
1.000000000000000194e-02 6.126719999999999944e-01 -3.656900000000000706e-01 1.019254999999999995e+02 1.486980000000000018e+03
1.099999999999999936e-02 6.125065000000000648e-01 -6.639549999999999619e-01 1.013096500000000049e+02 1.486824999999999818e+03
1.200000000000000025e-02 6.122794999999999765e-01 -1.064319999999999933e+00 1.004792500000000075e+02 1.486610000000000127e+03
1.300000000000000114e-02 6.119814999999999561e-01 -1.573754999999999793e+00 9.939600000000000080e+01 1.486329999999999927e+03
1.400000000000000203e-02 6.116224999999999579e-01 -2.156774999999999665e+00 9.806889999999999930e+01 1.485974999999999909e+03
1.499999999999999944e-02 6.112410000000000343e-01 -2.730094999999999938e+00 9.657519999999999527e+01 1.485569999999999936e+03
1.600000000000000033e-02 6.108789999999999498e-01 -3.194049999999999834e+00 9.503360000000000696e+01 1.485134999999999991e+03
1.700000000000000122e-02 6.105690000000000284e-01 -3.471744499999999789e+00 9.355629999999999313e+01 1.484700000000000045e+03
1.800000000000000211e-02 6.103180000000000271e-01 -3.530955000000000066e+00 9.221295000000000641e+01 1.484279999999999973e+03
1.900000000000000300e-02 6.101110000000000699e-01 -3.384515600000000290e+00 9.101725000000000421e+01 1.483890000000000100e+03
2.000000000000000042e-02 6.099235000000000628e-01 -3.076487499999999820e+00 8.993495000000000061e+01 1.483519999999999982e+03
2.100000000000000130e-02 6.097265000000000601e-01 -2.663124999999999964e+00 8.890370000000000061e+01 1.483159999999999854e+03
2.200000000000000219e-02 6.094979999999999842e-01 -2.195084000000000035e+00 8.785644999999999527e+01 1.482795000000000073e+03
2.299999999999999961e-02 6.092290000000000205e-01 -1.704850000000000199e+00 8.674205000000000609e+01 1.482409999999999854e+03
2.400000000000000050e-02 6.089199999999999058e-01 -1.201945000000000263e+00 8.553855000000000075e+01 1.482005000000000109e+03
2.500000000000000139e-02 6.085840000000000138e-01 -6.763900000000002688e-01 8.425440000000000396e+01 1.481575000000000045e+03
2.600000000000000228e-02 6.082369999999999166e-01 -1.085850000000001536e-01 8.292054999999999154e+01 1.481125000000000000e+03
2.700000000000000316e-02 6.078934999999999755e-01 5.185900000000001064e-01 8.157585000000000264e+01 1.480674999999999955e+03
2.800000000000000058e-02 6.075599999999999890e-01 1.209494999999999987e+00 8.025130000000000052e+01 1.480224999999999909e+03
2.900000000000000147e-02 6.072359999999999980e-01 1.950329999999999897e+00 7.895905000000000484e+01 1.479784999999999854e+03
3.000000000000000236e-02 6.069119999999998960e-01 2.709050000000000402e+00 7.768725000000000591e+01 1.479344999999999800e+03
3.099999999999999978e-02 6.065715000000000412e-01 3.440109999999999779e+00 7.640155000000000030e+01 1.478904999999999973e+03
3.200000000000000067e-02 6.061974999999999447e-01 4.092274999999999885e+00 7.505289999999999395e+01 1.478444999999999936e+03
3.300000000000000155e-02 6.057734999999999648e-01 4.617985000000000007e+00 7.358830000000000382e+01 1.477965000000000146e+03
3.400000000000000244e-02 6.052910000000000235e-01 4.982085000000000541e+00 7.196379999999999200e+01 1.477444999999999936e+03
3.500000000000000333e-02 6.047484999999999111e-01 5.168420000000000236e+00 7.015555000000000518e+01 1.476880000000000109e+03
3.600000000000000422e-02 6.041549999999999976e-01 5.182545000000000179e+00 6.816745000000000232e+01 1.476269999999999982e+03
3.700000000000000511e-02 6.035269999999999246e-01 5.050085000000000157e+00 6.603284999999999627e+01 1.475625000000000000e+03
3.799999999999999906e-02 6.028875000000000206e-01 4.811230000000000118e+00 6.381025000000000347e+01 1.474944999999999936e+03
3.899999999999999994e-02 6.022605000000000874e-01 4.513555000000000206e+00 6.157529999999999859e+01 1.474264999999999873e+03
4.000000000000000083e-02 6.016699999999999271e-01 4.204600000000000115e+00 5.941049999999999898e+01 1.473599999999999909e+03
4.100000000000000172e-02 6.011349999999999749e-01 3.926219999999999821e+00 5.739549999999999841e+01 1.472974999999999909e+03
4.200000000000000261e-02 6.006704999999999961e-01 3.711170000000000080e+00 5.559959999999999525e+01 1.472394999999999982e+03
4.300000000000000350e-02 6.002859999999999863e-01 3.581855000000000011e+00 5.407680000000000575e+01 1.471889999999999873e+03
4.400000000000000439e-02 5.999864999999999782e-01 3.551484999999999559e+00 5.286449999999999960e+01 1.471474999999999909e+03
4.499999999999999833e-02 5.997740000000000293e-01 3.626090500000000105e+00 5.198395000000000010e+01 1.471150000000000091e+03
4.599999999999999922e-02 5.996464999999999712e-01 3.807250999999999941e+00 5.144334999999999525e+01 1.470924999999999955e+03
4.700000000000000011e-02 5.996029999999999971e-01 4.094800000000000217e+00 5.124099999999999966e+01 1.470799999999999955e+03
4.800000000000000100e-02 5.996394999999999920e-01 4.488820000000000476e+00 5.136939999999999884e+01 1.470775000000000091e+03
4.900000000000000189e-02 5.997565000000000257e-01 4.990779999999999994e+00 5.181844999999999857e+01 1.470849999999999909e+03
5.000000000000000278e-02 5.999499999999999833e-01 5.603545000000000442e+00 5.257719999999999771e+01 1.471019999999999982e+03
5.100000000000000366e-02 6.002199999999999758e-01 6.330504999999999605e+00 5.363469999999999516e+01 1.471284999999999854e+03
5.200000000000000455e-02 6.005639999999999867e-01 7.174179999999999779e+00 5.497930000000000206e+01 1.471639999999999873e+03
5.300000000000000544e-02 6.009790000000000409e-01 8.134550000000000836e+00 5.659769999999999612e+01 1.472079999999999927e+03
5.399999999999999939e-02 6.014604999999999535e-01 9.208080000000000709e+00 5.847325000000000017e+01 1.472605000000000018e+03
5.500000000000000028e-02 6.020024999999999959e-01 1.038659499999999980e+01 6.058500000000000085e+01 1.473204999999999927e+03
5.600000000000000117e-02 6.025970000000000493e-01 1.165749000000000102e+01 6.290709999999999980e+01 1.473875000000000000e+03
5.700000000000000205e-02 6.032355000000000356e-01 1.300423499999999954e+01 6.540885000000000105e+01 1.474599999999999909e+03
5.800000000000000294e-02 6.039080000000000004e-01 1.440742499999999993e+01 6.805580000000000496e+01 1.475380000000000109e+03
5.900000000000000383e-02 6.046039999999999193e-01 1.584605999999999959e+01 7.081125000000000114e+01 1.476204999999999927e+03
6.000000000000000472e-02 6.053144999999999776e-01 1.729899999999999949e+01 7.363805000000000689e+01 1.477059999999999945e+03
6.099999999999999867e-02 6.060294999999999987e-01 1.874634999999999962e+01 7.650060000000000571e+01 1.477930000000000064e+03
6.199999999999999956e-02 6.067420000000000035e-01 2.017054999999999865e+01 7.936664999999999281e+01 1.478809999999999945e+03
6.300000000000000044e-02 6.074459999999999305e-01 2.155689999999999884e+01 8.220865000000000578e+01 1.479700000000000045e+03
6.400000000000000133e-02 6.081369999999999276e-01 2.289410000000000167e+01 8.500495000000000800e+01 1.480575000000000045e+03
6.500000000000000222e-02 6.088124999999999787e-01 2.417415000000000092e+01 8.773984999999998990e+01 1.481444999999999936e+03
6.600000000000000311e-02 6.094709999999999850e-01 2.539229999999999876e+01 9.040380000000000393e+01 1.482300000000000182e+03
6.700000000000000400e-02 6.101130000000000164e-01 2.654634999999999678e+01 9.299309999999999832e+01 1.483134999999999991e+03
6.800000000000000488e-02 6.107389999999999208e-01 2.763620000000000232e+01 9.550804999999999723e+01 1.483949999999999818e+03
6.900000000000000577e-02 6.113509999999999778e-01 2.866345000000000098e+01 9.795289999999999964e+01 1.484750000000000000e+03
7.000000000000000666e-02 6.119505000000000638e-01 2.963064999999999927e+01 1.003354999999999961e+02 1.485530000000000200e+03
7.100000000000000755e-02 6.125400000000000844e-01 3.054100000000000037e+01 1.026631999999999891e+02 1.486295000000000073e+03
7.200000000000000844e-02 6.131210000000000271e-01 3.139764999999999873e+01 1.049455499999999972e+02 1.487045000000000073e+03
7.300000000000000933e-02 6.136960000000000193e-01 3.220345000000000368e+01 1.071905000000000001e+02 1.487784999999999854e+03
7.399999999999999634e-02 6.142655000000000198e-01 3.296085000000000065e+01 1.094050000000000011e+02 1.488519999999999982e+03
7.499999999999999722e-02 6.148305000000000575e-01 3.367130000000000223e+01 1.115930000000000035e+02 1.489240000000000009e+03
7.599999999999999811e-02 6.153904999999999514e-01 3.433520000000000039e+01 1.137564999999999884e+02 1.489954999999999927e+03
7.699999999999999900e-02 6.159455000000000346e-01 3.495194999999999652e+01 1.158950000000000102e+02 1.490659999999999854e+03
7.799999999999999989e-02 6.164924999999999988e-01 3.551980000000000359e+01 1.180039999999999907e+02 1.491360000000000127e+03
7.900000000000000078e-02 6.170305000000000373e-01 3.603620000000000090e+01 1.200764999999999958e+02 1.492049999999999955e+03
8.000000000000000167e-02 6.175559999999999938e-01 3.649770000000000181e+01 1.221034999999999968e+02 1.492724999999999909e+03
8.100000000000000255e-02 6.180664999999999631e-01 3.690049999999999386e+01 1.240745000000000005e+02 1.493380000000000109e+03
8.200000000000000344e-02 6.185579999999999412e-01 3.724044999999999561e+01 1.259759999999999991e+02 1.494019999999999982e+03
8.300000000000000433e-02 6.190284999999999815e-01 3.751359999999999673e+01 1.277955000000000041e+02 1.494630000000000109e+03
8.400000000000000522e-02 6.194735000000000102e-01 3.771644999999999470e+01 1.295204999999999984e+02 1.495214999999999918e+03
8.500000000000000611e-02 6.198900000000000521e-01 3.784590000000000032e+01 1.311394999999999982e+02 1.495775000000000091e+03
8.600000000000000699e-02 6.202769999999999673e-01 3.789974999999999739e+01 1.326415000000000077e+02 1.496289999999999964e+03
8.700000000000000788e-02 6.206315000000000026e-01 3.787664999999999793e+01 1.340169999999999959e+02 1.496775000000000091e+03
8.800000000000000877e-02 6.209519999999999484e-01 3.777615000000000123e+01 1.352610000000000241e+02 1.497215000000000146e+03
8.899999999999999578e-02 6.212385000000000268e-01 3.759895000000000209e+01 1.363675000000000068e+02 1.497614999999999782e+03
8.999999999999999667e-02 6.214899999999999869e-01 3.734660000000000224e+01 1.373344999999999914e+02 1.497974999999999909e+03
9.099999999999999756e-02 6.217060000000000919e-01 3.702169999999999561e+01 1.381624999999999943e+02 1.498279999999999973e+03
9.199999999999999845e-02 6.218884999999999552e-01 3.662789999999999679e+01 1.388524999999999920e+02 1.498555000000000064e+03
9.299999999999999933e-02 6.220384999999999387e-01 3.616955000000000098e+01 1.394099999999999966e+02 1.498775000000000091e+03
9.400000000000000022e-02 6.221565000000000012e-01 3.565205000000000268e+01 1.398414999999999964e+02 1.498954999999999927e+03
9.500000000000000111e-02 6.222455000000000069e-01 3.508144999999999669e+01 1.401535000000000082e+02 1.499105000000000018e+03
9.600000000000000200e-02 6.223084999999999312e-01 3.446444999999999936e+01 1.403564999999999827e+02 1.499210000000000036e+03
9.700000000000000289e-02 6.223469999999999835e-01 3.380835000000000434e+01 1.404615000000000009e+02 1.499279999999999973e+03
9.800000000000000377e-02 6.223644999999999872e-01 3.312080000000000268e+01 1.404789999999999850e+02 1.499325000000000045e+03
9.900000000000000466e-02 6.223644999999999872e-01 3.240970000000000084e+01 1.404225000000000136e+02 1.499340000000000146e+03
1.000000000000000056e-01 6.223490000000000411e-01 3.168290000000000006e+01 1.403044999999999902e+02 1.499329999999999927e+03
1.010000000000000064e-01 6.223225000000000007e-01 3.094794999999999874e+01 1.401365000000000123e+02 1.499304999999999836e+03
1.020000000000000073e-01 6.222870000000000346e-01 3.021200000000000330e+01 1.399320000000000164e+02 1.499259999999999991e+03
1.030000000000000082e-01 6.222449999999999370e-01 2.948150000000000048e+01 1.397009999999999934e+02 1.499204999999999927e+03
1.040000000000000091e-01 6.221989999999999466e-01 2.876214999999999833e+01 1.394535000000000196e+02 1.499144999999999982e+03
1.050000000000000100e-01 6.221510000000000096e-01 2.805830000000000268e+01 1.391979999999999791e+02 1.499070000000000164e+03
1.059999999999999970e-01 6.221020000000000438e-01 2.737335000000000207e+01 1.389404999999999859e+02 1.499000000000000000e+03
1.069999999999999979e-01 6.220529999999999671e-01 2.670935000000000059e+01 1.386859999999999786e+02 1.498920000000000073e+03
1.079999999999999988e-01 6.220045000000000712e-01 2.606714999999999804e+01 1.384370000000000118e+02 1.498845000000000027e+03
1.089999999999999997e-01 6.219565000000000232e-01 2.544635000000000247e+01 1.381940000000000168e+02 1.498764999999999873e+03
1.100000000000000006e-01 6.219075000000000575e-01 2.484554999999999936e+01 1.379544999999999959e+02 1.498690000000000055e+03
1.110000000000000014e-01 6.218574999999999520e-01 2.426239999999999952e+01 1.377169999999999845e+02 1.498610000000000127e+03
1.120000000000000023e-01 6.218044999999999822e-01 2.369379999999999953e+01 1.374764999999999873e+02 1.498530000000000200e+03
1.130000000000000032e-01 6.217475000000000085e-01 2.313604999999999734e+01 1.372280000000000086e+02 1.498450000000000045e+03
1.140000000000000041e-01 6.216844999999999732e-01 2.258525000000000205e+01 1.369644999999999868e+02 1.498359999999999900e+03
1.150000000000000050e-01 6.216150000000000286e-01 2.203744999999999976e+01 1.366814999999999998e+02 1.498269999999999982e+03
1.160000000000000059e-01 6.215370000000000061e-01 2.148850000000000193e+01 1.363720000000000141e+02 1.498170000000000073e+03
1.170000000000000068e-01 6.214494999999999880e-01 2.093479999999999919e+01 1.360305000000000177e+02 1.498059999999999945e+03
1.180000000000000077e-01 6.213509999999999867e-01 2.037320000000000064e+01 1.356529999999999916e+02 1.497945000000000164e+03
1.190000000000000085e-01 6.212415000000000020e-01 1.980085000000000051e+01 1.352355000000000018e+02 1.497815000000000055e+03
1.200000000000000094e-01 6.211200000000000054e-01 1.921594999999999942e+01 1.347754999999999939e+02 1.497670000000000073e+03
1.209999999999999964e-01 6.209875000000000256e-01 1.861720000000000041e+01 1.342719999999999914e+02 1.497514999999999873e+03
1.219999999999999973e-01 6.208430000000000337e-01 1.800430000000000064e+01 1.337255000000000109e+02 1.497345000000000027e+03
1.229999999999999982e-01 6.206880000000000175e-01 1.737774999999999892e+01 1.331374999999999886e+02 1.497159999999999854e+03
1.239999999999999991e-01 6.205239999999999645e-01 1.673900000000000077e+01 1.325124999999999886e+02 1.496970000000000027e+03
1.250000000000000000e-01 6.203520000000000145e-01 1.609025000000000105e+01 1.318539999999999850e+02 1.496769999999999982e+03
1.260000000000000009e-01 6.201735000000000442e-01 1.543455000000000155e+01 1.311694999999999993e+02 1.496554999999999836e+03
1.270000000000000018e-01 6.199915000000000287e-01 1.477565000000000062e+01 1.304660000000000082e+02 1.496335000000000036e+03
1.280000000000000027e-01 6.198075000000000667e-01 1.411785499999999871e+01 1.297514999999999930e+02 1.496110000000000127e+03
1.290000000000000036e-01 6.196239999999999526e-01 1.346593999999999980e+01 1.290355000000000132e+02 1.495884999999999991e+03
1.300000000000000044e-01 6.194429999999999659e-01 1.282488999999999990e+01 1.283265000000000100e+02 1.495659999999999854e+03
1.310000000000000053e-01 6.192684999999999995e-01 1.219988999999999990e+01 1.276350000000000051e+02 1.495440000000000055e+03
1.320000000000000062e-01 6.191010000000000124e-01 1.159610499999999966e+01 1.269689999999999941e+02 1.495224999999999909e+03
1.330000000000000071e-01 6.189439999999999387e-01 1.101836499999999930e+01 1.263385000000000105e+02 1.495019999999999982e+03
1.340000000000000080e-01 6.187990000000000990e-01 1.047122500000000045e+01 1.257509999999999906e+02 1.494825000000000045e+03
1.350000000000000089e-01 6.186670000000000780e-01 9.958690000000000708e+00 1.252145000000000010e+02 1.494640000000000100e+03
1.360000000000000098e-01 6.185499999999999332e-01 9.484159999999999258e+00 1.247330000000000041e+02 1.494474999999999909e+03
1.370000000000000107e-01 6.184495000000000964e-01 9.050105000000000288e+00 1.243125000000000000e+02 1.494329999999999927e+03
1.380000000000000115e-01 6.183650000000000535e-01 8.658405000000000129e+00 1.239549999999999983e+02 1.494204999999999927e+03
1.390000000000000124e-01 6.182965000000000266e-01 8.309860000000000468e+00 1.236630000000000109e+02 1.494095000000000027e+03
1.400000000000000133e-01 6.182449999999999335e-01 8.004664999999999253e+00 1.234350000000000023e+02 1.494005000000000109e+03
1.410000000000000142e-01 6.182090000000000085e-01 7.741894999999999527e+00 1.232700000000000102e+02 1.493930000000000064e+03
1.420000000000000151e-01 6.181870000000000420e-01 7.520030000000000214e+00 1.231639999999999873e+02 1.493880000000000109e+03
1.430000000000000160e-01 6.181784999999999641e-01 7.336814999999999642e+00 1.231144999999999925e+02 1.493849999999999909e+03
1.440000000000000169e-01 6.181825000000000792e-01 7.189405000000000712e+00 1.231144999999999925e+02 1.493825000000000045e+03
1.450000000000000178e-01 6.181965000000000376e-01 7.074510000000000076e+00 1.231580000000000013e+02 1.493825000000000045e+03
1.459999999999999909e-01 6.182190000000000740e-01 6.988530000000000797e+00 1.232394999999999925e+02 1.493829999999999927e+03
1.469999999999999918e-01 6.182484999999999786e-01 6.927654999999999674e+00 1.233515000000000015e+02 1.493855000000000018e+03
1.479999999999999927e-01 6.182830000000000270e-01 6.888040000000000163e+00 1.234865000000000066e+02 1.493884999999999991e+03
1.489999999999999936e-01 6.183210000000000095e-01 6.865870000000000140e+00 1.236389999999999958e+02 1.493920000000000073e+03
1.499999999999999944e-01 6.183615000000000084e-01 6.857514999999999361e+00 1.238025000000000091e+02 1.493960000000000036e+03
1.509999999999999953e-01 6.184024999999999661e-01 6.859560000000000102e+00 1.239710000000000036e+02 1.494009999999999991e+03
1.519999999999999962e-01 6.184430000000000760e-01 6.868909999999999627e+00 1.241400000000000006e+02 1.494055000000000064e+03
1.529999999999999971e-01 6.184825000000000461e-01 6.882814999999999905e+00 1.243050000000000068e+02 1.494099999999999909e+03
1.539999999999999980e-01 6.185194999999999999e-01 6.898894999999999555e+00 1.244635000000000105e+02 1.494144999999999982e+03
1.549999999999999989e-01 6.185545000000000071e-01 6.915169999999999817e+00 1.246115000000000066e+02 1.494190000000000055e+03
1.559999999999999998e-01 6.185864999999999281e-01 6.930035000000000167e+00 1.247489999999999952e+02 1.494235000000000127e+03
1.570000000000000007e-01 6.186154999999999848e-01 6.942285000000000039e+00 1.248735000000000070e+02 1.494269999999999982e+03
1.580000000000000016e-01 6.186415000000000664e-01 6.951039999999999885e+00 1.249860000000000042e+02 1.494309999999999945e+03
1.590000000000000024e-01 6.186650000000000205e-01 6.955774999999999153e+00 1.250854999999999961e+02 1.494339999999999918e+03
