# t [s], A [cm^2], U [cm/s], P [cPa], c [cm/s]
1.000000000000000021e-03 4.837139999999999773e-01 3.695299999999998586e-03 9.086129999999999995e+01 1.526884999999999991e+03
2.000000000000000042e-03 4.837065000000000392e-01 -2.437369999999999901e-03 9.084055000000000746e+01 1.526880000000000109e+03
3.000000000000000062e-03 4.837355000000000405e-01 5.962014999999998982e-02 9.089950000000000330e+01 1.526900000000000091e+03
4.000000000000000083e-03 4.837770000000000126e-01 1.524295999999999984e-01 9.101045000000000584e+01 1.526934999999999945e+03
5.000000000000000104e-03 4.837785000000000002e-01 1.681465000000000043e-01 9.102514999999999645e+01 1.526940000000000055e+03
6.000000000000000125e-03 4.837409999999999766e-01 1.003259999999999985e-01 9.090029999999998722e+01 1.526910000000000082e+03
7.000000000000000146e-03 4.837019999999999653e-01 2.382099999999998108e-02 9.070969999999999800e+01 1.526860000000000127e+03
8.000000000000000167e-03 4.836610000000000076e-01 -6.533149999999998681e-02 9.046354999999999791e+01 1.526795000000000073e+03
9.000000000000001055e-03 4.835895000000000055e-01 -2.281639999999999779e-01 9.009190000000000964e+01 1.526695000000000164e+03
1.000000000000000194e-02 4.834804999999999797e-01 -4.853399999999999936e-01 8.954845000000000255e+01 1.526545000000000073e+03
1.099999999999999936e-02 4.833285000000000498e-01 -8.432650000000000423e-01 8.879904999999999404e+01 1.526340000000000146e+03
1.200000000000000025e-02 4.831210000000000226e-01 -1.319610000000000172e+00 8.779444999999999766e+01 1.526065000000000055e+03
1.300000000000000114e-02 4.828550000000000342e-01 -1.908669999999999867e+00 8.650839999999999463e+01 1.525700000000000045e+03
1.400000000000000203e-02 4.825514999999999666e-01 -2.547800000000000065e+00 8.498765000000000214e+01 1.525264999999999873e+03
1.499999999999999944e-02 4.822480000000000100e-01 -3.131005000000000038e+00 8.335214999999999463e+01 1.524775000000000091e+03
1.600000000000000033e-02 4.819785000000000319e-01 -3.554687999999999626e+00 8.174670000000000414e+01 1.524279999999999973e+03
1.700000000000000122e-02 4.817620000000000235e-01 -3.756821999999999662e+00 8.028444999999999254e+01 1.523799999999999955e+03
1.800000000000000211e-02 4.815949999999999953e-01 -3.730193499999999940e+00 7.901544999999998709e+01 1.523365000000000009e+03
1.900000000000000300e-02 4.814589999999999703e-01 -3.512811499999999754e+00 7.792384999999998740e+01 1.522965000000000146e+03
2.000000000000000042e-02 4.813284999999999925e-01 -3.166709500000000066e+00 7.694665000000000532e+01 1.522585000000000036e+03
2.100000000000000130e-02 4.811824999999999575e-01 -2.754946999999999591e+00 7.600204999999999700e+01 1.522220000000000027e+03
2.200000000000000219e-02 4.810075000000000323e-01 -2.323361999999999927e+00 7.501775000000000659e+01 1.521845000000000027e+03
2.299999999999999961e-02 4.808004999999999640e-01 -1.891080000000000094e+00 7.395175000000000409e+01 1.521454999999999927e+03
2.400000000000000050e-02 4.805699999999999972e-01 -1.451534999999999798e+00 7.279945000000000732e+01 1.521035000000000082e+03
2.500000000000000139e-02 4.803290000000000060e-01 -9.824350000000001693e-01 7.158799999999999386e+01 1.520605000000000018e+03
2.600000000000000228e-02 4.800900000000000167e-01 -4.602200000000002955e-01 7.035925000000000296e+01 1.520159999999999854e+03
2.700000000000000316e-02 4.798609999999999820e-01 1.267249999999999766e-01 6.915109999999999957e+01 1.519720000000000027e+03
2.800000000000000058e-02 4.796420000000000128e-01 7.700099999999998612e-01 6.798175000000000523e+01 1.519284999999999854e+03
2.900000000000000147e-02 4.794255000000000599e-01 1.439889999999999892e+00 6.684189999999999543e+01 1.518860000000000127e+03
3.000000000000000236e-02 4.791995000000000005e-01 2.089939999999999909e+00 6.569514999999999816e+01 1.518434999999999945e+03
3.099999999999999978e-02 4.789480000000000404e-01 2.665915000000000035e+00 6.448635000000000161e+01 1.517990000000000009e+03
3.200000000000000067e-02 4.786575000000000135e-01 3.116645000000000110e+00 6.315449999999999875e+01 1.517519999999999982e+03
3.300000000000000155e-02 4.783195000000000086e-01 3.404640000000000555e+00 6.164835000000000065e+01 1.517010000000000218e+03
3.400000000000000244e-02 4.779324999999999823e-01 3.513944999999999652e+00 5.994044999999999845e+01 1.516440000000000055e+03
3.500000000000000333e-02 4.775044999999999984e-01 3.453539999999999388e+00 5.803659999999999997e+01 1.515815000000000055e+03
3.600000000000000422e-02 4.770510000000000028e-01 3.255125000000000046e+00 5.597794999999999987e+01 1.515154999999999973e+03
3.700000000000000511e-02 4.765899999999999581e-01 2.966985000000000205e+00 5.383610000000000184e+01 1.514460000000000036e+03
3.799999999999999906e-02 4.761450000000000404e-01 2.644854999999999734e+00 5.170250000000000057e+01 1.513769999999999982e+03
3.899999999999999994e-02 4.757350000000000190e-01 2.343700000000000561e+00 4.967600000000000193e+01 1.513099999999999909e+03
4.000000000000000083e-02 4.753780000000000228e-01 2.110834999999999795e+00 4.785120000000000573e+01 1.512480000000000018e+03
4.100000000000000172e-02 4.750864999999999672e-01 1.982429999999999692e+00 4.630925000000000580e+01 1.511940000000000055e+03
4.200000000000000261e-02 4.748679999999999568e-01 1.982540000000000191e+00 4.511265000000000214e+01 1.511500000000000000e+03
4.300000000000000350e-02 4.747274999999999689e-01 2.124455000000000204e+00 4.430344999999999800e+01 1.511164999999999964e+03
4.400000000000000439e-02 4.746660000000000323e-01 2.413421999999999734e+00 4.390449999999999875e+01 1.510960000000000036e+03
4.499999999999999833e-02 4.746814999999999785e-01 2.849915000000000198e+00 4.392320000000000135e+01 1.510884999999999991e+03
4.599999999999999922e-02 4.747735000000000150e-01 3.432574999999999932e+00 4.435589999999999833e+01 1.510944999999999936e+03
4.700000000000000011e-02 4.749394999999999589e-01 4.160260000000000069e+00 4.519219999999999970e+01 1.511134999999999991e+03
4.800000000000000100e-02 4.751775000000000304e-01 5.032869999999999955e+00 4.641830000000000211e+01 1.511454999999999927e+03
4.900000000000000189e-02 4.754860000000000197e-01 6.050964999999999705e+00 4.801890000000000214e+01 1.511900000000000091e+03
5.000000000000000278e-02 4.758614999999999928e-01 7.214440000000000630e+00 4.997729999999999961e+01 1.512465000000000146e+03
5.100000000000000366e-02 4.763030000000000319e-01 8.520855000000000956e+00 5.227469999999999573e+01 1.513150000000000091e+03
5.200000000000000455e-02 4.768040000000000056e-01 9.963824999999999932e+00 5.488849999999999341e+01 1.513940000000000055e+03
5.300000000000000544e-02 4.773600000000000065e-01 1.153215000000000146e+01 5.779095000000000226e+01 1.514829999999999927e+03
5.399999999999999939e-02 4.779640000000000000e-01 1.320933000000000135e+01 6.094865000000000066e+01 1.515815000000000055e+03
5.500000000000000028e-02 4.786064999999999348e-01 1.497421000000000113e+01 6.432224999999999682e+01 1.516880000000000109e+03
5.600000000000000117e-02 4.792794999999999694e-01 1.680219999999999914e+01 6.786785000000000423e+01 1.518005000000000109e+03
5.700000000000000205e-02 4.799729999999999830e-01 1.866678999999999888e+01 7.153855000000000075e+01 1.519190000000000055e+03
5.800000000000000294e-02 4.806774999999999798e-01 2.054125000000000156e+01 7.528694999999999027e+01 1.520409999999999854e+03
5.900000000000000383e-02 4.813849999999999518e-01 2.240010000000000190e+01 7.906719999999999970e+01 1.521650000000000091e+03
6.000000000000000472e-02 4.820869999999999878e-01 2.422064999999999912e+01 8.283785000000000309e+01 1.522904999999999973e+03
6.099999999999999867e-02 4.827789999999999582e-01 2.598375000000000057e+01 8.656319999999999482e+01 1.524159999999999854e+03
6.199999999999999956e-02 4.834559999999999969e-01 2.767445000000000022e+01 9.021424999999999272e+01 1.525400000000000091e+03
6.300000000000000044e-02 4.841149999999999620e-01 2.928164999999999907e+01 9.377030000000000598e+01 1.526619999999999891e+03
6.400000000000000133e-02 4.847544999999999771e-01 3.079840000000000089e+01 9.721795000000000186e+01 1.527815000000000055e+03
6.500000000000000222e-02 4.853739999999999721e-01 3.222090000000000032e+01 1.005506000000000029e+02 1.528980000000000018e+03
6.600000000000000311e-02 4.859749999999999903e-01 3.354829999999999757e+01 1.037685500000000047e+02 1.530110000000000127e+03
6.700000000000000400e-02 4.865579999999999905e-01 3.478199999999999648e+01 1.068759500000000031e+02 1.531210000000000036e+03
6.800000000000000488e-02 4.871240000000000014e-01 3.592464999999999975e+01 1.098805000000000121e+02 1.532279999999999973e+03
6.900000000000000577e-02 4.876765000000000128e-01 3.698015000000000185e+01 1.127925000000000040e+02 1.533320000000000164e+03
7.000000000000000666e-02 4.882159999999999833e-01 3.795265000000000555e+01 1.156229999999999905e+02 1.534335000000000036e+03
7.100000000000000755e-02 4.887454999999999994e-01 3.884640000000000271e+01 1.183820000000000050e+02 1.535324999999999818e+03
7.200000000000000844e-02 4.892644999999999911e-01 3.966490000000000293e+01 1.210775000000000006e+02 1.536299999999999955e+03
7.300000000000000933e-02 4.897749999999999604e-01 4.041110000000000468e+01 1.237164999999999964e+02 1.537250000000000000e+03
7.399999999999999634e-02 4.902765000000000040e-01 4.108674999999999500e+01 1.263019999999999925e+02 1.538184999999999945e+03
7.499999999999999722e-02 4.907690000000000108e-01 4.169259999999999877e+01 1.288334999999999866e+02 1.539099999999999909e+03
7.599999999999999811e-02 4.912500000000000200e-01 4.222820000000000107e+01 1.313064999999999998e+02 1.539990000000000009e+03
7.699999999999999900e-02 4.917194999999999760e-01 4.269200000000000017e+01 1.337144999999999868e+02 1.540865000000000009e+03
7.799999999999999989e-02 4.921734999999999860e-01 4.308194999999999908e+01 1.360480000000000018e+02 1.541710000000000036e+03
7.900000000000000078e-02 4.926109999999999656e-01 4.339529999999999887e+01 1.382939999999999827e+02 1.542529999999999973e+03
8.000000000000000167e-02 4.930284999999999807e-01 4.362914999999999566e+01 1.404410000000000025e+02 1.543319999999999936e+03
8.100000000000000255e-02 4.934245000000000436e-01 4.378099999999999881e+01 1.424745000000000061e+02 1.544074999999999818e+03
8.200000000000000344e-02 4.937955000000000538e-01 4.384855000000000302e+01 1.443815000000000168e+02 1.544784999999999854e+03
8.300000000000000433e-02 4.941395000000000648e-01 4.383034999999999570e+01 1.461504999999999939e+02 1.545450000000000045e+03
8.400000000000000522e-02 4.944554999999999922e-01 4.372575000000000500e+01 1.477715000000000032e+02 1.546065000000000055e+03
8.500000000000000611e-02 4.947415000000000007e-01 4.353499999999999659e+01 1.492359999999999900e+02 1.546630000000000109e+03
8.600000000000000699e-02 4.949974999999999792e-01 4.325950000000000273e+01 1.505389999999999873e+02 1.547139999999999873e+03
8.700000000000000788e-02 4.952219999999999955e-01 4.290160000000000196e+01 1.516779999999999973e+02 1.547595000000000027e+03
8.800000000000000877e-02 4.954159999999999675e-01 4.246475000000000222e+01 1.526525000000000034e+02 1.547990000000000009e+03
8.899999999999999578e-02 4.955800000000000205e-01 4.195340000000000202e+01 1.534650000000000034e+02 1.548335000000000036e+03
8.999999999999999667e-02 4.957150000000000167e-01 4.137295000000000300e+01 1.541220000000000141e+02 1.548625000000000000e+03
9.099999999999999756e-02 4.958219999999999850e-01 4.072979999999999734e+01 1.546295000000000073e+02 1.548855000000000018e+03
9.199999999999999845e-02 4.959035000000000526e-01 4.003105000000000047e+01 1.549984999999999786e+02 1.549039999999999964e+03
9.299999999999999933e-02 4.959614999999999996e-01 3.928459999999999752e+01 1.552394999999999925e+02 1.549174999999999955e+03
9.400000000000000022e-02 4.959985000000000088e-01 3.849894999999999357e+01 1.553665000000000020e+02 1.549269999999999982e+03
9.500000000000000111e-02 4.960170000000000412e-01 3.768294999999999817e+01 1.553935000000000173e+02 1.549325000000000045e+03
9.600000000000000200e-02 4.960200000000000164e-01 3.684559999999999746e+01 1.553354999999999961e+02 1.549345000000000027e+03
9.700000000000000289e-02 4.960105000000000208e-01 3.599589999999999890e+01 1.552079999999999984e+02 1.549335000000000036e+03
9.800000000000000377e-02 4.959914999999999741e-01 3.514249999999999829e+01 1.550264999999999986e+02 1.549304999999999836e+03
9.900000000000000466e-02 4.959645000000000303e-01 3.429344999999999999e+01 1.548064999999999998e+02 1.549259999999999991e+03
1.000000000000000056e-01 4.959335000000000271e-01 3.345584999999999809e+01 1.545604999999999905e+02 1.549195000000000164e+03
1.010000000000000064e-01 4.958994999999999931e-01 3.263575000000000159e+01 1.543004999999999995e+02 1.549119999999999891e+03
1.020000000000000073e-01 4.958645000000000413e-01 3.183789999999999765e+01 1.540374999999999943e+02 1.549039999999999964e+03
1.030000000000000082e-01 4.958294999999999786e-01 3.106540000000000035e+01 1.537779999999999916e+02 1.548960000000000036e+03
1.040000000000000091e-01 4.957949999999999857e-01 3.032005000000000194e+01 1.535269999999999868e+02 1.548875000000000000e+03
1.050000000000000100e-01 4.957620000000000360e-01 2.960174999999999912e+01 1.532869999999999777e+02 1.548795000000000073e+03
1.059999999999999970e-01 4.957289999999999752e-01 2.890939999999999799e+01 1.530585000000000093e+02 1.548710000000000036e+03
1.069999999999999979e-01 4.956964999999999844e-01 2.824024999999999963e+01 1.528379999999999939e+02 1.548634999999999991e+03
1.079999999999999988e-01 4.956630000000000202e-01 2.759060000000000201e+01 1.526209999999999809e+02 1.548554999999999836e+03
1.089999999999999997e-01 4.956270000000000397e-01 2.695579999999999643e+01 1.524010000000000105e+02 1.548474999999999909e+03
1.100000000000000006e-01 4.955874999999999586e-01 2.633084999999999809e+01 1.521709999999999923e+02 1.548389999999999873e+03
1.110000000000000014e-01 4.955424999999999969e-01 2.571025000000000205e+01 1.519225000000000136e+02 1.548299999999999955e+03
1.120000000000000023e-01 4.954905000000000004e-01 2.508854999999999791e+01 1.516474999999999795e+02 1.548204999999999927e+03
1.130000000000000032e-01 4.954309999999999548e-01 2.446059999999999945e+01 1.513369999999999891e+02 1.548094999999999800e+03
1.140000000000000041e-01 4.953619999999999690e-01 2.382169999999999987e+01 1.509844999999999970e+02 1.547980000000000018e+03
1.150000000000000050e-01 4.952825000000000144e-01 2.316774999999999807e+01 1.505835000000000150e+02 1.547844999999999800e+03
1.160000000000000059e-01 4.951925000000000354e-01 2.249569999999999936e+01 1.501304999999999836e+02 1.547690000000000055e+03
1.170000000000000068e-01 4.950909999999999478e-01 2.180330000000000013e+01 1.496209999999999809e+02 1.547519999999999982e+03
1.180000000000000077e-01 4.949784999999999879e-01 2.108954999999999913e+01 1.490554999999999950e+02 1.547340000000000146e+03
1.190000000000000085e-01 4.948555000000000037e-01 2.035439999999999827e+01 1.484335000000000093e+02 1.547134999999999991e+03
1.200000000000000094e-01 4.947230000000000238e-01 1.959914999999999807e+01 1.477590000000000146e+02 1.546914999999999964e+03
1.209999999999999964e-01 4.945809999999999929e-01 1.882600000000000051e+01 1.470374999999999943e+02 1.546674999999999955e+03
1.219999999999999973e-01 4.944324999999999970e-01 1.803824999999999790e+01 1.462744999999999891e+02 1.546420000000000073e+03
1.229999999999999982e-01 4.942785000000000095e-01 1.724014999999999986e+01 1.454789999999999850e+02 1.546154999999999973e+03
1.239999999999999991e-01 4.941204999999999625e-01 1.643655000000000044e+01 1.446595000000000084e+02 1.545884999999999991e+03
1.250000000000000000e-01 4.939609999999999834e-01 1.563299999999999912e+01 1.438265000000000100e+02 1.545605000000000018e+03
1.260000000000000009e-01 4.938019999999999632e-01 1.483529500000000034e+01 1.429909999999999854e+02 1.545325000000000045e+03
1.270000000000000018e-01 4.936454999999999593e-01 1.404944499999999863e+01 1.421639999999999873e+02 1.545045000000000073e+03
1.280000000000000027e-01 4.934939999999999882e-01 1.328146500000000074e+01 1.413555000000000064e+02 1.544764999999999873e+03
1.290000000000000036e-01 4.933480000000000087e-01 1.253701500000000024e+01 1.405754999999999768e+02 1.544490000000000009e+03
1.300000000000000044e-01 4.932104999999999961e-01 1.182129499999999922e+01 1.398335000000000150e+02 1.544230000000000018e+03
1.310000000000000053e-01 4.930824999999999791e-01 1.113902000000000037e+01 1.391370000000000005e+02 1.543985000000000127e+03
1.320000000000000062e-01 4.929640000000000133e-01 1.049390999999999963e+01 1.384925000000000068e+02 1.543755000000000109e+03
1.330000000000000071e-01 4.928575000000000039e-01 9.888944999999999652e+00 1.379039999999999964e+02 1.543539999999999964e+03
1.340000000000000080e-01 4.927614999999999634e-01 9.326229999999998910e+00 1.373734999999999786e+02 1.543340000000000146e+03
1.350000000000000089e-01 4.926774999999999904e-01 8.806715000000000515e+00 1.369039999999999964e+02 1.543164999999999964e+03
1.360000000000000098e-01 4.926040000000000418e-01 8.330574999999999619e+00 1.364929999999999950e+02 1.543000000000000000e+03
1.370000000000000107e-01 4.925410000000000066e-01 7.896955000000000169e+00 1.361390000000000100e+02 1.542865000000000009e+03
1.380000000000000115e-01 4.924880000000000368e-01 7.504229999999999734e+00 1.358369999999999891e+02 1.542740000000000009e+03
1.390000000000000124e-01 4.924430000000000196e-01 7.150059999999999860e+00 1.355819999999999936e+02 1.542634999999999991e+03
1.400000000000000133e-01 4.924054999999999405e-01 6.831565000000000332e+00 1.353695000000000164e+02 1.542539999999999964e+03
1.410000000000000142e-01 4.923735000000000195e-01 6.545424999999999827e+00 1.351904999999999859e+02 1.542460000000000036e+03
1.420000000000000151e-01 4.923454999999999915e-01 6.288075000000000081e+00 1.350389999999999873e+02 1.542394999999999982e+03
1.430000000000000160e-01 4.923214999999999675e-01 6.055815000000000836e+00 1.349080000000000155e+02 1.542329999999999927e+03
1.440000000000000169e-01 4.922990000000000421e-01 5.844969999999999999e+00 1.347900000000000205e+02 1.542275000000000091e+03
1.450000000000000178e-01 4.922779999999999934e-01 5.651984999999999815e+00 1.346789999999999736e+02 1.542224999999999909e+03
1.459999999999999909e-01 4.922560000000000269e-01 5.473535000000000039e+00 1.345699999999999932e+02 1.542179999999999836e+03
1.469999999999999918e-01 4.922334999999999905e-01 5.306589999999999918e+00 1.344569999999999936e+02 1.542130000000000109e+03
1.479999999999999927e-01 4.922084999999999932e-01 5.148464999999999847e+00 1.343365000000000009e+02 1.542085000000000036e+03
1.489999999999999936e-01 4.921820000000000084e-01 4.996855000000000047e+00 1.342055000000000007e+02 1.542029999999999973e+03
1.499999999999999944e-01 4.921530000000000071e-01 4.849840000000000373e+00 1.340609999999999786e+02 1.541980000000000018e+03
1.509999999999999953e-01 4.921205000000000163e-01 4.705894999999999939e+00 1.339029999999999916e+02 1.541924999999999955e+03
1.519999999999999962e-01 4.920860000000000234e-01 4.563874999999999460e+00 1.337300000000000182e+02 1.541860000000000127e+03
1.529999999999999971e-01 4.920484999999999998e-01 4.423009999999999664e+00 1.335420000000000016e+02 1.541795000000000073e+03
1.539999999999999980e-01 4.920084999999999598e-01 4.282845000000000013e+00 1.333400000000000034e+02 1.541724999999999909e+03
1.549999999999999989e-01 4.919664999999999733e-01 4.143254999999999910e+00 1.331259999999999764e+02 1.541650000000000091e+03
1.559999999999999998e-01 4.919224999999999848e-01 4.004385000000000083e+00 1.329010000000000105e+02 1.541570000000000164e+03
1.570000000000000007e-01 4.918770000000000087e-01 3.866615000000000357e+00 1.326664999999999850e+02 1.541494999999999891e+03
1.580000000000000016e-01 4.918304999999999483e-01 3.730534999999999712e+00 1.324265000000000043e+02 1.541409999999999854e+03
1.590000000000000024e-01 4.917834999999999845e-01 3.596870000000000012e+00 1.321820000000000164e+02 1.541329999999999927e+03
