# t [s], A [cm^2], U [cm/s], P [cPa], c [cm/s]
1.000000000000000021e-03 1.284865000000000035e-01 2.189955000000000096e-01 8.682165000000000532e+01 1.922365000000000009e+03
2.000000000000000042e-03 1.284659999999999969e-01 1.482876500000000153e+00 8.426259999999999195e+01 1.922085000000000036e+03
3.000000000000000062e-03 1.283940000000000081e-01 3.056512999999999813e+00 8.081645000000000323e+01 1.921139999999999873e+03
4.000000000000000083e-03 1.282864999999999978e-01 4.816879709999999370e+00 7.691320000000000334e+01 1.919764999999999873e+03
5.000000000000000104e-03 1.281635000000000135e-01 6.720589999999999620e+00 7.320435000000000514e+01 1.918200000000000045e+03
6.000000000000000125e-03 1.280390000000000139e-01 8.674789999999999779e+00 7.004804999999998927e+01 1.916639999999999873e+03
7.000000000000000146e-03 1.279204999999999925e-01 1.052894000000000041e+01 6.741205000000000780e+01 1.915159999999999854e+03
8.000000000000000167e-03 1.278079999999999772e-01 1.216399999999999970e+01 6.508395000000000152e+01 1.913789999999999964e+03
9.000000000000001055e-03 1.277049999999999852e-01 1.356151499999999999e+01 6.297769999999999868e+01 1.912549999999999955e+03
1.000000000000000194e-02 1.276130000000000042e-01 1.475254999999999939e+01 6.114794999999999447e+01 1.911460000000000036e+03
1.099999999999999936e-02 1.275344999999999951e-01 1.575794999999999924e+01 5.963249999999999318e+01 1.910530000000000200e+03
1.200000000000000025e-02 1.274679999999999980e-01 1.658725000000000094e+01 5.841170000000000329e+01 1.909755000000000109e+03
1.300000000000000114e-02 1.274135000000000129e-01 1.724749999999999872e+01 5.744024999999999892e+01 1.909125000000000000e+03
1.400000000000000203e-02 1.273684999999999956e-01 1.773949999999999960e+01 5.664880000000000138e+01 1.908619999999999891e+03
1.499999999999999944e-02 1.273309999999999997e-01 1.806690000000000040e+01 5.595605000000000473e+01 1.908200000000000045e+03
1.600000000000000033e-02 1.272989999999999955e-01 1.826285000000000025e+01 5.533455000000000013e+01 1.907855000000000018e+03
1.700000000000000122e-02 1.272735000000000116e-01 1.840429999999999922e+01 5.487729999999999819e+01 1.907585000000000036e+03
1.800000000000000211e-02 1.272584999999999966e-01 1.859430000000000049e+01 5.478744999999999976e+01 1.907424999999999955e+03
1.900000000000000300e-02 1.272584999999999966e-01 1.891945000000000121e+01 5.528079999999999927e+01 1.907445000000000164e+03
2.000000000000000042e-02 1.272770000000000012e-01 1.941110000000000113e+01 5.646320000000000050e+01 1.907664999999999964e+03
2.100000000000000130e-02 1.273139999999999827e-01 2.003095000000000070e+01 5.825534999999999997e+01 1.908099999999999909e+03
2.200000000000000219e-02 1.273650000000000060e-01 2.068594999999999828e+01 6.040064999999999884e+01 1.908695000000000164e+03
2.299999999999999961e-02 1.274220000000000075e-01 2.126144999999999996e+01 6.254290000000000305e+01 1.909384999999999991e+03
2.400000000000000050e-02 1.274780000000000080e-01 2.165794999999999959e+01 6.433429999999999893e+01 1.910059999999999945e+03
2.500000000000000139e-02 1.275244999999999851e-01 2.181824999999999903e+01 6.553159999999999741e+01 1.910630000000000109e+03
2.600000000000000228e-02 1.275570000000000037e-01 2.173785000000000167e+01 6.604949999999999477e+01 1.911039999999999964e+03
2.700000000000000316e-02 1.275745000000000073e-01 2.145799999999999841e+01 6.596094999999999686e+01 1.911279999999999973e+03
2.800000000000000058e-02 1.275795000000000123e-01 2.104630000000000223e+01 6.545120000000000005e+01 1.911349999999999909e+03
2.900000000000000147e-02 1.275739999999999930e-01 2.057329999999999970e+01 6.474649999999999750e+01 1.911309999999999945e+03
3.000000000000000236e-02 1.275650000000000117e-01 2.009199999999999875e+01 6.404310000000000969e+01 1.911204999999999927e+03
3.099999999999999978e-02 1.275534999999999863e-01 1.962644999999999840e+01 6.345785000000000764e+01 1.911079999999999927e+03
3.200000000000000067e-02 1.275429999999999897e-01 1.917154999999999987e+01 6.301089999999999236e+01 1.910954999999999927e+03
3.300000000000000155e-02 1.275330000000000075e-01 1.870134999999999792e+01 6.264079999999999870e+01 1.910839999999999918e+03
3.400000000000000244e-02 1.275224999999999831e-01 1.818309999999999960e+01 6.224134999999999707e+01 1.910715000000000146e+03
3.500000000000000333e-02 1.275090000000000112e-01 1.759165000000000134e+01 6.170774999999999721e+01 1.910559999999999945e+03
3.600000000000000422e-02 1.274909999999999932e-01 1.692125000000000057e+01 6.097825000000000273e+01 1.910355000000000018e+03
3.700000000000000511e-02 1.274679999999999980e-01 1.619134999999999991e+01 6.006105000000000160e+01 1.910090000000000146e+03
3.799999999999999906e-02 1.274414999999999853e-01 1.544490000000000052e+01 5.903955000000000553e+01 1.909779999999999973e+03
3.899999999999999994e-02 1.274129999999999985e-01 1.474044999999999916e+01 5.805584999999999951e+01 1.909450000000000045e+03
4.000000000000000083e-02 1.273874999999999869e-01 1.413929999999999865e+01 5.727779999999999916e+01 1.909144999999999982e+03
4.100000000000000172e-02 1.273684999999999956e-01 1.369259999999999877e+01 5.685855000000000103e+01 1.908910000000000082e+03
4.200000000000000261e-02 1.273590000000000000e-01 1.343005000000000138e+01 5.689999999999999858e+01 1.908789999999999964e+03
4.300000000000000350e-02 1.273615000000000164e-01 1.335409999999999897e+01 5.742900000000000205e+01 1.908804999999999836e+03
4.400000000000000439e-02 1.273765000000000036e-01 1.343999999999999950e+01 5.839135000000000275e+01 1.908965000000000146e+03
4.499999999999999833e-02 1.274020000000000152e-01 1.364075000000000060e+01 5.966205000000000069e+01 1.909250000000000000e+03
4.599999999999999922e-02 1.274345000000000061e-01 1.389564999999999984e+01 6.106919999999999504e+01 1.909630000000000109e+03
4.700000000000000011e-02 1.274704999999999866e-01 1.414005000000000045e+01 6.242340000000000089e+01 1.910049999999999955e+03
4.800000000000000100e-02 1.275054999999999938e-01 1.431425000000000125e+01 6.354715000000000202e+01 1.910460000000000036e+03
4.900000000000000189e-02 1.275339999999999807e-01 1.437049999999999983e+01 6.429845000000000255e+01 1.910800000000000182e+03
5.000000000000000278e-02 1.275534999999999863e-01 1.427684999999999960e+01 6.458549999999999613e+01 1.911034999999999854e+03
5.100000000000000366e-02 1.275610000000000077e-01 1.401800000000000068e+01 6.437080000000000268e+01 1.911130000000000109e+03
5.200000000000000455e-02 1.275554999999999883e-01 1.359370000000000012e+01 6.366684999999999661e+01 1.911075000000000045e+03
5.300000000000000544e-02 1.275370000000000115e-01 1.301585000000000036e+01 6.252559999999999718e+01 1.910869999999999891e+03
5.399999999999999939e-02 1.275064999999999948e-01 1.230420000000000158e+01 6.102389999999999759e+01 1.910519999999999982e+03
5.500000000000000028e-02 1.274659999999999960e-01 1.148330499999999965e+01 5.925039999999999907e+01 1.910039999999999964e+03
5.600000000000000117e-02 1.274170000000000025e-01 1.057948500000000003e+01 5.729460000000000264e+01 1.909465000000000146e+03
5.700000000000000205e-02 1.273614999999999886e-01 9.619424999999999670e+00 5.523959999999999582e+01 1.908815000000000055e+03
5.800000000000000294e-02 1.273024999999999851e-01 8.629570000000001073e+00 5.315975000000000250e+01 1.908119999999999891e+03
5.900000000000000383e-02 1.272409999999999930e-01 7.636490000000000222e+00 5.112115000000000009e+01 1.907400000000000091e+03
6.000000000000000472e-02 1.271805000000000019e-01 6.667339999999999378e+00 4.918439999999999657e+01 1.906674999999999955e+03
6.099999999999999867e-02 1.271214999999999984e-01 5.750555000000000305e+00 4.740805000000000291e+01 1.905974999999999909e+03
6.199999999999999956e-02 1.270670000000000133e-01 4.915985000000000049e+00 4.585124999999999318e+01 1.905324999999999818e+03
6.300000000000000044e-02 1.270185000000000064e-01 4.194659999999999833e+00 4.457524999999999693e+01 1.904744999999999891e+03
6.400000000000000133e-02 1.269774999999999932e-01 3.617964999999999876e+00 4.364274999999999949e+01 1.904250000000000000e+03
6.500000000000000222e-02 1.269465000000000177e-01 3.216355000000000075e+00 4.311580000000000013e+01 1.903875000000000000e+03
6.600000000000000311e-02 1.269279999999999853e-01 3.017710000000000115e+00 4.305214999999999748e+01 1.903644999999999982e+03
6.700000000000000400e-02 1.269224999999999937e-01 3.045709999999999695e+00 4.350135000000000218e+01 1.903565000000000055e+03
6.800000000000000488e-02 1.269319999999999893e-01 3.318284999999999929e+00 4.450055000000000405e+01 1.903659999999999854e+03
6.900000000000000577e-02 1.269585000000000019e-01 3.846394999999999786e+00 4.607120000000000459e+01 1.903954999999999927e+03
7.000000000000000666e-02 1.270020000000000038e-01 4.633300000000000196e+00 4.821675000000000466e+01 1.904444999999999936e+03
7.100000000000000755e-02 1.270624999999999949e-01 5.674305000000000376e+00 5.092210000000000036e+01 1.905139999999999873e+03
7.200000000000000844e-02 1.271400000000000030e-01 6.957065000000000055e+00 5.415404999999999802e+01 1.906039999999999964e+03
7.300000000000000933e-02 1.272329999999999850e-01 8.462265000000000370e+00 5.786334999999999695e+01 1.907130000000000109e+03
7.399999999999999634e-02 1.273414999999999964e-01 1.016466999999999921e+01 6.198780000000000001e+01 1.908400000000000091e+03
7.499999999999999722e-02 1.274629999999999930e-01 1.203454499999999960e+01 6.645570000000000732e+01 1.909829999999999927e+03
7.599999999999999811e-02 1.275959999999999872e-01 1.403907500000000041e+01 7.118979999999999109e+01 1.911400000000000091e+03
7.699999999999999900e-02 1.277375000000000038e-01 1.614389999999999858e+01 7.611169999999999902e+01 1.913085000000000036e+03
7.799999999999999989e-02 1.278865000000000141e-01 1.831465000000000032e+01 8.114535000000000764e+01 1.914855000000000018e+03
7.900000000000000078e-02 1.280399999999999872e-01 2.051829999999999998e+01 8.622075000000000955e+01 1.916684999999999945e+03
8.000000000000000167e-02 1.281954999999999900e-01 2.272440000000000282e+01 9.127679999999999438e+01 1.918554999999999836e+03
8.100000000000000255e-02 1.283525000000000083e-01 2.490630000000000166e+01 9.626304999999999268e+01 1.920440000000000055e+03
8.200000000000000344e-02 1.285080000000000111e-01 2.704135000000000133e+01 1.011408999999999878e+02 1.922329999999999927e+03
8.300000000000000433e-02 1.286625000000000130e-01 2.911169999999999902e+01 1.058855000000000075e+02 1.924194999999999936e+03
8.400000000000000522e-02 1.288130000000000108e-01 3.110419999999999874e+01 1.104819999999999993e+02 1.926034999999999854e+03
8.500000000000000611e-02 1.289615000000000067e-01 3.301000000000000512e+01 1.149275000000000091e+02 1.927835000000000036e+03
8.600000000000000699e-02 1.291049999999999975e-01 3.482415000000000305e+01 1.192259999999999991e+02 1.929590000000000146e+03
8.700000000000000788e-02 1.292449999999999988e-01 3.654484999999999673e+01 1.233894999999999982e+02 1.931315000000000055e+03
8.800000000000000877e-02 1.293819999999999970e-01 3.817279999999999518e+01 1.274314999999999998e+02 1.932990000000000009e+03
8.899999999999999578e-02 1.295155000000000056e-01 3.971004999999999541e+01 1.313669999999999902e+02 1.934635000000000218e+03
8.999999999999999667e-02 1.296454999999999969e-01 4.115949999999999420e+01 1.352105000000000246e+02 1.936240000000000009e+03
9.099999999999999756e-02 1.297725000000000128e-01 4.252414999999999878e+01 1.389724999999999966e+02 1.937815000000000055e+03
9.199999999999999845e-02 1.298970000000000125e-01 4.380660000000000309e+01 1.426594999999999800e+02 1.939365000000000009e+03
9.299999999999999933e-02 1.300195000000000101e-01 4.500854999999999961e+01 1.462735000000000127e+02 1.940880000000000109e+03
9.400000000000000022e-02 1.301394999999999913e-01 4.613074999999999903e+01 1.498115000000000236e+02 1.942369999999999891e+03
9.500000000000000111e-02 1.302570000000000117e-01 4.717275000000000063e+01 1.532659999999999911e+02 1.943835000000000036e+03
9.600000000000000200e-02 1.303715000000000013e-01 4.813315000000000055e+01 1.566264999999999930e+02 1.945259999999999991e+03
9.700000000000000289e-02 1.304829999999999879e-01 4.900945000000000107e+01 1.598779999999999859e+02 1.946655000000000200e+03
9.800000000000000377e-02 1.305909999999999849e-01 4.979834999999999923e+01 1.630029999999999859e+02 1.948000000000000000e+03
9.900000000000000466e-02 1.306950000000000056e-01 5.049600000000000222e+01 1.659845000000000255e+02 1.949304999999999836e+03
1.000000000000000056e-01 1.307944999999999802e-01 5.109815000000000396e+01 1.688034999999999854e+02 1.950554999999999836e+03
1.010000000000000064e-01 1.308890000000000053e-01 5.160049999999999670e+01 1.714420000000000073e+02 1.951744999999999891e+03
1.020000000000000073e-01 1.309779999999999833e-01 5.199880000000000280e+01 1.738830000000000098e+02 1.952865000000000009e+03
1.030000000000000082e-01 1.310610000000000108e-01 5.228920000000000101e+01 1.761100000000000136e+02 1.953909999999999854e+03
1.040000000000000091e-01 1.311370000000000036e-01 5.246850000000000591e+01 1.781105000000000018e+02 1.954875000000000000e+03
1.050000000000000100e-01 1.312059999999999893e-01 5.253430000000000177e+01 1.798729999999999905e+02 1.955750000000000000e+03
1.059999999999999970e-01 1.312679999999999958e-01 5.248525000000000063e+01 1.813905000000000030e+02 1.956539999999999964e+03
1.069999999999999979e-01 1.313225000000000087e-01 5.232134999999999536e+01 1.826589999999999918e+02 1.957230000000000018e+03
1.079999999999999988e-01 1.313695000000000002e-01 5.204420000000000357e+01 1.836764999999999759e+02 1.957824999999999818e+03
1.089999999999999997e-01 1.314079999999999970e-01 5.165684999999999860e+01 1.844490000000000123e+02 1.958329999999999927e+03
1.100000000000000006e-01 1.314390000000000003e-01 5.116424999999999557e+01 1.849834999999999923e+02 1.958734999999999900e+03
1.110000000000000014e-01 1.314629999999999965e-01 5.057280000000000086e+01 1.852920000000000016e+02 1.959045000000000073e+03
1.120000000000000023e-01 1.314794999999999991e-01 4.989090000000000202e+01 1.853915000000000077e+02 1.959264999999999873e+03
1.130000000000000032e-01 1.314895000000000092e-01 4.912805000000000177e+01 1.853015000000000043e+02 1.959400000000000091e+03
1.140000000000000041e-01 1.314929999999999988e-01 4.829520000000000124e+01 1.850444999999999993e+02 1.959454999999999927e+03
1.150000000000000050e-01 1.314914999999999834e-01 4.740404999999999802e+01 1.846444999999999936e+02 1.959449999999999818e+03
1.160000000000000059e-01 1.314850000000000185e-01 4.646699999999999875e+01 1.841274999999999977e+02 1.959375000000000000e+03
1.170000000000000068e-01 1.314740000000000075e-01 4.549639999999999418e+01 1.835204999999999984e+02 1.959250000000000000e+03
1.180000000000000077e-01 1.314604999999999801e-01 4.450435000000000230e+01 1.828464999999999918e+02 1.959079999999999927e+03
1.190000000000000085e-01 1.314434999999999909e-01 4.350249999999999773e+01 1.821299999999999955e+02 1.958880000000000109e+03
1.200000000000000094e-01 1.314250000000000140e-01 4.250119999999999720e+01 1.813915000000000077e+02 1.958650000000000091e+03
1.209999999999999964e-01 1.314055000000000084e-01 4.150969999999999516e+01 1.806479999999999961e+02 1.958405000000000200e+03
1.219999999999999973e-01 1.313850000000000018e-01 4.053565000000000396e+01 1.799139999999999873e+02 1.958150000000000091e+03
1.229999999999999982e-01 1.313644999999999952e-01 3.958499999999999375e+01 1.791990000000000123e+02 1.957889999999999873e+03
1.239999999999999991e-01 1.313435000000000019e-01 3.866190000000000282e+01 1.785085000000000264e+02 1.957630000000000109e+03
1.250000000000000000e-01 1.313229999999999953e-01 3.776874999999999716e+01 1.778455000000000155e+02 1.957369999999999891e+03
1.260000000000000009e-01 1.313025000000000164e-01 3.690614999999999668e+01 1.772069999999999936e+02 1.957115000000000009e+03
1.270000000000000018e-01 1.312834999999999974e-01 3.607290000000000418e+01 1.765879999999999939e+02 1.956860000000000127e+03
1.280000000000000027e-01 1.312635000000000052e-01 3.526654999999999518e+01 1.759805000000000064e+02 1.956619999999999891e+03
1.290000000000000036e-01 1.312444999999999862e-01 3.448319999999999652e+01 1.753734999999999786e+02 1.956369999999999891e+03
1.300000000000000044e-01 1.312250000000000083e-01 3.371805000000000518e+01 1.747545000000000073e+02 1.956125000000000000e+03
1.310000000000000053e-01 1.312050000000000161e-01 3.296555000000000035e+01 1.741105000000000018e+02 1.955869999999999891e+03
1.320000000000000062e-01 1.311839999999999951e-01 3.221975000000000477e+01 1.734279999999999973e+02 1.955605000000000018e+03
1.330000000000000071e-01 1.311620000000000008e-01 3.147460000000000235e+01 1.726935000000000002e+02 1.955329999999999927e+03
1.340000000000000080e-01 1.311380000000000046e-01 3.072429999999999950e+01 1.718944999999999936e+02 1.955030000000000200e+03
1.350000000000000089e-01 1.311124999999999929e-01 2.996345000000000169e+01 1.710210000000000150e+02 1.954710000000000036e+03
1.360000000000000098e-01 1.310850000000000071e-01 2.918754999999999811e+01 1.700640000000000214e+02 1.954360000000000127e+03
1.370000000000000107e-01 1.310550000000000048e-01 2.839294999999999902e+01 1.690180000000000007e+02 1.953985000000000127e+03
1.380000000000000115e-01 1.310219999999999996e-01 2.757715000000000316e+01 1.678795000000000073e+02 1.953575000000000045e+03
1.390000000000000124e-01 1.309859999999999913e-01 2.673890000000000100e+01 1.666490000000000009e+02 1.953130000000000109e+03
1.400000000000000133e-01 1.309480000000000088e-01 2.587845000000000084e+01 1.653299999999999841e+02 1.952654999999999973e+03
1.410000000000000142e-01 1.309069999999999956e-01 2.499730000000000274e+01 1.639279999999999973e+02 1.952144999999999982e+03
1.420000000000000151e-01 1.308635000000000215e-01 2.409815000000000040e+01 1.624529999999999745e+02 1.951605000000000018e+03
1.430000000000000160e-01 1.308175000000000032e-01 2.318524999999999991e+01 1.609170000000000016e+02 1.951035000000000082e+03
1.440000000000000169e-01 1.307699999999999974e-01 2.226350000000000051e+01 1.593335000000000150e+02 1.950444999999999936e+03
1.450000000000000178e-01 1.307210000000000039e-01 2.133899999999999864e+01 1.577180000000000177e+02 1.949829999999999927e+03
1.459999999999999909e-01 1.306704999999999950e-01 2.041839999999999833e+01 1.560879999999999939e+02 1.949210000000000036e+03
1.469999999999999918e-01 1.306194999999999995e-01 1.950864999999999938e+01 1.544594999999999914e+02 1.948575000000000045e+03
1.479999999999999927e-01 1.305685000000000040e-01 1.861690000000000111e+01 1.528509999999999991e+02 1.947944999999999936e+03
1.489999999999999936e-01 1.305179999999999951e-01 1.775009999999999977e+01 1.512779999999999916e+02 1.947315000000000055e+03
1.499999999999999944e-01 1.304680000000000006e-01 1.691490000000000293e+01 1.497554999999999836e+02 1.946695000000000164e+03
1.509999999999999953e-01 1.304194999999999938e-01 1.611700000000000088e+01 1.482959999999999923e+02 1.946085000000000036e+03
1.519999999999999962e-01 1.303725000000000023e-01 1.536169999999999902e+01 1.469110000000000014e+02 1.945505000000000109e+03
1.529999999999999971e-01 1.303274999999999850e-01 1.465289999999999893e+01 1.456084999999999923e+02 1.944944999999999936e+03
1.539999999999999980e-01 1.302849999999999842e-01 1.399370000000000047e+01 1.443934999999999889e+02 1.944409999999999854e+03
1.549999999999999989e-01 1.302449999999999997e-01 1.338595000000000113e+01 1.432699999999999818e+02 1.943914999999999964e+03
1.559999999999999998e-01 1.302069999999999894e-01 1.283040000000000092e+01 1.422379999999999995e+02 1.943445000000000164e+03
1.570000000000000007e-01 1.301724999999999965e-01 1.232665000000000077e+01 1.412955000000000041e+02 1.943010000000000218e+03
1.580000000000000016e-01 1.301404999999999923e-01 1.187356499999999926e+01 1.404379999999999882e+02 1.942605000000000018e+03
1.590000000000000024e-01 1.301104999999999901e-01 1.146884000000000015e+01 1.396610000000000014e+02 1.942230000000000018e+03
