# t [s], A [cm^2], U [cm/s], P [cPa], c [cm/s]
1.000000000000000021e-03 1.559325000000000017e-01 2.255985000000000074e-01 1.005694000000000017e+02 1.861974999999999909e+03
2.000000000000000042e-03 1.559035000000000004e-01 1.709448000000000079e+00 9.772745000000000459e+01 1.861680000000000064e+03
3.000000000000000062e-03 1.557974999999999777e-01 3.575155500000000153e+00 9.386959999999999127e+01 1.860674999999999955e+03
4.000000000000000083e-03 1.556394999999999862e-01 5.664120950000000043e+00 8.942414999999999736e+01 1.859190000000000055e+03
5.000000000000000104e-03 1.554554999999999965e-01 7.921095000000000219e+00 8.511990000000000123e+01 1.857490000000000009e+03
6.000000000000000125e-03 1.552695000000000047e-01 1.024226999999999954e+01 8.138749999999998863e+01 1.855775000000000091e+03
7.000000000000000146e-03 1.550900000000000056e-01 1.246269000000000027e+01 7.824805000000000632e+01 1.854150000000000091e+03
8.000000000000000167e-03 1.549214999999999898e-01 1.444025500000000051e+01 7.549905000000001110e+01 1.852644999999999982e+03
9.000000000000001055e-03 1.547660000000000147e-01 1.613680000000000092e+01 7.302639999999999532e+01 1.851285000000000082e+03
1.000000000000000194e-02 1.546279999999999877e-01 1.758099999999999952e+01 7.086934999999999718e+01 1.850085000000000036e+03
1.099999999999999936e-02 1.545084999999999931e-01 1.879954999999999998e+01 6.907280000000000086e+01 1.849065000000000055e+03
1.200000000000000025e-02 1.544089999999999907e-01 1.980799999999999983e+01 6.762610000000000809e+01 1.848220000000000027e+03
1.300000000000000114e-02 1.543269999999999920e-01 2.062100000000000222e+01 6.649210000000000775e+01 1.847529999999999973e+03
1.400000000000000203e-02 1.542614999999999958e-01 2.124779999999999802e+01 6.561419999999999675e+01 1.846985000000000127e+03
1.499999999999999944e-02 1.542089999999999850e-01 2.169294999999999973e+01 6.491145000000000209e+01 1.846559999999999945e+03
1.600000000000000033e-02 1.541659999999999975e-01 2.197874999999999801e+01 6.432415000000000305e+01 1.846220000000000027e+03
1.700000000000000122e-02 1.541325000000000056e-01 2.216765000000000185e+01 6.388625000000000398e+01 1.845960000000000036e+03
1.800000000000000211e-02 1.541115000000000124e-01 2.235730000000000217e+01 6.374960000000000093e+01 1.845804999999999836e+03
1.900000000000000300e-02 1.541085000000000094e-01 2.264649999999999963e+01 6.412059999999999604e+01 1.845795000000000073e+03
2.000000000000000042e-02 1.541279999999999872e-01 2.309250000000000114e+01 6.514714999999999634e+01 1.845980000000000018e+03
2.100000000000000130e-02 1.541719999999999757e-01 2.368619999999999948e+01 6.682435000000000969e+01 1.846365000000000009e+03
2.200000000000000219e-02 1.542374999999999996e-01 2.435454999999999970e+01 6.896715000000000373e+01 1.846925000000000182e+03
2.299999999999999961e-02 1.543149999999999800e-01 2.498700000000000188e+01 7.125790000000000646e+01 1.847599999999999909e+03
2.400000000000000050e-02 1.543940000000000035e-01 2.547194999999999965e+01 7.333969999999999345e+01 1.848295000000000073e+03
2.500000000000000139e-02 1.544655000000000056e-01 2.572930000000000206e+01 7.491755000000000564e+01 1.848930000000000064e+03
2.600000000000000228e-02 1.545205000000000051e-01 2.572980000000000089e+01 7.583145000000000380e+01 1.849429999999999836e+03
2.700000000000000316e-02 1.545555000000000123e-01 2.549629999999999797e+01 7.608310000000000173e+01 1.849755000000000109e+03
2.800000000000000058e-02 1.545710000000000139e-01 2.509040000000000248e+01 7.581255000000000166e+01 1.849920000000000073e+03
2.900000000000000147e-02 1.545725000000000016e-01 2.458944999999999936e+01 7.523890000000000100e+01 1.849945000000000164e+03
3.000000000000000236e-02 1.545650000000000079e-01 2.406269999999999953e+01 7.458754999999999313e+01 1.849894999999999982e+03
3.099999999999999978e-02 1.545539999999999969e-01 2.355395000000000039e+01 7.402709999999999013e+01 1.849809999999999945e+03
3.200000000000000067e-02 1.545440000000000147e-01 2.307484999999999786e+01 7.363354999999999961e+01 1.849720000000000027e+03
3.300000000000000155e-02 1.545360000000000067e-01 2.260835000000000150e+01 7.338714999999999122e+01 1.849650000000000091e+03
3.400000000000000244e-02 1.545289999999999997e-01 2.212030000000000030e+01 7.319724999999999682e+01 1.849595000000000027e+03
3.500000000000000333e-02 1.545209999999999917e-01 2.157455000000000211e+01 7.294389999999999930e+01 1.849525000000000091e+03
3.600000000000000422e-02 1.545080000000000064e-01 2.094725000000000037e+01 7.252355000000000018e+01 1.849424999999999955e+03
3.700000000000000511e-02 1.544895000000000018e-01 2.023774999999999835e+01 7.188704999999998790e+01 1.849264999999999873e+03
3.799999999999999906e-02 1.544635000000000036e-01 1.947200000000000131e+01 7.105989999999999895e+01 1.849050000000000182e+03
3.899999999999999994e-02 1.544335000000000013e-01 1.869944999999999879e+01 7.014220000000000255e+01 1.848795000000000073e+03
4.000000000000000083e-02 1.544015000000000248e-01 1.798310000000000031e+01 6.928730000000000189e+01 1.848525000000000091e+03
4.100000000000000172e-02 1.543744999999999978e-01 1.738660000000000139e+01 6.866689999999999827e+01 1.848284999999999854e+03
4.200000000000000261e-02 1.543565000000000076e-01 1.696000000000000085e+01 6.843035000000000423e+01 1.848119999999999891e+03
4.300000000000000350e-02 1.543515000000000026e-01 1.673014999999999830e+01 6.867069999999999652e+01 1.848070000000000164e+03
4.400000000000000439e-02 1.543634999999999868e-01 1.669460000000000122e+01 6.940319999999999823e+01 1.848159999999999854e+03
4.499999999999999833e-02 1.543915000000000148e-01 1.682329999999999970e+01 7.056194999999999595e+01 1.848384999999999991e+03
4.599999999999999922e-02 1.544329999999999870e-01 1.706354999999999933e+01 7.201189999999999714e+01 1.848730000000000018e+03
4.700000000000000011e-02 1.544829999999999814e-01 1.734929999999999950e+01 7.357330000000000325e+01 1.849150000000000091e+03
4.800000000000000100e-02 1.545360000000000067e-01 1.761129999999999995e+01 7.505110000000000525e+01 1.849605000000000018e+03
4.900000000000000189e-02 1.545860000000000012e-01 1.778614999999999924e+01 7.626415000000000077e+01 1.850039999999999964e+03
5.000000000000000278e-02 1.546265000000000001e-01 1.782325000000000159e+01 7.706804999999999950e+01 1.850394999999999982e+03
5.100000000000000366e-02 1.546540000000000137e-01 1.768900000000000006e+01 7.736974999999999625e+01 1.850634999999999991e+03
5.200000000000000455e-02 1.546639999999999959e-01 1.736775000000000091e+01 7.713214999999999577e+01 1.850740000000000009e+03
5.300000000000000544e-02 1.546560000000000157e-01 1.686009999999999920e+01 7.636959999999999127e+01 1.850675000000000182e+03
5.399999999999999939e-02 1.546295000000000031e-01 1.617960000000000065e+01 7.513720000000000709e+01 1.850460000000000036e+03
5.500000000000000028e-02 1.545864999999999878e-01 1.534890000000000043e+01 7.351699999999999591e+01 1.850095000000000027e+03
5.600000000000000117e-02 1.545289999999999997e-01 1.439545000000000030e+01 7.160354999999999848e+01 1.849609999999999900e+03
5.700000000000000205e-02 1.544605000000000006e-01 1.334854999999999947e+01 6.949195000000000277e+01 1.849019999999999982e+03
5.800000000000000294e-02 1.543824999999999781e-01 1.223739499999999936e+01 6.727025000000000432e+01 1.848349999999999909e+03
5.900000000000000383e-02 1.542995000000000061e-01 1.109028499999999973e+01 6.501534999999999798e+01 1.847639999999999873e+03
6.000000000000000472e-02 1.542135000000000034e-01 9.934459999999999624e+00 6.279354999999999620e+01 1.846894999999999982e+03
6.099999999999999867e-02 1.541279999999999872e-01 8.796935000000001281e+00 6.066239999999999810e+01 1.846154999999999973e+03
6.199999999999999956e-02 1.540434999999999999e-01 7.705014999999999503e+00 5.867494999999999550e+01 1.845424999999999955e+03
6.300000000000000044e-02 1.539650000000000185e-01 6.686879999999999491e+00 5.688264999999999816e+01 1.844740000000000009e+03
6.400000000000000133e-02 1.538924999999999876e-01 5.771644999999999470e+00 5.533790000000000475e+01 1.844105000000000018e+03
6.500000000000000222e-02 1.538289999999999935e-01 4.988760000000000083e+00 5.409454999999999814e+01 1.843549999999999955e+03
6.600000000000000311e-02 1.537769999999999970e-01 4.367049999999999876e+00 5.320659999999999457e+01 1.843089999999999918e+03
6.700000000000000400e-02 1.537385000000000002e-01 3.933290000000000397e+00 5.272554999999999836e+01 1.842750000000000000e+03
6.800000000000000488e-02 1.537160000000000193e-01 3.710695000000000299e+00 5.269705000000000439e+01 1.842534999999999854e+03
6.900000000000000577e-02 1.537104999999999999e-01 3.717380000000000351e+00 5.315675000000000239e+01 1.842474999999999909e+03
7.000000000000000666e-02 1.537240000000000273e-01 3.965105000000000324e+00 5.412704999999999700e+01 1.842569999999999936e+03
7.100000000000000755e-02 1.537570000000000048e-01 4.458484999999999587e+00 5.561475000000000080e+01 1.842840000000000146e+03
7.200000000000000844e-02 1.538100000000000023e-01 5.194609999999999950e+00 5.760989999999999611e+01 1.843279999999999973e+03
7.300000000000000933e-02 1.538835000000000064e-01 6.163244999999999862e+00 6.008585000000000065e+01 1.843889999999999873e+03
7.399999999999999634e-02 1.539750000000000008e-01 7.347419999999999618e+00 6.300099999999999767e+01 1.844670000000000073e+03
7.499999999999999722e-02 1.540849999999999997e-01 8.724399999999999267e+00 6.630109999999999104e+01 1.845599999999999909e+03
7.599999999999999811e-02 1.542100000000000137e-01 1.026698000000000022e+01 6.992279999999999518e+01 1.846670000000000073e+03
7.699999999999999900e-02 1.543484999999999996e-01 1.194473500000000143e+01 7.379699999999999704e+01 1.847855000000000018e+03
7.799999999999999989e-02 1.544979999999999964e-01 1.372550500000000007e+01 7.785239999999998872e+01 1.849144999999999982e+03
7.900000000000000078e-02 1.546559999999999879e-01 1.557675000000000054e+01 8.201930000000000121e+01 1.850509999999999991e+03
8.000000000000000167e-02 1.548190000000000122e-01 1.746699999999999875e+01 8.623249999999998749e+01 1.851929999999999836e+03
8.100000000000000255e-02 1.549860000000000126e-01 1.936674999999999969e+01 9.043395000000001005e+01 1.853384999999999991e+03
8.200000000000000344e-02 1.551540000000000141e-01 2.124974999999999881e+01 9.457519999999999527e+01 1.854855000000000018e+03
8.300000000000000433e-02 1.553205000000000002e-01 2.309365000000000023e+01 9.861754999999999427e+01 1.856315000000000055e+03
8.400000000000000522e-02 1.554854999999999987e-01 2.488060000000000116e+01 1.025356999999999914e+02 1.857764999999999873e+03
8.500000000000000611e-02 1.556460000000000066e-01 2.659730000000000061e+01 1.063144000000000062e+02 1.859184999999999945e+03
8.600000000000000699e-02 1.558030000000000248e-01 2.823525000000000063e+01 1.099495000000000005e+02 1.860574999999999818e+03
8.700000000000000788e-02 1.559550000000000103e-01 2.979030000000000200e+01 1.134459999999999980e+02 1.861924999999999955e+03
8.800000000000000877e-02 1.561029999999999918e-01 3.126179999999999737e+01 1.168185000000000002e+02 1.863240000000000009e+03
8.899999999999999578e-02 1.562465000000000104e-01 3.265229999999999677e+01 1.200835000000000008e+02 1.864519999999999982e+03
8.999999999999999667e-02 1.563865000000000116e-01 3.396625000000000227e+01 1.232630000000000052e+02 1.865764999999999873e+03
9.099999999999999756e-02 1.565225000000000088e-01 3.520955000000000013e+01 1.263780000000000001e+02 1.866985000000000127e+03
9.199999999999999845e-02 1.566565000000000041e-01 3.638824999999999932e+01 1.294470000000000027e+02 1.868184999999999945e+03
9.299999999999999933e-02 1.567890000000000117e-01 3.750804999999999723e+01 1.324859999999999900e+02 1.869375000000000000e+03
9.400000000000000022e-02 1.569200000000000039e-01 3.857354999999999734e+01 1.355054999999999836e+02 1.870545000000000073e+03
9.500000000000000111e-02 1.570495000000000085e-01 3.958794999999999931e+01 1.385084999999999980e+02 1.871710000000000036e+03
9.600000000000000200e-02 1.571784999999999988e-01 4.055254999999999654e+01 1.414945000000000164e+02 1.872869999999999891e+03
9.700000000000000289e-02 1.573060000000000014e-01 4.146685000000000088e+01 1.444555000000000007e+02 1.874019999999999982e+03
9.800000000000000377e-02 1.574329999999999896e-01 4.232845000000000368e+01 1.473779999999999859e+02 1.875159999999999854e+03
9.900000000000000466e-02 1.575575000000000170e-01 4.313335000000000008e+01 1.502450000000000045e+02 1.876285000000000082e+03
1.000000000000000056e-01 1.576795000000000002e-01 4.387610000000000099e+01 1.530349999999999966e+02 1.877385000000000218e+03
1.010000000000000064e-01 1.577985000000000082e-01 4.455030000000000001e+01 1.557244999999999777e+02 1.878460000000000036e+03
1.020000000000000073e-01 1.579135000000000122e-01 4.514874999999999972e+01 1.582905000000000086e+02 1.879505000000000109e+03
1.030000000000000082e-01 1.580234999999999834e-01 4.566400000000000148e+01 1.607094999999999914e+02 1.880500000000000000e+03
1.040000000000000091e-01 1.581279999999999908e-01 4.608879999999999910e+01 1.629579999999999984e+02 1.881450000000000045e+03
1.050000000000000100e-01 1.582255000000000189e-01 4.641615000000000180e+01 1.650159999999999911e+02 1.882335000000000036e+03
1.059999999999999970e-01 1.583149999999999835e-01 4.664010000000000389e+01 1.668650000000000091e+02 1.883154999999999973e+03
1.069999999999999979e-01 1.583970000000000100e-01 4.675570000000000448e+01 1.684909999999999854e+02 1.883900000000000091e+03
1.079999999999999988e-01 1.584699999999999998e-01 4.675934999999999775e+01 1.698824999999999932e+02 1.884574999999999818e+03
1.089999999999999997e-01 1.585340000000000082e-01 4.664905000000000257e+01 1.710339999999999918e+02 1.885154999999999973e+03
1.100000000000000006e-01 1.585874999999999924e-01 4.642464999999999975e+01 1.719424999999999955e+02 1.885654999999999973e+03
1.110000000000000014e-01 1.586319999999999952e-01 4.608774999999999977e+01 1.726100000000000136e+02 1.886070000000000164e+03
1.120000000000000023e-01 1.586670000000000025e-01 4.564209999999999923e+01 1.730439999999999827e+02 1.886394999999999982e+03
1.130000000000000032e-01 1.586919999999999997e-01 4.509324999999999761e+01 1.732549999999999955e+02 1.886635000000000218e+03
1.140000000000000041e-01 1.587085000000000024e-01 4.444865000000000066e+01 1.732574999999999932e+02 1.886795000000000073e+03
1.150000000000000050e-01 1.587160000000000237e-01 4.371734999999999616e+01 1.730715000000000146e+02 1.886875000000000000e+03
1.160000000000000059e-01 1.587159999999999960e-01 4.290990000000000038e+01 1.727175000000000011e+02 1.886889999999999873e+03
1.170000000000000068e-01 1.587089999999999890e-01 4.203794999999999504e+01 1.722189999999999941e+02 1.886829999999999927e+03
1.180000000000000077e-01 1.586954999999999893e-01 4.111374999999999602e+01 1.716020000000000039e+02 1.886719999999999800e+03
1.190000000000000085e-01 1.586770000000000125e-01 4.015005000000000024e+01 1.708910000000000196e+02 1.886559999999999945e+03
1.200000000000000094e-01 1.586535000000000029e-01 3.915949999999999420e+01 1.701109999999999900e+02 1.886360000000000127e+03
1.209999999999999964e-01 1.586274999999999769e-01 3.815424999999999756e+01 1.692864999999999895e+02 1.886125000000000000e+03
1.219999999999999973e-01 1.585985000000000034e-01 3.714570000000000505e+01 1.684385000000000048e+02 1.885869999999999891e+03
1.229999999999999982e-01 1.585679999999999867e-01 3.614405000000000001e+01 1.675860000000000127e+02 1.885599999999999909e+03
1.239999999999999991e-01 1.585364999999999969e-01 3.515829999999999700e+01 1.667439999999999998e+02 1.885315000000000055e+03
1.250000000000000000e-01 1.585050000000000070e-01 3.419575000000000387e+01 1.659259999999999877e+02 1.885025000000000091e+03
1.260000000000000009e-01 1.584740000000000038e-01 3.326200000000000045e+01 1.651394999999999982e+02 1.884744999999999891e+03
1.270000000000000018e-01 1.584430000000000005e-01 3.236095000000000255e+01 1.643890000000000100e+02 1.884465000000000146e+03
1.280000000000000027e-01 1.584134999999999849e-01 3.149455000000000382e+01 1.636759999999999877e+02 1.884194999999999936e+03
1.290000000000000036e-01 1.583844999999999836e-01 3.066335000000000122e+01 1.629985000000000070e+02 1.883929999999999836e+03
1.300000000000000044e-01 1.583570000000000255e-01 2.986590000000000344e+01 1.623499999999999943e+02 1.883679999999999836e+03
1.310000000000000053e-01 1.583300000000000263e-01 2.909955000000000069e+01 1.617230000000000132e+02 1.883430000000000064e+03
1.320000000000000062e-01 1.583034999999999859e-01 2.836039999999999850e+01 1.611065000000000111e+02 1.883190000000000055e+03
1.330000000000000071e-01 1.582770000000000010e-01 2.764355000000000118e+01 1.604895000000000209e+02 1.882949999999999818e+03
1.340000000000000080e-01 1.582505000000000162e-01 2.694330000000000069e+01 1.598589999999999804e+02 1.882704999999999927e+03
1.350000000000000089e-01 1.582235000000000169e-01 2.625370000000000203e+01 1.592009999999999934e+02 1.882460000000000036e+03
1.360000000000000098e-01 1.581954999999999889e-01 2.556859999999999999e+01 1.585035000000000025e+02 1.882200000000000045e+03
1.370000000000000107e-01 1.581655000000000144e-01 2.488194999999999979e+01 1.577535000000000025e+02 1.881930000000000064e+03
1.380000000000000115e-01 1.581339999999999968e-01 2.418820000000000192e+01 1.569415000000000191e+02 1.881644999999999982e+03
1.390000000000000124e-01 1.580999999999999905e-01 2.348254999999999981e+01 1.560584999999999809e+02 1.881340000000000146e+03
1.400000000000000133e-01 1.580630000000000090e-01 2.276109999999999900e+01 1.550975000000000250e+02 1.881005000000000109e+03
1.410000000000000142e-01 1.580234999999999834e-01 2.202110000000000056e+01 1.540559999999999832e+02 1.880644999999999982e+03
1.420000000000000151e-01 1.579804999999999959e-01 2.126105000000000089e+01 1.529329999999999927e+02 1.880264999999999873e+03
1.430000000000000160e-01 1.579349999999999921e-01 2.048069999999999879e+01 1.517305000000000064e+02 1.879849999999999909e+03
1.440000000000000169e-01 1.578859999999999986e-01 1.968149999999999977e+01 1.504555000000000007e+02 1.879409999999999854e+03
1.450000000000000178e-01 1.578340000000000021e-01 1.886590000000000344e+01 1.491150000000000091e+02 1.878950000000000045e+03
1.459999999999999909e-01 1.577800000000000036e-01 1.803795000000000215e+01 1.477210000000000036e+02 1.878460000000000036e+03
1.469999999999999918e-01 1.577235000000000165e-01 1.720270000000000010e+01 1.462869999999999777e+02 1.877954999999999927e+03
1.479999999999999927e-01 1.576649999999999996e-01 1.636635000000000062e+01 1.448285000000000196e+02 1.877434999999999945e+03
1.489999999999999936e-01 1.576055000000000095e-01 1.553565000000000040e+01 1.433625000000000114e+02 1.876900000000000091e+03
1.499999999999999944e-01 1.575460000000000194e-01 1.471804999999999808e+01 1.419060000000000059e+02 1.876364999999999782e+03
1.509999999999999953e-01 1.574865000000000015e-01 1.392125000000000057e+01 1.404770000000000039e+02 1.875835000000000036e+03
1.519999999999999962e-01 1.574274999999999980e-01 1.315264999999999951e+01 1.390930000000000177e+02 1.875309999999999945e+03
1.529999999999999971e-01 1.573710000000000109e-01 1.241958999999999946e+01 1.377699999999999818e+02 1.874795000000000073e+03
1.539999999999999980e-01 1.573160000000000114e-01 1.172869500000000009e+01 1.365215000000000032e+02 1.874300000000000182e+03
1.549999999999999989e-01 1.572635000000000005e-01 1.108578999999999937e+01 1.353605000000000018e+02 1.873825000000000045e+03
1.559999999999999998e-01 1.572144999999999793e-01 1.049552999999999869e+01 1.342969999999999970e+02 1.873389999999999873e+03
1.570000000000000007e-01 1.571690000000000031e-01 9.961669999999999803e+00 1.333365000000000009e+02 1.872974999999999909e+03
1.580000000000000016e-01 1.571275000000000033e-01 9.486505000000001075e+00 1.324840000000000089e+02 1.872595000000000027e+03
1.590000000000000024e-01 1.570900000000000074e-01 9.071099999999999497e+00 1.317400000000000091e+02 1.872259999999999991e+03
