# t [s], A [cm^2], U [cm/s], P [cPa], c [cm/s]
1.000000000000000021e-03 1.212249999999999994e-01 3.842601999999999962e-01 9.839820000000000277e+01 2.105414999999999964e+03
2.000000000000000042e-03 1.211895000000000056e-01 2.007786499999999918e+00 9.477025000000000432e+01 2.104894999999999982e+03
3.000000000000000062e-03 1.210970000000000102e-01 3.985883499999999469e+00 8.984604999999999109e+01 2.103574999999999818e+03
4.000000000000000083e-03 1.209729999999999972e-01 6.202127500000000460e+00 8.466720000000000823e+01 2.101824999999999818e+03
5.000000000000000104e-03 1.208415000000000045e-01 8.566285000000000593e+00 8.018569999999999709e+01 2.099989999999999782e+03
6.000000000000000125e-03 1.207165000000000044e-01 1.086150999999999911e+01 7.658565000000000111e+01 2.098269999999999982e+03
7.000000000000000146e-03 1.205999999999999850e-01 1.286163999999999952e+01 7.349099999999999966e+01 2.096690000000000055e+03
8.000000000000000167e-03 1.204935000000000034e-01 1.452093499999999970e+01 7.069844999999999402e+01 2.095284999999999854e+03
9.000000000000001055e-03 1.204010000000000080e-01 1.589764999999999873e+01 6.832059999999999889e+01 2.094070000000000164e+03
1.000000000000000194e-02 1.203240000000000143e-01 1.702319999999999922e+01 6.641400000000000148e+01 2.093070000000000164e+03
1.099999999999999936e-02 1.202614999999999934e-01 1.791494999999999749e+01 6.493025000000000091e+01 2.092275000000000091e+03
1.200000000000000025e-02 1.202114999999999989e-01 1.858865000000000123e+01 6.379505000000000337e+01 2.091654999999999745e+03
1.300000000000000114e-02 1.201725000000000015e-01 1.904505000000000337e+01 6.288065000000000282e+01 2.091164999999999964e+03
1.400000000000000203e-02 1.201399999999999968e-01 1.930700000000000216e+01 6.207124999999999915e+01 2.090769999999999982e+03
1.499999999999999944e-02 1.201145000000000129e-01 1.947739999999999938e+01 6.145539999999999736e+01 2.090470000000000255e+03
1.600000000000000033e-02 1.201009999999999994e-01 1.972905000000000086e+01 6.138984999999999559e+01 2.090314999999999600e+03
1.700000000000000122e-02 1.201065000000000049e-01 2.021574999999999989e+01 6.229970000000000141e+01 2.090404999999999745e+03
1.800000000000000211e-02 1.201370000000000077e-01 2.097735000000000127e+01 6.436294999999999789e+01 2.090800000000000182e+03
1.900000000000000300e-02 1.201895000000000047e-01 2.190834999999999866e+01 6.732500000000000284e+01 2.091480000000000018e+03
2.000000000000000042e-02 1.202554999999999874e-01 2.280270000000000152e+01 7.055629999999999313e+01 2.092340000000000146e+03
2.100000000000000130e-02 1.203210000000000113e-01 2.344239999999999924e+01 7.329670000000000130e+01 2.093210000000000036e+03
2.200000000000000219e-02 1.203730000000000078e-01 2.368164999999999765e+01 7.494644999999999868e+01 2.093920000000000073e+03
2.299999999999999961e-02 1.204029999999999961e-01 2.349300000000000210e+01 7.526945000000000618e+01 2.094344999999999800e+03
2.400000000000000050e-02 1.204089999999999883e-01 2.296184999999999832e+01 7.443575000000001296e+01 2.094465000000000146e+03
2.500000000000000139e-02 1.203960000000000030e-01 2.223939999999999984e+01 7.290545000000000186e+01 2.094324999999999818e+03
2.600000000000000228e-02 1.203729999999999939e-01 2.147844999999999871e+01 7.122104999999999109e+01 2.094029999999999745e+03
2.700000000000000316e-02 1.203470000000000095e-01 2.078020000000000067e+01 6.980315000000000225e+01 2.093694999999999709e+03
2.800000000000000058e-02 1.203245000000000009e-01 2.017060000000000031e+01 6.882829999999999870e+01 2.093400000000000091e+03
2.900000000000000147e-02 1.203069999999999973e-01 1.960849999999999937e+01 6.821779999999999688e+01 2.093170000000000073e+03
3.000000000000000236e-02 1.202924999999999967e-01 1.901789999999999736e+01 6.772200000000000841e+01 2.092974999999999909e+03
3.099999999999999978e-02 1.202764999999999945e-01 1.832750000000000057e+01 6.705254999999999654e+01 2.092764999999999873e+03
3.200000000000000067e-02 1.202550000000000008e-01 1.750635000000000119e+01 6.601384999999999081e+01 2.092489999999999782e+03
3.300000000000000155e-02 1.202265000000000000e-01 1.658204999999999885e+01 6.459055000000000746e+01 2.092125000000000000e+03
3.400000000000000244e-02 1.201919999999999933e-01 1.563905000000000101e+01 6.296684999999999377e+01 2.091675000000000182e+03
3.500000000000000333e-02 1.201564999999999994e-01 1.479620000000000068e+01 6.147374999999999545e+01 2.091220000000000255e+03
3.600000000000000422e-02 1.201269999999999838e-01 1.417210000000000036e+01 6.048564999999999969e+01 2.090829999999999927e+03
3.700000000000000511e-02 1.201109999999999955e-01 1.385099999999999909e+01 6.030164999999999509e+01 2.090600000000000364e+03
3.799999999999999906e-02 1.201119999999999965e-01 1.385829999999999984e+01 6.105299999999999727e+01 2.090595000000000255e+03
3.899999999999999994e-02 1.201315000000000022e-01 1.415450000000000053e+01 6.266214999999999691e+01 2.090835000000000036e+03
4.000000000000000083e-02 1.201674999999999965e-01 1.464395000000000024e+01 6.486050000000000182e+01 2.091279999999999745e+03
4.100000000000000172e-02 1.202135000000000009e-01 1.519735000000000014e+01 6.725280000000000769e+01 2.091864999999999782e+03
4.200000000000000261e-02 1.202614999999999934e-01 1.567759999999999998e+01 6.940364999999999895e+01 2.092484999999999673e+03
4.300000000000000350e-02 1.203030000000000072e-01 1.596369999999999933e+01 7.092310000000000514e+01 2.093034999999999854e+03
4.400000000000000439e-02 1.203310000000000074e-01 1.596825000000000117e+01 7.153139999999999077e+01 2.093404999999999745e+03
4.499999999999999833e-02 1.203395000000000020e-01 1.564515000000000100e+01 7.109149999999999636e+01 2.093534999999999854e+03
4.599999999999999922e-02 1.203260000000000024e-01 1.498925000000000196e+01 6.960965000000000202e+01 2.093380000000000109e+03
4.700000000000000011e-02 1.202914999999999957e-01 1.402850000000000108e+01 6.720884999999999820e+01 2.092939999999999600e+03
4.800000000000000100e-02 1.202374999999999972e-01 1.281336999999999904e+01 6.408759999999999479e+01 2.092244999999999891e+03
4.900000000000000189e-02 1.201669999999999960e-01 1.140588499999999961e+01 6.047569999999999624e+01 2.091340000000000146e+03
5.000000000000000278e-02 1.200859999999999983e-01 9.870639999999999858e+00 5.659825000000000017e+01 2.090284999999999854e+03
5.100000000000000366e-02 1.199975000000000069e-01 8.269605000000000317e+00 5.265340000000000487e+01 2.089135000000000218e+03
5.200000000000000455e-02 1.199064999999999992e-01 6.660624999999999574e+00 4.880464999999999520e+01 2.087940000000000055e+03
5.300000000000000544e-02 1.198154999999999915e-01 5.097545000000000215e+00 4.518455000000000155e+01 2.086760000000000218e+03
5.399999999999999939e-02 1.197294999999999887e-01 3.632405699999999626e+00 4.190474999999999994e+01 2.085625000000000000e+03
5.500000000000000028e-02 1.196499999999999925e-01 2.316563499999999998e+00 3.906690000000000396e+01 2.084579999999999927e+03
5.600000000000000117e-02 1.195805000000000062e-01 1.201194999999999791e+00 3.677020000000000266e+01 2.083659999999999854e+03
5.700000000000000205e-02 1.195240000000000052e-01 3.361349999999999616e-01 3.511310000000000286e+01 2.082900000000000091e+03
5.800000000000000294e-02 1.194815000000000044e-01 -2.326350000000000362e-01 3.418999999999999773e+01 2.082335000000000036e+03
5.900000000000000383e-02 1.194570000000000076e-01 -4.663284999999999791e-01 3.408315000000000339e+01 2.081989999999999782e+03
6.000000000000000472e-02 1.194520000000000026e-01 -3.368439999999999768e-01 3.485235000000000127e+01 2.081899999999999636e+03
6.099999999999999867e-02 1.194670000000000037e-01 1.704039999999999999e-01 3.652680000000000149e+01 2.082074999999999818e+03
6.199999999999999956e-02 1.195039999999999991e-01 1.054780000000000051e+00 3.909790000000000276e+01 2.082529999999999745e+03
6.300000000000000044e-02 1.195624999999999882e-01 2.300209000000000170e+00 4.251859999999999928e+01 2.083260000000000218e+03
6.400000000000000133e-02 1.196405000000000107e-01 3.876299500000000009e+00 4.670504999999999995e+01 2.084260000000000218e+03
6.500000000000000222e-02 1.197374999999999967e-01 5.740655000000000285e+00 5.154364999999999952e+01 2.085505000000000109e+03
6.600000000000000311e-02 1.198500000000000121e-01 7.841829999999999856e+00 5.689970000000000283e+01 2.086954999999999927e+03
6.700000000000000400e-02 1.199754999999999988e-01 1.012270999999999965e+01 6.262715000000000032e+01 2.088585000000000036e+03
6.800000000000000488e-02 1.201109999999999955e-01 1.252374499999999991e+01 6.857815000000000794e+01 2.090349999999999909e+03
6.900000000000000577e-02 1.202524999999999983e-01 1.498604999999999876e+01 7.461205000000001064e+01 2.092204999999999927e+03
7.000000000000000666e-02 1.203970000000000040e-01 1.745459999999999923e+01 8.060255000000000791e+01 2.094109999999999673e+03
7.100000000000000755e-02 1.205420000000000103e-01 1.988020000000000209e+01 8.644370000000000687e+01 2.096025000000000091e+03
7.200000000000000844e-02 1.206849999999999867e-01 2.222220000000000084e+01 9.205465000000000941e+01 2.097914999999999964e+03
7.300000000000000933e-02 1.208235000000000003e-01 2.444964999999999833e+01 9.738245000000000573e+01 2.099764999999999873e+03
7.399999999999999634e-02 1.209564999999999946e-01 2.654230000000000089e+01 1.024026000000000067e+02 2.101550000000000182e+03
7.499999999999999722e-02 1.210835000000000106e-01 2.849070000000000036e+01 1.071181500000000000e+02 2.103255000000000109e+03
7.599999999999999811e-02 1.212050000000000072e-01 3.029540000000000077e+01 1.115579999999999927e+02 2.104880000000000109e+03
7.699999999999999900e-02 1.213199999999999973e-01 3.196565000000000012e+01 1.157685000000000031e+02 2.106440000000000055e+03
7.799999999999999989e-02 1.214304999999999968e-01 3.351709999999999923e+01 1.198094999999999999e+02 2.107930000000000291e+03
7.900000000000000078e-02 1.215370000000000061e-01 3.496935000000000571e+01 1.237469999999999999e+02 2.109375000000000000e+03
8.000000000000000167e-02 1.216420000000000001e-01 3.634364999999999668e+01 1.276424999999999983e+02 2.110789999999999964e+03
8.100000000000000255e-02 1.217449999999999921e-01 3.766015000000000157e+01 1.315519999999999925e+02 2.112190000000000055e+03
8.200000000000000344e-02 1.218484999999999985e-01 3.893599999999999994e+01 1.355149999999999864e+02 2.113595000000000255e+03
8.300000000000000433e-02 1.219530000000000058e-01 4.018375000000000341e+01 1.395559999999999832e+02 2.115010000000000218e+03
8.400000000000000522e-02 1.220585000000000003e-01 4.141044999999999732e+01 1.436784999999999854e+02 2.116444999999999709e+03
8.500000000000000611e-02 1.221654999999999963e-01 4.261704999999999899e+01 1.478700000000000045e+02 2.117899999999999636e+03
8.600000000000000699e-02 1.222739999999999938e-01 4.379869999999999663e+01 1.520989999999999895e+02 2.119369999999999891e+03
8.700000000000000788e-02 1.223825000000000052e-01 4.494535000000000480e+01 1.563224999999999909e+02 2.120845000000000255e+03
8.800000000000000877e-02 1.224905000000000022e-01 4.604265000000000185e+01 1.604850000000000136e+02 2.122315000000000055e+03
8.899999999999999578e-02 1.225969999999999976e-01 4.707319999999999993e+01 1.645275000000000034e+02 2.123764999999999873e+03
8.999999999999999667e-02 1.227000000000000035e-01 4.801769999999999783e+01 1.683870000000000005e+02 2.125175000000000182e+03
9.099999999999999756e-02 1.227989999999999915e-01 4.885654999999999859e+01 1.720029999999999859e+02 2.126519999999999982e+03
9.199999999999999845e-02 1.228915000000000146e-01 4.957080000000000553e+01 1.753199999999999932e+02 2.127789999999999964e+03
9.299999999999999933e-02 1.229770000000000030e-01 5.014345000000000141e+01 1.782899999999999920e+02 2.128970000000000255e+03
9.400000000000000022e-02 1.230539999999999967e-01 5.056050000000000466e+01 1.808770000000000095e+02 2.130039999999999964e+03
9.500000000000000111e-02 1.231220000000000092e-01 5.081159999999999854e+01 1.830529999999999973e+02 2.130980000000000018e+03
9.600000000000000200e-02 1.231804999999999983e-01 5.089090000000000202e+01 1.848044999999999902e+02 2.131795000000000073e+03
9.700000000000000289e-02 1.232290000000000052e-01 5.079710000000000036e+01 1.861304999999999836e+02 2.132470000000000255e+03
9.800000000000000377e-02 1.232675000000000021e-01 5.053395000000000437e+01 1.870420000000000016e+02 2.133005000000000109e+03
9.900000000000000466e-02 1.232955000000000023e-01 5.010980000000000700e+01 1.875620000000000118e+02 2.133404999999999745e+03
1.000000000000000056e-01 1.233134999999999926e-01 4.953749999999999432e+01 1.877245000000000061e+02 2.133675000000000182e+03
1.010000000000000064e-01 1.233235000000000026e-01 4.883359999999999701e+01 1.875699999999999932e+02 2.133824999999999818e+03
1.020000000000000073e-01 1.233259999999999912e-01 4.801770000000000493e+01 1.871479999999999961e+02 2.133869999999999891e+03
1.030000000000000082e-01 1.233210000000000001e-01 4.711149999999999949e+01 1.865105000000000075e+02 2.133815000000000055e+03
1.040000000000000091e-01 1.233105000000000034e-01 4.613770000000000238e+01 1.857110000000000127e+02 2.133689999999999600e+03
1.050000000000000100e-01 1.232960000000000028e-01 4.511915000000000475e+01 1.848009999999999877e+02 2.133494999999999891e+03
1.059999999999999970e-01 1.232785000000000131e-01 4.407784999999999798e+01 1.838305000000000007e+02 2.133260000000000218e+03
1.069999999999999979e-01 1.232584999999999931e-01 4.303409999999999513e+01 1.828430000000000177e+02 2.132989999999999782e+03
1.079999999999999988e-01 1.232374999999999998e-01 4.200574999999999903e+01 1.818765000000000214e+02 2.132704999999999927e+03
1.089999999999999997e-01 1.232165000000000066e-01 4.100759999999999650e+01 1.809585000000000150e+02 2.132420000000000073e+03
1.100000000000000006e-01 1.231954999999999995e-01 4.005100000000000193e+01 1.801109999999999900e+02 2.132139999999999873e+03
1.110000000000000014e-01 1.231760000000000077e-01 3.914359999999999928e+01 1.793449999999999989e+02 2.131869999999999891e+03
1.120000000000000023e-01 1.231579999999999897e-01 3.828934999999999889e+01 1.786634999999999991e+02 2.131619999999999891e+03
1.130000000000000032e-01 1.231415000000000010e-01 3.748839999999999861e+01 1.780610000000000070e+02 2.131385000000000218e+03
1.140000000000000041e-01 1.231264999999999998e-01 3.673739999999999384e+01 1.775240000000000009e+02 2.131175000000000182e+03
1.150000000000000050e-01 1.231125000000000136e-01 3.603000000000000114e+01 1.770330000000000155e+02 2.130980000000000018e+03
1.160000000000000059e-01 1.231000000000000011e-01 3.535750000000000171e+01 1.765634999999999764e+02 2.130795000000000073e+03
1.170000000000000068e-01 1.230870000000000020e-01 3.470910000000000650e+01 1.760865000000000009e+02 2.130619999999999891e+03
1.180000000000000077e-01 1.230740000000000028e-01 3.407290000000000418e+01 1.755730000000000075e+02 2.130435000000000400e+03
1.190000000000000085e-01 1.230594999999999883e-01 3.343654999999999688e+01 1.749929999999999950e+02 2.130239999999999782e+03
1.200000000000000094e-01 1.230440000000000145e-01 3.278820000000000334e+01 1.743185000000000002e+02 2.130025000000000091e+03
1.209999999999999964e-01 1.230264999999999970e-01 3.211695000000000277e+01 1.735260000000000105e+02 2.129780000000000200e+03
1.219999999999999973e-01 1.230054999999999898e-01 3.141365000000000052e+01 1.725969999999999800e+02 2.129500000000000000e+03
1.229999999999999982e-01 1.229814999999999936e-01 3.067149999999999821e+01 1.715180000000000007e+02 2.129175000000000182e+03
1.239999999999999991e-01 1.229544999999999944e-01 2.988640000000000185e+01 1.702849999999999966e+02 2.128805000000000291e+03
1.250000000000000000e-01 1.229239999999999916e-01 2.905720000000000169e+01 1.688994999999999891e+02 2.128385000000000218e+03
1.260000000000000009e-01 1.228895000000000126e-01 2.818590000000000018e+01 1.673725000000000023e+02 2.127925000000000182e+03
1.270000000000000018e-01 1.228519999999999890e-01 2.727754999999999797e+01 1.657220000000000084e+02 2.127409999999999854e+03
1.280000000000000027e-01 1.228114999999999901e-01 2.634004999999999797e+01 1.639714999999999918e+02 2.126864999999999782e+03
1.290000000000000036e-01 1.227685000000000026e-01 2.538374999999999915e+01 1.621510000000000105e+02 2.126284999999999854e+03
1.300000000000000044e-01 1.227239999999999998e-01 2.442070000000000007e+01 1.602944999999999993e+02 2.125679999999999836e+03
1.310000000000000053e-01 1.226784999999999959e-01 2.346454999999999913e+01 1.584384999999999764e+02 2.125065000000000055e+03
1.320000000000000062e-01 1.226329999999999920e-01 2.252929999999999922e+01 1.566190000000000282e+02 2.124444999999999709e+03
1.330000000000000071e-01 1.225885000000000030e-01 2.162884999999999991e+01 1.548715000000000259e+02 2.123840000000000146e+03
1.340000000000000080e-01 1.225449999999999873e-01 2.077635000000000076e+01 1.532280000000000086e+02 2.123250000000000000e+03
1.350000000000000089e-01 1.225040000000000018e-01 1.998344999999999771e+01 1.517160000000000082e+02 2.122690000000000055e+03
1.360000000000000098e-01 1.224659999999999915e-01 1.925985000000000014e+01 1.503580000000000041e+02 2.122170000000000073e+03
1.370000000000000107e-01 1.224314999999999987e-01 1.861294999999999789e+01 1.491700000000000159e+02 2.121694999999999709e+03
1.380000000000000115e-01 1.224009999999999959e-01 1.804765000000000086e+01 1.481599999999999966e+02 2.121275000000000091e+03
1.390000000000000124e-01 1.223739999999999967e-01 1.756599999999999895e+01 1.473315000000000055e+02 2.120904999999999745e+03
1.400000000000000133e-01 1.223520000000000024e-01 1.716754999999999853e+01 1.466800000000000068e+02 2.120595000000000255e+03
1.410000000000000142e-01 1.223334999999999978e-01 1.684960000000000235e+01 1.461955000000000098e+02 2.120340000000000146e+03
1.420000000000000151e-01 1.223194999999999977e-01 1.660709999999999908e+01 1.458644999999999925e+02 2.120135000000000218e+03
1.430000000000000160e-01 1.223085000000000006e-01 1.643329999999999913e+01 1.456680000000000064e+02 2.119984999999999673e+03
1.440000000000000169e-01 1.223009999999999931e-01 1.632019999999999982e+01 1.455875000000000057e+02 2.119875000000000000e+03
1.450000000000000178e-01 1.222970000000000029e-01 1.625870000000000104e+01 1.455999999999999943e+02 2.119809999999999945e+03
1.459999999999999909e-01 1.222945000000000004e-01 1.623924999999999841e+01 1.456839999999999975e+02 2.119779999999999745e+03
1.469999999999999918e-01 1.222945000000000004e-01 1.625234999999999985e+01 1.458179999999999836e+02 2.119769999999999982e+03
1.479999999999999927e-01 1.222959999999999881e-01 1.628855000000000075e+01 1.459814999999999827e+02 2.119779999999999745e+03
1.489999999999999936e-01 1.222979999999999901e-01 1.633889999999999887e+01 1.461564999999999941e+02 2.119805000000000291e+03
1.499999999999999944e-01 1.223005000000000064e-01 1.639545000000000030e+01 1.463274999999999864e+02 2.119835000000000036e+03
1.509999999999999953e-01 1.223035000000000094e-01 1.645124999999999815e+01 1.464809999999999945e+02 2.119869999999999891e+03
1.519999999999999962e-01 1.223059999999999981e-01 1.650029999999999930e+01 1.466074999999999875e+02 2.119909999999999854e+03
1.529999999999999971e-01 1.223080000000000001e-01 1.653824999999999790e+01 1.466995000000000005e+02 2.119935000000000400e+03
1.539999999999999980e-01 1.223100000000000021e-01 1.656165000000000020e+01 1.467524999999999977e+02 2.119954999999999927e+03
1.549999999999999989e-01 1.223110000000000031e-01 1.656864999999999810e+01 1.467659999999999911e+02 2.119970000000000255e+03
1.559999999999999998e-01 1.223110000000000031e-01 1.655859999999999843e+01 1.467409999999999854e+02 2.119975000000000364e+03
1.570000000000000007e-01 1.223100000000000021e-01 1.653195000000000192e+01 1.466814999999999998e+02 2.119965000000000146e+03
1.580000000000000016e-01 1.223084999999999867e-01 1.649020000000000152e+01 1.465925000000000011e+02 2.119944999999999709e+03
1.590000000000000024e-01 1.223069999999999991e-01 1.643544999999999945e+01 1.464809999999999945e+02 2.119920000000000073e+03
