# t [s], A [cm^2], U [cm/s], P [cPa], c [cm/s]
1.000000000000000021e-03 2.018745000000000123e-01 4.788514709999999730e-01 1.031520000000000010e+02 2.239954999999999927e+03
2.000000000000000042e-03 2.017959999999999754e-01 2.295636499999999636e+00 9.875950000000000273e+01 2.239315000000000055e+03
3.000000000000000062e-03 2.016164999999999763e-01 4.501775999999999556e+00 9.281219999999999004e+01 2.237900000000000091e+03
4.000000000000000083e-03 2.013920000000000154e-01 6.988774999999999515e+00 8.689064999999999372e+01 2.236149999999999636e+03
5.000000000000000104e-03 2.011680000000000135e-01 9.593015000000001180e+00 8.207634999999999081e+01 2.234425000000000182e+03
6.000000000000000125e-03 2.009615000000000151e-01 1.197625500000000009e+01 7.822499999999999432e+01 2.232859999999999673e+03
7.000000000000000146e-03 2.007720000000000060e-01 1.392891999999999975e+01 7.479689999999999372e+01 2.231460000000000036e+03
8.000000000000000167e-03 2.006074999999999942e-01 1.550159999999999982e+01 7.181874999999999432e+01 2.230264999999999873e+03
9.000000000000001055e-03 2.004714999999999969e-01 1.675880000000000081e+01 6.945024999999999693e+01 2.229289999999999964e+03
1.000000000000000194e-02 2.003639999999999866e-01 1.772550000000000026e+01 6.764735000000000298e+01 2.228524999999999636e+03
1.099999999999999936e-02 2.002820000000000156e-01 1.843095000000000283e+01 6.632054999999999723e+01 2.227949999999999818e+03
1.200000000000000025e-02 2.002194999999999947e-01 1.888155000000000072e+01 6.530745000000000289e+01 2.227524999999999636e+03
1.300000000000000114e-02 2.001689999999999858e-01 1.910369999999999990e+01 6.443245000000000289e+01 2.227190000000000055e+03
1.400000000000000203e-02 2.001320000000000043e-01 1.924439999999999884e+01 6.383829999999999671e+01 2.226949999999999818e+03
1.499999999999999944e-02 2.001209999999999933e-01 1.955505000000000138e+01 6.410105000000000075e+01 2.226889999999999873e+03
1.600000000000000033e-02 2.001534999999999842e-01 2.023355000000000103e+01 6.583599999999999852e+01 2.227125000000000000e+03
1.700000000000000122e-02 2.002364999999999839e-01 2.127224999999999966e+01 6.913974999999999227e+01 2.227720000000000255e+03
1.800000000000000211e-02 2.003579999999999806e-01 2.243885000000000218e+01 7.335829999999999984e+01 2.228599999999999909e+03
1.900000000000000300e-02 2.004905000000000159e-01 2.338965000000000316e+01 7.733339999999999748e+01 2.229569999999999709e+03
2.000000000000000042e-02 2.006000000000000005e-01 2.383295000000000030e+01 7.992889999999999873e+01 2.230389999999999873e+03
2.100000000000000130e-02 2.006614999999999926e-01 2.365230000000000032e+01 8.052264999999999873e+01 2.230875000000000000e+03
2.200000000000000219e-02 2.006664999999999976e-01 2.293634999999999735e+01 7.922380000000001132e+01 2.230954999999999927e+03
2.299999999999999961e-02 2.006255000000000122e-01 2.191460000000000008e+01 7.674084999999999468e+01 2.230680000000000291e+03
2.400000000000000050e-02 2.005600000000000160e-01 2.084069999999999823e+01 7.400440000000000396e+01 2.230220000000000255e+03
2.500000000000000139e-02 2.004920000000000035e-01 1.988754999999999740e+01 7.175489999999999213e+01 2.229730000000000018e+03
2.600000000000000228e-02 2.004365000000000174e-01 1.909750000000000014e+01 7.028810000000000002e+01 2.229314999999999600e+03
2.700000000000000316e-02 2.003960000000000186e-01 1.839880000000000138e+01 6.943670000000000186e+01 2.229010000000000218e+03
2.800000000000000058e-02 2.003630000000000133e-01 1.766635000000000133e+01 6.874879999999998859e+01 2.228765000000000327e+03
2.900000000000000147e-02 2.003260000000000041e-01 1.679619999999999891e+01 6.775289999999999679e+01 2.228500000000000000e+03
3.000000000000000236e-02 2.002774999999999972e-01 1.576324999999999932e+01 6.619780000000000086e+01 2.228149999999999636e+03
3.099999999999999978e-02 2.002140000000000031e-01 1.464359999999999928e+01 6.418070000000000164e+01 2.227695000000000164e+03
3.200000000000000067e-02 2.001450000000000173e-01 1.359435000000000038e+01 6.212470000000000425e+01 2.227199999999999818e+03
3.300000000000000155e-02 2.000844999999999985e-01 1.280004999999999882e+01 6.062095000000000766e+01 2.226750000000000000e+03
3.400000000000000244e-02 2.000490000000000046e-01 1.240719999999999956e+01 6.020420000000000016e+01 2.226475000000000364e+03
3.500000000000000333e-02 2.000514999999999932e-01 1.247334999999999994e+01 6.115155000000000030e+01 2.226469999999999800e+03
3.600000000000000422e-02 2.000945000000000085e-01 1.294640000000000057e+01 6.337684999999999746e+01 2.226755000000000109e+03
3.700000000000000511e-02 2.001720000000000166e-01 1.367790000000000106e+01 6.644785000000000252e+01 2.227300000000000182e+03
3.799999999999999906e-02 2.002690000000000026e-01 1.446164999999999878e+01 6.970350000000000534e+01 2.227994999999999891e+03
3.899999999999999994e-02 2.003639999999999866e-01 1.508135000000000048e+01 7.242220000000000368e+01 2.228680000000000291e+03
4.000000000000000083e-02 2.004365000000000174e-01 1.535389999999999944e+01 7.398419999999998709e+01 2.229220000000000255e+03
4.100000000000000172e-02 2.004694999999999949e-01 1.515854999999999997e+01 7.398754999999999882e+01 2.229470000000000255e+03
4.200000000000000261e-02 2.004529999999999923e-01 1.444785000000000075e+01 7.229599999999999227e+01 2.229369999999999891e+03
4.300000000000000350e-02 2.003840000000000066e-01 1.324160000000000004e+01 6.902109999999998990e+01 2.228894999999999982e+03
4.400000000000000439e-02 2.002654999999999852e-01 1.161058000000000057e+01 6.445664999999999623e+01 2.228050000000000182e+03
4.499999999999999833e-02 2.001074999999999937e-01 9.654970000000000496e+00 5.899219999999999686e+01 2.226920000000000073e+03
4.599999999999999922e-02 1.999210000000000154e-01 7.485739999999999839e+00 5.303334999999999866e+01 2.225570000000000164e+03
4.700000000000000011e-02 1.997180000000000066e-01 5.211570000000000036e+00 4.694599999999999795e+01 2.224090000000000146e+03
4.800000000000000100e-02 1.995085000000000053e-01 2.932995000000000019e+00 4.103164999999999907e+01 2.222574999999999818e+03
4.900000000000000189e-02 1.993039999999999812e-01 7.415450000000001207e-01 3.552835000000000321e+01 2.221079999999999927e+03
5.000000000000000278e-02 1.991114999999999968e-01 -1.277899999999999814e+00 3.062715000000000032e+01 2.219675000000000182e+03
5.100000000000000366e-02 1.989389999999999770e-01 -3.045020999999999756e+00 2.649174999999999969e+01 2.218409999999999854e+03
5.200000000000000455e-02 1.987924999999999831e-01 -4.483755000000000379e+00 2.327214999999999989e+01 2.217329999999999927e+03
5.300000000000000544e-02 1.986780000000000213e-01 -5.524644999999999584e+00 2.110754999999999981e+01 2.216475000000000364e+03
5.399999999999999939e-02 1.986014999999999864e-01 -6.109439999999999316e+00 2.011805000000000021e+01 2.215889999999999873e+03
5.500000000000000028e-02 1.985660000000000203e-01 -6.196754999999999569e+00 2.038980000000000103e+01 2.215605000000000018e+03
5.600000000000000117e-02 1.985744999999999871e-01 -5.767285000000000217e+00 2.195810000000000173e+01 2.215640000000000327e+03
5.700000000000000205e-02 1.986284999999999856e-01 -4.827040000000000219e+00 2.479530000000000101e+01 2.215994999999999891e+03
5.800000000000000294e-02 1.987265000000000004e-01 -3.407807500000000100e+00 2.880634999999999835e+01 2.216675000000000182e+03
5.900000000000000383e-02 1.988655000000000006e-01 -1.564739999999999798e+00 3.383409999999999940e+01 2.217654999999999745e+03
6.000000000000000472e-02 1.990395000000000081e-01 6.283649999999998403e-01 3.967279999999999518e+01 2.218900000000000091e+03
6.099999999999999867e-02 1.992415000000000158e-01 3.085080000000000044e+00 4.608644999999999925e+01 2.220345000000000255e+03
6.199999999999999956e-02 1.994640000000000024e-01 5.712736500000000106e+00 5.282850000000000534e+01 2.221954999999999927e+03
6.300000000000000044e-02 1.996990000000000154e-01 8.418260000000000076e+00 5.965989999999999327e+01 2.223659999999999854e+03
6.400000000000000133e-02 1.999385000000000190e-01 1.111350999999999978e+01 6.636350000000000193e+01 2.225404999999999745e+03
6.500000000000000222e-02 2.001744999999999775e-01 1.371926000000000023e+01 7.275530000000000541e+01 2.227140000000000327e+03
6.600000000000000311e-02 2.004019999999999968e-01 1.616924999999999812e+01 7.869219999999999970e+01 2.228804999999999836e+03
6.700000000000000400e-02 2.006149999999999878e-01 1.841280000000000072e+01 8.407730000000000814e+01 2.230385000000000218e+03
6.800000000000000488e-02 2.008110000000000173e-01 2.041714999999999947e+01 8.886314999999999031e+01 2.231840000000000146e+03
6.900000000000000577e-02 2.009880000000000000e-01 2.216825000000000045e+01 9.305235000000000412e+01 2.233159999999999854e+03
7.000000000000000666e-02 2.011459999999999915e-01 2.367074999999999818e+01 9.669355000000000189e+01 2.234345000000000255e+03
7.100000000000000755e-02 2.012859999999999927e-01 2.494599999999999795e+01 9.987654999999999461e+01 2.235399999999999636e+03
7.200000000000000844e-02 2.014119999999999799e-01 2.602915000000000134e+01 1.027212000000000103e+02 2.236350000000000364e+03
7.300000000000000933e-02 2.015270000000000117e-01 2.696455000000000268e+01 1.053644999999999925e+02 2.237220000000000255e+03
7.399999999999999634e-02 2.016360000000000097e-01 2.780124999999999957e+01 1.079464999999999861e+02 2.238039999999999964e+03
7.499999999999999722e-02 2.017434999999999923e-01 2.858769999999999811e+01 1.105979999999999990e+02 2.238845000000000255e+03
7.599999999999999811e-02 2.018524999999999903e-01 2.936745000000000161e+01 1.134244999999999948e+02 2.239664999999999964e+03
7.699999999999999900e-02 2.019675000000000220e-01 3.017494999999999905e+01 1.165024999999999977e+02 2.240525000000000091e+03
7.799999999999999989e-02 2.020905000000000062e-01 3.103340000000000032e+01 1.198689999999999998e+02 2.241439999999999600e+03
7.900000000000000078e-02 2.022220000000000129e-01 3.195300000000000296e+01 1.235225000000000080e+02 2.242425000000000182e+03
8.000000000000000167e-02 2.023619999999999863e-01 3.293099999999999739e+01 1.274249999999999972e+02 2.243460000000000036e+03
8.100000000000000255e-02 2.025100000000000233e-01 3.395264999999999844e+01 1.315060000000000002e+02 2.244565000000000055e+03
8.200000000000000344e-02 2.026620000000000088e-01 3.499314999999999998e+01 1.356714999999999804e+02 2.245689999999999600e+03
8.300000000000000433e-02 2.028165000000000107e-01 3.602015000000000100e+01 1.398109999999999786e+02 2.246845000000000255e+03
8.400000000000000522e-02 2.029684999999999961e-01 3.699680000000000035e+01 1.438070000000000164e+02 2.247980000000000018e+03
8.500000000000000611e-02 2.031149999999999900e-01 3.788465000000000060e+01 1.475455000000000041e+02 2.249074999999999818e+03
8.600000000000000699e-02 2.032519999999999882e-01 3.864665000000000106e+01 1.509219999999999970e+02 2.250104999999999563e+03
8.700000000000000788e-02 2.033760000000000012e-01 3.924970000000000425e+01 1.538480000000000132e+02 2.251039999999999964e+03
8.800000000000000877e-02 2.034845000000000126e-01 3.966669999999999874e+01 1.562554999999999836e+02 2.251855000000000018e+03
8.899999999999999578e-02 2.035744999999999916e-01 3.987839999999999918e+01 1.581019999999999754e+02 2.252539999999999964e+03
8.999999999999999667e-02 2.036450000000000204e-01 3.987444999999999595e+01 1.593695000000000164e+02 2.253079999999999927e+03
9.099999999999999756e-02 2.036950000000000149e-01 3.965355000000000274e+01 1.600664999999999907e+02 2.253470000000000255e+03
9.199999999999999845e-02 2.037249999999999894e-01 3.922370000000000090e+01 1.602225000000000250e+02 2.253715000000000146e+03
9.299999999999999933e-02 2.037364999999999871e-01 3.860125000000000028e+01 1.598919999999999959e+02 2.253815000000000055e+03
9.400000000000000022e-02 2.037309999999999954e-01 3.780984999999999729e+01 1.591415000000000077e+02 2.253784999999999854e+03
9.500000000000000111e-02 2.037100000000000022e-01 3.687854999999999706e+01 1.580529999999999973e+02 2.253644999999999982e+03
9.600000000000000200e-02 2.036780000000000257e-01 3.584074999999999989e+01 1.567119999999999891e+02 2.253409999999999854e+03
9.700000000000000289e-02 2.036359999999999837e-01 3.473149999999999693e+01 1.552094999999999914e+02 2.253109999999999673e+03
9.800000000000000377e-02 2.035875000000000046e-01 3.358615000000000350e+01 1.536314999999999884e+02 2.252760000000000218e+03
9.900000000000000466e-02 2.035365000000000091e-01 3.243869999999999720e+01 1.520575000000000045e+02 2.252380000000000109e+03
1.000000000000000056e-01 2.034845000000000126e-01 3.131964999999999932e+01 1.505585000000000093e+02 2.251994999999999891e+03
1.010000000000000064e-01 2.034345000000000181e-01 3.025519999999999854e+01 1.491904999999999859e+02 2.251619999999999891e+03
1.020000000000000073e-01 2.033880000000000132e-01 2.926599999999999824e+01 1.479965000000000259e+02 2.251275000000000091e+03
1.030000000000000082e-01 2.033475000000000144e-01 2.836625000000000085e+01 1.470004999999999882e+02 2.250960000000000036e+03
1.040000000000000091e-01 2.033125000000000071e-01 2.756340000000000146e+01 1.462115000000000009e+02 2.250699999999999818e+03
1.050000000000000100e-01 2.032839999999999925e-01 2.685799999999999699e+01 1.456209999999999809e+02 2.250480000000000018e+03
1.059999999999999970e-01 2.032614999999999839e-01 2.624409999999999954e+01 1.452044999999999959e+02 2.250300000000000182e+03
1.069999999999999979e-01 2.032450000000000090e-01 2.570965000000000344e+01 1.449244999999999948e+02 2.250170000000000073e+03
1.079999999999999988e-01 2.032315000000000094e-01 2.523785000000000167e+01 1.447314999999999827e+02 2.250065000000000055e+03
1.089999999999999997e-01 2.032220000000000137e-01 2.480809999999999960e+01 1.445695000000000050e+02 2.249985000000000127e+03
1.100000000000000006e-01 2.032124999999999904e-01 2.439760000000000062e+01 1.443774999999999977e+02 2.249909999999999854e+03
1.110000000000000014e-01 2.032014999999999794e-01 2.398290000000000077e+01 1.440964999999999918e+02 2.249824999999999818e+03
1.120000000000000023e-01 2.031870000000000065e-01 2.354139999999999944e+01 1.436694999999999993e+02 2.249720000000000255e+03
1.130000000000000032e-01 2.031680000000000152e-01 2.305304999999999893e+01 1.430500000000000114e+02 2.249574999999999818e+03
1.140000000000000041e-01 2.031425000000000036e-01 2.250155000000000172e+01 1.422029999999999745e+02 2.249385000000000218e+03
1.150000000000000050e-01 2.031084999999999974e-01 2.187570000000000192e+01 1.411055000000000064e+02 2.249135000000000218e+03
1.160000000000000059e-01 2.030664999999999831e-01 2.116980000000000217e+01 1.397524999999999977e+02 2.248819999999999709e+03
1.170000000000000068e-01 2.030160000000000020e-01 2.038434999999999775e+01 1.381544999999999845e+02 2.248444999999999709e+03
1.180000000000000077e-01 2.029564999999999841e-01 1.952599999999999980e+01 1.363365000000000009e+02 2.248010000000000218e+03
1.190000000000000085e-01 2.028905000000000014e-01 1.860695000000000121e+01 1.343404999999999916e+02 2.247519999999999982e+03
1.200000000000000094e-01 2.028174999999999839e-01 1.764430000000000121e+01 1.322179999999999893e+02 2.246984999999999673e+03
1.209999999999999964e-01 2.027415000000000189e-01 1.665899999999999892e+01 1.300289999999999964e+02 2.246420000000000073e+03
1.219999999999999973e-01 2.026624999999999954e-01 1.567440000000000033e+01 1.278384999999999962e+02 2.245829999999999927e+03
1.229999999999999982e-01 2.025839999999999863e-01 1.471464999999999890e+01 1.257119999999999891e+02 2.245250000000000000e+03
1.239999999999999991e-01 2.025079999999999936e-01 1.380369999999999919e+01 1.237115000000000009e+02 2.244679999999999836e+03
1.250000000000000000e-01 2.024354999999999905e-01 1.296349999999999980e+01 1.218930000000000007e+02 2.244144999999999982e+03
1.260000000000000009e-01 2.023699999999999943e-01 1.221314999999999884e+01 1.203025000000000091e+02 2.243654999999999745e+03
1.270000000000000018e-01 2.023119999999999918e-01 1.156756000000000029e+01 1.189729999999999990e+02 2.243215000000000146e+03
1.280000000000000027e-01 2.022630000000000261e-01 1.103729500000000030e+01 1.179275000000000091e+02 2.242840000000000146e+03
1.290000000000000036e-01 2.022240000000000149e-01 1.062775500000000051e+01 1.171725000000000136e+02 2.242545000000000073e+03
1.300000000000000044e-01 2.021944999999999992e-01 1.033948000000000000e+01 1.167049999999999983e+02 2.242315000000000055e+03
1.310000000000000053e-01 2.021749999999999936e-01 1.016825000000000045e+01 1.165074999999999932e+02 2.242164999999999964e+03
1.320000000000000062e-01 2.021649999999999836e-01 1.010550500000000085e+01 1.165550000000000068e+02 2.242079999999999927e+03
1.330000000000000071e-01 2.021634999999999960e-01 1.013915000000000077e+01 1.168110000000000070e+02 2.242059999999999945e+03
1.340000000000000080e-01 2.021695000000000020e-01 1.025425500000000056e+01 1.172374999999999972e+02 2.242099999999999909e+03
1.350000000000000089e-01 2.021809999999999996e-01 1.043394999999999939e+01 1.177895000000000039e+02 2.242179999999999836e+03
1.360000000000000098e-01 2.021979999999999889e-01 1.066034999999999933e+01 1.184244999999999948e+02 2.242295000000000073e+03
1.370000000000000107e-01 2.022174999999999945e-01 1.091530000000000022e+01 1.190970000000000084e+02 2.242434999999999945e+03
1.380000000000000115e-01 2.022390000000000021e-01 1.118144999999999989e+01 1.197680000000000007e+02 2.242590000000000146e+03
1.390000000000000124e-01 2.022605000000000097e-01 1.144265000000000043e+01 1.204010000000000105e+02 2.242744999999999891e+03
1.400000000000000133e-01 2.022809999999999886e-01 1.168479999999999919e+01 1.209664999999999964e+02 2.242899999999999636e+03
1.410000000000000142e-01 2.022994999999999932e-01 1.189630000000000010e+01 1.214415000000000049e+02 2.243039999999999964e+03
1.420000000000000151e-01 2.023154999999999815e-01 1.206830000000000069e+01 1.218085000000000093e+02 2.243154999999999745e+03
1.430000000000000160e-01 2.023274999999999935e-01 1.219510000000000005e+01 1.220604999999999905e+02 2.243250000000000000e+03
1.440000000000000169e-01 2.023364999999999747e-01 1.227374999999999972e+01 1.221959999999999980e+02 2.243319999999999709e+03
1.450000000000000178e-01 2.023415000000000075e-01 1.230470000000000041e+01 1.222205000000000013e+02 2.243359999999999673e+03
1.459999999999999909e-01 2.023424999999999807e-01 1.229080000000000084e+01 1.221454999999999984e+02 2.243369999999999891e+03
1.469999999999999918e-01 2.023405000000000065e-01 1.223709999999999987e+01 1.219885000000000019e+02 2.243360000000000127e+03
1.479999999999999927e-01 2.023360000000000158e-01 1.215085000000000015e+01 1.217690000000000055e+02 2.243324999999999818e+03
1.489999999999999936e-01 2.023294999999999955e-01 1.204009999999999891e+01 1.215099999999999909e+02 2.243279999999999745e+03
1.499999999999999944e-01 2.023214999999999875e-01 1.191375000000000028e+01 1.212330000000000041e+02 2.243224999999999909e+03
1.509999999999999953e-01 2.023125000000000062e-01 1.178069999999999951e+01 1.209600000000000080e+02 2.243159999999999854e+03
1.519999999999999962e-01 2.023039999999999838e-01 1.164904999999999902e+01 1.207104999999999961e+02 2.243095000000000255e+03
1.529999999999999971e-01 2.022959999999999758e-01 1.152604999999999968e+01 1.204985000000000070e+02 2.243039999999999964e+03
1.539999999999999980e-01 2.022895000000000110e-01 1.141760000000000019e+01 1.203375000000000057e+02 2.242994999999999891e+03
1.549999999999999989e-01 2.022845000000000060e-01 1.132764999999999844e+01 1.202319999999999993e+02 2.242949999999999818e+03
1.559999999999999998e-01 2.022809999999999886e-01 1.125874999999999915e+01 1.201850000000000023e+02 2.242930000000000291e+03
1.570000000000000007e-01 2.022795000000000010e-01 1.121150000000000091e+01 1.201935000000000002e+02 2.242914999999999964e+03
1.580000000000000016e-01 2.022800000000000153e-01 1.118469999999999942e+01 1.202510000000000048e+02 2.242914999999999964e+03
1.590000000000000024e-01 2.022815000000000030e-01 1.117609999999999992e+01 1.203485000000000014e+02 2.242930000000000291e+03
