# t [s], A [cm^2], U [cm/s], P [cPa], c [cm/s]
1.000000000000000021e-03 1.946579999999999977e-01 2.235904999999999976e-01 8.959569999999999368e+01 2.130414999999999964e+03
2.000000000000000042e-03 1.946149999999999824e-01 1.531182500000000113e+00 8.670099999999999341e+01 2.130069999999999709e+03
3.000000000000000062e-03 1.944929999999999992e-01 3.182571000000000261e+00 8.260175000000000978e+01 2.129130000000000109e+03
4.000000000000000083e-03 1.943234999999999824e-01 5.059833499999999873e+00 7.802359999999998763e+01 2.127835000000000036e+03
5.000000000000000104e-03 1.941400000000000070e-01 7.103939999999999699e+00 7.382415000000000305e+01 2.126449999999999818e+03
6.000000000000000125e-03 1.939629999999999965e-01 9.159675000000000011e+00 7.034745000000000914e+01 2.125125000000000000e+03
7.000000000000000146e-03 1.937965000000000104e-01 1.101346500000000006e+01 6.738394999999999868e+01 2.123900000000000091e+03
8.000000000000000167e-03 1.936430000000000096e-01 1.256996499999999983e+01 6.469185000000000230e+01 2.122795000000000073e+03
9.000000000000001055e-03 1.935064999999999980e-01 1.386243999999999943e+01 6.232065000000000055e+01 2.121829999999999927e+03
1.000000000000000194e-02 1.933914999999999940e-01 1.492800000000000082e+01 6.036530000000000484e+01 2.121024999999999636e+03
1.099999999999999936e-02 1.932975000000000110e-01 1.578279999999999816e+01 5.881940000000000168e+01 2.120375000000000000e+03
1.200000000000000025e-02 1.932224999999999915e-01 1.643864999999999910e+01 5.762505000000000166e+01 2.119859999999999673e+03
1.300000000000000114e-02 1.931625000000000147e-01 1.689504999999999768e+01 5.667515000000000214e+01 2.119460000000000036e+03
1.400000000000000203e-02 1.931129999999999791e-01 1.715625000000000000e+01 5.583769999999999811e+01 2.119130000000000109e+03
1.499999999999999944e-02 1.930719999999999936e-01 1.728200000000000003e+01 5.509844999999999970e+01 2.118864999999999782e+03
1.600000000000000033e-02 1.930430000000000201e-01 1.740554999999999808e+01 5.467605000000000359e+01 2.118684999999999945e+03
1.700000000000000122e-02 1.930370000000000141e-01 1.768155000000000143e+01 5.494365000000000521e+01 2.118649999999999636e+03
1.800000000000000211e-02 1.930629999999999846e-01 1.820289999999999964e+01 5.619225000000000136e+01 2.118835000000000036e+03
1.900000000000000300e-02 1.931229999999999891e-01 1.894695000000000107e+01 5.841535000000000366e+01 2.119250000000000000e+03
2.000000000000000042e-02 1.932095000000000062e-01 1.978304999999999936e+01 6.125464999999999804e+01 2.119859999999999673e+03
2.100000000000000130e-02 1.933070000000000066e-01 2.052915000000000134e+01 6.412335000000000207e+01 2.120559999999999945e+03
2.200000000000000219e-02 1.933969999999999856e-01 2.102340000000000231e+01 6.642449999999999477e+01 2.121210000000000036e+03
2.299999999999999961e-02 1.934649999999999981e-01 2.117895000000000039e+01 6.775544999999999618e+01 2.121715000000000146e+03
2.400000000000000050e-02 1.935029999999999806e-01 2.100309999999999988e+01 6.801894999999998959e+01 2.122010000000000218e+03
2.500000000000000139e-02 1.935109999999999886e-01 2.057975000000000065e+01 6.741024999999999068e+01 2.122090000000000146e+03
2.600000000000000228e-02 1.934970000000000023e-01 2.002700000000000102e+01 6.630214999999999748e+01 2.122014999999999873e+03
2.700000000000000316e-02 1.934704999999999897e-01 1.944950000000000045e+01 6.508625000000000682e+01 2.121835000000000036e+03
2.800000000000000058e-02 1.934410000000000018e-01 1.890524999999999878e+01 6.403475000000000250e+01 2.121630000000000109e+03
2.900000000000000147e-02 1.934139999999999748e-01 1.839499999999999957e+01 6.323114999999999952e+01 2.121434999999999945e+03
3.000000000000000236e-02 1.933894999999999920e-01 1.787494999999999834e+01 6.258060000000000400e+01 2.121260000000000218e+03
3.099999999999999978e-02 1.933635000000000215e-01 1.728420000000000201e+01 6.188400000000000034e+01 2.121074999999999818e+03
3.200000000000000067e-02 1.933314999999999895e-01 1.657620000000000005e+01 6.094119999999999493e+01 2.120845000000000255e+03
3.300000000000000155e-02 1.932885000000000020e-01 1.574364999999999881e+01 5.964700000000000557e+01 2.120550000000000182e+03
3.400000000000000244e-02 1.932355000000000045e-01 1.482944999999999958e+01 5.804874999999999829e+01 2.120184999999999945e+03
3.500000000000000333e-02 1.931760000000000144e-01 1.392014999999999958e+01 5.634900000000000375e+01 2.119770000000000437e+03
3.600000000000000422e-02 1.931185000000000263e-01 1.312400000000000055e+01 5.485255000000000081e+01 2.119355000000000018e+03
3.700000000000000511e-02 1.930729999999999946e-01 1.254175000000000040e+01 5.387789999999999679e+01 2.119030000000000200e+03
3.799999999999999906e-02 1.930479999999999974e-01 1.223964999999999925e+01 5.366380000000000194e+01 2.118835000000000036e+03
3.899999999999999994e-02 1.930494999999999850e-01 1.223230000000000040e+01 5.430074999999999363e+01 2.118824999999999818e+03
4.000000000000000083e-02 1.930779999999999996e-01 1.248010000000000019e+01 5.570530000000000115e+01 2.119005000000000109e+03
4.100000000000000172e-02 1.931289999999999951e-01 1.289949999999999974e+01 5.764085000000000036e+01 2.119350000000000364e+03
4.200000000000000261e-02 1.931935000000000180e-01 1.338159999999999883e+01 5.977240000000000464e+01 2.119800000000000182e+03
4.300000000000000350e-02 1.932614999999999750e-01 1.381360000000000099e+01 6.173749999999999716e+01 2.120279999999999745e+03
4.400000000000000439e-02 1.933215000000000072e-01 1.409740000000000038e+01 6.321375000000000455e+01 2.120704999999999927e+03
4.499999999999999833e-02 1.933644999999999947e-01 1.416290000000000049e+01 6.396875000000000000e+01 2.121015000000000327e+03
4.599999999999999922e-02 1.933819999999999983e-01 1.397285000000000110e+01 6.388450000000000273e+01 2.121155000000000200e+03
4.700000000000000011e-02 1.933719999999999883e-01 1.352165000000000106e+01 6.295649999999999835e+01 2.121100000000000364e+03
4.800000000000000100e-02 1.933344999999999925e-01 1.282864999999999966e+01 6.127169999999999561e+01 2.120850000000000364e+03
4.900000000000000189e-02 1.932725000000000137e-01 1.192930499999999938e+01 5.897520000000000095e+01 2.120414999999999964e+03
5.000000000000000278e-02 1.931889999999999996e-01 1.086627999999999972e+01 5.623570000000000135e+01 2.119835000000000036e+03
5.100000000000000366e-02 1.930899999999999839e-01 9.683180000000000121e+00 5.321720000000000539e+01 2.119140000000000327e+03
5.200000000000000455e-02 1.929804999999999993e-01 8.420994999999999564e+00 5.006215000000000259e+01 2.118364999999999782e+03
5.300000000000000544e-02 1.928644999999999943e-01 7.117174999999999585e+00 4.688594999999999402e+01 2.117545000000000073e+03
5.399999999999999939e-02 1.927464999999999873e-01 5.807364999999999888e+00 4.378150000000000119e+01 2.116704999999999927e+03
5.500000000000000028e-02 1.926304999999999823e-01 4.527144999999999975e+00 4.082835000000000036e+01 2.115880000000000109e+03
5.600000000000000117e-02 1.925184999999999813e-01 3.314111000000000029e+00 3.810269999999999868e+01 2.115085000000000036e+03
5.700000000000000205e-02 1.924150000000000027e-01 2.208662499999999973e+00 3.568540000000000134e+01 2.114340000000000146e+03
5.800000000000000294e-02 1.923235000000000083e-01 1.253445000000000142e+00 3.366434999999999889e+01 2.113684999999999945e+03
5.900000000000000383e-02 1.922464999999999868e-01 4.914450000000001317e-01 3.213244999999999862e+01 2.113130000000000109e+03
6.000000000000000472e-02 1.921889999999999987e-01 -3.686000000000000387e-02 3.118124999999999858e+01 2.112699999999999818e+03
6.099999999999999867e-02 1.921530000000000182e-01 -2.967039999999999678e-01 3.089185000000000159e+01 2.112429999999999836e+03
6.199999999999999956e-02 1.921419999999999795e-01 -2.621004999999999585e-01 3.132585000000000264e+01 2.112335000000000036e+03
6.300000000000000044e-02 1.921585000000000099e-01 8.189450000000003671e-02 3.251774999999999949e+01 2.112429999999999836e+03
6.400000000000000133e-02 1.922030000000000127e-01 7.378875000000000295e-01 3.447039999999999793e+01 2.112725000000000364e+03
6.500000000000000222e-02 1.922760000000000025e-01 1.695997500000000047e+00 3.715359999999999729e+01 2.113220000000000255e+03
6.600000000000000311e-02 1.923759999999999915e-01 2.934699499999999794e+00 4.050650000000000261e+01 2.113909999999999854e+03
6.700000000000000400e-02 1.925004999999999911e-01 4.422509999999999941e+00 4.444265000000000043e+01 2.114775000000000091e+03
6.800000000000000488e-02 1.926470000000000127e-01 6.120190000000000019e+00 4.885640000000000072e+01 2.115805000000000291e+03
6.900000000000000577e-02 1.928120000000000112e-01 7.983360000000000234e+00 5.363065000000000282e+01 2.116960000000000036e+03
7.000000000000000666e-02 1.929910000000000236e-01 9.965154999999999319e+00 5.864504999999999768e+01 2.118224999999999909e+03
7.100000000000000755e-02 1.931789999999999896e-01 1.201904000000000039e+01 6.378369999999999607e+01 2.119565000000000055e+03
7.200000000000000844e-02 1.933735000000000037e-01 1.410112499999999969e+01 6.894165000000000987e+01 2.120945000000000164e+03
7.300000000000000933e-02 1.935699999999999921e-01 1.617255000000000109e+01 7.403104999999999336e+01 2.122349999999999909e+03
7.399999999999999634e-02 1.937649999999999928e-01 1.820120000000000005e+01 7.898499999999999943e+01 2.123750000000000000e+03
7.499999999999999722e-02 1.939565000000000039e-01 2.016260000000000119e+01 8.375995000000000346e+01 2.125130000000000109e+03
7.599999999999999811e-02 1.941424999999999956e-01 2.204070000000000107e+01 8.833580000000000609e+01 2.126470000000000255e+03
7.699999999999999900e-02 1.943229999999999957e-01 2.382704999999999984e+01 9.271375000000000455e+01 2.127779999999999745e+03
7.799999999999999989e-02 1.944974999999999898e-01 2.552019999999999911e+01 9.691270000000000095e+01 2.129045000000000073e+03
7.900000000000000078e-02 1.946665000000000201e-01 2.712420000000000186e+01 1.009637500000000045e+02 2.130274999999999636e+03
8.000000000000000167e-02 1.948310000000000042e-01 2.864665000000000106e+01 1.049051500000000061e+02 2.131465000000000146e+03
8.100000000000000255e-02 1.949914999999999843e-01 3.009714999999999918e+01 1.087750000000000057e+02 2.132639999999999873e+03
8.200000000000000344e-02 1.951499999999999901e-01 3.148564999999999969e+01 1.126084999999999923e+02 2.133795000000000073e+03
8.300000000000000433e-02 1.953070000000000084e-01 3.282090000000000174e+01 1.164325000000000045e+02 2.134944999999999709e+03
8.400000000000000522e-02 1.954635000000000122e-01 3.410965000000000202e+01 1.202634999999999934e+02 2.136085000000000036e+03
8.500000000000000611e-02 1.956205000000000027e-01 3.535589999999999833e+01 1.241069999999999993e+02 2.137225000000000364e+03
8.600000000000000699e-02 1.957769999999999788e-01 3.656074999999999875e+01 1.279560000000000031e+02 2.138375000000000000e+03
8.700000000000000788e-02 1.959329999999999961e-01 3.772225000000000250e+01 1.317965000000000089e+02 2.139514999999999873e+03
8.800000000000000877e-02 1.960884999999999989e-01 3.883580000000000609e+01 1.356030000000000086e+02 2.140649999999999636e+03
8.899999999999999578e-02 1.962424999999999864e-01 3.989450000000000074e+01 1.393460000000000036e+02 2.141779999999999745e+03
8.999999999999999667e-02 1.963934999999999986e-01 4.088940000000000197e+01 1.429904999999999973e+02 2.142880000000000109e+03
9.099999999999999756e-02 1.965405000000000069e-01 4.181040000000000134e+01 1.465009999999999764e+02 2.143965000000000146e+03
9.199999999999999845e-02 1.966819999999999957e-01 4.264650000000000318e+01 1.498385000000000105e+02 2.145000000000000000e+03
9.299999999999999933e-02 1.968159999999999910e-01 4.338635000000000019e+01 1.529669999999999845e+02 2.145989999999999782e+03
9.400000000000000022e-02 1.969424999999999926e-01 4.401914999999999623e+01 1.558534999999999968e+02 2.146920000000000073e+03
9.500000000000000111e-02 1.970594999999999986e-01 4.453475000000000250e+01 1.584664999999999964e+02 2.147784999999999854e+03
9.600000000000000200e-02 1.971660000000000079e-01 4.492470000000000141e+01 1.607814999999999941e+02 2.148574999999999818e+03
9.700000000000000289e-02 1.972610000000000197e-01 4.518254999999999910e+01 1.627789999999999964e+02 2.149279999999999745e+03
9.800000000000000377e-02 1.973435000000000050e-01 4.530445000000000277e+01 1.644470000000000027e+02 2.149899999999999636e+03
9.900000000000000466e-02 1.974134999999999918e-01 4.528960000000000008e+01 1.657830000000000155e+02 2.150425000000000182e+03
1.000000000000000056e-01 1.974715000000000220e-01 4.514039999999999964e+01 1.667909999999999968e+02 2.150860000000000127e+03
1.010000000000000064e-01 1.975159999999999971e-01 4.486244999999999550e+01 1.674855000000000018e+02 2.151194999999999709e+03
1.020000000000000073e-01 1.975490000000000024e-01 4.446484999999999843e+01 1.678880000000000052e+02 2.151454999999999927e+03
1.030000000000000082e-01 1.975704999999999822e-01 4.395924999999999727e+01 1.680264999999999986e+02 2.151625000000000000e+03
1.040000000000000091e-01 1.975819999999999799e-01 4.335979999999999990e+01 1.679364999999999952e+02 2.151720000000000255e+03
1.050000000000000100e-01 1.975850000000000106e-01 4.268229999999999791e+01 1.676564999999999941e+02 2.151744999999999891e+03
1.059999999999999970e-01 1.975795000000000190e-01 4.194360000000000355e+01 1.672259999999999991e+02 2.151715000000000146e+03
1.069999999999999979e-01 1.975689999999999946e-01 4.116080000000000183e+01 1.666850000000000023e+02 2.151644999999999982e+03
1.079999999999999988e-01 1.975529999999999786e-01 4.035054999999999836e+01 1.660724999999999909e+02 2.151534999999999854e+03
1.089999999999999997e-01 1.975339999999999874e-01 3.952830000000000155e+01 1.654230000000000018e+02 2.151399999999999636e+03
1.100000000000000006e-01 1.975135000000000085e-01 3.870815000000000339e+01 1.647669999999999959e+02 2.151250000000000000e+03
1.110000000000000014e-01 1.974914999999999865e-01 3.790169999999999817e+01 1.641274999999999977e+02 2.151085000000000036e+03
1.120000000000000023e-01 1.974694999999999923e-01 3.711825000000000330e+01 1.635224999999999795e+02 2.150925000000000182e+03
1.130000000000000032e-01 1.974484999999999990e-01 3.636455000000000126e+01 1.629644999999999868e+02 2.150774999999999636e+03
1.140000000000000041e-01 1.974279999999999924e-01 3.564424999999999955e+01 1.624555000000000007e+02 2.150625000000000000e+03
1.150000000000000050e-01 1.974095000000000155e-01 3.495850000000000080e+01 1.619950000000000045e+02 2.150480000000000018e+03
1.160000000000000059e-01 1.973920000000000119e-01 3.430564999999999998e+01 1.615745000000000005e+02 2.150355000000000018e+03
1.170000000000000068e-01 1.973749999999999949e-01 3.368175000000000097e+01 1.611795000000000186e+02 2.150224999999999909e+03
1.180000000000000077e-01 1.973590000000000066e-01 3.308074999999999477e+01 1.607930000000000064e+02 2.150109999999999673e+03
1.190000000000000085e-01 1.973435000000000050e-01 3.249514999999999532e+01 1.603934999999999889e+02 2.149985000000000127e+03
1.200000000000000094e-01 1.973260000000000014e-01 3.191635000000000133e+01 1.599594999999999914e+02 2.149860000000000127e+03
1.209999999999999964e-01 1.973079999999999834e-01 3.133535000000000181e+01 1.594675000000000011e+02 2.149720000000000255e+03
1.219999999999999973e-01 1.972869999999999902e-01 3.074309999999999832e+01 1.588954999999999984e+02 2.149569999999999709e+03
1.229999999999999982e-01 1.972630000000000217e-01 3.013159999999999883e+01 1.582245000000000061e+02 2.149394999999999982e+03
1.239999999999999991e-01 1.972355000000000080e-01 2.949354999999999905e+01 1.574404999999999859e+02 2.149190000000000055e+03
1.250000000000000000e-01 1.972035000000000038e-01 2.882370000000000232e+01 1.565310000000000059e+02 2.148960000000000036e+03
1.260000000000000009e-01 1.971670000000000089e-01 2.811864999999999881e+01 1.554920000000000186e+02 2.148694999999999709e+03
1.270000000000000018e-01 1.971255000000000090e-01 2.737734999999999985e+01 1.543240000000000123e+02 2.148394999999999982e+03
1.280000000000000027e-01 1.970799999999999774e-01 2.660105000000000075e+01 1.530345000000000084e+02 2.148059999999999945e+03
1.290000000000000036e-01 1.970294999999999963e-01 2.579354999999999976e+01 1.516370000000000005e+02 2.147689999999999600e+03
1.300000000000000044e-01 1.969744999999999968e-01 2.496070000000000277e+01 1.501490000000000009e+02 2.147295000000000073e+03
1.310000000000000053e-01 1.969170000000000087e-01 2.411060000000000159e+01 1.485955000000000155e+02 2.146875000000000000e+03
1.320000000000000062e-01 1.968570000000000042e-01 2.325274999999999892e+01 1.470015000000000214e+02 2.146434999999999945e+03
1.330000000000000071e-01 1.967949999999999977e-01 2.239775000000000205e+01 1.453979999999999961e+02 2.145989999999999782e+03
1.340000000000000080e-01 1.967329999999999912e-01 2.155695000000000050e+01 1.438145000000000095e+02 2.145529999999999745e+03
1.350000000000000089e-01 1.966720000000000135e-01 2.074155000000000015e+01 1.422789999999999964e+02 2.145085000000000036e+03
1.360000000000000098e-01 1.966120000000000090e-01 1.996235000000000070e+01 1.408199999999999932e+02 2.144650000000000091e+03
1.370000000000000107e-01 1.965550000000000075e-01 1.922909999999999897e+01 1.394615000000000009e+02 2.144229999999999563e+03
1.380000000000000115e-01 1.965020000000000100e-01 1.855004999999999882e+01 1.382224999999999966e+02 2.143840000000000146e+03
1.390000000000000124e-01 1.964529999999999887e-01 1.793164999999999765e+01 1.371179999999999950e+02 2.143480000000000018e+03
1.400000000000000133e-01 1.964090000000000003e-01 1.737845000000000084e+01 1.361560000000000059e+02 2.143154999999999745e+03
1.410000000000000142e-01 1.963705000000000034e-01 1.689280000000000115e+01 1.353419999999999845e+02 2.142864999999999782e+03
1.420000000000000151e-01 1.963374999999999981e-01 1.647520000000000095e+01 1.346730000000000018e+02 2.142619999999999891e+03
1.430000000000000160e-01 1.963090000000000113e-01 1.612395000000000067e+01 1.341440000000000055e+02 2.142404999999999745e+03
1.440000000000000169e-01 1.962860000000000160e-01 1.583585000000000065e+01 1.337450000000000045e+02 2.142230000000000018e+03
1.450000000000000178e-01 1.962679999999999980e-01 1.560635000000000083e+01 1.334624999999999773e+02 2.142095000000000255e+03
1.459999999999999909e-01 1.962550000000000128e-01 1.542939999999999934e+01 1.332819999999999823e+02 2.141989999999999782e+03
1.469999999999999918e-01 1.962444999999999884e-01 1.529860000000000042e+01 1.331865000000000236e+02 2.141914999999999964e+03
1.479999999999999927e-01 1.962385000000000101e-01 1.520664999999999978e+01 1.331599999999999966e+02 2.141859999999999673e+03
1.489999999999999936e-01 1.962349999999999928e-01 1.514634999999999998e+01 1.331845000000000141e+02 2.141835000000000036e+03
1.499999999999999944e-01 1.962335000000000051e-01 1.511035000000000039e+01 1.332450000000000045e+02 2.141819999999999709e+03
1.509999999999999953e-01 1.962335000000000051e-01 1.509175000000000111e+01 1.333265000000000100e+02 2.141814999999999600e+03
1.519999999999999962e-01 1.962345000000000061e-01 1.508404999999999951e+01 1.334159999999999968e+02 2.141824999999999818e+03
1.529999999999999971e-01 1.962365000000000081e-01 1.508150000000000013e+01 1.335020000000000095e+02 2.141829999999999927e+03
1.539999999999999980e-01 1.962380000000000235e-01 1.507890000000000086e+01 1.335759999999999934e+02 2.141840000000000146e+03
1.549999999999999989e-01 1.962395000000000111e-01 1.507219999999999871e+01 1.336299999999999955e+02 2.141850000000000364e+03
1.559999999999999998e-01 1.962404999999999844e-01 1.505794999999999995e+01 1.336594999999999800e+02 2.141859999999999673e+03
1.570000000000000007e-01 1.962404999999999844e-01 1.503389999999999915e+01 1.336610000000000014e+02 2.141859999999999673e+03
1.580000000000000016e-01 1.962399999999999978e-01 1.499854999999999983e+01 1.336340000000000146e+02 2.141859999999999673e+03
1.590000000000000024e-01 1.962385000000000101e-01 1.495134999999999970e+01 1.335785000000000196e+02 2.141849999999999909e+03
