# t [s], A [cm^2], U [cm/s], P [cPa], c [cm/s]
1.000000000000000021e-03 7.328600000000000669e-01 5.696600000000003050e-03 9.343534999999999968e+01 1.692269999999999982e+03
2.000000000000000042e-03 7.328470000000000262e-01 -3.473534999999999817e-03 9.340370000000000061e+01 1.692259999999999991e+03
3.000000000000000062e-03 7.329075000000000450e-01 9.404554999999999165e-02 9.351215000000000543e+01 1.692279999999999973e+03
4.000000000000000083e-03 7.329605000000000148e-01 1.935516949999999958e-01 9.363810000000000855e+01 1.692315000000000055e+03
5.000000000000000104e-03 7.329265000000000363e-01 1.652103000000000044e-01 9.356915000000000759e+01 1.692299999999999955e+03
6.000000000000000125e-03 7.328500000000000014e-01 6.450550000000004891e-02 9.333199999999999363e+01 1.692250000000000000e+03
7.000000000000000146e-03 7.327865000000000073e-01 -2.394450000000003520e-02 9.304574999999999818e+01 1.692190000000000055e+03
8.000000000000000167e-03 7.326854999999999896e-01 -1.865299999999999736e-01 9.262139999999999418e+01 1.692095000000000027e+03
9.000000000000001055e-03 7.325150000000000272e-01 -4.782300000000000439e-01 9.196405000000000030e+01 1.691954999999999927e+03
1.000000000000000194e-02 7.322724999999999929e-01 -9.037950000000000150e-01 9.102840000000000487e+01 1.691755000000000109e+03
1.099999999999999936e-02 7.319329999999999448e-01 -1.490824999999999845e+00 8.973750000000001137e+01 1.691474999999999909e+03
1.200000000000000025e-02 7.314899999999999736e-01 -2.235065000000000079e+00 8.804689999999999372e+01 1.691099999999999909e+03
1.300000000000000114e-02 7.309924999999999340e-01 -3.034045000000000325e+00 8.605065000000000452e+01 1.690654999999999973e+03
1.400000000000000203e-02 7.305219999999998937e-01 -3.720029000000000252e+00 8.396940000000000737e+01 1.690164999999999964e+03
1.499999999999999944e-02 7.301429999999999865e-01 -4.150386499999999756e+00 8.203585000000001060e+01 1.689694999999999936e+03
1.600000000000000033e-02 7.298725000000000351e-01 -4.268514999999999837e+00 8.038929999999999154e+01 1.689269999999999982e+03
1.700000000000000122e-02 7.296789999999999665e-01 -4.107590000000000074e+00 7.903874999999999318e+01 1.688889999999999873e+03
1.800000000000000211e-02 7.295089999999999630e-01 -3.756790000000000074e+00 7.788840000000000430e+01 1.688549999999999955e+03
1.900000000000000300e-02 7.293125000000000302e-01 -3.316570000000000018e+00 7.679495000000000005e+01 1.688230000000000018e+03
2.000000000000000042e-02 7.290570000000000661e-01 -2.860818500000000153e+00 7.562964999999999804e+01 1.687884999999999991e+03
2.100000000000000130e-02 7.287390000000000256e-01 -2.416433000000000053e+00 7.432349999999999568e+01 1.687525000000000091e+03
2.200000000000000219e-02 7.283785000000000398e-01 -1.965195000000000247e+00 7.288214999999999577e+01 1.687130000000000109e+03
2.299999999999999961e-02 7.280085000000000583e-01 -1.464910000000000156e+00 7.136740000000000350e+01 1.686720000000000027e+03
2.400000000000000050e-02 7.276540000000000230e-01 -8.785549999999999748e-01 6.985800000000000409e+01 1.686304999999999836e+03
2.500000000000000139e-02 7.273255000000000692e-01 -1.982899999999996332e-01 6.840810000000000457e+01 1.685900000000000091e+03
2.600000000000000228e-02 7.270134999999999792e-01 5.439199999999999591e-01 6.702035000000000764e+01 1.685509999999999991e+03
2.700000000000000316e-02 7.266885000000000705e-01 1.280154999999999932e+00 6.563870000000000005e+01 1.685119999999999891e+03
2.800000000000000058e-02 7.263150000000000439e-01 1.921720000000000095e+00 6.416165000000000873e+01 1.684704999999999927e+03
2.900000000000000147e-02 7.258590000000000320e-01 2.380560000000000009e+00 6.246974999999999767e+01 1.684255000000000109e+03
3.000000000000000236e-02 7.252970000000000805e-01 2.591510000000000424e+00 6.046070000000000277e+01 1.683740000000000009e+03
3.099999999999999978e-02 7.246280000000000499e-01 2.529189999999999827e+00 5.808159999999999457e+01 1.683150000000000091e+03
3.200000000000000067e-02 7.238700000000000134e-01 2.214310000000000223e+00 5.534879999999999711e+01 1.682480000000000018e+03
3.300000000000000155e-02 7.230615000000000236e-01 1.707589999999999719e+00 5.234924999999999784e+01 1.681750000000000000e+03
3.400000000000000244e-02 7.222485000000000710e-01 1.093754999999999811e+00 4.922384999999999877e+01 1.680980000000000018e+03
3.500000000000000333e-02 7.214769999999999239e-01 4.630100000000005878e-01 4.614020000000000010e+01 1.680215000000000146e+03
3.600000000000000422e-02 7.207869999999999555e-01 -1.052800000000004843e-01 4.326394999999999413e+01 1.679485000000000127e+03
3.700000000000000511e-02 7.202040000000000664e-01 -5.519350000000002865e-01 4.073645000000000493e+01 1.678825000000000045e+03
3.799999999999999906e-02 7.197450000000000792e-01 -8.408449999999998425e-01 3.866155000000000541e+01 1.678264999999999873e+03
3.899999999999999994e-02 7.194139999999999979e-01 -9.561900000000000954e-01 3.710164999999999935e+01 1.677820000000000164e+03
4.000000000000000083e-02 7.192095000000000571e-01 -8.963800000000000656e-01 3.608214999999999861e+01 1.677500000000000000e+03
4.100000000000000172e-02 7.191254999999999731e-01 -6.667939999999999978e-01 3.560054999999999836e+01 1.677309999999999945e+03
4.200000000000000261e-02 7.191564999999999763e-01 -2.734114999999999740e-01 3.563790000000000191e+01 1.677244999999999891e+03
4.300000000000000350e-02 7.192970000000000752e-01 2.812999999999999945e-01 3.616910000000000025e+01 1.677309999999999945e+03
4.400000000000000439e-02 7.195430000000000437e-01 9.994149999999999423e-01 3.716944999999999766e+01 1.677494999999999891e+03
4.499999999999999833e-02 7.198934999999999640e-01 1.885769999999999946e+00 3.861730000000000018e+01 1.677795000000000073e+03
4.599999999999999922e-02 7.203454999999999719e-01 2.944335000000000147e+00 4.049219999999999686e+01 1.678204999999999927e+03
4.700000000000000011e-02 7.208940000000000348e-01 4.174290000000000056e+00 4.277094999999999914e+01 1.678724999999999909e+03
4.800000000000000100e-02 7.215314999999999923e-01 5.566899999999999515e+00 4.542324999999999591e+01 1.679340000000000146e+03
4.900000000000000189e-02 7.222459999999999436e-01 7.104327999999999754e+00 4.840845000000000198e+01 1.680039999999999964e+03
5.000000000000000278e-02 7.230240000000000000e-01 8.759959999999999525e+00 5.167489999999999384e+01 1.680824999999999818e+03
5.100000000000000366e-02 7.238474999999999770e-01 1.050071499999999958e+01 5.516134999999999877e+01 1.681664999999999964e+03
5.200000000000000455e-02 7.246995000000000520e-01 1.229017499999999963e+01 5.880055000000000121e+01 1.682555000000000064e+03
5.300000000000000544e-02 7.255639999999999867e-01 1.409182000000000023e+01 6.252450000000000330e+01 1.683480000000000018e+03
5.399999999999999939e-02 7.264249999999999874e-01 1.587209000000000003e+01 6.626879999999999882e+01 1.684420000000000073e+03
5.500000000000000028e-02 7.272719999999999185e-01 1.760304999999999964e+01 6.997804999999999609e+01 1.685360000000000127e+03
5.600000000000000117e-02 7.280964999999999243e-01 1.926310000000000144e+01 7.360835000000000150e+01 1.686295000000000073e+03
5.700000000000000205e-02 7.288945000000000007e-01 2.083809999999999718e+01 7.712964999999999804e+01 1.687215000000000146e+03
5.800000000000000294e-02 7.296640000000000903e-01 2.232014999999999816e+01 8.052539999999999054e+01 1.688099999999999909e+03
5.900000000000000383e-02 7.304064999999999586e-01 2.370725000000000193e+01 8.379184999999999661e+01 1.688970000000000027e+03
6.000000000000000472e-02 7.311244999999999550e-01 2.500164999999999793e+01 8.693559999999999377e+01 1.689804999999999836e+03
6.099999999999999867e-02 7.318225000000000424e-01 2.620875000000000199e+01 8.997135000000000105e+01 1.690619999999999891e+03
6.199999999999999956e-02 7.325064999999999493e-01 2.733605000000000018e+01 9.291890000000000782e+01 1.691414999999999964e+03
6.300000000000000044e-02 7.331810000000000827e-01 2.839189999999999969e+01 9.580074999999999363e+01 1.692190000000000055e+03
6.400000000000000133e-02 7.338504999999999612e-01 2.938429999999999609e+01 9.863894999999999413e+01 1.692960000000000036e+03
6.500000000000000222e-02 7.345189999999999220e-01 3.032049999999999912e+01 1.014521000000000015e+02 1.693714999999999918e+03
6.600000000000000311e-02 7.351889999999999814e-01 3.120584999999999809e+01 1.042559499999999986e+02 1.694470000000000027e+03
6.700000000000000400e-02 7.358609999999999873e-01 3.204354999999999620e+01 1.070579999999999927e+02 1.695219999999999800e+03
6.800000000000000488e-02 7.365344999999999809e-01 3.283389999999999986e+01 1.098605000000000018e+02 1.695970000000000027e+03
6.900000000000000577e-02 7.372065000000000978e-01 3.357495000000000118e+01 1.126560000000000059e+02 1.696720000000000027e+03
7.000000000000000666e-02 7.378730000000000011e-01 3.426210000000000377e+01 1.154314999999999998e+02 1.697465000000000146e+03
7.100000000000000755e-02 7.385289999999999910e-01 3.488909999999999911e+01 1.181690000000000111e+02 1.698200000000000045e+03
7.200000000000000844e-02 7.391684999999998951e-01 3.544849999999999568e+01 1.208439999999999941e+02 1.698924999999999955e+03
7.300000000000000933e-02 7.397845000000000670e-01 3.593234999999999957e+01 1.234314999999999998e+02 1.699625000000000000e+03
7.399999999999999634e-02 7.403724999999999890e-01 3.633324999999999960e+01 1.259055000000000035e+02 1.700299999999999955e+03
7.499999999999999722e-02 7.409255000000000146e-01 3.664450000000000074e+01 1.282410000000000139e+02 1.700940000000000055e+03
7.599999999999999811e-02 7.414389999999999592e-01 3.686070000000000135e+01 1.304150000000000205e+02 1.701545000000000073e+03
7.699999999999999900e-02 7.419099999999999584e-01 3.697814999999999941e+01 1.324099999999999966e+02 1.702105000000000018e+03
7.799999999999999989e-02 7.423349999999999671e-01 3.699479999999999791e+01 1.342119999999999891e+02 1.702619999999999891e+03
7.900000000000000078e-02 7.427120000000000388e-01 3.691029999999999944e+01 1.358104999999999905e+02 1.703079999999999927e+03
8.000000000000000167e-02 7.430409999999999515e-01 3.672644999999999982e+01 1.372015000000000100e+02 1.703485000000000127e+03
8.100000000000000255e-02 7.433229999999999560e-01 3.644644999999999868e+01 1.383849999999999909e+02 1.703840000000000146e+03
8.200000000000000344e-02 7.435575000000000934e-01 3.607560000000000144e+01 1.393665000000000020e+02 1.704139999999999873e+03
8.300000000000000433e-02 7.437485000000000346e-01 3.562080000000000268e+01 1.401535000000000082e+02 1.704394999999999982e+03
8.400000000000000522e-02 7.438985000000000181e-01 3.509064999999999657e+01 1.407599999999999909e+02 1.704599999999999909e+03
8.500000000000000611e-02 7.440115000000000478e-01 3.449524999999999864e+01 1.412030000000000030e+02 1.704750000000000000e+03
8.600000000000000699e-02 7.440925000000000455e-01 3.384584999999999866e+01 1.415010000000000048e+02 1.704865000000000009e+03
8.700000000000000788e-02 7.441470000000000029e-01 3.315464999999999662e+01 1.416754999999999995e+02 1.704950000000000045e+03
8.800000000000000877e-02 7.441789999999999239e-01 3.243410000000000082e+01 1.417504999999999882e+02 1.705000000000000000e+03
8.899999999999999578e-02 7.441960000000000797e-01 3.169679999999999964e+01 1.417479999999999905e+02 1.705025000000000091e+03
8.999999999999999667e-02 7.442005000000000425e-01 3.095450000000000301e+01 1.416910000000000025e+02 1.705035000000000082e+03
9.099999999999999756e-02 7.441990000000000549e-01 3.021795000000000186e+01 1.415999999999999943e+02 1.705030000000000200e+03
9.199999999999999845e-02 7.441944999999999810e-01 2.949630000000000152e+01 1.414940000000000282e+02 1.705019999999999982e+03
9.299999999999999933e-02 7.441899999999999071e-01 2.879650000000000176e+01 1.413859999999999957e+02 1.705000000000000000e+03
9.400000000000000022e-02 7.441869999999999319e-01 2.812334999999999852e+01 1.412875000000000227e+02 1.704980000000000018e+03
9.500000000000000111e-02 7.441865000000000840e-01 2.747950000000000159e+01 1.412044999999999959e+02 1.704964999999999918e+03
9.600000000000000200e-02 7.441895000000000593e-01 2.686495000000000033e+01 1.411380000000000052e+02 1.704945000000000164e+03
9.700000000000000289e-02 7.441934999999999523e-01 2.627799999999999869e+01 1.410869999999999891e+02 1.704929999999999836e+03
9.800000000000000377e-02 7.441964999999999275e-01 2.571495000000000175e+01 1.410450000000000159e+02 1.704914999999999964e+03
9.900000000000000466e-02 7.441975000000000673e-01 2.517065000000000197e+01 1.410024999999999977e+02 1.704900000000000091e+03
1.000000000000000056e-01 7.441934999999999523e-01 2.463905000000000101e+01 1.409499999999999886e+02 1.704884999999999991e+03
1.010000000000000064e-01 7.441800000000000637e-01 2.411339999999999861e+01 1.408729999999999905e+02 1.704865000000000009e+03
1.020000000000000073e-01 7.441569999999999574e-01 2.358689999999999998e+01 1.407609999999999957e+02 1.704835000000000036e+03
1.030000000000000082e-01 7.441189999999999749e-01 2.305299999999999727e+01 1.406005000000000109e+02 1.704795000000000073e+03
1.040000000000000091e-01 7.440649999999999764e-01 2.250565000000000282e+01 1.403810000000000002e+02 1.704740000000000009e+03
1.050000000000000100e-01 7.439940000000000442e-01 2.193979999999999819e+01 1.400939999999999941e+02 1.704670000000000073e+03
1.059999999999999970e-01 7.439035000000000508e-01 2.135170000000000101e+01 1.397330000000000041e+02 1.704585000000000036e+03
1.069999999999999979e-01 7.437940000000000662e-01 2.073920000000000030e+01 1.392939999999999827e+02 1.704474999999999909e+03
1.079999999999999988e-01 7.436659999999999382e-01 2.010154999999999959e+01 1.387780000000000200e+02 1.704349999999999909e+03
1.089999999999999997e-01 7.435205000000000286e-01 1.943990000000000151e+01 1.381875000000000000e+02 1.704210000000000036e+03
1.100000000000000006e-01 7.433600000000000207e-01 1.875720000000000098e+01 1.375294999999999845e+02 1.704045000000000073e+03
1.110000000000000014e-01 7.431870000000000420e-01 1.805790000000000006e+01 1.368149999999999977e+02 1.703865000000000009e+03
1.120000000000000023e-01 7.430044999999999566e-01 1.734805000000000064e+01 1.360554999999999950e+02 1.703674999999999955e+03
1.130000000000000032e-01 7.428170000000000606e-01 1.663470000000000226e+01 1.352674999999999841e+02 1.703474999999999909e+03
1.140000000000000041e-01 7.426279999999999548e-01 1.592590000000000039e+01 1.344669999999999845e+02 1.703275000000000091e+03
1.150000000000000050e-01 7.424429999999999641e-01 1.523015000000000185e+01 1.336719999999999970e+02 1.703070000000000164e+03
1.160000000000000059e-01 7.422649999999999526e-01 1.455604999999999905e+01 1.329004999999999939e+02 1.702865000000000009e+03
1.170000000000000068e-01 7.420990000000000641e-01 1.391184499999999957e+01 1.321689999999999827e+02 1.702674999999999955e+03
1.180000000000000077e-01 7.419474999999999820e-01 1.330504499999999979e+01 1.314935000000000116e+02 1.702494999999999891e+03
1.190000000000000085e-01 7.418130000000000557e-01 1.274226999999999954e+01 1.308880000000000052e+02 1.702329999999999927e+03
1.200000000000000094e-01 7.416985000000000383e-01 1.222868000000000066e+01 1.303615000000000066e+02 1.702180000000000064e+03
1.209999999999999964e-01 7.416059999999999874e-01 1.176804500000000075e+01 1.299234999999999900e+02 1.702055000000000064e+03
1.219999999999999973e-01 7.415350000000000552e-01 1.136236999999999853e+01 1.295765000000000100e+02 1.701950000000000045e+03
1.229999999999999982e-01 7.414849999999999497e-01 1.101206499999999977e+01 1.293220000000000027e+02 1.701869999999999891e+03
1.239999999999999991e-01 7.414549999999999752e-01 1.071594999999999942e+01 1.291569999999999823e+02 1.701809999999999945e+03
1.250000000000000000e-01 7.414445000000000618e-01 1.047133499999999984e+01 1.290759999999999934e+02 1.701769999999999982e+03
1.260000000000000009e-01 7.414499999999999424e-01 1.027433500000000066e+01 1.290699999999999932e+02 1.701750000000000000e+03
1.270000000000000018e-01 7.414695000000000036e-01 1.012001000000000062e+01 1.291295000000000073e+02 1.701750000000000000e+03
1.280000000000000027e-01 7.415005000000000068e-01 1.000276999999999994e+01 1.292425000000000068e+02 1.701764999999999873e+03
1.290000000000000036e-01 7.415389999999999482e-01 9.916634999999999422e+00 1.293965000000000032e+02 1.701789999999999964e+03
1.300000000000000044e-01 7.415829999999999922e-01 9.855415000000000703e+00 1.295794999999999959e+02 1.701825000000000045e+03
1.310000000000000053e-01 7.416294999999999416e-01 9.813095000000000567e+00 1.297795000000000130e+02 1.701869999999999891e+03
1.320000000000000062e-01 7.416765000000000718e-01 9.784029999999999561e+00 1.299859999999999900e+02 1.701914999999999964e+03
1.330000000000000071e-01 7.417219999999999924e-01 9.763054999999999595e+00 1.301885000000000048e+02 1.701960000000000036e+03
1.340000000000000080e-01 7.417640000000000899e-01 9.745570000000000732e+00 1.303799999999999955e+02 1.702005000000000109e+03
1.350000000000000089e-01 7.418010000000000437e-01 9.727699999999998681e+00 1.305540000000000020e+02 1.702049999999999955e+03
1.360000000000000098e-01 7.418329999999999647e-01 9.706400000000000361e+00 1.307065000000000055e+02 1.702085000000000036e+03
1.370000000000000107e-01 7.418590000000000462e-01 9.679234999999998479e+00 1.308335000000000150e+02 1.702119999999999891e+03
1.380000000000000115e-01 7.418789999999999552e-01 9.644560000000000244e+00 1.309345000000000141e+02 1.702144999999999982e+03
1.390000000000000124e-01 7.418925000000000658e-01 9.601295000000000357e+00 1.310099999999999909e+02 1.702170000000000073e+03
1.400000000000000133e-01 7.419014999999999915e-01 9.549150000000000915e+00 1.310595000000000141e+02 1.702179999999999836e+03
1.410000000000000142e-01 7.419054999999999955e-01 9.488179999999999836e+00 1.310875000000000057e+02 1.702194999999999936e+03
1.420000000000000151e-01 7.419054999999999955e-01 9.419064999999999799e+00 1.310955000000000155e+02 1.702200000000000045e+03
1.430000000000000160e-01 7.419014999999999915e-01 9.342905000000000015e+00 1.310869999999999891e+02 1.702204999999999927e+03
1.440000000000000169e-01 7.418955000000000410e-01 9.261025000000000063e+00 1.310664999999999907e+02 1.702195000000000164e+03
1.450000000000000178e-01 7.418890000000000207e-01 9.175055000000000405e+00 1.310375000000000227e+02 1.702195000000000164e+03
1.459999999999999909e-01 7.418810000000000127e-01 9.086579999999999657e+00 1.310039999999999907e+02 1.702184999999999945e+03
1.469999999999999918e-01 7.418739999999999224e-01 8.997374999999999901e+00 1.309695000000000107e+02 1.702180000000000064e+03
1.479999999999999927e-01 7.418674999999999020e-01 8.909150000000000347e+00 1.309375000000000000e+02 1.702170000000000073e+03
1.489999999999999936e-01 7.418624999999999803e-01 8.823280000000000456e+00 1.309105000000000132e+02 1.702164999999999964e+03
1.499999999999999944e-01 7.418605000000000338e-01 8.741049999999999542e+00 1.308905000000000030e+02 1.702164999999999964e+03
1.509999999999999953e-01 7.418595000000000050e-01 8.663434999999999775e+00 1.308790000000000191e+02 1.702160000000000082e+03
1.519999999999999962e-01 7.418614999999999515e-01 8.591020000000000323e+00 1.308770000000000095e+02 1.702160000000000082e+03
1.529999999999999971e-01 7.418655000000000665e-01 8.524119999999999919e+00 1.308834999999999980e+02 1.702160000000000082e+03
1.539999999999999980e-01 7.418709999999999471e-01 8.462679999999998870e+00 1.308974999999999795e+02 1.702164999999999964e+03
1.549999999999999989e-01 7.418780000000000374e-01 8.406355000000001354e+00 1.309180000000000064e+02 1.702170000000000073e+03
1.559999999999999998e-01 7.418854999999999755e-01 8.354570000000000718e+00 1.309429999999999836e+02 1.702174999999999955e+03
1.570000000000000007e-01 7.418934999999999835e-01 8.306570000000000675e+00 1.309705000000000155e+02 1.702179999999999836e+03
1.580000000000000016e-01 7.419009999999999216e-01 8.261520000000000863e+00 1.309970000000000141e+02 1.702184999999999945e+03
1.590000000000000024e-01 7.419074999999999420e-01 8.218564999999999898e+00 1.310209999999999866e+02 1.702194999999999936e+03
