# t [s], A [cm^2], U [cm/s], P [cPa], c [cm/s]
1.000000000000000021e-03 6.571339999999999959e-01 6.830500000000003236e-03 9.689519999999998845e+01 1.811324999999999818e+03
2.000000000000000042e-03 6.571240000000000414e-01 3.236000000000037458e-05 9.686025000000000773e+01 1.811315000000000055e+03
3.000000000000000062e-03 6.571865000000000068e-01 1.236728000000000133e-01 9.701090000000000657e+01 1.811349999999999909e+03
4.000000000000000083e-03 6.572225000000000428e-01 2.149301500000000142e-01 9.712850000000000250e+01 1.811375000000000000e+03
5.000000000000000104e-03 6.571700000000000319e-01 1.450319999999999943e-01 9.697095000000000198e+01 1.811345000000000027e+03
6.000000000000000125e-03 6.571009999999999351e-01 3.629599999999999493e-02 9.666239999999999100e+01 1.811275000000000091e+03
7.000000000000000146e-03 6.570350000000000357e-01 -8.039049999999997587e-02 9.627764999999999418e+01 1.811195000000000164e+03
8.000000000000000167e-03 6.569104999999999528e-01 -3.267499999999999849e-01 9.565590000000000259e+01 1.811059999999999945e+03
9.000000000000001055e-03 6.567184999999999828e-01 -7.273550000000000848e-01 9.471744999999999948e+01 1.810865000000000009e+03
1.000000000000000194e-02 6.564425000000000399e-01 -1.303400000000000114e+00 9.338325000000000387e+01 1.810579999999999927e+03
1.099999999999999936e-02 6.560619999999999230e-01 -2.083229999999999915e+00 9.155405000000000371e+01 1.810190000000000055e+03
1.200000000000000025e-02 6.556055000000000632e-01 -2.983404999999999863e+00 8.928600000000000136e+01 1.809690000000000055e+03
1.300000000000000114e-02 6.551599999999999646e-01 -3.801814999999999944e+00 8.684810000000000230e+01 1.809130000000000109e+03
1.400000000000000203e-02 6.548030000000000239e-01 -4.339932799999999702e+00 8.457255000000000678e+01 1.808585000000000036e+03
1.499999999999999944e-02 6.545594999999999608e-01 -4.509137499999999577e+00 8.267284999999999684e+01 1.808099999999999909e+03
1.600000000000000033e-02 6.543980000000000352e-01 -4.347850000000000215e+00 8.116925000000000523e+01 1.807684999999999945e+03
1.700000000000000122e-02 6.542600000000000637e-01 -3.973794999999999966e+00 7.992440000000000566e+01 1.807319999999999936e+03
1.800000000000000211e-02 6.540894999999999904e-01 -3.517020000000000035e+00 7.873584999999999923e+01 1.806969999999999800e+03
1.900000000000000300e-02 6.538559999999999928e-01 -3.065038499999999999e+00 7.743295000000000528e+01 1.806599999999999909e+03
2.000000000000000042e-02 6.535634999999999639e-01 -2.637503500000000223e+00 7.594275000000000375e+01 1.806195000000000164e+03
2.100000000000000130e-02 6.532394999999999730e-01 -2.196010000000000240e+00 7.430065000000000452e+01 1.805759999999999991e+03
2.200000000000000219e-02 6.529179999999999984e-01 -1.680454999999999810e+00 7.260999999999999943e+01 1.805309999999999945e+03
2.299999999999999961e-02 6.526250000000000107e-01 -1.051424999999999832e+00 7.097509999999999764e+01 1.804865000000000009e+03
2.400000000000000050e-02 6.523589999999999112e-01 -3.187550000000001216e-01 6.944329999999999359e+01 1.804444999999999936e+03
2.500000000000000139e-02 6.520985000000000253e-01 4.523250000000000881e-01 6.797525000000000261e+01 1.804029999999999973e+03
2.600000000000000228e-02 6.518064999999999554e-01 1.155854999999999855e+00 6.645109999999999673e+01 1.803605000000000018e+03
2.700000000000000316e-02 6.514420000000000766e-01 1.673405000000000253e+00 6.470475000000000421e+01 1.803144999999999982e+03
2.800000000000000058e-02 6.509730000000000238e-01 1.907459999999999933e+00 6.257649999999999579e+01 1.802610000000000127e+03
2.900000000000000147e-02 6.503904999999999825e-01 1.809984999999999733e+00 5.996729999999999450e+01 1.801969999999999800e+03
3.000000000000000236e-02 6.497125000000000261e-01 1.396435000000000315e+00 5.687675000000000125e+01 1.801230000000000018e+03
3.099999999999999978e-02 6.489750000000000796e-01 7.398199999999999221e-01 5.341044999999999732e+01 1.800404999999999973e+03
3.200000000000000067e-02 6.482289999999999441e-01 -5.151500000000019952e-02 4.975665000000000049e+01 1.799535000000000082e+03
3.300000000000000155e-02 6.475229999999999597e-01 -8.620449999999992841e-01 4.614270000000000493e+01 1.798660000000000082e+03
3.400000000000000244e-02 6.468979999999999730e-01 -1.592540000000000067e+00 4.279085000000000605e+01 1.797824999999999818e+03
3.500000000000000333e-02 6.463799999999999546e-01 -2.173229999999999773e+00 3.988369999999999749e+01 1.797085000000000036e+03
3.600000000000000422e-02 6.459820000000000562e-01 -2.566260000000000652e+00 3.754630000000000223e+01 1.796454999999999927e+03
3.700000000000000511e-02 6.457049999999999734e-01 -2.760034999999999794e+00 3.584404999999999575e+01 1.795974999999999909e+03
3.799999999999999906e-02 6.455444999999999656e-01 -2.759264500000000009e+00 3.479205000000000325e+01 1.795639999999999873e+03
3.899999999999999994e-02 6.454929999999999835e-01 -2.574209999999999887e+00 3.437184999999999491e+01 1.795460000000000036e+03
4.000000000000000083e-02 6.455435000000000478e-01 -2.212264999999999926e+00 3.454919999999999902e+01 1.795424999999999955e+03
4.100000000000000172e-02 6.456925000000000026e-01 -1.673819999999999864e+00 3.528829999999999956e+01 1.795535000000000082e+03
4.200000000000000261e-02 6.459360000000000657e-01 -9.531000000000000583e-01 3.655859999999999843e+01 1.795775000000000091e+03
4.300000000000000350e-02 6.462734999999999452e-01 -4.271000000000002572e-02 3.833445000000000391e+01 1.796150000000000091e+03
4.400000000000000439e-02 6.467015000000000402e-01 1.060274999999999856e+00 4.058944999999999936e+01 1.796639999999999873e+03
4.499999999999999833e-02 6.472130000000000383e-01 2.349055000000000337e+00 4.328865000000000407e+01 1.797255000000000109e+03
4.599999999999999922e-02 6.477969999999999562e-01 3.804325000000000401e+00 4.638304999999999723e+01 1.797960000000000036e+03
4.700000000000000011e-02 6.484385000000000288e-01 5.394660000000000011e+00 4.980705000000000382e+01 1.798759999999999991e+03
4.800000000000000100e-02 6.491199999999999193e-01 7.079150000000000276e+00 5.348035000000000139e+01 1.799630000000000109e+03
4.900000000000000189e-02 6.498230000000000395e-01 8.812128500000000031e+00 5.731354999999999933e+01 1.800549999999999955e+03
5.000000000000000278e-02 6.505309999999999704e-01 1.054810499999999962e+01 6.121590000000000487e+01 1.801500000000000000e+03
5.100000000000000366e-02 6.512280000000000291e-01 1.224634000000000000e+01 6.510294999999999277e+01 1.802460000000000036e+03
5.200000000000000455e-02 6.519034999999999691e-01 1.387380500000000083e+01 6.890394999999999470e+01 1.803410000000000082e+03
5.300000000000000544e-02 6.525495000000000045e-01 1.540718500000000191e+01 7.256629999999999825e+01 1.804345000000000027e+03
5.399999999999999939e-02 6.531635000000000080e-01 1.683270000000000266e+01 7.605754999999999200e+01 1.805240000000000009e+03
5.500000000000000028e-02 6.537460000000000493e-01 1.814529999999999887e+01 7.936514999999999986e+01 1.806099999999999909e+03
5.600000000000000117e-02 6.542989999999999640e-01 1.934709999999999752e+01 8.249379999999999313e+01 1.806924999999999955e+03
5.700000000000000205e-02 6.548279999999999657e-01 2.044505000000000194e+01 8.546184999999999832e+01 1.807710000000000036e+03
5.800000000000000294e-02 6.553390000000000049e-01 2.144959999999999667e+01 8.829679999999999040e+01 1.808465000000000146e+03
5.900000000000000383e-02 6.558375000000000732e-01 2.237255000000000038e+01 9.103145000000000664e+01 1.809190000000000055e+03
6.000000000000000472e-02 6.563295000000000101e-01 2.322595000000000098e+01 9.369884999999999309e+01 1.809900000000000091e+03
6.099999999999999867e-02 6.568190000000000417e-01 2.402040000000000219e+01 9.632904999999999518e+01 1.810599999999999909e+03
6.199999999999999956e-02 6.573100000000000609e-01 2.476425000000000054e+01 9.894540000000000646e+01 1.811295000000000073e+03
6.300000000000000044e-02 6.578040000000000553e-01 2.546249999999999858e+01 1.015621500000000026e+02 1.811985000000000127e+03
6.400000000000000133e-02 6.582995000000000374e-01 2.611659999999999826e+01 1.041839499999999958e+02 1.812675000000000182e+03
6.500000000000000222e-02 6.587950000000000195e-01 2.672439999999999927e+01 1.068025000000000091e+02 1.813365000000000009e+03
6.600000000000000311e-02 6.592860000000000387e-01 2.728065000000000140e+01 1.094025000000000034e+02 1.814049999999999955e+03
6.700000000000000400e-02 6.597659999999999636e-01 2.777769999999999939e+01 1.119579999999999984e+02 1.814724999999999909e+03
6.800000000000000488e-02 6.602304999999999424e-01 2.820680000000000121e+01 1.144394999999999953e+02 1.815375000000000000e+03
6.900000000000000577e-02 6.606735000000000246e-01 2.855884999999999962e+01 1.168130000000000024e+02 1.816009999999999991e+03
7.000000000000000666e-02 6.610880000000000090e-01 2.882545000000000002e+01 1.190474999999999994e+02 1.816610000000000127e+03
7.100000000000000755e-02 6.614700000000000024e-01 2.899965000000000259e+01 1.211119999999999948e+02 1.817170000000000073e+03
7.200000000000000844e-02 6.618144999999999722e-01 2.907634999999999792e+01 1.229819999999999993e+02 1.817690000000000055e+03
7.300000000000000933e-02 6.621185000000000542e-01 2.905239999999999867e+01 1.246364999999999981e+02 1.818150000000000091e+03
7.399999999999999634e-02 6.623809999999999976e-01 2.892689999999999984e+01 1.260625000000000000e+02 1.818554999999999836e+03
7.499999999999999722e-02 6.625995000000000079e-01 2.870125000000000171e+01 1.272530000000000143e+02 1.818904999999999973e+03
7.599999999999999811e-02 6.627760000000000318e-01 2.837875000000000014e+01 1.282059999999999889e+02 1.819190000000000055e+03
7.699999999999999900e-02 6.629110000000000280e-01 2.796529999999999916e+01 1.289290000000000020e+02 1.819420000000000073e+03
7.799999999999999989e-02 6.630070000000000130e-01 2.746855000000000047e+01 1.294309999999999832e+02 1.819595000000000027e+03
7.900000000000000078e-02 6.630665000000000031e-01 2.689855000000000018e+01 1.297305000000000064e+02 1.819715000000000146e+03
8.000000000000000167e-02 6.630949999999999900e-01 2.626689999999999969e+01 1.298489999999999895e+02 1.819784999999999854e+03
8.100000000000000255e-02 6.630959999999999077e-01 2.558699999999999974e+01 1.298110000000000070e+02 1.819809999999999945e+03
8.200000000000000344e-02 6.630759999999999987e-01 2.487299999999999756e+01 1.296449999999999818e+02 1.819799999999999955e+03
8.300000000000000433e-02 6.630395000000000039e-01 2.413964999999999961e+01 1.293820000000000050e+02 1.819764999999999873e+03
8.400000000000000522e-02 6.629920000000000258e-01 2.340124999999999744e+01 1.290504999999999995e+02 1.819700000000000045e+03
8.500000000000000611e-02 6.629389999999999450e-01 2.267109999999999914e+01 1.286800000000000068e+02 1.819625000000000000e+03
8.600000000000000699e-02 6.628844999999999876e-01 2.196069999999999922e+01 1.282964999999999804e+02 1.819539999999999964e+03
8.700000000000000788e-02 6.628325000000000466e-01 2.127924999999999756e+01 1.279219999999999970e+02 1.819449999999999818e+03
8.800000000000000877e-02 6.627844999999999986e-01 2.063319999999999865e+01 1.275724999999999909e+02 1.819359999999999900e+03
8.899999999999999578e-02 6.627419999999999423e-01 2.002595000000000169e+01 1.272580000000000098e+02 1.819280000000000200e+03
8.999999999999999667e-02 6.627060000000000173e-01 1.945795000000000030e+01 1.269849999999999994e+02 1.819204999999999927e+03
9.099999999999999756e-02 6.626760000000000428e-01 1.892695000000000149e+01 1.267510000000000048e+02 1.819144999999999982e+03
9.199999999999999845e-02 6.626490000000000435e-01 1.842839999999999989e+01 1.265504999999999995e+02 1.819079999999999927e+03
9.299999999999999933e-02 6.626239999999999908e-01 1.795570000000000022e+01 1.263719999999999999e+02 1.819034999999999854e+03
9.400000000000000022e-02 6.625974999999999504e-01 1.750104999999999933e+01 1.262030000000000030e+02 1.818980000000000018e+03
9.500000000000000111e-02 6.625674999999999759e-01 1.705570000000000164e+01 1.260275000000000034e+02 1.818929999999999836e+03
9.600000000000000200e-02 6.625304999999999112e-01 1.661094999999999899e+01 1.258299999999999983e+02 1.818869999999999891e+03
9.700000000000000289e-02 6.624839999999999618e-01 1.615825000000000244e+01 1.255939999999999941e+02 1.818809999999999945e+03
9.800000000000000377e-02 6.624255000000000004e-01 1.568989999999999974e+01 1.253064999999999998e+02 1.818740000000000009e+03
9.900000000000000466e-02 6.623544999999999572e-01 1.519969999999999999e+01 1.249560000000000031e+02 1.818650000000000091e+03
1.000000000000000056e-01 6.622695000000000665e-01 1.468309999999999960e+01 1.245349999999999966e+02 1.818545000000000073e+03
1.010000000000000064e-01 6.621695000000000775e-01 1.413759999999999906e+01 1.240399999999999920e+02 1.818425000000000182e+03
1.020000000000000073e-01 6.620559999999999778e-01 1.356304500000000068e+01 1.234724999999999966e+02 1.818289999999999964e+03
1.030000000000000082e-01 6.619310000000000471e-01 1.296149499999999932e+01 1.228375000000000057e+02 1.818134999999999991e+03
1.040000000000000091e-01 6.617965000000000098e-01 1.233737500000000153e+01 1.221474999999999937e+02 1.817970000000000027e+03
1.050000000000000100e-01 6.616554999999999520e-01 1.169707500000000167e+01 1.214149999999999920e+02 1.817784999999999854e+03
1.059999999999999970e-01 6.615124999999999478e-01 1.104868499999999898e+01 1.206599999999999966e+02 1.817599999999999909e+03
1.069999999999999979e-01 6.613704999999999723e-01 1.040160999999999980e+01 1.199025000000000034e+02 1.817409999999999854e+03
1.079999999999999988e-01 6.612340000000000995e-01 9.765935000000000699e+00 1.191640000000000015e+02 1.817224999999999909e+03
1.089999999999999997e-01 6.611074999999999591e-01 9.151880000000000237e+00 1.184675000000000011e+02 1.817045000000000073e+03
1.100000000000000006e-01 6.609945000000000404e-01 8.569420000000000925e+00 1.178344999999999914e+02 1.816884999999999991e+03
1.110000000000000014e-01 6.608990000000000142e-01 8.027435000000000542e+00 1.172830000000000013e+02 1.816730000000000018e+03
1.120000000000000023e-01 6.608224999999999794e-01 7.533640000000000114e+00 1.168294999999999959e+02 1.816610000000000127e+03
1.130000000000000032e-01 6.607669999999999932e-01 7.093770000000000131e+00 1.164865000000000066e+02 1.816509999999999991e+03
1.140000000000000041e-01 6.607345000000000024e-01 6.711640000000000050e+00 1.162605000000000075e+02 1.816434999999999945e+03
1.150000000000000050e-01 6.607240000000000890e-01 6.388880000000000337e+00 1.161544999999999987e+02 1.816394999999999982e+03
1.160000000000000059e-01 6.607345000000000024e-01 6.124950000000000117e+00 1.161659999999999968e+02 1.816375000000000000e+03
1.170000000000000068e-01 6.607655000000000056e-01 5.917310000000000514e+00 1.162874999999999943e+02 1.816389999999999873e+03
1.180000000000000077e-01 6.608129999999999837e-01 5.761639999999999873e+00 1.165090000000000003e+02 1.816425000000000182e+03
1.190000000000000085e-01 6.608749999999999902e-01 5.652210000000000178e+00 1.168155000000000001e+02 1.816489999999999782e+03
1.200000000000000094e-01 6.609479999999999800e-01 5.582254999999999967e+00 1.171914999999999907e+02 1.816569999999999936e+03
1.209999999999999964e-01 6.610300000000000065e-01 5.544410000000000061e+00 1.176194999999999879e+02 1.816664999999999964e+03
1.219999999999999973e-01 6.611165000000001069e-01 5.531074999999999520e+00 1.180815000000000055e+02 1.816769999999999982e+03
1.229999999999999982e-01 6.612050000000000427e-01 5.534784999999999400e+00 1.185614999999999952e+02 1.816880000000000109e+03
1.239999999999999991e-01 6.612919999999999909e-01 5.548505000000000464e+00 1.190424999999999898e+02 1.817000000000000000e+03
1.250000000000000000e-01 6.613765000000000338e-01 5.565859999999999808e+00 1.195105000000000075e+02 1.817115000000000009e+03
1.260000000000000009e-01 6.614560000000000439e-01 5.581305000000000405e+00 1.199555000000000007e+02 1.817224999999999909e+03
1.270000000000000018e-01 6.615290000000000337e-01 5.590220000000000411e+00 1.203675000000000068e+02 1.817329999999999927e+03
1.280000000000000027e-01 6.615949999999999331e-01 5.588969999999999771e+00 1.207400000000000091e+02 1.817424999999999955e+03
1.290000000000000036e-01 6.616524999999999768e-01 5.574910000000000032e+00 1.210689999999999884e+02 1.817514999999999873e+03
1.300000000000000044e-01 6.617020000000000124e-01 5.546380000000000088e+00 1.213520000000000039e+02 1.817589999999999918e+03
1.310000000000000053e-01 6.617435000000000400e-01 5.502654999999999852e+00 1.215905000000000058e+02 1.817659999999999854e+03
1.320000000000000062e-01 6.617774999999999075e-01 5.443834999999999980e+00 1.217849999999999966e+02 1.817714999999999918e+03
1.330000000000000071e-01 6.618049999999999766e-01 5.370784999999999698e+00 1.219399999999999977e+02 1.817759999999999991e+03
1.340000000000000080e-01 6.618260000000000254e-01 5.285004999999999953e+00 1.220585000000000093e+02 1.817795000000000073e+03
1.350000000000000089e-01 6.618425000000000002e-01 5.188455000000000261e+00 1.221469999999999914e+02 1.817829999999999927e+03
1.360000000000000098e-01 6.618550000000000821e-01 5.083429999999999893e+00 1.222104999999999961e+02 1.817849999999999909e+03
1.370000000000000107e-01 6.618644999999999667e-01 4.972339999999999982e+00 1.222539999999999907e+02 1.817865000000000009e+03
1.380000000000000115e-01 6.618724999999999747e-01 4.857594999999999885e+00 1.222830000000000013e+02 1.817880000000000109e+03
1.390000000000000124e-01 6.618785000000000363e-01 4.741394999999999804e+00 1.223015000000000043e+02 1.817884999999999991e+03
1.400000000000000133e-01 6.618835000000000690e-01 4.625609999999999999e+00 1.223145000000000095e+02 1.817894999999999982e+03
1.410000000000000142e-01 6.618880000000000319e-01 4.511689999999999756e+00 1.223225000000000051e+02 1.817900000000000091e+03
1.420000000000000151e-01 6.618920000000000359e-01 4.400585000000000413e+00 1.223275000000000006e+02 1.817905000000000200e+03
1.430000000000000160e-01 6.618960000000000399e-01 4.292749999999999844e+00 1.223290000000000077e+02 1.817905000000000200e+03
1.440000000000000169e-01 6.618984999999999452e-01 4.188170000000000393e+00 1.223264999999999958e+02 1.817905000000000200e+03
1.450000000000000178e-01 6.618999999999999329e-01 4.086454999999999949e+00 1.223170000000000073e+02 1.817910000000000082e+03
1.459999999999999909e-01 6.618984999999999452e-01 3.986940000000000150e+00 1.222980000000000018e+02 1.817900000000000091e+03
1.469999999999999918e-01 6.618954999999999700e-01 3.888795000000000002e+00 1.222665000000000077e+02 1.817894999999999982e+03
1.479999999999999927e-01 6.618880000000000319e-01 3.791195000000000093e+00 1.222185000000000059e+02 1.817889999999999873e+03
1.489999999999999936e-01 6.618775000000000075e-01 3.693405000000000271e+00 1.221525000000000034e+02 1.817869999999999891e+03
1.499999999999999944e-01 6.618625000000000203e-01 3.594904999999999795e+00 1.220649999999999977e+02 1.817849999999999909e+03
1.509999999999999953e-01 6.618429999999999591e-01 3.495465000000000266e+00 1.219559999999999889e+02 1.817824999999999818e+03
1.519999999999999962e-01 6.618200000000000749e-01 3.395169999999999799e+00 1.218245000000000005e+02 1.817795000000000073e+03
1.529999999999999971e-01 6.617919999999999359e-01 3.294484999999999886e+00 1.216705000000000041e+02 1.817755000000000109e+03
1.539999999999999980e-01 6.617604999999999738e-01 3.194185000000000052e+00 1.214975000000000023e+02 1.817715000000000146e+03
1.549999999999999989e-01 6.617269999999999541e-01 3.095369999999999955e+00 1.213070000000000022e+02 1.817670000000000073e+03
1.559999999999999998e-01 6.616900000000000004e-01 2.999379999999999935e+00 1.211030000000000086e+02 1.817615000000000009e+03
1.570000000000000007e-01 6.616515000000000590e-01 2.907779999999999809e+00 1.208894999999999982e+02 1.817565000000000055e+03
1.580000000000000016e-01 6.616130000000000067e-01 2.822270000000000056e+00 1.206719999999999970e+02 1.817509999999999991e+03
1.590000000000000024e-01 6.615739999999999954e-01 2.744609999999999772e+00 1.204549999999999983e+02 1.817450000000000045e+03
