# t [s], A [cm^2], U [cm/s], P [cPa], c [cm/s]
1.000000000000000021e-03 1.731199999999999961e-01 2.085410000000000041e-01 1.036024999999999920e+02 2.128750000000000000e+03
2.000000000000000042e-03 1.730835000000000012e-01 1.632710500000000176e+00 1.005246500000000083e+02 2.128380000000000109e+03
3.000000000000000062e-03 1.729700000000000126e-01 3.447545499999999929e+00 9.617279999999999518e+01 2.127309999999999945e+03
4.000000000000000083e-03 1.728089999999999904e-01 5.504981100000000183e+00 9.120660000000000878e+01 2.125809999999999945e+03
5.000000000000000104e-03 1.726300000000000057e-01 7.737499999999999822e+00 8.651489999999999725e+01 2.124159999999999854e+03
6.000000000000000125e-03 1.724539999999999962e-01 1.000103499999999990e+01 8.253945000000000221e+01 2.122550000000000182e+03
7.000000000000000146e-03 1.722879999999999967e-01 1.208593000000000117e+01 7.917670000000001096e+01 2.121059999999999945e+03
8.000000000000000167e-03 1.721345000000000236e-01 1.386562999999999946e+01 7.617840000000001055e+01 2.119710000000000036e+03
9.000000000000001055e-03 1.719964999999999966e-01 1.534755000000000180e+01 7.353305000000000291e+01 2.118515000000000327e+03
1.000000000000000194e-02 1.718795000000000184e-01 1.657029999999999959e+01 7.133334999999999582e+01 2.117515000000000327e+03
1.099999999999999936e-02 1.717830000000000190e-01 1.755624999999999858e+01 6.959759999999999991e+01 2.116695000000000164e+03
1.200000000000000025e-02 1.717064999999999841e-01 1.832079999999999842e+01 6.828204999999999814e+01 2.116059999999999945e+03
1.300000000000000114e-02 1.716464999999999796e-01 1.886874999999999858e+01 6.729330000000000211e+01 2.115569999999999709e+03
1.400000000000000203e-02 1.715995000000000159e-01 1.920114999999999839e+01 6.649625000000000341e+01 2.115195000000000164e+03
1.499999999999999944e-02 1.715609999999999913e-01 1.935495000000000232e+01 6.581655000000000655e+01 2.114895000000000437e+03
1.600000000000000033e-02 1.715335000000000054e-01 1.943260000000000076e+01 6.536525000000000318e+01 2.114684999999999945e+03
1.700000000000000122e-02 1.715224999999999944e-01 1.957610000000000028e+01 6.543180000000000973e+01 2.114610000000000127e+03
1.800000000000000211e-02 1.715355000000000074e-01 1.990015000000000001e+01 6.631935000000000002e+01 2.114735000000000127e+03
1.900000000000000300e-02 1.715774999999999939e-01 2.043374999999999986e+01 6.814259999999998740e+01 2.115095000000000255e+03
2.000000000000000042e-02 1.716455000000000064e-01 2.110645000000000238e+01 7.072249999999999659e+01 2.115675000000000182e+03
2.100000000000000130e-02 1.717295000000000071e-01 2.178049999999999997e+01 7.363094999999999857e+01 2.116405000000000200e+03
2.200000000000000219e-02 1.718169999999999975e-01 2.230770000000000053e+01 7.634395000000000664e+01 2.117170000000000073e+03
2.299999999999999961e-02 1.718945000000000056e-01 2.258155000000000001e+01 7.842009999999999081e+01 2.117860000000000127e+03
2.400000000000000050e-02 1.719525000000000081e-01 2.256705000000000183e+01 7.962989999999999213e+01 2.118394999999999982e+03
2.500000000000000139e-02 1.719884999999999886e-01 2.229990000000000094e+01 7.999459999999999127e+01 2.118730000000000018e+03
2.600000000000000228e-02 1.720034999999999759e-01 2.186204999999999998e+01 7.973470000000000368e+01 2.118885000000000218e+03
2.700000000000000316e-02 1.720054999999999779e-01 2.134510000000000218e+01 7.915980000000000416e+01 2.118914999999999964e+03
2.800000000000000058e-02 1.719990000000000130e-01 2.081755000000000067e+01 7.854855000000000587e+01 2.118869999999999891e+03
2.900000000000000147e-02 1.719910000000000050e-01 2.030579999999999785e+01 7.806069999999999709e+01 2.118805000000000291e+03
3.000000000000000236e-02 1.719835000000000114e-01 1.979374999999999929e+01 7.770709999999999695e+01 2.118739999999999782e+03
3.099999999999999978e-02 1.719755000000000034e-01 1.923785000000000167e+01 7.737694999999999368e+01 2.118670000000000073e+03
3.200000000000000067e-02 1.719625000000000181e-01 1.859035000000000082e+01 7.690425000000000466e+01 2.118564999999999600e+03
3.300000000000000155e-02 1.719430000000000125e-01 1.782274999999999920e+01 7.614860000000000184e+01 2.118399999999999636e+03
3.400000000000000244e-02 1.719134999999999969e-01 1.694245000000000090e+01 7.506235000000000923e+01 2.118154999999999745e+03
3.500000000000000333e-02 1.718760000000000010e-01 1.599739999999999895e+01 7.372469999999999857e+01 2.117840000000000146e+03
3.600000000000000422e-02 1.718335000000000001e-01 1.506734999999999935e+01 7.233160000000000878e+01 2.117480000000000018e+03
3.700000000000000511e-02 1.717940000000000023e-01 1.424469999999999992e+01 7.114695000000000391e+01 2.117135000000000218e+03
3.799999999999999906e-02 1.717635000000000134e-01 1.361100000000000065e+01 7.043035000000000423e+01 2.116860000000000127e+03
3.899999999999999994e-02 1.717489999999999850e-01 1.321739999999999959e+01 7.036690000000000111e+01 2.116724999999999909e+03
4.000000000000000083e-02 1.717539999999999900e-01 1.307274999999999920e+01 7.101824999999999477e+01 2.116750000000000000e+03
4.100000000000000172e-02 1.717794999999999739e-01 1.314339999999999975e+01 7.230830000000000268e+01 2.116954999999999927e+03
4.200000000000000261e-02 1.718215000000000159e-01 1.336219999999999963e+01 7.404250000000000398e+01 2.117295000000000073e+03
4.300000000000000350e-02 1.718739999999999990e-01 1.364315000000000033e+01 7.595230000000000814e+01 2.117739999999999782e+03
4.400000000000000439e-02 1.719295000000000129e-01 1.389785000000000004e+01 7.774969999999999004e+01 2.118215000000000146e+03
4.499999999999999833e-02 1.719804999999999806e-01 1.404945000000000022e+01 7.917820000000000391e+01 2.118655000000000200e+03
4.599999999999999922e-02 1.720190000000000052e-01 1.404230000000000089e+01 8.005049999999999955e+01 2.118994999999999891e+03
4.700000000000000011e-02 1.720409999999999995e-01 1.384525000000000006e+01 8.026650000000000773e+01 2.119199999999999818e+03
4.800000000000000100e-02 1.720440000000000025e-01 1.345040000000000013e+01 7.981180000000000518e+01 2.119239999999999782e+03
4.900000000000000189e-02 1.720274999999999999e-01 1.286829999999999963e+01 7.874170000000000869e+01 2.119105000000000018e+03
5.000000000000000278e-02 1.719924999999999926e-01 1.212089999999999890e+01 7.715600000000000591e+01 2.118810000000000400e+03
5.100000000000000366e-02 1.719414999999999971e-01 1.123574999999999946e+01 7.517334999999999923e+01 2.118385000000000218e+03
5.200000000000000455e-02 1.718784999999999896e-01 1.024089000000000027e+01 7.291024999999999068e+01 2.117840000000000146e+03
5.300000000000000544e-02 1.718054999999999999e-01 9.162795000000000911e+00 7.046829999999999927e+01 2.117215000000000146e+03
5.399999999999999939e-02 1.717259999999999898e-01 8.026184999999999903e+00 6.793049999999999500e+01 2.116529999999999745e+03
5.500000000000000028e-02 1.716420000000000168e-01 6.855285000000000295e+00 6.536464999999999748e+01 2.115805000000000291e+03
5.600000000000000117e-02 1.715559999999999863e-01 5.675789999999999225e+00 6.283084999999999809e+01 2.115065000000000055e+03
5.700000000000000205e-02 1.714709999999999845e-01 4.516650000000000276e+00 6.038960000000000150e+01 2.114324999999999818e+03
5.800000000000000294e-02 1.713890000000000136e-01 3.410923000000000371e+00 5.810885000000000389e+01 2.113609999999999673e+03
5.900000000000000383e-02 1.713115000000000054e-01 2.395480019999999932e+00 5.606609999999999872e+01 2.112940000000000055e+03
6.000000000000000472e-02 1.712430000000000063e-01 1.509588500000000000e+00 5.434759999999999991e+01 2.112335000000000036e+03
6.099999999999999867e-02 1.711849999999999761e-01 7.925484999999998781e-01 5.304300000000000637e+01 2.111819999999999709e+03
6.199999999999999956e-02 1.711415000000000020e-01 2.808289999999999398e-01 5.223810000000000286e+01 2.111435000000000400e+03
6.300000000000000044e-02 1.711150000000000171e-01 5.200499999999996792e-03 5.200650000000000261e+01 2.111190000000000055e+03
6.400000000000000133e-02 1.711079999999999823e-01 -1.171520000000000200e-02 5.240180000000000149e+01 2.111099999999999909e+03
6.500000000000000222e-02 1.711205000000000087e-01 2.428230000000000111e-01 5.345239999999999725e+01 2.111194999999999709e+03
6.600000000000000311e-02 1.711560000000000026e-01 7.708395000000000108e-01 5.515840000000000032e+01 2.111474999999999909e+03
6.700000000000000400e-02 1.712124999999999897e-01 1.563714999999999966e+00 5.749155000000000371e+01 2.111944999999999709e+03
6.800000000000000488e-02 1.712894999999999834e-01 2.603028000000000119e+00 6.039789999999999992e+01 2.112590000000000146e+03
6.900000000000000577e-02 1.713854999999999962e-01 3.862074500000000299e+00 6.380254999999999654e+01 2.113404999999999745e+03
7.000000000000000666e-02 1.714979999999999838e-01 5.307800000000000296e+00 6.761535000000000650e+01 2.114364999999999782e+03
7.100000000000000755e-02 1.716245000000000132e-01 6.902989999999999959e+00 7.173810000000000286e+01 2.115449999999999818e+03
7.200000000000000844e-02 1.717619999999999980e-01 8.608644999999999214e+00 7.607085000000000719e+01 2.116625000000000000e+03
7.300000000000000933e-02 1.719065000000000176e-01 1.038599499999999942e+01 8.051869999999999550e+01 2.117875000000000000e+03
7.399999999999999634e-02 1.720559999999999867e-01 1.219874000000000080e+01 8.499699999999999989e+01 2.119175000000000182e+03
7.499999999999999722e-02 1.722075000000000133e-01 1.401454999999999984e+01 8.943580000000000041e+01 2.120494999999999891e+03
7.599999999999999811e-02 1.723584999999999978e-01 1.580610000000000070e+01 9.378239999999999554e+01 2.121809999999999945e+03
7.699999999999999900e-02 1.725079999999999947e-01 1.755194999999999794e+01 9.800104999999999222e+01 2.123125000000000000e+03
7.799999999999999989e-02 1.726540000000000019e-01 1.923634999999999806e+01 1.020748499999999979e+02 2.124409999999999854e+03
7.900000000000000078e-02 1.727969999999999784e-01 2.084875000000000256e+01 1.060007999999999981e+02 2.125664999999999964e+03
8.000000000000000167e-02 1.729354999999999920e-01 2.238324999999999676e+01 1.097854999999999990e+02 2.126890000000000327e+03
8.100000000000000255e-02 1.730700000000000016e-01 2.383735000000000070e+01 1.134455000000000098e+02 2.128079999999999927e+03
8.200000000000000344e-02 1.732009999999999939e-01 2.521059999999999945e+01 1.169985000000000070e+02 2.129244999999999891e+03
8.300000000000000433e-02 1.733284999999999965e-01 2.650404999999999944e+01 1.204604999999999961e+02 2.130380000000000109e+03
8.400000000000000522e-02 1.734535000000000105e-01 2.771890000000000143e+01 1.238460000000000036e+02 2.131494999999999891e+03
8.500000000000000611e-02 1.735764999999999947e-01 2.885614999999999952e+01 1.271630000000000109e+02 2.132585000000000036e+03
8.600000000000000699e-02 1.736965000000000037e-01 2.991595000000000226e+01 1.304130000000000109e+02 2.133654999999999745e+03
8.700000000000000788e-02 1.738139999999999963e-01 3.089775000000000205e+01 1.335925000000000011e+02 2.134710000000000036e+03
8.800000000000000877e-02 1.739290000000000003e-01 3.180010000000000048e+01 1.366914999999999907e+02 2.135734999999999673e+03
8.899999999999999578e-02 1.740415000000000156e-01 3.262069999999999936e+01 1.396965000000000146e+02 2.136739999999999782e+03
8.999999999999999667e-02 1.741504999999999859e-01 3.335665000000000191e+01 1.425910000000000082e+02 2.137720000000000255e+03
9.099999999999999756e-02 1.742549999999999932e-01 3.400459999999999638e+01 1.453559999999999945e+02 2.138659999999999854e+03
9.199999999999999845e-02 1.743550000000000100e-01 3.456080000000000041e+01 1.479735000000000014e+02 2.139559999999999945e+03
9.299999999999999933e-02 1.744505000000000083e-01 3.502145000000000152e+01 1.504234999999999900e+02 2.140414999999999964e+03
9.400000000000000022e-02 1.745395000000000141e-01 3.538245000000000573e+01 1.526879999999999882e+02 2.141220000000000255e+03
9.500000000000000111e-02 1.746225000000000138e-01 3.564005000000000223e+01 1.547484999999999786e+02 2.141970000000000255e+03
9.600000000000000200e-02 1.746985000000000066e-01 3.579049999999999443e+01 1.565880000000000223e+02 2.142654999999999745e+03
9.700000000000000289e-02 1.747664999999999913e-01 3.583075000000000188e+01 1.581929999999999836e+02 2.143274999999999636e+03
9.800000000000000377e-02 1.748264999999999958e-01 3.575849999999999795e+01 1.595500000000000114e+02 2.143819999999999709e+03
9.900000000000000466e-02 1.748779999999999779e-01 3.557260000000000133e+01 1.606510000000000105e+02 2.144289999999999964e+03
1.000000000000000056e-01 1.749199999999999922e-01 3.527349999999999852e+01 1.614915000000000020e+02 2.144679999999999836e+03
1.010000000000000064e-01 1.749534999999999840e-01 3.486315000000000452e+01 1.620709999999999980e+02 2.144994999999999891e+03
1.020000000000000073e-01 1.749779999999999947e-01 3.434579999999999700e+01 1.623944999999999936e+02 2.145220000000000255e+03
1.030000000000000082e-01 1.749934999999999963e-01 3.372750000000000625e+01 1.624739999999999895e+02 2.145375000000000000e+03
1.040000000000000091e-01 1.750010000000000177e-01 3.301655000000000229e+01 1.623265000000000100e+02 2.145449999999999818e+03
1.050000000000000100e-01 1.750005000000000033e-01 3.222305000000000064e+01 1.619720000000000084e+02 2.145454999999999927e+03
1.059999999999999970e-01 1.749924999999999953e-01 3.135849999999999937e+01 1.614375000000000000e+02 2.145389999999999873e+03
1.069999999999999979e-01 1.749785000000000090e-01 3.043570000000000064e+01 1.607504999999999882e+02 2.145275000000000091e+03
1.079999999999999988e-01 1.749590000000000034e-01 2.946799999999999997e+01 1.599409999999999741e+02 2.145105000000000018e+03
1.089999999999999997e-01 1.749350000000000072e-01 2.846900000000000119e+01 1.590399999999999920e+02 2.144900000000000091e+03
1.100000000000000006e-01 1.749070000000000069e-01 2.745199999999999818e+01 1.580759999999999934e+02 2.144659999999999854e+03
1.110000000000000014e-01 1.748770000000000047e-01 2.642945000000000277e+01 1.570749999999999886e+02 2.144390000000000327e+03
1.120000000000000023e-01 1.748450000000000004e-01 2.541275000000000261e+01 1.560625000000000000e+02 2.144114999999999782e+03
1.130000000000000032e-01 1.748124999999999818e-01 2.441179999999999950e+01 1.550560000000000116e+02 2.143820000000000164e+03
1.140000000000000041e-01 1.747795000000000043e-01 2.343469999999999942e+01 1.540720000000000027e+02 2.143525000000000091e+03
1.150000000000000050e-01 1.747469999999999857e-01 2.248774999999999835e+01 1.531204999999999927e+02 2.143235000000000127e+03
1.160000000000000059e-01 1.747150000000000092e-01 2.157515000000000072e+01 1.522069999999999936e+02 2.142949999999999818e+03
1.170000000000000068e-01 1.746840000000000059e-01 2.069919999999999760e+01 1.513324999999999818e+02 2.142670000000000073e+03
1.180000000000000077e-01 1.746535000000000171e-01 1.986005000000000109e+01 1.504934999999999832e+02 2.142395000000000437e+03
1.190000000000000085e-01 1.746245000000000158e-01 1.905620000000000047e+01 1.496820000000000164e+02 2.142130000000000109e+03
1.200000000000000094e-01 1.745960000000000012e-01 1.828444999999999965e+01 1.488890000000000100e+02 2.141869999999999891e+03
1.209999999999999964e-01 1.745674999999999866e-01 1.754019999999999868e+01 1.480989999999999895e+02 2.141610000000000127e+03
1.219999999999999973e-01 1.745389999999999997e-01 1.681790000000000163e+01 1.472980000000000018e+02 2.141350000000000364e+03
1.229999999999999982e-01 1.745094999999999841e-01 1.611124999999999829e+01 1.464689999999999941e+02 2.141090000000000146e+03
1.239999999999999991e-01 1.744795000000000096e-01 1.541370000000000040e+01 1.455969999999999800e+02 2.140814999999999600e+03
1.250000000000000000e-01 1.744475000000000053e-01 1.471859999999999857e+01 1.446659999999999968e+02 2.140534999999999854e+03
1.260000000000000009e-01 1.744134999999999991e-01 1.401999999999999957e+01 1.436630000000000109e+02 2.140230000000000018e+03
1.270000000000000018e-01 1.743774999999999908e-01 1.331279999999999930e+01 1.425769999999999982e+02 2.139904999999999745e+03
1.280000000000000027e-01 1.743385000000000074e-01 1.259284999999999854e+01 1.414014999999999986e+02 2.139560000000000400e+03
1.290000000000000036e-01 1.742964999999999931e-01 1.185753000000000057e+01 1.401330000000000098e+02 2.139184999999999945e+03
1.300000000000000044e-01 1.742509999999999892e-01 1.110596499999999942e+01 1.387719999999999914e+02 2.138784999999999854e+03
1.310000000000000053e-01 1.742029999999999967e-01 1.033894000000000091e+01 1.373255000000000052e+02 2.138355000000000018e+03
1.320000000000000062e-01 1.741520000000000012e-01 9.559079999999999799e+00 1.358029999999999973e+02 2.137904999999999745e+03
1.330000000000000071e-01 1.740984999999999894e-01 8.770590000000000330e+00 1.342185000000000059e+02 2.137429999999999836e+03
1.340000000000000080e-01 1.740434999999999899e-01 7.979480000000000572e+00 1.325910000000000082e+02 2.136934999999999945e+03
1.350000000000000089e-01 1.739860000000000018e-01 7.192795000000000272e+00 1.309404999999999859e+02 2.136434999999999945e+03
1.360000000000000098e-01 1.739284999999999859e-01 6.418714999999999726e+00 1.292915000000000134e+02 2.135925000000000182e+03
1.370000000000000107e-01 1.738715000000000122e-01 5.665865000000000151e+00 1.276664999999999850e+02 2.135409999999999854e+03
1.380000000000000115e-01 1.738144999999999829e-01 4.943020000000000636e+00 1.260889999999999986e+02 2.134904999999999745e+03
1.390000000000000124e-01 1.737595000000000112e-01 4.258659999999999890e+00 1.245819999999999936e+02 2.134420000000000073e+03
1.400000000000000133e-01 1.737070000000000003e-01 3.620575000000000099e+00 1.231645000000000039e+02 2.133945000000000164e+03
1.410000000000000142e-01 1.736570000000000058e-01 3.035509999999999931e+00 1.218534999999999968e+02 2.133500000000000000e+03
1.420000000000000151e-01 1.736105000000000009e-01 2.508897500000000225e+00 1.206610000000000014e+02 2.133079999999999927e+03
1.430000000000000160e-01 1.735674999999999857e-01 2.044677000000000078e+00 1.195960000000000036e+02 2.132699999999999818e+03
1.440000000000000169e-01 1.735289999999999888e-01 1.645194000000000045e+00 1.186624999999999943e+02 2.132354999999999563e+03
1.450000000000000178e-01 1.734950000000000103e-01 1.311179499999999942e+00 1.178615000000000066e+02 2.132045000000000073e+03
1.459999999999999909e-01 1.734654999999999947e-01 1.041805499999999940e+00 1.171880000000000024e+02 2.131774999999999636e+03
1.469999999999999918e-01 1.734399999999999831e-01 8.348121499999999751e-01 1.166365000000000123e+02 2.131545000000000073e+03
1.479999999999999927e-01 1.734180000000000166e-01 6.866883500000000584e-01 1.161959999999999980e+02 2.131345000000000255e+03
1.489999999999999936e-01 1.734005000000000130e-01 5.928535999999999806e-01 1.158559999999999945e+02 2.131184999999999945e+03
1.499999999999999944e-01 1.733864999999999990e-01 5.478904500000000288e-01 1.156030000000000086e+02 2.131055000000000291e+03
1.509999999999999953e-01 1.733750000000000013e-01 5.457760000000000389e-01 1.154219999999999970e+02 2.130949999999999818e+03
1.519999999999999962e-01 1.733660000000000201e-01 5.801034999999999942e-01 1.153004999999999995e+02 2.130864999999999782e+03
1.529999999999999971e-01 1.733594999999999997e-01 6.443039999999999878e-01 1.152224999999999966e+02 2.130800000000000182e+03
1.539999999999999980e-01 1.733550000000000091e-01 7.318469999999999143e-01 1.151765000000000043e+02 2.130755000000000109e+03
1.549999999999999989e-01 1.733509999999999773e-01 8.364285000000000192e-01 1.151484999999999985e+02 2.130720000000000255e+03
1.559999999999999998e-01 1.733480000000000021e-01 9.521439999999999904e-01 1.151285000000000025e+02 2.130690000000000055e+03
1.570000000000000007e-01 1.733454999999999857e-01 1.073615500000000056e+00 1.151059999999999945e+02 2.130664999999999964e+03
1.580000000000000016e-01 1.733429999999999971e-01 1.196120000000000072e+00 1.150739999999999981e+02 2.130640000000000327e+03
1.590000000000000024e-01 1.733405000000000085e-01 1.315669999999999895e+00 1.150250000000000057e+02 2.130619999999999891e+03
