# t [s], A [cm^2], U [cm/s], P [cPa], c [cm/s]
1.000000000000000021e-03 7.302904999999999536e-01 5.819350000000000911e-03 9.687520000000000664e+01 1.725460000000000036e+03
2.000000000000000042e-03 7.302779999999999827e-01 -3.241169999999999815e-03 9.684505000000000052e+01 1.725444999999999936e+03
3.000000000000000062e-03 7.303330000000000100e-01 8.546334999999999349e-02 9.694769999999999754e+01 1.725470000000000027e+03
4.000000000000000083e-03 7.303854999999999098e-01 1.819814000000000154e-01 9.707640000000000668e+01 1.725500000000000000e+03
5.000000000000000104e-03 7.303600000000000092e-01 1.628824500000000119e-01 9.702680000000000859e+01 1.725494999999999891e+03
6.000000000000000125e-03 7.302929999999999700e-01 7.301800000000002733e-02 9.681494999999999607e+01 1.725450000000000045e+03
7.000000000000000146e-03 7.302379999999999427e-01 -4.120000000000012541e-03 9.655695000000000050e+01 1.725389999999999873e+03
8.000000000000000167e-03 7.301545000000000396e-01 -1.392110000000000292e-01 9.618250000000000455e+01 1.725309999999999945e+03
9.000000000000001055e-03 7.300105000000000066e-01 -3.908199999999999452e-01 9.559635000000000105e+01 1.725184999999999945e+03
1.000000000000000194e-02 7.297974999999999879e-01 -7.724750000000000227e-01 9.474410000000000309e+01 1.725005000000000109e+03
1.099999999999999936e-02 7.294935000000000169e-01 -1.311234999999999928e+00 9.354900000000000659e+01 1.724744999999999891e+03
1.200000000000000025e-02 7.290934999999999500e-01 -2.001784999999999926e+00 9.196914999999999907e+01 1.724394999999999982e+03
1.300000000000000114e-02 7.286420000000000119e-01 -2.750655000000000072e+00 9.008984999999999843e+01 1.723974999999999909e+03
1.400000000000000203e-02 7.282094999999999541e-01 -3.407494999999999941e+00 8.810945000000000960e+01 1.723509999999999991e+03
1.499999999999999944e-02 7.278529999999999722e-01 -3.844672000000000089e+00 8.623629999999999995e+01 1.723054999999999836e+03
1.600000000000000033e-02 7.275849999999999262e-01 -4.009637500000000188e+00 8.459669999999999845e+01 1.722630000000000109e+03
1.700000000000000122e-02 7.273810000000000553e-01 -3.927075499999999941e+00 8.320409999999999684e+01 1.722250000000000000e+03
1.800000000000000211e-02 7.271985000000000809e-01 -3.668984999999999719e+00 8.198304999999999154e+01 1.721900000000000091e+03
1.900000000000000300e-02 7.269955000000000167e-01 -3.316626499999999922e+00 8.081839999999999691e+01 1.721559999999999945e+03
2.000000000000000042e-02 7.267479999999999496e-01 -2.929848999999999926e+00 7.960670000000000357e+01 1.721210000000000036e+03
2.100000000000000130e-02 7.264519999999999866e-01 -2.531532499999999963e+00 7.829234999999999900e+01 1.720840000000000146e+03
2.200000000000000219e-02 7.261235000000000328e-01 -2.109599999999999920e+00 7.687819999999999254e+01 1.720445000000000164e+03
2.299999999999999961e-02 7.257865000000000011e-01 -1.633624999999999883e+00 7.541134999999999877e+01 1.720039999999999964e+03
2.400000000000000050e-02 7.254605000000000636e-01 -1.077569999999999917e+00 7.395170000000000243e+01 1.719639999999999873e+03
2.500000000000000139e-02 7.251530000000000475e-01 -4.387049999999999006e-01 7.253980000000001382e+01 1.719240000000000009e+03
2.600000000000000228e-02 7.248555000000000970e-01 2.538099999999998690e-01 7.117409999999999570e+01 1.718845000000000027e+03
2.700000000000000316e-02 7.245449999999999946e-01 9.419300000000001560e-01 6.980620000000000402e+01 1.718454999999999927e+03
2.800000000000000058e-02 7.241925000000000168e-01 1.550965000000000149e+00 6.835125000000000739e+01 1.718049999999999955e+03
2.900000000000000147e-02 7.237709999999999422e-01 2.006870000000000154e+00 6.671039999999999281e+01 1.717605000000000018e+03
3.000000000000000236e-02 7.232625000000000304e-01 2.253989999999999938e+00 6.479904999999999404e+01 1.717110000000000127e+03
3.099999999999999978e-02 7.226650000000000018e-01 2.268430000000000391e+00 6.257274999999999920e+01 1.716539999999999964e+03
3.200000000000000067e-02 7.219940000000000246e-01 2.063054999999999861e+00 6.004279999999999973e+01 1.715914999999999964e+03
3.300000000000000155e-02 7.212775000000000158e-01 1.682760000000000034e+00 5.727745000000000175e+01 1.715230000000000018e+03
3.400000000000000244e-02 7.205524999999999292e-01 1.192254999999999843e+00 5.438870000000000005e+01 1.714509999999999991e+03
3.500000000000000333e-02 7.198545000000000638e-01 6.614000000000004320e-01 5.151085000000000491e+01 1.713789999999999964e+03
3.600000000000000422e-02 7.192144999999999788e-01 1.524350000000005423e-01 4.877779999999999916e+01 1.713095000000000027e+03
3.700000000000000511e-02 7.186540000000000150e-01 -2.876349999999998630e-01 4.630490000000000350e+01 1.712449999999999818e+03
3.799999999999999906e-02 7.181859999999999911e-01 -6.291800000000002946e-01 4.417855000000000132e+01 1.711880000000000109e+03
3.899999999999999994e-02 7.178150000000000919e-01 -8.577200000000000379e-01 4.245345000000000368e+01 1.711400000000000091e+03
4.000000000000000083e-02 7.175415000000000543e-01 -9.689699999999998870e-01 4.115619999999999834e+01 1.711019999999999982e+03
4.100000000000000172e-02 7.173624999999999030e-01 -9.631649999999999379e-01 4.029250000000000398e+01 1.710740000000000009e+03
4.200000000000000261e-02 7.172754999999999548e-01 -8.402519999999999989e-01 3.985580000000000211e+01 1.710574999999999818e+03
4.300000000000000350e-02 7.172789999999999999e-01 -5.969714999999999883e-01 3.983514999999999873e+01 1.710509999999999991e+03
4.400000000000000439e-02 7.173720000000000097e-01 -2.264800000000000146e-01 4.021959999999999980e+01 1.710550000000000182e+03
4.499999999999999833e-02 7.175544999999999840e-01 2.799400000000000777e-01 4.099920000000000186e+01 1.710695000000000164e+03
4.599999999999999922e-02 7.178260000000000751e-01 9.298000000000001819e-01 4.216375000000000028e+01 1.710929999999999836e+03
4.700000000000000011e-02 7.181830000000000158e-01 1.726125000000000131e+00 4.369894999999999641e+01 1.711269999999999982e+03
4.800000000000000100e-02 7.186209999999999543e-01 2.664915000000000145e+00 4.558275000000000432e+01 1.711695000000000164e+03
4.900000000000000189e-02 7.191294999999999771e-01 3.734015000000000306e+00 4.778284999999999627e+01 1.712210000000000036e+03
5.000000000000000278e-02 7.196979999999999489e-01 4.913470000000000226e+00 5.025610000000000355e+01 1.712789999999999964e+03
5.100000000000000366e-02 7.203110000000000346e-01 6.177155499999999577e+00 5.294974999999999454e+01 1.713434999999999945e+03
5.200000000000000455e-02 7.209544999999999426e-01 7.495302500000000201e+00 5.580429999999999779e+01 1.714130000000000109e+03
5.300000000000000544e-02 7.216134999999999078e-01 8.837260000000000559e+00 5.875804999999999723e+01 1.714860000000000127e+03
5.399999999999999939e-02 7.222744999999999305e-01 1.017421500000000023e+01 6.175144999999999840e+01 1.715610000000000127e+03
5.500000000000000028e-02 7.229265000000000274e-01 1.148108500000000021e+01 6.473104999999999620e+01 1.716360000000000127e+03
5.600000000000000117e-02 7.235620000000000385e-01 1.273806000000000083e+01 6.765285000000000082e+01 1.717115000000000009e+03
5.700000000000000205e-02 7.241744999999999433e-01 1.393088000000000015e+01 7.048420000000000130e+01 1.717849999999999909e+03
5.800000000000000294e-02 7.247620000000000173e-01 1.505088999999999899e+01 7.320420000000000016e+01 1.718569999999999936e+03
5.900000000000000383e-02 7.253244999999999276e-01 1.609414999999999907e+01 7.580324999999999136e+01 1.719259999999999991e+03
6.000000000000000472e-02 7.258629999999999249e-01 1.706044999999999945e+01 7.828135000000000332e+01 1.719925000000000182e+03
6.099999999999999867e-02 7.263800000000000257e-01 1.795244999999999891e+01 8.064589999999999748e+01 1.720565000000000055e+03
6.199999999999999956e-02 7.268799999999999706e-01 1.877439999999999998e+01 8.290970000000000084e+01 1.721180000000000064e+03
6.300000000000000044e-02 7.273644999999999694e-01 1.953134999999999977e+01 8.508790000000000475e+01 1.721769999999999982e+03
6.400000000000000133e-02 7.278379999999999850e-01 2.022804999999999964e+01 8.719610000000000127e+01 1.722349999999999909e+03
6.500000000000000222e-02 7.283025000000000748e-01 2.086869999999999692e+01 8.924795000000000300e+01 1.722904999999999973e+03
6.600000000000000311e-02 7.287600000000000744e-01 2.145600000000000307e+01 9.125374999999999659e+01 1.723460000000000036e+03
6.700000000000000400e-02 7.292100000000000248e-01 2.199114999999999753e+01 9.321930000000000405e+01 1.723994999999999891e+03
6.800000000000000488e-02 7.296519999999999673e-01 2.247380000000000067e+01 9.514525000000000432e+01 1.724519999999999982e+03
6.900000000000000577e-02 7.300839999999999552e-01 2.290220000000000056e+01 9.702705000000000268e+01 1.725035000000000082e+03
7.000000000000000666e-02 7.305040000000000422e-01 2.327329999999999899e+01 9.885625000000000284e+01 1.725539999999999964e+03
7.100000000000000755e-02 7.309075000000000433e-01 2.358350000000000080e+01 1.006201999999999970e+02 1.726019999999999982e+03
7.200000000000000844e-02 7.312929999999999708e-01 2.382914999999999850e+01 1.023045000000000044e+02 1.726490000000000009e+03
7.300000000000000933e-02 7.316555000000000142e-01 2.400669999999999860e+01 1.038944999999999936e+02 1.726934999999999945e+03
7.399999999999999634e-02 7.319919999999999760e-01 2.411334999999999695e+01 1.053735000000000070e+02 1.727349999999999909e+03
7.499999999999999722e-02 7.322994999999999921e-01 2.414714999999999989e+01 1.067289999999999992e+02 1.727740000000000009e+03
7.599999999999999811e-02 7.325770000000000337e-01 2.410714999999999719e+01 1.079495000000000005e+02 1.728085000000000036e+03
7.699999999999999900e-02 7.328215000000000146e-01 2.399329999999999785e+01 1.090250000000000057e+02 1.728404999999999973e+03
7.799999999999999989e-02 7.330319999999999059e-01 2.380644999999999811e+01 1.099495000000000005e+02 1.728679999999999836e+03
7.900000000000000078e-02 7.332075000000000120e-01 2.354840000000000089e+01 1.107179999999999893e+02 1.728914999999999964e+03
8.000000000000000167e-02 7.333484999999999587e-01 2.322175000000000011e+01 1.113305000000000007e+02 1.729110000000000127e+03
8.100000000000000255e-02 7.334555000000000380e-01 2.282995000000000019e+01 1.117870000000000061e+02 1.729269999999999982e+03
8.200000000000000344e-02 7.335294999999999455e-01 2.237749999999999773e+01 1.120919999999999987e+02 1.729380000000000109e+03
8.300000000000000433e-02 7.335705000000000142e-01 2.186959999999999837e+01 1.122519999999999953e+02 1.729460000000000036e+03
8.400000000000000522e-02 7.335825000000000262e-01 2.131279999999999930e+01 1.122754999999999939e+02 1.729500000000000000e+03
8.500000000000000611e-02 7.335669999999999691e-01 2.071434999999999960e+01 1.121744999999999948e+02 1.729500000000000000e+03
8.600000000000000699e-02 7.335274999999999990e-01 2.008254999999999768e+01 1.119615000000000009e+02 1.729480000000000018e+03
8.700000000000000788e-02 7.334680000000000089e-01 1.942624999999999957e+01 1.116519999999999868e+02 1.729420000000000073e+03
8.800000000000000877e-02 7.333920000000000439e-01 1.875469999999999970e+01 1.112630000000000052e+02 1.729345000000000027e+03
8.899999999999999578e-02 7.333024999999999682e-01 1.807714999999999961e+01 1.108125000000000000e+02 1.729244999999999891e+03
8.999999999999999667e-02 7.332045000000000368e-01 1.740259999999999962e+01 1.103170000000000073e+02 1.729130000000000109e+03
9.099999999999999756e-02 7.331004999999999328e-01 1.673890000000000100e+01 1.097934999999999945e+02 1.729005000000000109e+03
9.199999999999999845e-02 7.329944999999999933e-01 1.609305000000000163e+01 1.092560000000000002e+02 1.728875000000000000e+03
9.299999999999999933e-02 7.328879999999999839e-01 1.547034999999999982e+01 1.087175000000000011e+02 1.728735000000000127e+03
9.400000000000000022e-02 7.327829999999999622e-01 1.487439999999999962e+01 1.081880000000000024e+02 1.728599999999999909e+03
9.500000000000000111e-02 7.326814999999999856e-01 1.430719999999999992e+01 1.076734999999999900e+02 1.728465000000000146e+03
9.600000000000000200e-02 7.325825000000000253e-01 1.376905000000000001e+01 1.071774999999999949e+02 1.728335000000000036e+03
9.700000000000000289e-02 7.324859999999999705e-01 1.325846000000000124e+01 1.067005000000000052e+02 1.728204999999999927e+03
9.800000000000000377e-02 7.323910000000000142e-01 1.277284000000000042e+01 1.062404999999999973e+02 1.728079999999999927e+03
9.900000000000000466e-02 7.322969999999999757e-01 1.230831999999999837e+01 1.057920000000000016e+02 1.727954999999999927e+03
1.000000000000000056e-01 7.322009999999999907e-01 1.186036499999999982e+01 1.053489999999999895e+02 1.727835000000000036e+03
1.010000000000000064e-01 7.321035000000000181e-01 1.142391999999999896e+01 1.049039999999999964e+02 1.727710000000000036e+03
1.020000000000000073e-01 7.320005000000000539e-01 1.099381500000000145e+01 1.044489999999999981e+02 1.727585000000000036e+03
1.030000000000000082e-01 7.318919999999999870e-01 1.056489000000000011e+01 1.039765000000000015e+02 1.727454999999999927e+03
1.040000000000000091e-01 7.317759999999999820e-01 1.013241499999999995e+01 1.034789999999999992e+02 1.727324999999999818e+03
1.050000000000000100e-01 7.316504999999999814e-01 9.692299999999999471e+00 1.029502999999999986e+02 1.727184999999999945e+03
1.059999999999999970e-01 7.315169999999999728e-01 9.241265000000000285e+00 1.023862000000000023e+02 1.727034999999999854e+03
1.069999999999999979e-01 7.313735000000000097e-01 8.777129999999999654e+00 1.017845999999999975e+02 1.726880000000000109e+03
1.079999999999999988e-01 7.312205000000000510e-01 8.298759999999999692e+00 1.011447499999999877e+02 1.726714999999999918e+03
1.089999999999999997e-01 7.310605000000000020e-01 7.806424999999999947e+00 1.004693499999999915e+02 1.726539999999999964e+03
1.100000000000000006e-01 7.308930000000000149e-01 7.301540000000000141e+00 9.976294999999998936e+01 1.726355000000000018e+03
1.110000000000000014e-01 7.307204999999999950e-01 6.786785000000000068e+00 9.903219999999998890e+01 1.726164999999999964e+03
1.120000000000000023e-01 7.305455000000000698e-01 6.265980000000000771e+00 9.828594999999999970e+01 1.725974999999999909e+03
1.130000000000000032e-01 7.303709999999999924e-01 5.743890000000000384e+00 9.753515000000000157e+01 1.725779999999999973e+03
1.140000000000000041e-01 7.301995000000000013e-01 5.226045000000000940e+00 9.679185000000001082e+01 1.725585000000000036e+03
1.150000000000000050e-01 7.300340000000000718e-01 4.718460000000000321e+00 9.606870000000000687e+01 1.725394999999999982e+03
1.160000000000000059e-01 7.298780000000000268e-01 4.227369999999999628e+00 9.537900000000000489e+01 1.725215000000000146e+03
1.170000000000000068e-01 7.297335000000000349e-01 3.758915000000000006e+00 9.473539999999999850e+01 1.725039999999999964e+03
1.180000000000000077e-01 7.296040000000000303e-01 3.318859999999999921e+00 9.414969999999999573e+01 1.724880000000000109e+03
1.190000000000000085e-01 7.294910000000000005e-01 2.912339999999999929e+00 9.363224999999999909e+01 1.724740000000000009e+03
1.200000000000000094e-01 7.293965000000000032e-01 2.543573499999999932e+00 9.319140000000000157e+01 1.724610000000000127e+03
1.209999999999999964e-01 7.293214999999999559e-01 2.215735500000000080e+00 9.283330000000000837e+01 1.724510000000000218e+03
1.219999999999999973e-01 7.292665000000000397e-01 1.930779500000000093e+00 9.256125000000000114e+01 1.724420000000000073e+03
1.229999999999999982e-01 7.292304999999998927e-01 1.689416000000000029e+00 9.237604999999999222e+01 1.724360000000000127e+03
1.239999999999999991e-01 7.292140000000000288e-01 1.491120000000000001e+00 9.227564999999999884e+01 1.724319999999999936e+03
1.250000000000000000e-01 7.292144999999999877e-01 1.334189999999999987e+00 9.225554999999999950e+01 1.724295000000000073e+03
1.260000000000000009e-01 7.292319999999999913e-01 1.215920000000000112e+00 9.230920000000000414e+01 1.724299999999999955e+03
1.270000000000000018e-01 7.292624999999999247e-01 1.132761000000000129e+00 9.242804999999999893e+01 1.724309999999999945e+03
1.280000000000000027e-01 7.293050000000000921e-01 1.080536500000000011e+00 9.260224999999999795e+01 1.724345000000000027e+03
1.290000000000000036e-01 7.293560000000000043e-01 1.054646500000000042e+00 9.282120000000000459e+01 1.724384999999999991e+03
1.300000000000000044e-01 7.294134999999999369e-01 1.050284999999999913e+00 9.307404999999999973e+01 1.724445000000000164e+03
1.310000000000000053e-01 7.294755000000000544e-01 1.062644000000000144e+00 9.334989999999999100e+01 1.724505000000000109e+03
1.320000000000000062e-01 7.295395000000000074e-01 1.087048999999999932e+00 9.363849999999999341e+01 1.724570000000000164e+03
1.330000000000000071e-01 7.296039999999999193e-01 1.119121499999999880e+00 9.393045000000000755e+01 1.724639999999999873e+03
1.340000000000000080e-01 7.296664999999999957e-01 1.154857000000000022e+00 9.421725000000000705e+01 1.724710000000000036e+03
1.350000000000000089e-01 7.297255000000000269e-01 1.190724499999999964e+00 9.449195000000000277e+01 1.724779999999999973e+03
1.360000000000000098e-01 7.297810000000000130e-01 1.223683999999999994e+00 9.474864999999999782e+01 1.724845000000000027e+03
1.370000000000000107e-01 7.298305000000000486e-01 1.251249000000000056e+00 9.498275000000001000e+01 1.724904999999999973e+03
1.380000000000000115e-01 7.298744999999999816e-01 1.271476499999999898e+00 9.519119999999999493e+01 1.724965000000000146e+03
1.390000000000000124e-01 7.299124999999999641e-01 1.282961999999999936e+00 9.537194999999999823e+01 1.725014999999999873e+03
1.400000000000000133e-01 7.299444999999999961e-01 1.284839999999999982e+00 9.552404999999998836e+01 1.725059999999999945e+03
1.410000000000000142e-01 7.299704999999999666e-01 1.276730000000000143e+00 9.564769999999998618e+01 1.725095000000000027e+03
1.420000000000000151e-01 7.299899999999999167e-01 1.258729999999999905e+00 9.574389999999999645e+01 1.725119999999999891e+03
1.430000000000000160e-01 7.300050000000000150e-01 1.231314999999999937e+00 9.581430000000000291e+01 1.725139999999999873e+03
1.440000000000000169e-01 7.300155000000000394e-01 1.195300000000000029e+00 9.586115000000000919e+01 1.725159999999999854e+03
1.450000000000000178e-01 7.300214999999999899e-01 1.151739999999999986e+00 9.588700000000000045e+01 1.725175000000000182e+03
1.459999999999999909e-01 7.300230000000000885e-01 1.101871500000000115e+00 9.589459999999999695e+01 1.725180000000000064e+03
1.469999999999999918e-01 7.300225000000000186e-01 1.046994999999999898e+00 9.588675000000000637e+01 1.725180000000000064e+03
1.479999999999999927e-01 7.300195000000000434e-01 9.884215000000000639e-01 9.586584999999999468e+01 1.725180000000000064e+03
1.489999999999999936e-01 7.300139999999999407e-01 9.273534999999999417e-01 9.583435000000000059e+01 1.725180000000000064e+03
1.499999999999999944e-01 7.300074999999999203e-01 8.648689999999999989e-01 9.579404999999999859e+01 1.725170000000000073e+03
1.509999999999999953e-01 7.299990000000000645e-01 8.018244999999999401e-01 9.574615000000000009e+01 1.725160000000000082e+03
1.519999999999999962e-01 7.299889999999999990e-01 7.388779999999999237e-01 9.569140000000000157e+01 1.725150000000000091e+03
1.529999999999999971e-01 7.299774999999999459e-01 6.764189999999999925e-01 9.563009999999999877e+01 1.725135000000000218e+03
1.539999999999999980e-01 7.299644999999999051e-01 6.146380000000000177e-01 9.556175000000000352e+01 1.725119999999999891e+03
1.549999999999999989e-01 7.299499999999999877e-01 5.535185000000000244e-01 9.548555000000000348e+01 1.725099999999999909e+03
1.559999999999999998e-01 7.299329999999999430e-01 4.929000000000000048e-01 9.540035000000000309e+01 1.725079999999999927e+03
1.570000000000000007e-01 7.299130000000000340e-01 4.325284999999999824e-01 9.530480000000000018e+01 1.725054999999999836e+03
1.580000000000000016e-01 7.298904999999999976e-01 3.721236500000000280e-01 9.519740000000000180e+01 1.725029999999999973e+03
1.590000000000000024e-01 7.298644999999999161e-01 3.114410000000000234e-01 9.507695000000001073e+01 1.725000000000000000e+03
