# t [s], A [cm^2], U [cm/s], P [cPa], c [cm/s]
1.000000000000000021e-03 4.711845000000000061e-01 2.958550000000004232e-03 9.558850000000001046e+01 1.487855000000000018e+03
2.000000000000000042e-03 4.711779999999999857e-01 -3.519349999999999432e-04 9.557255000000000678e+01 1.487849999999999909e+03
3.000000000000000062e-03 4.712040000000000117e-01 5.335799999999999571e-02 9.562229999999999563e+01 1.487860000000000127e+03
4.000000000000000083e-03 4.712435000000000374e-01 1.371384000000000214e-01 9.572334999999999638e+01 1.487894999999999982e+03
5.000000000000000104e-03 4.712499999999999467e-01 1.562147500000000133e-01 9.574994999999999834e+01 1.487905000000000200e+03
6.000000000000000125e-03 4.712230000000000030e-01 1.042764999999999942e-01 9.566185000000000116e+01 1.487889999999999873e+03
7.000000000000000146e-03 4.711914999999999853e-01 3.765650000000000941e-02 9.550769999999999982e+01 1.487845000000000027e+03
8.000000000000000167e-03 4.711585000000000356e-01 -3.619349999999998957e-02 9.530424999999999613e+01 1.487795000000000073e+03
9.000000000000001055e-03 4.711024999999999796e-01 -1.648229999999999973e-01 9.500020000000000664e+01 1.487720000000000027e+03
1.000000000000000194e-02 4.710140000000000438e-01 -3.750649999999999817e-01 9.454784999999999684e+01 1.487599999999999909e+03
1.099999999999999936e-02 4.708855000000000124e-01 -6.750749999999999806e-01 9.391360000000000241e+01 1.487425000000000182e+03
1.200000000000000025e-02 4.707089999999999885e-01 -1.077214999999999812e+00 9.305750000000000455e+01 1.487190000000000055e+03
1.300000000000000114e-02 4.704794999999999394e-01 -1.580850000000000088e+00 9.195175000000000409e+01 1.486880000000000109e+03
1.400000000000000203e-02 4.702085000000000292e-01 -2.145974999999999966e+00 9.061650000000000205e+01 1.486505000000000109e+03
1.499999999999999944e-02 4.699225000000000207e-01 -2.695149999999999935e+00 8.912950000000000728e+01 1.486065000000000055e+03
1.600000000000000033e-02 4.696504999999999708e-01 -3.141969999999999708e+00 8.760020000000000095e+01 1.485599999999999909e+03
1.700000000000000122e-02 4.694125000000000103e-01 -3.422009000000000079e+00 8.613049999999999784e+01 1.485130000000000109e+03
1.800000000000000211e-02 4.692129999999999912e-01 -3.508966999999999725e+00 8.478520000000000323e+01 1.484679999999999836e+03
1.900000000000000300e-02 4.690449999999999897e-01 -3.413877499999999898e+00 8.358174999999999955e+01 1.484255000000000109e+03
2.000000000000000042e-02 4.688930000000000042e-01 -3.173415749999999758e+00 8.249635000000000673e+01 1.483855000000000018e+03
2.100000000000000130e-02 4.687390000000000168e-01 -2.834335999999999967e+00 8.147960000000000491e+01 1.483469999999999800e+03
2.200000000000000219e-02 4.685705000000000009e-01 -2.439055500000000265e+00 8.047615000000000407e+01 1.483079999999999927e+03
2.299999999999999961e-02 4.683800000000000185e-01 -2.015765000000000029e+00 7.944069999999999254e+01 1.482690000000000055e+03
2.400000000000000050e-02 4.681675000000000142e-01 -1.574754999999999905e+00 7.834940000000000282e+01 1.482275000000000091e+03
2.500000000000000139e-02 4.679389999999999938e-01 -1.111279999999999824e+00 7.720140000000000668e+01 1.481849999999999909e+03
2.600000000000000228e-02 4.677025000000000210e-01 -6.131900000000001238e-01 7.601330000000000098e+01 1.481414999999999964e+03
2.700000000000000316e-02 4.674644999999999495e-01 -7.014999999999993463e-02 7.480815000000001191e+01 1.480974999999999909e+03
2.800000000000000058e-02 4.672290000000000054e-01 5.186849999999996186e-01 7.360425000000000750e+01 1.480525000000000091e+03
2.900000000000000147e-02 4.669944999999999791e-01 1.140630000000000255e+00 7.240659999999999741e+01 1.480079999999999927e+03
3.000000000000000236e-02 4.667545000000000166e-01 1.769679999999999920e+00 7.120295000000000130e+01 1.479625000000000000e+03
3.099999999999999978e-02 4.665004999999999846e-01 2.370249999999999968e+00 6.996545000000000414e+01 1.479164999999999964e+03
3.200000000000000067e-02 4.662220000000000253e-01 2.903349999999999653e+00 6.865640000000000498e+01 1.478684999999999945e+03
3.300000000000000155e-02 4.659105000000000052e-01 3.333544999999999980e+00 6.723650000000000659e+01 1.478184999999999945e+03
3.400000000000000244e-02 4.655615000000000170e-01 3.635419999999999874e+00 6.567440000000000566e+01 1.477634999999999991e+03
3.500000000000000333e-02 4.651745000000000463e-01 3.798134999999999817e+00 6.395510000000000161e+01 1.477050000000000182e+03
3.600000000000000422e-02 4.647550000000000292e-01 3.827059999999999906e+00 6.208485000000000298e+01 1.476420000000000073e+03
3.700000000000000511e-02 4.643134999999999901e-01 3.742409999999999570e+00 6.009255000000000280e+01 1.475760000000000218e+03
3.799999999999999906e-02 4.638639999999999430e-01 3.575625000000000053e+00 5.802669999999999817e+01 1.475070000000000164e+03
3.899999999999999994e-02 4.634199999999999431e-01 3.363964999999999872e+00 5.594975000000000165e+01 1.474375000000000000e+03
4.000000000000000083e-02 4.629985000000000350e-01 3.145210000000000505e+00 5.393039999999999878e+01 1.473694999999999936e+03
4.100000000000000172e-02 4.626100000000000212e-01 2.953710000000000502e+00 5.203650000000000375e+01 1.473045000000000073e+03
4.200000000000000261e-02 4.622670000000000390e-01 2.817400000000000126e+00 5.032889999999999731e+01 1.472450000000000045e+03
4.300000000000000350e-02 4.619754999999999834e-01 2.756894999999999651e+00 4.885774999999999579e+01 1.471914999999999964e+03
4.400000000000000439e-02 4.617404999999999982e-01 2.785989999999999966e+00 4.766055000000000064e+01 1.471465000000000146e+03
4.499999999999999833e-02 4.615660000000000318e-01 2.912964999999999804e+00 4.676234999999999786e+01 1.471105000000000018e+03
4.599999999999999922e-02 4.614515000000000144e-01 3.142401500000000070e+00 4.617725000000000080e+01 1.470840000000000146e+03
4.700000000000000011e-02 4.613984999999999337e-01 3.476989999999999803e+00 4.591089999999999804e+01 1.470674999999999955e+03
4.800000000000000100e-02 4.614059999999999828e-01 3.918804999999999872e+00 4.596274999999999977e+01 1.470619999999999891e+03
4.900000000000000189e-02 4.614734999999999809e-01 4.470015000000000072e+00 4.632840000000000202e+01 1.470664999999999964e+03
5.000000000000000278e-02 4.616000000000000103e-01 5.132869999999999600e+00 4.700074999999999648e+01 1.470809999999999945e+03
5.100000000000000366e-02 4.617844999999999867e-01 5.909114999999999895e+00 4.797074999999999534e+01 1.471055000000000064e+03
5.200000000000000455e-02 4.620249999999999635e-01 6.799065000000000580e+00 4.922715000000000174e+01 1.471400000000000091e+03
5.300000000000000544e-02 4.623200000000000087e-01 7.800724999999999909e+00 5.075615000000000521e+01 1.471840000000000146e+03
5.399999999999999939e-02 4.626639999999999642e-01 8.908875000000000099e+00 5.254019999999999868e+01 1.472369999999999891e+03
5.500000000000000028e-02 4.630545000000000355e-01 1.011497999999999919e+01 5.455805000000000149e+01 1.472974999999999909e+03
5.600000000000000117e-02 4.634840000000000071e-01 1.140698500000000060e+01 5.678439999999999799e+01 1.473660000000000082e+03
5.700000000000000205e-02 4.639480000000000270e-01 1.276999499999999976e+01 5.919020000000000437e+01 1.474414999999999964e+03
5.800000000000000294e-02 4.644390000000000462e-01 1.418699999999999939e+01 6.174369999999999692e+01 1.475224999999999909e+03
5.900000000000000383e-02 4.649504999999999333e-01 1.564005500000000026e+01 6.441169999999999618e+01 1.476075000000000045e+03
6.000000000000000472e-02 4.654760000000000009e-01 1.711113500000000087e+01 6.716114999999999213e+01 1.476970000000000027e+03
6.099999999999999867e-02 4.660090000000000066e-01 1.858334999999999937e+01 6.996030000000000371e+01 1.477889999999999873e+03
6.199999999999999956e-02 4.665455000000000574e-01 2.004155000000000086e+01 7.278074999999999761e+01 1.478825000000000045e+03
6.300000000000000044e-02 4.670799999999999952e-01 2.147299999999999898e+01 7.559805000000000064e+01 1.479769999999999982e+03
6.400000000000000133e-02 4.676099999999999701e-01 2.286765000000000114e+01 7.839265000000000327e+01 1.480720000000000027e+03
6.500000000000000222e-02 4.681334999999999802e-01 2.421829999999999927e+01 8.115035000000000309e+01 1.481664999999999964e+03
6.600000000000000311e-02 4.686494999999999966e-01 2.552005000000000123e+01 8.386220000000000141e+01 1.482599999999999909e+03
6.700000000000000400e-02 4.691569999999999907e-01 2.677040000000000219e+01 8.652379999999999427e+01 1.483529999999999973e+03
6.800000000000000488e-02 4.696580000000000199e-01 2.796875000000000000e+01 8.913505000000000678e+01 1.484445000000000164e+03
6.900000000000000577e-02 4.701509999999999856e-01 2.911554999999999893e+01 9.169904999999999973e+01 1.485349999999999909e+03
7.000000000000000666e-02 4.706400000000000028e-01 3.021240000000000236e+01 9.422114999999999441e+01 1.486244999999999891e+03
7.100000000000000755e-02 4.711230000000000140e-01 3.126109999999999900e+01 9.670744999999999436e+01 1.487130000000000109e+03
7.200000000000000844e-02 4.716040000000000232e-01 3.226355000000000217e+01 9.916525000000000034e+01 1.488005000000000109e+03
7.300000000000000933e-02 4.720820000000000016e-01 3.322124999999999773e+01 1.015999000000000052e+02 1.488875000000000000e+03
7.399999999999999634e-02 4.725584999999999924e-01 3.413519999999999754e+01 1.040158500000000004e+02 1.489735000000000127e+03
7.499999999999999722e-02 4.730334999999999956e-01 3.500549999999999784e+01 1.064163499999999942e+02 1.490599999999999909e+03
7.599999999999999811e-02 4.735065000000000524e-01 3.583145000000000380e+01 1.087999999999999972e+02 1.491450000000000045e+03
7.699999999999999900e-02 4.739754999999999940e-01 3.661135000000000161e+01 1.111659999999999968e+02 1.492305000000000064e+03
7.799999999999999989e-02 4.744405000000000427e-01 3.734275000000000233e+01 1.135080000000000098e+02 1.493144999999999982e+03
7.900000000000000078e-02 4.748994999999999744e-01 3.802244999999999919e+01 1.158185000000000002e+02 1.493980000000000018e+03
8.000000000000000167e-02 4.753505000000000091e-01 3.864679999999999893e+01 1.180875000000000057e+02 1.494800000000000182e+03
8.100000000000000255e-02 4.757905000000000051e-01 3.921179999999999666e+01 1.203050000000000068e+02 1.495610000000000127e+03
8.200000000000000344e-02 4.762179999999999747e-01 3.971340000000000003e+01 1.224579999999999984e+02 1.496389999999999873e+03
8.300000000000000433e-02 4.766299999999999981e-01 4.014789999999999992e+01 1.245349999999999966e+02 1.497154999999999973e+03
8.400000000000000522e-02 4.770249999999999768e-01 4.051174999999999926e+01 1.265229999999999961e+02 1.497894999999999982e+03
8.500000000000000611e-02 4.773990000000000178e-01 4.080194999999999794e+01 1.284110000000000014e+02 1.498599999999999909e+03
8.600000000000000699e-02 4.777529999999999832e-01 4.101650000000000063e+01 1.301889999999999930e+02 1.499265000000000100e+03
8.700000000000000788e-02 4.780830000000000357e-01 4.115380000000000393e+01 1.318485000000000014e+02 1.499894999999999982e+03
8.800000000000000877e-02 4.783890000000000087e-01 4.121334999999999837e+01 1.333820000000000050e+02 1.500489999999999782e+03
8.899999999999999578e-02 4.786700000000000399e-01 4.119539999999999935e+01 1.347845000000000084e+02 1.501030000000000200e+03
8.999999999999999667e-02 4.789260000000000184e-01 4.110110000000000241e+01 1.360540000000000020e+02 1.501535000000000082e+03
9.099999999999999756e-02 4.791554999999999565e-01 4.093260000000000076e+01 1.371890000000000214e+02 1.501990000000000009e+03
9.199999999999999845e-02 4.793605000000000227e-01 4.069270000000000209e+01 1.381909999999999741e+02 1.502394999999999982e+03
9.299999999999999933e-02 4.795399999999999663e-01 4.038524999999999920e+01 1.390625000000000000e+02 1.502760000000000218e+03
9.400000000000000022e-02 4.796964999999999701e-01 4.001474999999999937e+01 1.398090000000000259e+02 1.503079999999999927e+03
9.500000000000000111e-02 4.798299999999999788e-01 3.958644999999999925e+01 1.404360000000000070e+02 1.503360000000000127e+03
9.600000000000000200e-02 4.799430000000000085e-01 3.910620000000000118e+01 1.409519999999999982e+02 1.503594999999999800e+03
9.700000000000000289e-02 4.800364999999999771e-01 3.858039999999999736e+01 1.413659999999999854e+02 1.503795000000000073e+03
9.800000000000000377e-02 4.801124999999999421e-01 3.801585000000000036e+01 1.416875000000000000e+02 1.503954999999999927e+03
9.900000000000000466e-02 4.801735000000000309e-01 3.741955000000000098e+01 1.419265000000000043e+02 1.504085000000000036e+03
1.000000000000000056e-01 4.802205000000000501e-01 3.679849999999999710e+01 1.420955000000000155e+02 1.504190000000000055e+03
1.010000000000000064e-01 4.802564999999999751e-01 3.615980000000000416e+01 1.422044999999999959e+02 1.504264999999999873e+03
1.020000000000000073e-01 4.802830000000000155e-01 3.550990000000000180e+01 1.422640000000000100e+02 1.504320000000000164e+03
1.030000000000000082e-01 4.803024999999999656e-01 3.485499999999999687e+01 1.422839999999999918e+02 1.504360000000000127e+03
1.040000000000000091e-01 4.803159999999999652e-01 3.420054999999999978e+01 1.422744999999999891e+02 1.504384999999999991e+03
1.050000000000000100e-01 4.803245000000000431e-01 3.355100000000000193e+01 1.422415000000000020e+02 1.504394999999999982e+03
1.059999999999999970e-01 4.803290000000000060e-01 3.291015000000000157e+01 1.421929999999999836e+02 1.504394999999999982e+03
1.069999999999999979e-01 4.803315000000000223e-01 3.228045000000000186e+01 1.421320000000000050e+02 1.504389999999999873e+03
1.079999999999999988e-01 4.803310000000000080e-01 3.166355000000000075e+01 1.420625000000000000e+02 1.504375000000000000e+03
1.089999999999999997e-01 4.803284999999999916e-01 3.106015000000000015e+01 1.419859999999999900e+02 1.504360000000000127e+03
1.100000000000000006e-01 4.803230000000000000e-01 3.046965000000000146e+01 1.419014999999999986e+02 1.504340000000000146e+03
1.110000000000000014e-01 4.803144999999999776e-01 2.989110000000000156e+01 1.418075000000000045e+02 1.504315000000000055e+03
1.120000000000000023e-01 4.803024999999999656e-01 2.932249999999999801e+01 1.417004999999999768e+02 1.504279999999999973e+03
1.130000000000000032e-01 4.802859999999999907e-01 2.876160000000000139e+01 1.415774999999999864e+02 1.504240000000000009e+03
1.140000000000000041e-01 4.802644999999999831e-01 2.820554999999999879e+01 1.414339999999999975e+02 1.504190000000000055e+03
1.150000000000000050e-01 4.802359999999999962e-01 2.765155000000000030e+01 1.412644999999999982e+02 1.504134999999999991e+03
1.160000000000000059e-01 4.802015000000000033e-01 2.709675000000000011e+01 1.410645000000000095e+02 1.504070000000000164e+03
1.170000000000000068e-01 4.801585000000000436e-01 2.653819999999999979e+01 1.408299999999999841e+02 1.503994999999999891e+03
1.180000000000000077e-01 4.801064999999999916e-01 2.597364999999999924e+01 1.405564999999999998e+02 1.503904999999999973e+03
1.190000000000000085e-01 4.800464999999999871e-01 2.540075000000000216e+01 1.402414999999999736e+02 1.503805000000000064e+03
1.200000000000000094e-01 4.799769999999999870e-01 2.481814999999999927e+01 1.398824999999999932e+02 1.503679999999999836e+03
1.209999999999999964e-01 4.798985000000000056e-01 2.422469999999999857e+01 1.394789999999999850e+02 1.503550000000000182e+03
1.219999999999999973e-01 4.798105000000000286e-01 2.362004999999999910e+01 1.390300000000000011e+02 1.503404999999999973e+03
1.229999999999999982e-01 4.797135000000000149e-01 2.300440000000000040e+01 1.385380000000000109e+02 1.503244999999999891e+03
1.239999999999999991e-01 4.796095000000000219e-01 2.237879999999999825e+01 1.380060000000000002e+02 1.503065000000000055e+03
1.250000000000000000e-01 4.794979999999999798e-01 2.174479999999999791e+01 1.374365000000000236e+02 1.502875000000000000e+03
1.260000000000000009e-01 4.793800000000000283e-01 2.110470000000000113e+01 1.368355000000000246e+02 1.502674999999999955e+03
1.270000000000000018e-01 4.792575000000000029e-01 2.046105000000000018e+01 1.362079999999999984e+02 1.502460000000000036e+03
1.280000000000000027e-01 4.791320000000000023e-01 1.981739999999999924e+01 1.355615000000000236e+02 1.502244999999999891e+03
1.290000000000000036e-01 4.790039999999999853e-01 1.917725000000000080e+01 1.349030000000000200e+02 1.502019999999999982e+03
1.300000000000000044e-01 4.788755000000000095e-01 1.854460000000000264e+01 1.342400000000000091e+02 1.501795000000000073e+03
1.310000000000000053e-01 4.787489999999999801e-01 1.792360000000000042e+01 1.335815000000000055e+02 1.501565000000000055e+03
1.320000000000000062e-01 4.786245000000000083e-01 1.731840000000000046e+01 1.329345000000000141e+02 1.501340000000000146e+03
1.330000000000000071e-01 4.785044999999999993e-01 1.673314999999999841e+01 1.323069999999999879e+02 1.501119999999999891e+03
1.340000000000000080e-01 4.783899999999999819e-01 1.617174999999999940e+01 1.317069999999999936e+02 1.500904999999999973e+03
1.350000000000000089e-01 4.782824999999999993e-01 1.563775000000000048e+01 1.311399999999999864e+02 1.500699999999999818e+03
1.360000000000000098e-01 4.781830000000000247e-01 1.513429999999999964e+01 1.306129999999999995e+02 1.500509999999999991e+03
1.370000000000000107e-01 4.780925000000000313e-01 1.466400000000000148e+01 1.301304999999999836e+02 1.500329999999999927e+03
1.380000000000000115e-01 4.780110000000000192e-01 1.422884999999999955e+01 1.296949999999999932e+02 1.500159999999999854e+03
1.390000000000000124e-01 4.779394999999999616e-01 1.383029999999999937e+01 1.293109999999999786e+02 1.500014999999999873e+03
1.400000000000000133e-01 4.778775000000000106e-01 1.346889999999999787e+01 1.289780000000000086e+02 1.499880000000000109e+03
1.410000000000000142e-01 4.778260000000000285e-01 1.314475000000000016e+01 1.286970000000000027e+02 1.499759999999999991e+03
1.420000000000000151e-01 4.777835000000000276e-01 1.285724499999999892e+01 1.284660000000000082e+02 1.499664999999999964e+03
1.430000000000000160e-01 4.777500000000000080e-01 1.260509500000000038e+01 1.282835000000000036e+02 1.499585000000000036e+03
1.440000000000000169e-01 4.777249999999999552e-01 1.238654000000000011e+01 1.281454999999999984e+02 1.499515000000000100e+03
1.450000000000000178e-01 4.777069999999999927e-01 1.219939499999999910e+01 1.280489999999999782e+02 1.499460000000000036e+03
1.459999999999999909e-01 4.776960000000000095e-01 1.204115999999999964e+01 1.279885000000000019e+02 1.499424999999999955e+03
1.469999999999999918e-01 4.776909999999999767e-01 1.190893499999999960e+01 1.279590000000000032e+02 1.499394999999999982e+03
1.479999999999999927e-01 4.776900000000000035e-01 1.179982500000000023e+01 1.279560000000000031e+02 1.499375000000000000e+03
1.489999999999999936e-01 4.776929999999999787e-01 1.171079500000000095e+01 1.279735000000000014e+02 1.499369999999999891e+03
1.499999999999999944e-01 4.776980000000000115e-01 1.163896499999999889e+01 1.280070000000000050e+02 1.499365000000000009e+03
1.509999999999999953e-01 4.777055000000000051e-01 1.158136999999999972e+01 1.280519999999999925e+02 1.499369999999999891e+03
1.519999999999999962e-01 4.777139999999999720e-01 1.153545000000000087e+01 1.281034999999999968e+02 1.499375000000000000e+03
1.529999999999999971e-01 4.777224999999999389e-01 1.149868000000000023e+01 1.281589999999999918e+02 1.499384999999999991e+03
1.539999999999999980e-01 4.777309999999999612e-01 1.146889499999999984e+01 1.282144999999999868e+02 1.499394999999999982e+03
1.549999999999999989e-01 4.777394999999999836e-01 1.144423499999999905e+01 1.282674999999999841e+02 1.499409999999999854e+03
1.559999999999999998e-01 4.777470000000000327e-01 1.142310499999999962e+01 1.283164999999999907e+02 1.499420000000000073e+03
1.570000000000000007e-01 4.777529999999999832e-01 1.140414999999999957e+01 1.283600000000000136e+02 1.499429999999999836e+03
1.580000000000000016e-01 4.777585000000000304e-01 1.138641499999999951e+01 1.283979999999999961e+02 1.499440000000000055e+03
1.590000000000000024e-01 4.777629999999999377e-01 1.136914499999999961e+01 1.284304999999999950e+02 1.499450000000000045e+03
