# t [s], A [cm^2], U [cm/s], P [cPa], c [cm/s]
1.000000000000000021e-03 1.365009999999999835e-01 3.176124999999999643e-01 9.354294999999999050e+01 1.980045000000000073e+03
2.000000000000000042e-03 1.364684999999999926e-01 1.821379000000000081e+00 9.040899999999999181e+01 1.979659999999999854e+03
3.000000000000000062e-03 1.363719999999999932e-01 3.666148499999999810e+00 8.615115000000000123e+01 1.978570000000000164e+03
4.000000000000000083e-03 1.362369999999999970e-01 5.729473000000000482e+00 8.150835000000000719e+01 1.977070000000000164e+03
5.000000000000000104e-03 1.360889999999999878e-01 7.948679999999999524e+00 7.731004999999998972e+01 1.975434999999999945e+03
6.000000000000000125e-03 1.359440000000000093e-01 1.016956500000000041e+01 7.386225000000000307e+01 1.973860000000000127e+03
7.000000000000000146e-03 1.358074999999999977e-01 1.218892999999999915e+01 7.095779999999999177e+01 1.972394999999999982e+03
8.000000000000000167e-03 1.356804999999999817e-01 1.390877000000000052e+01 6.833950000000000102e+01 1.971059999999999945e+03
9.000000000000001055e-03 1.355669999999999931e-01 1.535735000000000028e+01 6.601909999999999457e+01 1.969880000000000109e+03
1.000000000000000194e-02 1.354694999999999927e-01 1.657435000000000258e+01 6.408240000000000691e+01 1.968880000000000109e+03
1.099999999999999936e-02 1.353874999999999940e-01 1.757529999999999859e+01 6.252335000000000065e+01 1.968045000000000073e+03
1.200000000000000025e-02 1.353209999999999968e-01 1.837480000000000047e+01 6.129260000000000019e+01 1.967369999999999891e+03
1.300000000000000114e-02 1.352669999999999983e-01 1.898185000000000144e+01 6.032084999999999297e+01 1.966839999999999918e+03
1.400000000000000203e-02 1.352234999999999965e-01 1.939920000000000044e+01 5.950534999999999997e+01 1.966414999999999964e+03
1.499999999999999944e-02 1.351864999999999872e-01 1.965845000000000198e+01 5.878509999999999991e+01 1.966065000000000055e+03
1.600000000000000033e-02 1.351574999999999860e-01 1.985249999999999915e+01 5.826014999999999588e+01 1.965795000000000073e+03
1.700000000000000122e-02 1.351424999999999987e-01 2.011805000000000021e+01 5.820385000000000275e+01 1.965659999999999854e+03
1.800000000000000211e-02 1.351465000000000027e-01 2.057135000000000247e+01 5.891779999999999973e+01 1.965710000000000036e+03
1.900000000000000300e-02 1.351740000000000164e-01 2.124589999999999890e+01 6.053239999999999554e+01 1.966000000000000000e+03
2.000000000000000042e-02 1.352254999999999985e-01 2.207039999999999935e+01 6.288755000000000450e+01 1.966525000000000091e+03
2.100000000000000130e-02 1.352915000000000090e-01 2.289665000000000106e+01 6.555939999999999657e+01 1.967210000000000036e+03
2.200000000000000219e-02 1.353624999999999967e-01 2.355615000000000236e+01 6.800430000000000064e+01 1.967944999999999936e+03
2.299999999999999961e-02 1.354239999999999888e-01 2.391915000000000191e+01 6.974334999999999241e+01 1.968594999999999800e+03
2.400000000000000050e-02 1.354670000000000041e-01 2.393310000000000315e+01 7.051040000000000418e+01 1.969065000000000055e+03
2.500000000000000139e-02 1.354869999999999963e-01 2.363044999999999973e+01 7.031295000000000073e+01 1.969300000000000182e+03
2.600000000000000228e-02 1.354859999999999953e-01 2.310614999999999952e+01 6.939379999999999882e+01 1.969320000000000164e+03
2.700000000000000316e-02 1.354699999999999793e-01 2.247809999999999775e+01 6.812019999999999698e+01 1.969170000000000073e+03
2.800000000000000058e-02 1.354460000000000108e-01 2.184655000000000058e+01 6.684829999999999472e+01 1.968934999999999945e+03
2.900000000000000147e-02 1.354215000000000002e-01 2.126664999999999850e+01 6.581435000000000457e+01 1.968684999999999945e+03
3.000000000000000236e-02 1.354000000000000203e-01 2.074159999999999826e+01 6.508509999999999707e+01 1.968460000000000036e+03
3.099999999999999978e-02 1.353825000000000167e-01 2.023355000000000103e+01 6.457249999999999091e+01 1.968275000000000091e+03
3.200000000000000067e-02 1.353659999999999863e-01 1.968759999999999977e+01 6.409645000000000437e+01 1.968110000000000127e+03
3.300000000000000155e-02 1.353479999999999961e-01 1.905729999999999791e+01 6.346925000000000239e+01 1.967925000000000182e+03
3.400000000000000244e-02 1.353245000000000142e-01 1.832650000000000290e+01 6.257290000000000418e+01 1.967690000000000055e+03
3.500000000000000333e-02 1.352939999999999976e-01 1.751989999999999981e+01 6.140879999999999939e+01 1.967385000000000218e+03
3.600000000000000422e-02 1.352585000000000037e-01 1.670080000000000098e+01 6.010694999999999766e+01 1.967025000000000091e+03
3.700000000000000511e-02 1.352224999999999955e-01 1.595664999999999978e+01 5.889354999999999762e+01 1.966654999999999973e+03
3.799999999999999906e-02 1.351910000000000056e-01 1.537654999999999994e+01 5.802884999999999849e+01 1.966329999999999927e+03
3.899999999999999994e-02 1.351715000000000000e-01 1.502874999999999872e+01 5.773425000000000296e+01 1.966110000000000127e+03
4.000000000000000083e-02 1.351669999999999816e-01 1.494314999999999927e+01 5.813105000000000189e+01 1.966055000000000064e+03
4.100000000000000172e-02 1.351804999999999812e-01 1.510394999999999932e+01 5.920664999999999623e+01 1.966174999999999955e+03
4.200000000000000261e-02 1.352109999999999979e-01 1.545309999999999917e+01 6.081544999999999845e+01 1.966469999999999800e+03
4.300000000000000350e-02 1.352534999999999987e-01 1.590200000000000102e+01 6.270909999999999940e+01 1.966894999999999982e+03
4.400000000000000439e-02 1.353024999999999922e-01 1.634830000000000183e+01 6.458635000000001014e+01 1.967389999999999873e+03
4.499999999999999833e-02 1.353499999999999981e-01 1.669245000000000090e+01 6.614825000000000443e+01 1.967880000000000109e+03
4.599999999999999922e-02 1.353884999999999950e-01 1.685210000000000008e+01 6.714580000000000837e+01 1.968280000000000200e+03
4.700000000000000011e-02 1.354124999999999912e-01 1.677105000000000246e+01 6.741294999999999504e+01 1.968534999999999854e+03
4.800000000000000100e-02 1.354174999999999962e-01 1.642235000000000156e+01 6.687960000000001060e+01 1.968595000000000027e+03
4.900000000000000189e-02 1.354009999999999936e-01 1.580685000000000073e+01 6.556710000000001060e+01 1.968440000000000055e+03
5.000000000000000278e-02 1.353639999999999843e-01 1.494749999999999979e+01 6.356935000000000002e+01 1.968069999999999936e+03
5.100000000000000366e-02 1.353079999999999838e-01 1.388224999999999909e+01 6.102684999999999604e+01 1.967500000000000000e+03
5.200000000000000455e-02 1.352364999999999817e-01 1.265723000000000020e+01 5.810000000000000142e+01 1.966775000000000091e+03
5.300000000000000544e-02 1.351530000000000231e-01 1.132070000000000043e+01 5.494760000000000133e+01 1.965924999999999955e+03
5.399999999999999939e-02 1.350625000000000020e-01 9.919999999999999929e+00 5.171249999999999858e+01 1.964994999999999891e+03
5.500000000000000028e-02 1.349675000000000180e-01 8.499859999999999971e+00 4.851644999999999897e+01 1.964014999999999873e+03
5.600000000000000117e-02 1.348719999999999919e-01 7.102714999999999890e+00 4.546099999999999852e+01 1.963039999999999964e+03
5.700000000000000205e-02 1.347794999999999965e-01 5.769394999999999385e+00 4.263285000000000480e+01 1.962079999999999927e+03
5.800000000000000294e-02 1.346924999999999928e-01 4.540180000000000327e+00 4.011025000000000063e+01 1.961179999999999836e+03
5.900000000000000383e-02 1.346140000000000114e-01 3.455255500000000257e+00 3.796849999999999881e+01 1.960360000000000127e+03
6.000000000000000472e-02 1.345459999999999989e-01 2.554207499999999964e+00 3.628175000000000239e+01 1.959650000000000091e+03
6.099999999999999867e-02 1.344914999999999861e-01 1.874722750000000104e+00 3.512259999999999849e+01 1.959075000000000045e+03
6.199999999999999956e-02 1.344520000000000159e-01 1.450593000000000021e+00 3.455799999999999983e+01 1.958655000000000200e+03
6.300000000000000044e-02 1.344305000000000083e-01 1.309393999999999947e+00 3.464359999999999928e+01 1.958414999999999964e+03
6.400000000000000133e-02 1.344285000000000063e-01 1.470285000000000064e+00 3.541779999999999973e+01 1.958375000000000000e+03
6.500000000000000222e-02 1.344474999999999976e-01 1.942344999999999988e+00 3.689639999999999986e+01 1.958545000000000073e+03
6.600000000000000311e-02 1.344869999999999954e-01 2.723629999999999995e+00 3.906974999999999909e+01 1.958934999999999945e+03
6.700000000000000400e-02 1.345474999999999866e-01 3.801165000000000127e+00 4.190164999999999651e+01 1.959534999999999854e+03
6.800000000000000488e-02 1.346279999999999977e-01 5.151784999999999393e+00 4.533160000000000167e+01 1.960344999999999800e+03
6.900000000000000577e-02 1.347280000000000144e-01 6.743619999999999948e+00 4.927880000000000393e+01 1.961349999999999909e+03
7.000000000000000666e-02 1.348429999999999906e-01 8.538125000000000853e+00 5.364744999999999919e+01 1.962519999999999982e+03
7.100000000000000755e-02 1.349719999999999809e-01 1.049220500000000023e+01 5.833310000000000173e+01 1.963840000000000146e+03
7.200000000000000844e-02 1.351110000000000089e-01 1.256058999999999948e+01 6.322860000000000014e+01 1.965275000000000091e+03
7.300000000000000933e-02 1.352585000000000037e-01 1.469790000000000063e+01 6.823000000000000398e+01 1.966789999999999964e+03
7.399999999999999634e-02 1.354104999999999892e-01 1.686074999999999946e+01 7.324174999999999613e+01 1.968365000000000009e+03
7.499999999999999722e-02 1.355644999999999767e-01 1.900959999999999894e+01 7.818064999999999998e+01 1.969960000000000036e+03
7.599999999999999811e-02 1.357174999999999909e-01 2.111015000000000086e+01 8.297934999999999661e+01 1.971555000000000064e+03
7.699999999999999900e-02 1.358674999999999744e-01 2.313485000000000014e+01 8.758849999999999625e+01 1.973130000000000109e+03
7.799999999999999989e-02 1.360135000000000094e-01 2.506344999999999956e+01 9.197839999999999350e+01 1.974659999999999854e+03
7.900000000000000078e-02 1.361539999999999973e-01 2.688329999999999842e+01 9.613824999999999932e+01 1.976139999999999873e+03
8.000000000000000167e-02 1.362895000000000079e-01 2.858944999999999936e+01 1.000756000000000085e+02 1.977569999999999936e+03
8.100000000000000255e-02 1.364184999999999981e-01 3.018379999999999797e+01 1.038128499999999974e+02 1.978934999999999945e+03
8.200000000000000344e-02 1.365425000000000111e-01 3.167384999999999806e+01 1.073849999999999909e+02 1.980250000000000000e+03
8.300000000000000433e-02 1.366620000000000057e-01 3.307139999999999702e+01 1.108344999999999914e+02 1.981525000000000091e+03
8.400000000000000522e-02 1.367780000000000107e-01 3.439090000000000202e+01 1.142060000000000031e+02 1.982759999999999991e+03
8.500000000000000611e-02 1.368920000000000137e-01 3.564780000000000371e+01 1.175424999999999898e+02 1.983969999999999800e+03
8.600000000000000699e-02 1.370049999999999879e-01 3.685675000000000523e+01 1.208824999999999932e+02 1.985170000000000073e+03
8.700000000000000788e-02 1.371169999999999889e-01 3.803050000000000352e+01 1.242545000000000073e+02 1.986369999999999891e+03
8.800000000000000877e-02 1.372300000000000186e-01 3.917884999999999707e+01 1.276765000000000043e+02 1.987574999999999818e+03
8.899999999999999578e-02 1.373439999999999939e-01 4.030755000000000621e+01 1.311550000000000011e+02 1.988795000000000073e+03
8.999999999999999667e-02 1.374589999999999979e-01 4.141859999999999786e+01 1.346825000000000045e+02 1.990019999999999982e+03
9.099999999999999756e-02 1.375755000000000172e-01 4.250969999999999516e+01 1.382425000000000068e+02 1.991264999999999873e+03
9.199999999999999845e-02 1.376924999999999955e-01 4.357484999999999786e+01 1.418075000000000045e+02 1.992509999999999991e+03
9.299999999999999933e-02 1.378090000000000148e-01 4.460464999999999947e+01 1.453425000000000011e+02 1.993755000000000109e+03
9.400000000000000022e-02 1.379239999999999911e-01 4.558709999999999951e+01 1.488064999999999998e+02 1.994989999999999782e+03
9.500000000000000111e-02 1.380375000000000074e-01 4.650865000000000293e+01 1.521569999999999823e+02 1.996200000000000045e+03
9.600000000000000200e-02 1.381470000000000198e-01 4.735439999999999827e+01 1.553505000000000109e+02 1.997380000000000109e+03
9.700000000000000289e-02 1.382514999999999994e-01 4.810970000000000368e+01 1.583444999999999823e+02 1.998505000000000109e+03
9.800000000000000377e-02 1.383504999999999874e-01 4.876044999999999874e+01 1.611005000000000109e+02 1.999565000000000055e+03
9.900000000000000466e-02 1.384414999999999951e-01 4.929390000000000072e+01 1.635860000000000127e+02 2.000555000000000064e+03
1.000000000000000056e-01 1.385250000000000092e-01 4.969944999999999879e+01 1.657735000000000127e+02 2.001454999999999927e+03
1.010000000000000064e-01 1.385990000000000000e-01 4.996909999999999741e+01 1.676444999999999936e+02 2.002264999999999873e+03
1.020000000000000073e-01 1.386640000000000095e-01 5.009799999999999898e+01 1.691865000000000236e+02 2.002970000000000027e+03
1.030000000000000082e-01 1.387184999999999946e-01 5.008435000000000059e+01 1.703980000000000246e+02 2.003575000000000045e+03
1.040000000000000091e-01 1.387634999999999841e-01 4.993009999999999593e+01 1.712839999999999918e+02 2.004065000000000055e+03
1.050000000000000100e-01 1.387984999999999913e-01 4.964045000000000130e+01 1.718584999999999923e+02 2.004450000000000045e+03
1.059999999999999970e-01 1.388234999999999886e-01 4.922384999999999877e+01 1.721424999999999841e+02 2.004734999999999900e+03
1.069999999999999979e-01 1.388389999999999902e-01 4.869174999999999898e+01 1.721630000000000109e+02 2.004920000000000073e+03
1.079999999999999988e-01 1.388469999999999982e-01 4.805814999999999770e+01 1.719530000000000030e+02 2.005014999999999873e+03
1.089999999999999997e-01 1.388469999999999982e-01 4.733870000000000289e+01 1.715494999999999948e+02 2.005025000000000091e+03
1.100000000000000006e-01 1.388409999999999922e-01 4.655049999999999955e+01 1.709895000000000209e+02 2.004970000000000027e+03
1.110000000000000014e-01 1.388289999999999802e-01 4.571110000000000184e+01 1.703129999999999882e+02 2.004855000000000018e+03
1.120000000000000023e-01 1.388135000000000063e-01 4.483795000000000641e+01 1.695579999999999927e+02 2.004694999999999936e+03
1.130000000000000032e-01 1.387950000000000017e-01 4.394774999999999920e+01 1.687584999999999980e+02 2.004494999999999891e+03
1.140000000000000041e-01 1.387740000000000085e-01 4.305580000000000496e+01 1.679465000000000146e+02 2.004279999999999973e+03
1.150000000000000050e-01 1.387525000000000008e-01 4.217549999999999955e+01 1.671490000000000009e+02 2.004049999999999955e+03
1.160000000000000059e-01 1.387305000000000066e-01 4.131815000000000282e+01 1.663859999999999957e+02 2.003809999999999945e+03
1.170000000000000068e-01 1.387085000000000123e-01 4.049230000000000018e+01 1.656734999999999900e+02 2.003575000000000045e+03
1.180000000000000077e-01 1.386874999999999913e-01 3.970399999999999352e+01 1.650194999999999936e+02 2.003349999999999909e+03
1.190000000000000085e-01 1.386674999999999991e-01 3.895635000000000048e+01 1.644264999999999759e+02 2.003139999999999873e+03
1.200000000000000094e-01 1.386495000000000088e-01 3.824969999999999715e+01 1.638919999999999959e+02 2.002940000000000055e+03
1.209999999999999964e-01 1.386324999999999918e-01 3.758199999999999363e+01 1.634060000000000059e+02 2.002755000000000109e+03
1.219999999999999973e-01 1.386165000000000036e-01 3.694870000000000232e+01 1.629549999999999841e+02 2.002575000000000045e+03
1.229999999999999982e-01 1.386014999999999886e-01 3.634340000000000259e+01 1.625225000000000080e+02 2.002409999999999854e+03
1.239999999999999991e-01 1.385869999999999880e-01 3.575820000000000221e+01 1.620885000000000105e+02 2.002250000000000000e+03
1.250000000000000000e-01 1.385720000000000007e-01 3.518415000000000248e+01 1.616304999999999836e+02 2.002085000000000036e+03
1.260000000000000009e-01 1.385560000000000125e-01 3.461169999999999902e+01 1.611274999999999977e+02 2.001909999999999854e+03
1.270000000000000018e-01 1.385389999999999955e-01 3.403139999999999787e+01 1.605564999999999998e+02 2.001724999999999909e+03
1.280000000000000027e-01 1.385200000000000042e-01 3.343439999999999657e+01 1.598999999999999773e+02 2.001519999999999982e+03
1.290000000000000036e-01 1.384980000000000100e-01 3.281255000000000166e+01 1.591415000000000077e+02 2.001289999999999964e+03
1.300000000000000044e-01 1.384734999999999994e-01 3.215955000000000297e+01 1.582675000000000125e+02 2.001019999999999982e+03
1.310000000000000053e-01 1.384454999999999991e-01 3.147050000000000125e+01 1.572715000000000032e+02 2.000720000000000027e+03
1.320000000000000062e-01 1.384140000000000092e-01 3.074289999999999878e+01 1.561510000000000105e+02 2.000384999999999991e+03
1.330000000000000071e-01 1.383785000000000154e-01 2.997634999999999650e+01 1.549085000000000036e+02 2.000009999999999991e+03
1.340000000000000080e-01 1.383395000000000041e-01 2.917269999999999897e+01 1.535515000000000043e+02 1.999599999999999909e+03
1.350000000000000089e-01 1.382975000000000176e-01 2.833624999999999972e+01 1.520949999999999989e+02 1.999150000000000091e+03
1.360000000000000098e-01 1.382519999999999860e-01 2.747319999999999851e+01 1.505559999999999832e+02 1.998659999999999854e+03
1.370000000000000107e-01 1.382045000000000079e-01 2.659174999999999756e+01 1.489574999999999818e+02 1.998154999999999973e+03
1.380000000000000115e-01 1.381545000000000134e-01 2.570155000000000101e+01 1.473245000000000005e+02 1.997625000000000000e+03
1.390000000000000124e-01 1.381040000000000045e-01 2.481320000000000192e+01 1.456829999999999927e+02 1.997085000000000036e+03
1.400000000000000133e-01 1.380524999999999947e-01 2.393799999999999883e+01 1.440620000000000118e+02 1.996535000000000082e+03
1.410000000000000142e-01 1.380014999999999992e-01 2.308729999999999905e+01 1.424875000000000114e+02 1.995994999999999891e+03
1.420000000000000151e-01 1.379519999999999913e-01 2.227205000000000013e+01 1.409859999999999900e+02 1.995460000000000036e+03
1.430000000000000160e-01 1.379039999999999988e-01 2.150225000000000009e+01 1.395805000000000007e+02 1.994950000000000045e+03
1.440000000000000169e-01 1.378590000000000093e-01 2.078679999999999950e+01 1.382899999999999920e+02 1.994470000000000027e+03
1.450000000000000178e-01 1.378174999999999817e-01 2.013280000000000314e+01 1.371295000000000073e+02 1.994014999999999873e+03
1.459999999999999909e-01 1.377789999999999848e-01 1.954554999999999865e+01 1.361094999999999970e+02 1.993605000000000018e+03
1.469999999999999918e-01 1.377450000000000063e-01 1.902850000000000108e+01 1.352359999999999900e+02 1.993235000000000127e+03
1.479999999999999927e-01 1.377149999999999763e-01 1.858290000000000219e+01 1.345099999999999909e+02 1.992910000000000082e+03
1.489999999999999936e-01 1.376894999999999925e-01 1.820819999999999794e+01 1.339270000000000209e+02 1.992634999999999991e+03
1.499999999999999944e-01 1.376684999999999992e-01 1.790194999999999936e+01 1.334805000000000064e+02 1.992404999999999973e+03
1.509999999999999953e-01 1.376514999999999822e-01 1.766000000000000014e+01 1.331585000000000036e+02 1.992215000000000146e+03
1.519999999999999962e-01 1.376379999999999826e-01 1.747695000000000221e+01 1.329479999999999791e+02 1.992065000000000055e+03
1.529999999999999971e-01 1.376284999999999870e-01 1.734639999999999915e+01 1.328335000000000150e+02 1.991954999999999927e+03
1.539999999999999980e-01 1.376219999999999943e-01 1.726104999999999734e+01 1.327980000000000018e+02 1.991880000000000109e+03
1.549999999999999989e-01 1.376179999999999903e-01 1.721330000000000027e+01 1.328245000000000005e+02 1.991829999999999927e+03
1.559999999999999998e-01 1.376155000000000017e-01 1.719539999999999935e+01 1.328974999999999795e+02 1.991805000000000064e+03
1.570000000000000007e-01 1.376155000000000017e-01 1.719984999999999786e+01 1.330000000000000000e+02 1.991800000000000182e+03
1.580000000000000016e-01 1.376160000000000161e-01 1.721930000000000049e+01 1.331184999999999832e+02 1.991804999999999836e+03
1.590000000000000024e-01 1.376180000000000181e-01 1.724719999999999942e+01 1.332404999999999973e+02 1.991815000000000055e+03
