# t [s], A [cm^2], U [cm/s], P [cPa], c [cm/s]
1.000000000000000021e-03 1.955649999999999888e-01 6.034454000000000207e-01 1.015502500000000055e+02 2.277110000000000127e+03
2.000000000000000042e-03 1.954759999999999831e-01 2.541903500000000093e+00 9.659839999999999804e+01 2.276320000000000164e+03
3.000000000000000062e-03 1.952889999999999904e-01 4.853407999999999944e+00 9.018819999999999482e+01 2.274704999999999927e+03
4.000000000000000083e-03 1.950675000000000048e-01 7.444240000000000634e+00 8.426680000000000348e+01 2.272809999999999945e+03
5.000000000000000104e-03 1.948550000000000004e-01 1.007205500000000065e+01 7.975999999999999091e+01 2.271010000000000218e+03
6.000000000000000125e-03 1.946614999999999873e-01 1.234097500000000025e+01 7.612305000000000632e+01 2.269409999999999854e+03
7.000000000000000146e-03 1.944879999999999942e-01 1.413254500000000036e+01 7.285660000000000025e+01 2.268000000000000000e+03
8.000000000000000167e-03 1.943420000000000147e-01 1.555239999999999867e+01 7.016724999999999568e+01 2.266840000000000146e+03
9.000000000000001055e-03 1.942249999999999810e-01 1.664505000000000123e+01 6.812465000000000259e+01 2.265920000000000073e+03
1.000000000000000194e-02 1.941354999999999886e-01 1.744205000000000183e+01 6.662600000000000477e+01 2.265230000000000018e+03
1.099999999999999936e-02 1.940700000000000203e-01 1.797319999999999851e+01 6.555939999999999657e+01 2.264724999999999909e+03
1.200000000000000025e-02 1.940189999999999970e-01 1.824300000000000210e+01 6.470239999999999725e+01 2.264349999999999909e+03
1.300000000000000114e-02 1.939794999999999991e-01 1.835065000000000168e+01 6.401760000000000161e+01 2.264065000000000055e+03
1.400000000000000203e-02 1.939615000000000089e-01 1.856544999999999845e+01 6.404925000000000068e+01 2.263945000000000164e+03
1.499999999999999944e-02 1.939850000000000185e-01 1.917535000000000167e+01 6.564910000000000423e+01 2.264139999999999873e+03
1.600000000000000033e-02 1.940634999999999999e-01 2.024884999999999735e+01 6.918270000000001119e+01 2.264769999999999982e+03
1.700000000000000122e-02 1.941900000000000015e-01 2.154390000000000072e+01 7.400985000000000014e+01 2.265770000000000437e+03
1.800000000000000211e-02 1.943340000000000067e-01 2.262604999999999933e+01 7.868009999999999593e+01 2.266925000000000182e+03
1.900000000000000300e-02 1.944529999999999870e-01 2.309385000000000332e+01 8.164785000000000537e+01 2.267909999999999854e+03
2.000000000000000042e-02 1.945149999999999935e-01 2.276960000000000051e+01 8.202189999999998804e+01 2.268449999999999818e+03
2.100000000000000130e-02 1.945085000000000008e-01 2.176035000000000252e+01 7.993665000000000020e+01 2.268440000000000055e+03
2.200000000000000219e-02 1.944464999999999943e-01 2.037570000000000192e+01 7.638810000000000855e+01 2.267980000000000018e+03
2.299999999999999961e-02 1.943570000000000020e-01 1.896195000000000164e+01 7.267995000000000516e+01 2.267275000000000091e+03
2.400000000000000050e-02 1.942694999999999839e-01 1.775110000000000099e+01 6.981459999999999866e+01 2.266574999999999818e+03
2.500000000000000139e-02 1.942019999999999857e-01 1.679329999999999856e+01 6.813790000000000191e+01 2.266019999999999982e+03
2.600000000000000228e-02 1.941574999999999829e-01 1.598590000000000089e+01 6.734950000000000614e+01 2.265650000000000091e+03
2.700000000000000316e-02 1.941255000000000064e-01 1.516339999999999932e+01 6.679364999999999952e+01 2.265389999999999873e+03
2.800000000000000058e-02 1.940910000000000135e-01 1.419885000000000019e+01 6.584820000000000562e+01 2.265114999999999782e+03
2.900000000000000147e-02 1.940435000000000076e-01 1.307535000000000025e+01 6.423980000000000246e+01 2.264744999999999891e+03
3.000000000000000236e-02 1.939829999999999888e-01 1.190361500000000028e+01 6.217354999999999876e+01 2.264264999999999873e+03
3.099999999999999978e-02 1.939194999999999947e-01 1.088199499999999986e+01 6.024305000000000376e+01 2.263750000000000000e+03
3.200000000000000067e-02 1.938710000000000155e-01 1.021834499999999935e+01 5.917284999999999684e+01 2.263349999999999909e+03
3.300000000000000155e-02 1.938539999999999985e-01 1.004757999999999996e+01 5.951100000000000279e+01 2.263199999999999818e+03
3.400000000000000244e-02 1.938805000000000112e-01 1.037785000000000046e+01 6.139900000000000091e+01 2.263380000000000109e+03
3.500000000000000333e-02 1.939469999999999805e-01 1.108239999999999981e+01 6.450100000000000477e+01 2.263885000000000218e+03
3.600000000000000422e-02 1.940410000000000190e-01 1.193404999999999916e+01 6.809805000000000064e+01 2.264619999999999891e+03
3.700000000000000511e-02 1.941410000000000080e-01 1.266399999999999970e+01 7.129140000000001010e+01 2.265409999999999854e+03
3.799999999999999906e-02 1.942210000000000047e-01 1.302350000000000030e+01 7.323475000000000534e+01 2.266060000000000400e+03
3.899999999999999994e-02 1.942599999999999882e-01 1.283210000000000051e+01 7.332134999999999536e+01 2.266389999999999873e+03
4.000000000000000083e-02 1.942424999999999846e-01 1.200169999999999959e+01 7.128475000000000250e+01 2.266269999999999982e+03
4.100000000000000172e-02 1.941630000000000023e-01 1.053770000000000095e+01 6.720284999999999798e+01 2.265654999999999745e+03
4.200000000000000261e-02 1.940240000000000020e-01 8.521045000000000869e+00 6.142560000000000286e+01 2.264569999999999709e+03
4.300000000000000350e-02 1.938365000000000227e-01 6.082034999999999414e+00 5.446235000000000070e+01 2.263079999999999927e+03
4.400000000000000439e-02 1.936134999999999939e-01 3.373569999999999958e+00 4.686979999999999791e+01 2.261304999999999836e+03
4.499999999999999833e-02 1.933710000000000151e-01 5.518200000000001992e-01 3.916809999999999548e+01 2.259369999999999891e+03
4.599999999999999922e-02 1.931239999999999901e-01 -2.235009999999999941e+00 3.179909999999999926e+01 2.257394999999999982e+03
4.700000000000000011e-02 1.928860000000000019e-01 -4.850183999999999607e+00 2.511989999999999768e+01 2.255489999999999782e+03
4.800000000000000100e-02 1.926689999999999792e-01 -7.168080000000000673e+00 1.941944999999999766e+01 2.253734999999999673e+03
4.900000000000000189e-02 1.924814999999999998e-01 -9.073339999999999961e+00 1.493970500000000001e+01 2.252225000000000364e+03
5.000000000000000278e-02 1.923340000000000050e-01 -1.046226000000000056e+01 1.188925000000000054e+01 2.251015000000000327e+03
5.100000000000000366e-02 1.922320000000000140e-01 -1.124745000000000061e+01 1.044242500000000007e+01 2.250180000000000291e+03
5.200000000000000455e-02 1.921839999999999937e-01 -1.136479999999999890e+01 1.072514999999999930e+01 2.249755000000000109e+03
5.300000000000000544e-02 1.921924999999999883e-01 -1.078118500000000068e+01 1.279315000000000069e+01 2.249779999999999745e+03
5.399999999999999939e-02 1.922590000000000132e-01 -9.500334999999999752e+00 1.661209999999999809e+01 2.250275000000000091e+03
5.500000000000000028e-02 1.923819999999999975e-01 -7.565174999999999983e+00 2.204700000000000060e+01 2.251215000000000146e+03
5.600000000000000117e-02 1.925574999999999926e-01 -5.054903999999999620e+00 2.886664999999999992e+01 2.252585000000000036e+03
5.700000000000000205e-02 1.927780000000000049e-01 -2.078140000000000320e+00 3.676335000000000264e+01 2.254310000000000400e+03
5.800000000000000294e-02 1.930334999999999968e-01 1.237219999999999764e+00 4.538325000000000387e+01 2.256329999999999927e+03
5.900000000000000383e-02 1.933124999999999982e-01 4.754910000000000636e+00 5.436045000000000016e+01 2.258554999999999836e+03
6.000000000000000472e-02 1.936054999999999859e-01 8.340444999999998998e+00 6.334890000000000043e+01 2.260890000000000327e+03
6.099999999999999867e-02 1.939000000000000168e-01 1.186923499999999976e+01 7.204590000000000316e+01 2.263260000000000218e+03
6.199999999999999956e-02 1.941869999999999985e-01 1.523269000000000162e+01 8.020730000000000359e+01 2.265579999999999927e+03
6.300000000000000044e-02 1.944595000000000073e-01 1.834234999999999971e+01 8.765449999999999875e+01 2.267795000000000073e+03
6.400000000000000133e-02 1.947105000000000086e-01 2.113275000000000148e+01 9.427709999999999013e+01 2.269849999999999909e+03
6.500000000000000222e-02 1.949374999999999858e-01 2.356360000000000099e+01 1.000313000000000017e+02 2.271715000000000146e+03
6.600000000000000311e-02 1.951390000000000069e-01 2.562069999999999936e+01 1.049401000000000010e+02 2.273369999999999891e+03
6.700000000000000400e-02 1.953139999999999876e-01 2.731555000000000177e+01 1.090859999999999985e+02 2.274824999999999818e+03
6.800000000000000488e-02 1.954664999999999875e-01 2.868339999999999890e+01 1.126045000000000016e+02 2.276095000000000255e+03
6.900000000000000577e-02 1.955994999999999817e-01 2.977929999999999922e+01 1.156740000000000066e+02 2.277210000000000036e+03
7.000000000000000666e-02 1.957194999999999907e-01 3.067275000000000063e+01 1.184985000000000070e+02 2.278215000000000146e+03
7.100000000000000755e-02 1.958320000000000061e-01 3.144034999999999869e+01 1.212874999999999943e+02 2.279154999999999745e+03
7.200000000000000844e-02 1.959434999999999927e-01 3.215855000000000530e+01 1.242379999999999995e+02 2.280090000000000146e+03
7.300000000000000933e-02 1.960604999999999987e-01 3.289634999999999820e+01 1.275150000000000006e+02 2.281059999999999945e+03
7.399999999999999634e-02 1.961870000000000003e-01 3.370874999999999488e+01 1.312369999999999948e+02 2.282105000000000018e+03
7.499999999999999722e-02 1.963264999999999871e-01 3.463235000000000241e+01 1.354604999999999961e+02 2.283255000000000109e+03
7.599999999999999811e-02 1.964814999999999756e-01 3.568234999999999957e+01 1.401839999999999975e+02 2.284525000000000091e+03
7.699999999999999900e-02 1.966505000000000059e-01 3.685255000000000081e+01 1.453419999999999845e+02 2.285909999999999854e+03
7.799999999999999989e-02 1.968314999999999926e-01 3.811639999999999873e+01 1.508185000000000002e+02 2.287394999999999982e+03
7.900000000000000078e-02 1.970215000000000161e-01 3.943084999999999951e+01 1.564555000000000007e+02 2.288954999999999927e+03
8.000000000000000167e-02 1.972150000000000014e-01 4.074070000000000391e+01 1.620715000000000146e+02 2.290550000000000182e+03
8.100000000000000255e-02 1.974069999999999991e-01 4.198399999999999466e+01 1.674745000000000061e+02 2.292130000000000109e+03
8.200000000000000344e-02 1.975905000000000022e-01 4.309734999999999872e+01 1.724805000000000064e+02 2.293654999999999745e+03
8.300000000000000433e-02 1.977605000000000057e-01 4.402094999999999914e+01 1.769244999999999948e+02 2.295070000000000164e+03
8.400000000000000522e-02 1.979124999999999912e-01 4.470304999999999751e+01 1.806734999999999900e+02 2.296335000000000036e+03
8.500000000000000611e-02 1.980414999999999814e-01 4.510349999999999682e+01 1.836320000000000050e+02 2.297420000000000073e+03
8.600000000000000699e-02 1.981450000000000156e-01 4.519604999999999961e+01 1.857460000000000093e+02 2.298295000000000073e+03
8.700000000000000788e-02 1.982214999999999949e-01 4.496970000000000312e+01 1.870070000000000050e+02 2.298944999999999709e+03
8.800000000000000877e-02 1.982700000000000018e-01 4.442895000000000039e+01 1.874449999999999932e+02 2.299364999999999782e+03
8.899999999999999578e-02 1.982919999999999960e-01 4.359274999999999523e+01 1.871285000000000025e+02 2.299569999999999709e+03
8.999999999999999667e-02 1.982895000000000074e-01 4.249314999999999998e+01 1.861530000000000200e+02 2.299569999999999709e+03
9.099999999999999756e-02 1.982649999999999968e-01 4.117260000000000275e+01 1.846399999999999864e+02 2.299394999999999982e+03
9.199999999999999845e-02 1.982234999999999969e-01 3.968115000000000236e+01 1.827214999999999918e+02 2.299064999999999600e+03
9.299999999999999933e-02 1.981680000000000108e-01 3.807334999999999781e+01 1.805384999999999991e+02 2.298614999999999782e+03
9.400000000000000022e-02 1.981030000000000013e-01 3.640519999999999357e+01 1.782295000000000016e+02 2.298090000000000146e+03
9.500000000000000111e-02 1.980330000000000146e-01 3.473120000000000118e+01 1.759225000000000136e+02 2.297519999999999982e+03
9.600000000000000200e-02 1.979619999999999991e-01 3.310119999999999862e+01 1.737325000000000159e+02 2.296935000000000400e+03
9.700000000000000289e-02 1.978935000000000000e-01 3.155869999999999820e+01 1.717540000000000191e+02 2.296375000000000000e+03
9.800000000000000377e-02 1.978310000000000068e-01 3.013830000000000098e+01 1.700579999999999927e+02 2.295850000000000364e+03
9.900000000000000466e-02 1.977769999999999806e-01 2.886459999999999937e+01 1.686910000000000025e+02 2.295394999999999982e+03
1.000000000000000056e-01 1.977329999999999921e-01 2.775130000000000052e+01 1.676694999999999993e+02 2.295019999999999982e+03
1.010000000000000064e-01 1.976979999999999849e-01 2.680120000000000147e+01 1.669855000000000018e+02 2.294729999999999563e+03
1.020000000000000073e-01 1.976740000000000164e-01 2.600625000000000142e+01 1.666034999999999968e+02 2.294515000000000327e+03
1.030000000000000082e-01 1.976585000000000147e-01 2.534909999999999997e+01 1.664685000000000059e+02 2.294369999999999891e+03
1.040000000000000091e-01 1.976499999999999924e-01 2.480425000000000324e+01 1.665049999999999955e+02 2.294295000000000073e+03
1.050000000000000100e-01 1.976470000000000171e-01 2.434035000000000082e+01 1.666274999999999977e+02 2.294260000000000218e+03
1.059999999999999970e-01 1.976465000000000027e-01 2.392244999999999777e+01 1.667445000000000164e+02 2.294244999999999891e+03
1.069999999999999979e-01 1.976455000000000017e-01 2.351439999999999841e+01 1.667640000000000100e+02 2.294230000000000018e+03
1.079999999999999988e-01 1.976410000000000111e-01 2.308135000000000048e+01 1.666014999999999873e+02 2.294190000000000055e+03
1.089999999999999997e-01 1.976304999999999867e-01 2.259215000000000018e+01 1.661845000000000141e+02 2.294099999999999909e+03
1.100000000000000006e-01 1.976124999999999965e-01 2.202125000000000199e+01 1.654575000000000102e+02 2.293949999999999818e+03
1.110000000000000014e-01 1.975839999999999819e-01 2.135065000000000168e+01 1.643874999999999886e+02 2.293720000000000255e+03
1.120000000000000023e-01 1.975454999999999850e-01 2.057070000000000221e+01 1.629635000000000105e+02 2.293399999999999636e+03
1.130000000000000032e-01 1.974954999999999905e-01 1.968090000000000117e+01 1.611995000000000005e+02 2.292989999999999782e+03
1.140000000000000041e-01 1.974345000000000128e-01 1.868970000000000198e+01 1.591324999999999932e+02 2.292494999999999891e+03
1.150000000000000050e-01 1.973644999999999983e-01 1.761394999999999911e+01 1.568185000000000002e+02 2.291925000000000182e+03
1.160000000000000059e-01 1.972865000000000035e-01 1.647739999999999938e+01 1.543310000000000173e+02 2.291289999999999964e+03
1.170000000000000068e-01 1.972035000000000038e-01 1.530915000000000070e+01 1.517554999999999836e+02 2.290605000000000018e+03
1.180000000000000077e-01 1.971180000000000154e-01 1.414150000000000063e+01 1.491804999999999950e+02 2.289900000000000091e+03
1.190000000000000085e-01 1.970319999999999849e-01 1.300795000000000101e+01 1.466965000000000146e+02 2.289194999999999709e+03
1.200000000000000094e-01 1.969489999999999852e-01 1.194098999999999933e+01 1.443874999999999886e+02 2.288514999999999873e+03
1.209999999999999964e-01 1.968715000000000048e-01 1.096995500000000057e+01 1.423255000000000052e+02 2.287875000000000000e+03
1.219999999999999973e-01 1.968024999999999913e-01 1.011963499999999883e+01 1.405695000000000050e+02 2.287295000000000073e+03
1.229999999999999982e-01 1.967430000000000012e-01 9.408640000000000114e+00 1.391595000000000084e+02 2.286795000000000073e+03
1.239999999999999991e-01 1.966940000000000077e-01 8.848815000000000097e+00 1.381179999999999950e+02 2.286389999999999873e+03
1.250000000000000000e-01 1.966569999999999985e-01 8.444589999999999819e+00 1.374470000000000027e+02 2.286074999999999818e+03
1.260000000000000009e-01 1.966320000000000012e-01 8.193189999999999529e+00 1.371314999999999884e+02 2.285855000000000018e+03
1.270000000000000018e-01 1.966180000000000150e-01 8.085100000000000620e+00 1.371374999999999886e+02 2.285734999999999673e+03
1.280000000000000027e-01 1.966144999999999976e-01 8.104865000000000208e+00 1.374214999999999804e+02 2.285694999999999709e+03
1.290000000000000036e-01 1.966205000000000036e-01 8.232305000000000206e+00 1.379250000000000114e+02 2.285730000000000018e+03
1.300000000000000044e-01 1.966330000000000022e-01 8.443729999999998626e+00 1.385879999999999939e+02 2.285824999999999818e+03
1.310000000000000053e-01 1.966515000000000069e-01 8.713449999999999918e+00 1.393439999999999941e+02 2.285965000000000146e+03
1.320000000000000062e-01 1.966725000000000001e-01 9.015100000000000335e+00 1.401285000000000025e+02 2.286135000000000218e+03
1.330000000000000071e-01 1.966954999999999953e-01 9.323024999999999451e+00 1.408810000000000002e+02 2.286319999999999709e+03
1.340000000000000080e-01 1.967174999999999896e-01 9.613469999999999516e+00 1.415480000000000018e+02 2.286500000000000000e+03
1.350000000000000089e-01 1.967369999999999952e-01 9.865584999999999383e+00 1.420844999999999914e+02 2.286654999999999745e+03
1.360000000000000098e-01 1.967530000000000112e-01 1.006232999999999933e+01 1.424550000000000125e+02 2.286784999999999854e+03
1.370000000000000107e-01 1.967635000000000078e-01 1.019092000000000020e+01 1.426374999999999886e+02 2.286880000000000109e+03
1.380000000000000115e-01 1.967685000000000128e-01 1.024314999999999998e+01 1.426195000000000164e+02 2.286925000000000182e+03
1.390000000000000124e-01 1.967669999999999975e-01 1.021574500000000008e+01 1.424019999999999868e+02 2.286920000000000073e+03
1.400000000000000133e-01 1.967599999999999905e-01 1.010985999999999940e+01 1.419939999999999998e+02 2.286860000000000127e+03
1.410000000000000142e-01 1.967464999999999908e-01 9.930704999999999671e+00 1.414170000000000016e+02 2.286760000000000218e+03
1.420000000000000151e-01 1.967280000000000140e-01 9.687210000000000321e+00 1.406970000000000027e+02 2.286605000000000018e+03
1.430000000000000160e-01 1.967045000000000043e-01 9.390909999999999869e+00 1.398665000000000020e+02 2.286420000000000073e+03
1.440000000000000169e-01 1.966780000000000195e-01 9.055379999999999541e+00 1.389615000000000009e+02 2.286204999999999927e+03
1.450000000000000178e-01 1.966485000000000039e-01 8.695040000000000546e+00 1.380180000000000007e+02 2.285970000000000255e+03
1.459999999999999909e-01 1.966180000000000150e-01 8.324370000000000047e+00 1.370715000000000146e+02 2.285720000000000255e+03
1.469999999999999918e-01 1.965870000000000117e-01 7.957090000000000884e+00 1.361519999999999868e+02 2.285470000000000255e+03
1.479999999999999927e-01 1.965569999999999817e-01 7.605349999999999611e+00 1.352874999999999943e+02 2.285220000000000255e+03
1.489999999999999936e-01 1.965284999999999949e-01 7.279204999999999259e+00 1.344965000000000259e+02 2.284984999999999673e+03
1.499999999999999944e-01 1.965020000000000100e-01 6.986180000000000057e+00 1.337930000000000064e+02 2.284764999999999873e+03
1.509999999999999953e-01 1.964774999999999994e-01 6.731080000000000396e+00 1.331825000000000045e+02 2.284565000000000055e+03
1.519999999999999962e-01 1.964569999999999927e-01 6.515900000000000247e+00 1.326649999999999920e+02 2.284394999999999982e+03
1.529999999999999971e-01 1.964385000000000159e-01 6.339979999999999727e+00 1.322334999999999923e+02 2.284239999999999782e+03
1.539999999999999980e-01 1.964229999999999865e-01 6.200285000000000046e+00 1.318740000000000236e+02 2.284109999999999673e+03
1.549999999999999989e-01 1.964095000000000146e-01 6.091765000000000541e+00 1.315724999999999909e+02 2.283994999999999891e+03
1.559999999999999998e-01 1.963975000000000026e-01 6.007844999999999658e+00 1.313075000000000045e+02 2.283894999999999982e+03
1.570000000000000007e-01 1.963869999999999783e-01 5.940999999999999837e+00 1.310604999999999905e+02 2.283805000000000291e+03
1.580000000000000016e-01 1.963765000000000094e-01 5.883280000000000065e+00 1.308089999999999975e+02 2.283720000000000255e+03
1.590000000000000024e-01 1.963670000000000138e-01 5.826905000000000001e+00 1.305360000000000014e+02 2.283635000000000218e+03
