# t [s], A [cm^2], U [cm/s], P [cPa], c [cm/s]
1.000000000000000021e-03 1.594200000000000061e-01 1.837934999999999985e-01 9.492439999999999145e+01 1.924019999999999982e+03
2.000000000000000042e-03 1.593964999999999965e-01 1.485791499999999932e+00 9.233119999999999550e+01 1.923815000000000055e+03
3.000000000000000062e-03 1.593060000000000032e-01 3.132096500000000283e+00 8.882259999999999422e+01 1.923059999999999945e+03
4.000000000000000083e-03 1.591684999999999905e-01 4.978827500000000406e+00 8.475615000000000521e+01 1.921944999999999936e+03
5.000000000000000104e-03 1.590074999999999961e-01 6.977454999999999963e+00 8.078849999999999909e+01 1.920650000000000091e+03
6.000000000000000125e-03 1.588439999999999852e-01 9.040670000000000428e+00 7.732904999999999518e+01 1.919340000000000146e+03
7.000000000000000146e-03 1.586855000000000071e-01 1.102383000000000024e+01 7.441720000000000823e+01 1.918095000000000027e+03
8.000000000000000167e-03 1.585364999999999969e-01 1.279663499999999843e+01 7.187389999999999191e+01 1.916934999999999945e+03
9.000000000000001055e-03 1.583984999999999976e-01 1.431958000000000020e+01 6.958905000000000030e+01 1.915880000000000109e+03
1.000000000000000194e-02 1.582749999999999990e-01 1.561524999999999963e+01 6.759505000000000052e+01 1.914954999999999927e+03
1.099999999999999936e-02 1.581690000000000040e-01 1.670730000000000004e+01 6.593765000000000498e+01 1.914159999999999854e+03
1.200000000000000025e-02 1.580799999999999983e-01 1.760784999999999911e+01 6.460974999999999113e+01 1.913505000000000109e+03
1.300000000000000114e-02 1.580064999999999942e-01 1.832515000000000072e+01 6.357015000000000526e+01 1.912974999999999909e+03
1.400000000000000203e-02 1.579480000000000051e-01 1.886280000000000001e+01 6.275390000000000157e+01 1.912549999999999955e+03
1.499999999999999944e-02 1.578994999999999982e-01 1.922484999999999999e+01 6.208100000000000307e+01 1.912210000000000036e+03
1.600000000000000033e-02 1.578600000000000003e-01 1.943619999999999948e+01 6.150445000000000562e+01 1.911934999999999945e+03
1.700000000000000122e-02 1.578289999999999971e-01 1.955884999999999962e+01 6.107179999999999609e+01 1.911730000000000018e+03
1.800000000000000211e-02 1.578094999999999914e-01 1.968329999999999913e+01 6.093455000000000155e+01 1.911599999999999909e+03
1.900000000000000300e-02 1.578065000000000162e-01 1.989670000000000272e+01 6.128399999999999892e+01 1.911594999999999800e+03
2.000000000000000042e-02 1.578240000000000198e-01 2.024774999999999991e+01 6.224965000000000259e+01 1.911735000000000127e+03
2.100000000000000130e-02 1.578634999999999899e-01 2.072794999999999987e+01 6.382160000000000366e+01 1.912034999999999854e+03
2.200000000000000219e-02 1.579214999999999924e-01 2.127624999999999744e+01 6.583400000000000318e+01 1.912470000000000027e+03
2.299999999999999961e-02 1.579915000000000069e-01 2.180180000000000007e+01 6.800964999999999350e+01 1.913000000000000000e+03
2.400000000000000050e-02 1.580639999999999823e-01 2.221394999999999698e+01 7.004104999999999848e+01 1.913555000000000064e+03
2.500000000000000139e-02 1.581314999999999804e-01 2.244749999999999801e+01 7.167369999999999663e+01 1.914079999999999927e+03
2.600000000000000228e-02 1.581870000000000220e-01 2.247690000000000055e+01 7.276435000000000741e+01 1.914509999999999991e+03
2.700000000000000316e-02 1.582274999999999932e-01 2.231660000000000110e+01 7.330049999999999955e+01 1.914829999999999927e+03
2.800000000000000058e-02 1.582524999999999904e-01 2.200994999999999990e+01 7.338030000000000541e+01 1.915039999999999964e+03
2.900000000000000147e-02 1.582649999999999890e-01 2.161144999999999783e+01 7.316469999999999629e+01 1.915150000000000091e+03
3.000000000000000236e-02 1.582689999999999930e-01 2.116870000000000118e+01 7.281945000000000334e+01 1.915190000000000055e+03
3.099999999999999978e-02 1.582684999999999786e-01 2.071045000000000158e+01 7.246760000000000446e+01 1.915190000000000055e+03
3.200000000000000067e-02 1.582655000000000034e-01 2.024210000000000065e+01 7.216235000000000355e+01 1.915170000000000073e+03
3.300000000000000155e-02 1.582609999999999850e-01 1.974970000000000070e+01 7.188704999999998790e+01 1.915139999999999873e+03
3.400000000000000244e-02 1.582534999999999914e-01 1.920949999999999847e+01 7.157689999999999486e+01 1.915089999999999918e+03
3.500000000000000333e-02 1.582429999999999948e-01 1.860000000000000142e+01 7.115295000000000414e+01 1.915014999999999873e+03
3.600000000000000422e-02 1.582270000000000065e-01 1.791255000000000308e+01 7.055764999999999532e+01 1.914894999999999982e+03
3.700000000000000511e-02 1.582040000000000113e-01 1.715820000000000078e+01 6.978234999999999388e+01 1.914735000000000127e+03
3.799999999999999906e-02 1.581764999999999977e-01 1.636880000000000024e+01 6.887909999999999400e+01 1.914535000000000082e+03
3.899999999999999994e-02 1.581460000000000088e-01 1.559244999999999948e+01 6.795539999999999736e+01 1.914304999999999836e+03
4.000000000000000083e-02 1.581164999999999932e-01 1.488424999999999976e+01 6.715194999999999936e+01 1.914079999999999927e+03
4.100000000000000172e-02 1.580914999999999959e-01 1.429524999999999935e+01 6.661195000000000732e+01 1.913894999999999982e+03
4.200000000000000261e-02 1.580765000000000087e-01 1.386220000000000141e+01 6.644849999999999568e+01 1.913775000000000091e+03
4.300000000000000350e-02 1.580735000000000057e-01 1.360030000000000072e+01 6.671949999999999648e+01 1.913744999999999891e+03
4.400000000000000439e-02 1.580850000000000033e-01 1.350114999999999910e+01 6.741490000000000293e+01 1.913820000000000164e+03
4.499999999999999833e-02 1.581089999999999995e-01 1.353434999999999988e+01 6.845855000000000246e+01 1.913990000000000009e+03
4.599999999999999922e-02 1.581440000000000068e-01 1.365395000000000003e+01 6.972265000000000157e+01 1.914244999999999891e+03
4.700000000000000011e-02 1.581855000000000067e-01 1.380590000000000117e+01 7.105004999999999882e+01 1.914549999999999955e+03
4.800000000000000100e-02 1.582284999999999942e-01 1.393590000000000018e+01 7.227940000000000964e+01 1.914865000000000009e+03
4.900000000000000189e-02 1.582680000000000198e-01 1.399644999999999939e+01 7.326779999999999404e+01 1.915164999999999964e+03
5.000000000000000278e-02 1.583005000000000106e-01 1.395120000000000005e+01 7.390709999999999980e+01 1.915404999999999973e+03
5.100000000000000366e-02 1.583209999999999895e-01 1.377720000000000056e+01 7.413264999999999816e+01 1.915565000000000055e+03
5.200000000000000455e-02 1.583289999999999975e-01 1.346439999999999948e+01 7.392365000000000919e+01 1.915634999999999991e+03
5.300000000000000544e-02 1.583225000000000049e-01 1.301395000000000124e+01 7.329704999999999870e+01 1.915589999999999918e+03
5.399999999999999939e-02 1.583019999999999983e-01 1.243524999999999991e+01 7.229769999999999186e+01 1.915449999999999818e+03
5.500000000000000028e-02 1.582689999999999930e-01 1.174277000000000015e+01 7.098664999999999736e+01 1.915200000000000045e+03
5.600000000000000117e-02 1.582244999999999902e-01 1.095351000000000141e+01 6.943059999999999832e+01 1.914869999999999891e+03
5.700000000000000205e-02 1.581704999999999917e-01 1.008543500000000037e+01 6.769469999999999743e+01 1.914474999999999909e+03
5.800000000000000294e-02 1.581095000000000139e-01 9.156390000000000029e+00 6.583789999999999054e+01 1.914009999999999991e+03
5.900000000000000383e-02 1.580424999999999747e-01 8.184395000000000309e+00 6.391204999999999359e+01 1.913515000000000100e+03
6.000000000000000472e-02 1.579720000000000013e-01 7.187990000000000990e+00 6.196370000000000289e+01 1.912985000000000127e+03
6.099999999999999867e-02 1.578999999999999848e-01 6.187110000000000554e+00 6.003659999999999997e+01 1.912440000000000055e+03
6.199999999999999956e-02 1.578280000000000238e-01 5.203640000000000043e+00 5.817539999999999623e+01 1.911894999999999982e+03
6.300000000000000044e-02 1.577570000000000083e-01 4.261670000000000513e+00 5.642759999999999820e+01 1.911365000000000009e+03
6.400000000000000133e-02 1.576905000000000112e-01 3.387305000000000010e+00 5.484494999999999720e+01 1.910860000000000127e+03
6.500000000000000222e-02 1.576294999999999780e-01 2.607920500000000086e+00 5.348255000000000337e+01 1.910394999999999982e+03
6.600000000000000311e-02 1.575759999999999939e-01 1.951030500000000112e+00 5.239730000000000132e+01 1.909985000000000127e+03
6.700000000000000400e-02 1.575334999999999930e-01 1.442887000000000031e+00 5.164424999999999955e+01 1.909654999999999973e+03
6.800000000000000488e-02 1.575024999999999897e-01 1.106955499999999981e+00 5.127339999999999520e+01 1.909414999999999964e+03
6.900000000000000577e-02 1.574849999999999861e-01 9.625334999999999308e-01 5.132550000000000523e+01 1.909269999999999982e+03
7.000000000000000666e-02 1.574829999999999841e-01 1.023574500000000054e+00 5.182914999999999850e+01 1.909244999999999891e+03
7.100000000000000755e-02 1.574979999999999991e-01 1.297887999999999931e+00 5.279849999999999710e+01 1.909340000000000146e+03
7.200000000000000844e-02 1.575300000000000034e-01 1.786783999999999928e+00 5.423225000000000051e+01 1.909565000000000055e+03
7.300000000000000933e-02 1.575785000000000102e-01 2.485101500000000296e+00 5.611374999999999602e+01 1.909920000000000073e+03
7.399999999999999634e-02 1.576444999999999930e-01 3.381650000000000045e+00 5.841209999999999525e+01 1.910400000000000091e+03
7.499999999999999722e-02 1.577260000000000051e-01 4.459954999999999892e+00 6.108469999999999800e+01 1.911000000000000000e+03
7.599999999999999811e-02 1.578215000000000034e-01 5.699245000000000339e+00 6.407944999999999425e+01 1.911704999999999927e+03
7.699999999999999900e-02 1.579295000000000004e-01 7.075620000000000687e+00 6.733859999999999957e+01 1.912509999999999991e+03
7.799999999999999989e-02 1.580489999999999950e-01 8.563204999999999956e+00 7.080174999999999841e+01 1.913394999999999982e+03
7.900000000000000078e-02 1.581760000000000110e-01 1.013555000000000028e+01 7.440909999999999513e+01 1.914355000000000018e+03
8.000000000000000167e-02 1.583105000000000206e-01 1.176664500000000046e+01 7.810460000000000491e+01 1.915364999999999782e+03
8.100000000000000255e-02 1.584490000000000065e-01 1.343199500000000057e+01 8.183830000000000382e+01 1.916409999999999854e+03
8.200000000000000344e-02 1.585900000000000087e-01 1.510944999999999894e+01 8.556819999999999027e+01 1.917480000000000018e+03
8.300000000000000433e-02 1.587330000000000130e-01 1.677994999999999948e+01 8.926159999999998718e+01 1.918559999999999945e+03
8.400000000000000522e-02 1.588755000000000028e-01 1.842764999999999986e+01 9.289525000000000432e+01 1.919644999999999982e+03
8.500000000000000611e-02 1.590170000000000194e-01 2.004009999999999891e+01 9.645555000000000234e+01 1.920730000000000018e+03
8.600000000000000699e-02 1.591569999999999929e-01 2.160810000000000031e+01 9.993625000000000114e+01 1.921795000000000073e+03
8.700000000000000788e-02 1.592945000000000055e-01 2.312554999999999694e+01 1.033393000000000086e+02 1.922855000000000018e+03
8.800000000000000877e-02 1.594305000000000028e-01 2.458830000000000027e+01 1.066692500000000052e+02 1.923894999999999982e+03
8.899999999999999578e-02 1.595634999999999970e-01 2.599434999999999718e+01 1.099360000000000070e+02 1.924920000000000073e+03
8.999999999999999667e-02 1.596954999999999902e-01 2.734274999999999878e+01 1.131475000000000080e+02 1.925934999999999945e+03
9.099999999999999756e-02 1.598255000000000092e-01 2.863309999999999889e+01 1.163135000000000048e+02 1.926940000000000055e+03
9.199999999999999845e-02 1.599539999999999851e-01 2.986540000000000106e+01 1.194399999999999977e+02 1.927930000000000064e+03
9.299999999999999933e-02 1.600805000000000144e-01 3.103924999999999912e+01 1.225300000000000011e+02 1.928909999999999854e+03
9.400000000000000022e-02 1.602069999999999883e-01 3.215395000000000181e+01 1.255835000000000008e+02 1.929884999999999991e+03
9.500000000000000111e-02 1.603310000000000013e-01 3.320815000000000339e+01 1.285964999999999918e+02 1.930845000000000027e+03
9.600000000000000200e-02 1.604539999999999855e-01 3.420010000000000616e+01 1.315625000000000000e+02 1.931805000000000064e+03
9.700000000000000289e-02 1.605745000000000089e-01 3.512725000000000364e+01 1.344719999999999800e+02 1.932740000000000009e+03
9.800000000000000377e-02 1.606930000000000025e-01 3.598675000000000068e+01 1.373125000000000000e+02 1.933664999999999964e+03
9.900000000000000466e-02 1.608094999999999941e-01 3.677530000000000143e+01 1.400720000000000027e+02 1.934570000000000164e+03
1.000000000000000056e-01 1.609224999999999961e-01 3.748924999999999841e+01 1.427345000000000255e+02 1.935450000000000045e+03
1.010000000000000064e-01 1.610320000000000085e-01 3.812474999999999881e+01 1.452860000000000014e+02 1.936305000000000064e+03
1.020000000000000073e-01 1.611374999999999891e-01 3.867810000000000059e+01 1.477125000000000057e+02 1.937125000000000000e+03
1.030000000000000082e-01 1.612379999999999924e-01 3.914535000000000053e+01 1.499990000000000236e+02 1.937909999999999854e+03
1.040000000000000091e-01 1.613330000000000042e-01 3.952304999999999779e+01 1.521315000000000168e+02 1.938654999999999973e+03
1.050000000000000100e-01 1.614224999999999965e-01 3.980774999999999864e+01 1.540985000000000014e+02 1.939360000000000127e+03
1.059999999999999970e-01 1.615054999999999963e-01 3.999674999999999869e+01 1.558880000000000052e+02 1.940009999999999991e+03
1.069999999999999979e-01 1.615820000000000034e-01 4.008785000000000309e+01 1.574904999999999973e+02 1.940610000000000127e+03
1.079999999999999988e-01 1.616509999999999891e-01 4.007970000000000255e+01 1.589005000000000223e+02 1.941159999999999854e+03
1.089999999999999997e-01 1.617129999999999956e-01 3.997204999999999586e+01 1.601109999999999900e+02 1.941650000000000091e+03
1.100000000000000006e-01 1.617669999999999941e-01 3.976590000000000202e+01 1.611215000000000259e+02 1.942079999999999927e+03
1.110000000000000014e-01 1.618134999999999990e-01 3.946334999999999837e+01 1.619335000000000093e+02 1.942450000000000045e+03
1.120000000000000023e-01 1.618525000000000102e-01 3.906804999999999950e+01 1.625509999999999877e+02 1.942759999999999991e+03
1.130000000000000032e-01 1.618840000000000001e-01 3.858504999999999541e+01 1.629824999999999875e+02 1.943014999999999873e+03
1.140000000000000041e-01 1.619074999999999820e-01 3.802065000000000339e+01 1.632395000000000209e+02 1.943210000000000036e+03
1.150000000000000050e-01 1.619244999999999990e-01 3.738245000000000573e+01 1.633354999999999961e+02 1.943349999999999909e+03
1.160000000000000059e-01 1.619349999999999956e-01 3.667905000000000371e+01 1.632875000000000227e+02 1.943440000000000055e+03
1.170000000000000068e-01 1.619400000000000006e-01 3.591979999999999507e+01 1.631134999999999877e+02 1.943485000000000127e+03
1.180000000000000077e-01 1.619395000000000140e-01 3.511459999999999582e+01 1.628329999999999984e+02 1.943485000000000127e+03
1.190000000000000085e-01 1.619344999999999812e-01 3.427344999999999686e+01 1.624654999999999916e+02 1.943454999999999927e+03
1.200000000000000094e-01 1.619255000000000000e-01 3.340630000000000166e+01 1.620294999999999845e+02 1.943389999999999873e+03
1.209999999999999964e-01 1.619140000000000024e-01 3.252285000000000537e+01 1.615439999999999827e+02 1.943304999999999836e+03
1.219999999999999973e-01 1.618994999999999740e-01 3.163185000000000002e+01 1.610244999999999891e+02 1.943195000000000164e+03
1.229999999999999982e-01 1.618829999999999991e-01 3.074139999999999873e+01 1.604850000000000136e+02 1.943070000000000164e+03
1.239999999999999991e-01 1.618654999999999955e-01 2.985844999999999771e+01 1.599379999999999882e+02 1.942934999999999945e+03
1.250000000000000000e-01 1.618470000000000186e-01 2.898894999999999911e+01 1.593915000000000077e+02 1.942795000000000073e+03
1.260000000000000009e-01 1.618279999999999996e-01 2.813719999999999999e+01 1.588524999999999920e+02 1.942644999999999982e+03
1.270000000000000018e-01 1.618084999999999940e-01 2.730664999999999765e+01 1.583234999999999957e+02 1.942494999999999891e+03
1.280000000000000027e-01 1.617895000000000028e-01 2.649909999999999854e+01 1.578059999999999832e+02 1.942345000000000027e+03
1.290000000000000036e-01 1.617704999999999838e-01 2.571535000000000082e+01 1.572980000000000018e+02 1.942190000000000055e+03
1.300000000000000044e-01 1.617510000000000059e-01 2.495490000000000208e+01 1.567950000000000159e+02 1.942045000000000073e+03
1.310000000000000053e-01 1.617319999999999869e-01 2.421630000000000038e+01 1.562914999999999850e+02 1.941889999999999873e+03
1.320000000000000062e-01 1.617119999999999946e-01 2.349729999999999919e+01 1.557814999999999941e+02 1.941730000000000018e+03
1.330000000000000071e-01 1.616920000000000024e-01 2.279479999999999862e+01 1.552555000000000121e+02 1.941575000000000045e+03
1.340000000000000080e-01 1.616715000000000235e-01 2.210535000000000139e+01 1.547060000000000173e+02 1.941414999999999964e+03
1.350000000000000089e-01 1.616495000000000015e-01 2.142520000000000024e+01 1.541229999999999905e+02 1.941240000000000009e+03
1.360000000000000098e-01 1.616259999999999919e-01 2.075045000000000073e+01 1.534984999999999786e+02 1.941059999999999945e+03
1.370000000000000107e-01 1.616015000000000090e-01 2.007724999999999937e+01 1.528254999999999768e+02 1.940865000000000009e+03
1.380000000000000115e-01 1.615745000000000098e-01 1.940234999999999843e+01 1.520964999999999918e+02 1.940654999999999973e+03
1.390000000000000124e-01 1.615455000000000085e-01 1.872274999999999778e+01 1.513070000000000164e+02 1.940430000000000064e+03
1.400000000000000133e-01 1.615150000000000197e-01 1.803614999999999924e+01 1.504544999999999959e+02 1.940184999999999945e+03
1.410000000000000142e-01 1.614815000000000000e-01 1.734114999999999895e+01 1.495364999999999895e+02 1.939925000000000182e+03
1.420000000000000151e-01 1.614455000000000195e-01 1.663710000000000022e+01 1.485550000000000068e+02 1.939650000000000091e+03
1.430000000000000160e-01 1.614074999999999815e-01 1.592445000000000022e+01 1.475124999999999886e+02 1.939355000000000018e+03
1.440000000000000169e-01 1.613665000000000238e-01 1.520454999999999934e+01 1.464150000000000205e+02 1.939039999999999964e+03
1.450000000000000178e-01 1.613239999999999952e-01 1.447969999999999935e+01 1.452704999999999984e+02 1.938710000000000036e+03
1.459999999999999909e-01 1.612794999999999923e-01 1.375325000000000131e+01 1.440880000000000223e+02 1.938365000000000009e+03
1.469999999999999918e-01 1.612335000000000018e-01 1.302925000000000111e+01 1.428799999999999955e+02 1.938009999999999991e+03
1.479999999999999927e-01 1.611865000000000103e-01 1.231254999999999988e+01 1.416574999999999989e+02 1.937644999999999982e+03
1.489999999999999936e-01 1.611389999999999767e-01 1.160824000000000034e+01 1.404360000000000070e+02 1.937275000000000091e+03
1.499999999999999944e-01 1.610909999999999842e-01 1.092196999999999996e+01 1.392284999999999968e+02 1.936900000000000091e+03
1.509999999999999953e-01 1.610435000000000061e-01 1.025940500000000100e+01 1.380489999999999782e+02 1.936529999999999973e+03
1.519999999999999962e-01 1.609970000000000012e-01 9.625985000000000014e+00 1.369110000000000014e+02 1.936174999999999955e+03
1.529999999999999971e-01 1.609514999999999973e-01 9.026980000000000004e+00 1.358265000000000100e+02 1.935825000000000045e+03
1.539999999999999980e-01 1.609079999999999955e-01 8.467034999999999201e+00 1.348059999999999832e+02 1.935480000000000018e+03
1.549999999999999989e-01 1.608669999999999822e-01 7.950065000000000381e+00 1.338584999999999923e+02 1.935164999999999964e+03
1.559999999999999998e-01 1.608285000000000131e-01 7.479264999999999830e+00 1.329904999999999973e+02 1.934859999999999900e+03
1.570000000000000007e-01 1.607930000000000192e-01 7.056890000000000107e+00 1.322069999999999936e+02 1.934579999999999927e+03
1.580000000000000016e-01 1.607605000000000006e-01 6.684234999999999260e+00 1.315099999999999909e+02 1.934320000000000164e+03
1.590000000000000024e-01 1.607310000000000128e-01 6.361654999999999838e+00 1.308994999999999891e+02 1.934090000000000146e+03
