# t [s], A [cm^2], U [cm/s], P [cPa], c [cm/s]
1.000000000000000021e-03 4.802465000000000206e-01 3.643849999999997091e-03 1.086889999999999930e+02 1.485650000000000091e+03
2.000000000000000042e-03 4.802409999999999735e-01 2.580885000000000210e-03 1.086684999999999945e+02 1.485639999999999873e+03
3.000000000000000062e-03 4.802874999999999783e-01 1.016382999999999870e-01 1.087650000000000006e+02 1.485674999999999955e+03
4.000000000000000083e-03 4.803264999999999896e-01 1.894468599999999947e-01 1.088700000000000045e+02 1.485704999999999927e+03
5.000000000000000104e-03 4.803074999999999983e-01 1.593143200000000093e-01 1.088174999999999955e+02 1.485700000000000045e+03
6.000000000000000125e-03 4.802564999999999751e-01 5.683850000000001401e-02 1.086115000000000066e+02 1.485644999999999982e+03
7.000000000000000146e-03 4.802054999999999518e-01 -5.376100000000000323e-02 1.083224999999999909e+02 1.485574999999999818e+03
8.000000000000000167e-03 4.801265000000000116e-01 -2.330749999999999211e-01 1.078935000000000031e+02 1.485460000000000036e+03
9.000000000000001055e-03 4.799944999999999906e-01 -5.345999999999999641e-01 1.072390000000000043e+02 1.485285000000000082e+03
1.000000000000000194e-02 4.798094999999999999e-01 -9.540300000000000447e-01 1.063224999999999909e+02 1.485039999999999964e+03
1.099999999999999936e-02 4.795610000000000150e-01 -1.496820000000000039e+00 1.051015000000000015e+02 1.484699999999999818e+03
1.200000000000000025e-02 4.792359999999999953e-01 -2.173099999999999810e+00 1.035246500000000083e+02 1.484250000000000000e+03
1.300000000000000114e-02 4.788434999999999775e-01 -2.937875000000000014e+00 1.016039499999999975e+02 1.483695000000000164e+03
1.400000000000000203e-02 4.784249999999999892e-01 -3.669674999999999798e+00 9.946205000000000496e+01 1.483059999999999945e+03
1.499999999999999944e-02 4.780360000000000165e-01 -4.215934999999999988e+00 9.729744999999999777e+01 1.482385000000000218e+03
1.600000000000000033e-02 4.777150000000000007e-01 -4.459802999999999962e+00 9.530600000000001160e+01 1.481730000000000018e+03
1.700000000000000122e-02 4.774724999999999664e-01 -4.360350200000000065e+00 9.360649999999999693e+01 1.481139999999999873e+03
1.800000000000000211e-02 4.772914999999999797e-01 -3.954585499999999865e+00 9.221614999999999895e+01 1.480610000000000127e+03
1.900000000000000300e-02 4.771364999999999634e-01 -3.333022499999999777e+00 9.105949999999999989e+01 1.480139999999999873e+03
2.000000000000000042e-02 4.769710000000000338e-01 -2.604169999999999874e+00 9.000700000000000500e+01 1.479699999999999818e+03
2.100000000000000130e-02 4.767644999999999800e-01 -1.860044999999999948e+00 8.892239999999999611e+01 1.479264999999999873e+03
2.200000000000000219e-02 4.765059999999999851e-01 -1.152609999999999912e+00 8.770640000000000214e+01 1.478789999999999964e+03
2.299999999999999961e-02 4.762005000000000265e-01 -4.879999999999999893e-01 8.632050000000000978e+01 1.478279999999999973e+03
2.400000000000000050e-02 4.758649999999999824e-01 1.609250000000002068e-01 8.478544999999999732e+01 1.477724999999999909e+03
2.500000000000000139e-02 4.755190000000000250e-01 8.311449999999998006e-01 8.315810000000000457e+01 1.477144999999999982e+03
2.600000000000000228e-02 4.751775000000000304e-01 1.546215000000000117e+00 8.149954999999999927e+01 1.476545000000000073e+03
2.700000000000000316e-02 4.748419999999999863e-01 2.301185000000000258e+00 7.984720000000000084e+01 1.475945000000000164e+03
2.800000000000000058e-02 4.745059999999999834e-01 3.058960000000000345e+00 7.819904999999999973e+01 1.475340000000000146e+03
2.900000000000000147e-02 4.741530000000000467e-01 3.756705000000000183e+00 7.651194999999999879e+01 1.474724999999999909e+03
3.000000000000000236e-02 4.737609999999999877e-01 4.319225000000000314e+00 7.471215000000000828e+01 1.474079999999999927e+03
3.099999999999999978e-02 4.733104999999999674e-01 4.675300000000000011e+00 7.271465000000000600e+01 1.473380000000000109e+03
3.200000000000000067e-02 4.727895000000000292e-01 4.773740000000000094e+00 7.044615000000000293e+01 1.472615000000000009e+03
3.300000000000000155e-02 4.721950000000000314e-01 4.595139999999999780e+00 6.786705000000000609e+01 1.471764999999999873e+03
3.400000000000000244e-02 4.715384999999999716e-01 4.156719999999999970e+00 6.498584999999999923e+01 1.470829999999999927e+03
3.500000000000000333e-02 4.708390000000000075e-01 3.509800000000000253e+00 6.186350000000000193e+01 1.469825000000000045e+03
3.600000000000000422e-02 4.701270000000000171e-01 2.730525000000000091e+00 5.860694999999999766e+01 1.468769999999999982e+03
3.700000000000000511e-02 4.694345000000000323e-01 1.906930000000000014e+00 5.535460000000000491e+01 1.467710000000000036e+03
3.799999999999999906e-02 4.687930000000000152e-01 1.126355000000000217e+00 5.225740000000000407e+01 1.466684999999999945e+03
3.899999999999999994e-02 4.682290000000000063e-01 4.653549999999997411e-01 4.946085000000000065e+01 1.465730000000000018e+03
4.000000000000000083e-02 4.677639999999999576e-01 -1.679500000000011539e-02 4.709005000000000507e+01 1.464889999999999873e+03
4.100000000000000172e-02 4.674110000000000209e-01 -2.802400000000000446e-01 4.523999999999999488e+01 1.464195000000000164e+03
4.200000000000000261e-02 4.671775000000000233e-01 -3.035350000000001103e-01 4.397140000000000271e+01 1.463675000000000182e+03
4.300000000000000350e-02 4.670634999999999648e-01 -8.023999999999986699e-02 4.331135000000000446e+01 1.463335000000000036e+03
4.400000000000000439e-02 4.670670000000000099e-01 3.855737500000000484e-01 4.325835000000000008e+01 1.463190000000000055e+03
4.499999999999999833e-02 4.671810000000000129e-01 1.083645500000000039e+00 4.378884999999999650e+01 1.463230000000000018e+03
4.599999999999999922e-02 4.673979999999999801e-01 2.000890000000000057e+00 4.486475000000000080e+01 1.463454999999999927e+03
4.700000000000000011e-02 4.677095000000000002e-01 3.123189999999999689e+00 4.643950000000000244e+01 1.463845000000000027e+03
4.800000000000000100e-02 4.681064999999999809e-01 4.435584999999999667e+00 4.846240000000000236e+01 1.464394999999999982e+03
4.900000000000000189e-02 4.685805000000000664e-01 5.921414999999999651e+00 5.088065000000000282e+01 1.465089999999999918e+03
5.000000000000000278e-02 4.691199999999999815e-01 7.560784999999999201e+00 5.363949999999999818e+01 1.465904999999999973e+03
5.100000000000000366e-02 4.697149999999999936e-01 9.329459500000000460e+00 5.668209999999999837e+01 1.466825000000000045e+03
5.200000000000000455e-02 4.703529999999999656e-01 1.119847499999999840e+01 5.994870000000000232e+01 1.467829999999999927e+03
5.300000000000000544e-02 4.710210000000000230e-01 1.313451000000000057e+01 6.337694999999999368e+01 1.468909999999999854e+03
5.399999999999999939e-02 4.717065000000000285e-01 1.510146999999999906e+01 6.690309999999999491e+01 1.470034999999999854e+03
5.500000000000000028e-02 4.723959999999999826e-01 1.706224000000000274e+01 7.046394999999999698e+01 1.471195000000000164e+03
5.600000000000000117e-02 4.730779999999999985e-01 1.898144999999999882e+01 7.399965000000000259e+01 1.472360000000000127e+03
5.700000000000000205e-02 4.737425000000000108e-01 2.082724999999999937e+01 7.745695000000000618e+01 1.473519999999999982e+03
5.800000000000000294e-02 4.743810000000000526e-01 2.257349999999999923e+01 8.079169999999999163e+01 1.474654999999999973e+03
5.900000000000000383e-02 4.749889999999999946e-01 2.420060000000000144e+01 8.397084999999999866e+01 1.475750000000000000e+03
6.000000000000000472e-02 4.755635000000000279e-01 2.569630000000000081e+01 8.697419999999999618e+01 1.476805000000000064e+03
6.099999999999999867e-02 4.761035000000000128e-01 2.705550000000000210e+01 8.979404999999999859e+01 1.477809999999999945e+03
6.199999999999999956e-02 4.766124999999999945e-01 2.827949999999999875e+01 9.243479999999999563e+01 1.478759999999999991e+03
6.300000000000000044e-02 4.770929999999999893e-01 2.937494999999999834e+01 9.491065000000000396e+01 1.479664999999999964e+03
6.400000000000000133e-02 4.775504999999999889e-01 3.035284999999999656e+01 9.724465000000000714e+01 1.480525000000000091e+03
6.500000000000000222e-02 4.779899999999999705e-01 3.122710000000000008e+01 9.946520000000001005e+01 1.481349999999999909e+03
6.600000000000000311e-02 4.784190000000000387e-01 3.201354999999999507e+01 1.016044499999999999e+02 1.482139999999999873e+03
6.700000000000000400e-02 4.788430000000000186e-01 3.272899999999999920e+01 1.036958500000000072e+02 1.482914999999999964e+03
6.800000000000000488e-02 4.792675000000000129e-01 3.339020000000000010e+01 1.057719999999999914e+02 1.483680000000000064e+03
6.900000000000000577e-02 4.796985000000000277e-01 3.401314999999999600e+01 1.078619999999999948e+02 1.484444999999999936e+03
7.000000000000000666e-02 4.801400000000000112e-01 3.461230000000000473e+01 1.099915000000000020e+02 1.485215000000000146e+03
7.100000000000000755e-02 4.805954999999999533e-01 3.519984999999999786e+01 1.121809999999999974e+02 1.486000000000000000e+03
7.200000000000000844e-02 4.810669999999999669e-01 3.578504999999999825e+01 1.144435000000000002e+02 1.486809999999999945e+03
7.300000000000000933e-02 4.815544999999999964e-01 3.637359999999999616e+01 1.167835000000000036e+02 1.487639999999999873e+03
7.399999999999999634e-02 4.820575000000000276e-01 3.696734999999999616e+01 1.191995000000000005e+02 1.488485000000000127e+03
7.499999999999999722e-02 4.825730000000000297e-01 3.756400000000000006e+01 1.216809999999999974e+02 1.489360000000000127e+03
7.599999999999999811e-02 4.830969999999999986e-01 3.815749999999999886e+01 1.242094999999999914e+02 1.490244999999999891e+03
7.699999999999999900e-02 4.836230000000000251e-01 3.873799999999999955e+01 1.267590000000000003e+02 1.491144999999999982e+03
7.799999999999999989e-02 4.841449999999999920e-01 3.929299999999999926e+01 1.292994999999999948e+02 1.492039999999999964e+03
7.900000000000000078e-02 4.846559999999999757e-01 3.980790000000000362e+01 1.317949999999999875e+02 1.492924999999999955e+03
8.000000000000000167e-02 4.851484999999999825e-01 4.026704999999999757e+01 1.342094999999999914e+02 1.493789999999999964e+03
8.100000000000000255e-02 4.856154999999999777e-01 4.065480000000000160e+01 1.365065000000000168e+02 1.494619999999999891e+03
8.200000000000000344e-02 4.860504999999999964e-01 4.095664999999999623e+01 1.386500000000000057e+02 1.495404999999999973e+03
8.300000000000000433e-02 4.864469999999999628e-01 4.115959999999999752e+01 1.406100000000000136e+02 1.496130000000000109e+03
8.400000000000000522e-02 4.868005000000000249e-01 4.125334999999999752e+01 1.423605000000000018e+02 1.496800000000000182e+03
8.500000000000000611e-02 4.871085000000000553e-01 4.123069999999999879e+01 1.438820000000000050e+02 1.497389999999999873e+03
8.600000000000000699e-02 4.873684999999999823e-01 4.108755000000000024e+01 1.451625000000000227e+02 1.497905000000000200e+03
8.700000000000000788e-02 4.875800000000000134e-01 4.082344999999999402e+01 1.461974999999999909e+02 1.498335000000000036e+03
8.800000000000000877e-02 4.877445000000000253e-01 4.044149999999999778e+01 1.469900000000000091e+02 1.498690000000000055e+03
8.899999999999999578e-02 4.878635000000000055e-01 3.994764999999999588e+01 1.475484999999999900e+02 1.498960000000000036e+03
8.999999999999999667e-02 4.879410000000000136e-01 3.935115000000000407e+01 1.478890000000000100e+02 1.499154999999999973e+03
9.099999999999999756e-02 4.879805000000000392e-01 3.866349999999999909e+01 1.480330000000000155e+02 1.499284999999999854e+03
9.199999999999999845e-02 4.879870000000000041e-01 3.789824999999999733e+01 1.480045000000000073e+02 1.499345000000000027e+03
9.299999999999999933e-02 4.879669999999999841e-01 3.707050000000000267e+01 1.478319999999999936e+02 1.499355000000000018e+03
9.400000000000000022e-02 4.879249999999999421e-01 3.619604999999999961e+01 1.475444999999999993e+02 1.499309999999999945e+03
9.500000000000000111e-02 4.878675000000000095e-01 3.529124999999999801e+01 1.471720000000000255e+02 1.499235000000000127e+03
9.600000000000000200e-02 4.878000000000000114e-01 3.437189999999999657e+01 1.467450000000000045e+02 1.499134999999999991e+03
9.700000000000000289e-02 4.877270000000000216e-01 3.345319999999999538e+01 1.462895000000000039e+02 1.499009999999999991e+03
9.800000000000000377e-02 4.876544999999999908e-01 3.254870000000000374e+01 1.458315000000000055e+02 1.498884999999999991e+03
9.900000000000000466e-02 4.875849999999999906e-01 3.167044999999999888e+01 1.453919999999999959e+02 1.498755000000000109e+03
1.000000000000000056e-01 4.875224999999999698e-01 3.082799999999999940e+01 1.449890000000000043e+02 1.498625000000000000e+03
1.010000000000000064e-01 4.874685000000000268e-01 3.002870000000000061e+01 1.446334999999999980e+02 1.498505000000000109e+03
1.020000000000000073e-01 4.874254999999999560e-01 2.927705000000000268e+01 1.443349999999999795e+02 1.498394999999999982e+03
1.030000000000000082e-01 4.873919999999999919e-01 2.857495000000000118e+01 1.440955000000000155e+02 1.498309999999999945e+03
1.040000000000000091e-01 4.873689999999999967e-01 2.792174999999999940e+01 1.439124999999999943e+02 1.498235000000000127e+03
1.050000000000000100e-01 4.873539999999999539e-01 2.731434999999999746e+01 1.437814999999999941e+02 1.498175000000000182e+03
1.059999999999999970e-01 4.873450000000000282e-01 2.674739999999999895e+01 1.436910000000000025e+02 1.498134999999999991e+03
1.069999999999999979e-01 4.873399999999999954e-01 2.621410000000000196e+01 1.436279999999999859e+02 1.498099999999999909e+03
1.079999999999999988e-01 4.873350000000000182e-01 2.570609999999999928e+01 1.435785000000000196e+02 1.498070000000000164e+03
1.089999999999999997e-01 4.873279999999999834e-01 2.521415000000000006e+01 1.435250000000000057e+02 1.498039999999999964e+03
1.100000000000000006e-01 4.873140000000000249e-01 2.472879999999999967e+01 1.434505000000000052e+02 1.498005000000000109e+03
1.110000000000000014e-01 4.872910000000000297e-01 2.424060000000000059e+01 1.433379999999999939e+02 1.497960000000000036e+03
1.120000000000000023e-01 4.872560000000000224e-01 2.374049999999999727e+01 1.431709999999999923e+02 1.497900000000000091e+03
1.130000000000000032e-01 4.872064999999999868e-01 2.322060000000000102e+01 1.429364999999999952e+02 1.497824999999999818e+03
1.140000000000000041e-01 4.871400000000000174e-01 2.267415000000000092e+01 1.426239999999999952e+02 1.497720000000000027e+03
1.150000000000000050e-01 4.870559999999999889e-01 2.209609999999999985e+01 1.422235000000000014e+02 1.497595000000000027e+03
1.160000000000000059e-01 4.869529999999999692e-01 2.148304999999999865e+01 1.417314999999999827e+02 1.497434999999999945e+03
1.170000000000000068e-01 4.868314999999999726e-01 2.083384999999999820e+01 1.411460000000000150e+02 1.497250000000000000e+03
1.180000000000000077e-01 4.866920000000000135e-01 2.014905000000000257e+01 1.404699999999999989e+02 1.497034999999999854e+03
1.190000000000000085e-01 4.865364999999999829e-01 1.943155000000000143e+01 1.397094999999999914e+02 1.496784999999999854e+03
1.200000000000000094e-01 4.863664999999999794e-01 1.868590000000000018e+01 1.388739999999999952e+02 1.496519999999999982e+03
1.209999999999999964e-01 4.861854999999999927e-01 1.791850000000000165e+01 1.379759999999999991e+02 1.496224999999999909e+03
1.219999999999999973e-01 4.859959999999999836e-01 1.713735000000000142e+01 1.370310000000000059e+02 1.495914999999999964e+03
1.229999999999999982e-01 4.858014999999999972e-01 1.635160000000000124e+01 1.360559999999999832e+02 1.495590000000000146e+03
1.239999999999999991e-01 4.856060000000000376e-01 1.557114999999999938e+01 1.350695000000000050e+02 1.495259999999999991e+03
1.250000000000000000e-01 4.854129999999999834e-01 1.480648000000000053e+01 1.340910000000000082e+02 1.494929999999999836e+03
1.260000000000000009e-01 4.852270000000000194e-01 1.406817500000000010e+01 1.331394999999999982e+02 1.494599999999999909e+03
1.270000000000000018e-01 4.850504999999999955e-01 1.336639500000000069e+01 1.322334999999999923e+02 1.494279999999999973e+03
1.280000000000000027e-01 4.848874999999999713e-01 1.271053999999999817e+01 1.313894999999999982e+02 1.493985000000000127e+03
1.290000000000000036e-01 4.847409999999999775e-01 1.210899999999999999e+01 1.306225000000000023e+02 1.493704999999999927e+03
1.300000000000000044e-01 4.846120000000000427e-01 1.156868000000000052e+01 1.299455000000000098e+02 1.493454999999999927e+03
1.310000000000000053e-01 4.845030000000000170e-01 1.109478000000000009e+01 1.293669999999999902e+02 1.493230000000000018e+03
1.320000000000000062e-01 4.844144999999999701e-01 1.069073999999999991e+01 1.288924999999999841e+02 1.493039999999999964e+03
1.330000000000000071e-01 4.843475000000000419e-01 1.035806999999999967e+01 1.285254999999999939e+02 1.492884999999999991e+03
1.340000000000000080e-01 4.843000000000000083e-01 1.009637500000000010e+01 1.282634999999999934e+02 1.492764999999999873e+03
1.350000000000000089e-01 4.842729999999999535e-01 9.903425000000000367e+00 1.281039999999999850e+02 1.492674999999999955e+03
1.360000000000000098e-01 4.842629999999999990e-01 9.775275000000000603e+00 1.280384999999999991e+02 1.492619999999999891e+03
1.370000000000000107e-01 4.842695000000000194e-01 9.706640000000000157e+00 1.280579999999999927e+02 1.492589999999999918e+03
1.380000000000000115e-01 4.842889999999999695e-01 9.690895000000001147e+00 1.281504999999999939e+02 1.492590000000000146e+03
1.390000000000000124e-01 4.843195000000000139e-01 9.720690000000001163e+00 1.283040000000000020e+02 1.492615000000000009e+03
1.400000000000000133e-01 4.843579999999999552e-01 9.787970000000001392e+00 1.285045000000000073e+02 1.492654999999999973e+03
1.410000000000000142e-01 4.844019999999999992e-01 9.884450000000001069e+00 1.287365000000000066e+02 1.492710000000000036e+03
1.420000000000000151e-01 4.844484999999999486e-01 1.000184000000000140e+01 1.289879999999999995e+02 1.492775000000000091e+03
1.430000000000000160e-01 4.844960000000000377e-01 1.013222500000000004e+01 1.292454999999999927e+02 1.492845000000000027e+03
1.440000000000000169e-01 4.845415000000000139e-01 1.026808499999999924e+01 1.294975000000000023e+02 1.492920000000000073e+03
1.450000000000000178e-01 4.845829999999999860e-01 1.040278999999999954e+01 1.297340000000000089e+02 1.492990000000000009e+03
1.459999999999999909e-01 4.846199999999999952e-01 1.053047499999999914e+01 1.299470000000000027e+02 1.493054999999999836e+03
1.469999999999999918e-01 4.846504999999999841e-01 1.064637499999999903e+01 1.301295000000000073e+02 1.493115000000000009e+03
1.479999999999999927e-01 4.846745000000000081e-01 1.074672999999999945e+01 1.302780000000000200e+02 1.493170000000000073e+03
1.489999999999999936e-01 4.846909999999999830e-01 1.082883500000000154e+01 1.303890000000000100e+02 1.493210000000000036e+03
1.499999999999999944e-01 4.847009999999999375e-01 1.089124499999999962e+01 1.304635000000000105e+02 1.493235000000000127e+03
1.509999999999999953e-01 4.847044999999999826e-01 1.093324499999999944e+01 1.305024999999999977e+02 1.493255000000000109e+03
1.519999999999999962e-01 4.847020000000000217e-01 1.095538999999999952e+01 1.305079999999999814e+02 1.493264999999999873e+03
1.529999999999999971e-01 4.846945000000000281e-01 1.095877000000000123e+01 1.304850000000000136e+02 1.493269999999999982e+03
1.539999999999999980e-01 4.846825000000000161e-01 1.094532500000000041e+01 1.304379999999999882e+02 1.493259999999999991e+03
1.549999999999999989e-01 4.846669999999999590e-01 1.091762500000000102e+01 1.303729999999999905e+02 1.493244999999999891e+03
1.559999999999999998e-01 4.846509999999999985e-01 1.087847499999999989e+01 1.302950000000000159e+02 1.493224999999999909e+03
1.570000000000000007e-01 4.846340000000000092e-01 1.083108000000000004e+01 1.302115000000000009e+02 1.493204999999999927e+03
1.580000000000000016e-01 4.846169999999999645e-01 1.077870500000000042e+01 1.301274999999999977e+02 1.493180000000000064e+03
1.590000000000000024e-01 4.846025000000000471e-01 1.072447999999999979e+01 1.300484999999999900e+02 1.493154999999999973e+03
