# t [s], A [cm^2], U [cm/s], P [cPa], c [cm/s]
1.000000000000000021e-03 1.275729999999999920e-01 4.799390000000000045e-01 1.029385000000000048e+02 1.870559999999999945e+03
2.000000000000000042e-03 1.275364999999999971e-01 2.325886000000000120e+00 9.922775000000000034e+01 1.870079999999999927e+03
3.000000000000000062e-03 1.274279999999999857e-01 4.525164499999999812e+00 9.439820000000000277e+01 1.868720000000000027e+03
4.000000000000000083e-03 1.272770000000000012e-01 6.948228999999999544e+00 8.933615000000000350e+01 1.866849999999999909e+03
5.000000000000000104e-03 1.271110000000000018e-01 9.514910000000000423e+00 8.490455000000000041e+01 1.864824999999999818e+03
6.000000000000000125e-03 1.269485000000000197e-01 1.204352000000000089e+01 8.132935000000000514e+01 1.862855000000000018e+03
7.000000000000000146e-03 1.267949999999999910e-01 1.432813499999999962e+01 7.833825000000000216e+01 1.861019999999999982e+03
8.000000000000000167e-03 1.266525000000000012e-01 1.628504999999999825e+01 7.567109999999999559e+01 1.859349999999999909e+03
9.000000000000001055e-03 1.265249999999999986e-01 1.794889999999999830e+01 7.333584999999999354e+01 1.857869999999999891e+03
1.000000000000000194e-02 1.264144999999999852e-01 1.935829999999999984e+01 7.139529999999999177e+01 1.856605000000000018e+03
1.099999999999999936e-02 1.263205000000000022e-01 2.052830000000000155e+01 6.982139999999999702e+01 1.855539999999999964e+03
1.200000000000000025e-02 1.262429999999999941e-01 2.147659999999999769e+01 6.855885000000000673e+01 1.854670000000000073e+03
1.300000000000000114e-02 1.261799999999999866e-01 2.221959999999999980e+01 6.755124999999999602e+01 1.853974999999999909e+03
1.400000000000000203e-02 1.261275000000000035e-01 2.276664999999999850e+01 6.671800000000000352e+01 1.853404999999999973e+03
1.499999999999999944e-02 1.260850000000000026e-01 2.314804999999999779e+01 6.600485000000000468e+01 1.852950000000000045e+03
1.600000000000000033e-02 1.260509999999999964e-01 2.344810000000000016e+01 6.549045000000000982e+01 1.852589999999999918e+03
1.700000000000000122e-02 1.260294999999999888e-01 2.379504999999999981e+01 6.541259999999999764e+01 1.852375000000000000e+03
1.800000000000000211e-02 1.260274999999999868e-01 2.430574999999999974e+01 6.605115000000000691e+01 1.852369999999999891e+03
1.900000000000000300e-02 1.260490000000000221e-01 2.502400000000000091e+01 6.754559999999999320e+01 1.852630000000000109e+03
2.000000000000000042e-02 1.260940000000000116e-01 2.589300000000000068e+01 6.977240000000000464e+01 1.853144999999999982e+03
2.100000000000000130e-02 1.261565000000000047e-01 2.677475000000000094e+01 7.235070000000000334e+01 1.853865000000000009e+03
2.200000000000000219e-02 1.262265000000000192e-01 2.750075000000000003e+01 7.476399999999999579e+01 1.854674999999999955e+03
2.299999999999999961e-02 1.262905000000000000e-01 2.793010000000000304e+01 7.653114999999999668e+01 1.855425000000000182e+03
2.400000000000000050e-02 1.263380000000000059e-01 2.799204999999999899e+01 7.735405000000000086e+01 1.855994999999999891e+03
2.500000000000000139e-02 1.263635000000000175e-01 2.770064999999999955e+01 7.719254999999999711e+01 1.856315000000000055e+03
2.600000000000000228e-02 1.263664999999999927e-01 2.714039999999999964e+01 7.624689999999999657e+01 1.856380000000000109e+03
2.700000000000000316e-02 1.263509999999999911e-01 2.643155000000000143e+01 7.486680000000001201e+01 1.856230000000000018e+03
2.800000000000000058e-02 1.263255000000000072e-01 2.569015000000000271e+01 7.342589999999999861e+01 1.855954999999999927e+03
2.900000000000000147e-02 1.262969999999999926e-01 2.499654999999999916e+01 7.220985000000000298e+01 1.855635000000000218e+03
3.000000000000000236e-02 1.262709999999999944e-01 2.438139999999999930e+01 7.135190000000000055e+01 1.855340000000000146e+03
3.099999999999999978e-02 1.262510000000000021e-01 2.382945000000000135e+01 7.082740000000001146e+01 1.855110000000000127e+03
3.200000000000000067e-02 1.262359999999999871e-01 2.329704999999999870e+01 7.049764999999999304e+01 1.854934999999999945e+03
3.300000000000000155e-02 1.262225000000000152e-01 2.273490000000000322e+01 7.017969999999999686e+01 1.854785000000000082e+03
3.400000000000000244e-02 1.262085000000000012e-01 2.210954999999999870e+01 6.971899999999999409e+01 1.854625000000000000e+03
3.500000000000000333e-02 1.261905000000000110e-01 2.141789999999999949e+01 6.904380000000000450e+01 1.854420000000000073e+03
3.600000000000000422e-02 1.261674999999999880e-01 2.069115000000000038e+01 6.818985000000000696e+01 1.854170000000000073e+03
3.700000000000000511e-02 1.261420000000000041e-01 1.998910000000000053e+01 6.729160000000000252e+01 1.853875000000000000e+03
3.799999999999999906e-02 1.261170000000000069e-01 1.938514999999999944e+01 6.654410000000000025e+01 1.853590000000000146e+03
3.899999999999999994e-02 1.260970000000000146e-01 1.894794999999999874e+01 6.614849999999999852e+01 1.853360000000000127e+03
4.000000000000000083e-02 1.260880000000000056e-01 1.872364999999999924e+01 6.625614999999999100e+01 1.853250000000000000e+03
4.100000000000000172e-02 1.260924999999999963e-01 1.872409999999999997e+01 6.692695000000000505e+01 1.853289999999999964e+03
4.200000000000000261e-02 1.261110000000000009e-01 1.892255000000000109e+01 6.811005000000000109e+01 1.853490000000000009e+03
4.300000000000000350e-02 1.261435000000000195e-01 1.925825000000000031e+01 6.965144999999999698e+01 1.853839999999999918e+03
4.400000000000000439e-02 1.261845000000000050e-01 1.964630000000000010e+01 7.132200000000000273e+01 1.854299999999999955e+03
4.499999999999999833e-02 1.262284999999999935e-01 1.999224999999999852e+01 7.285920000000000130e+01 1.854795000000000073e+03
4.599999999999999922e-02 1.262695000000000067e-01 2.020564999999999856e+01 7.401014999999999588e+01 1.855259999999999991e+03
4.700000000000000011e-02 1.262999999999999956e-01 2.021195000000000164e+01 7.456929999999999836e+01 1.855610000000000127e+03
4.800000000000000100e-02 1.263154999999999972e-01 1.996014999999999873e+01 7.440330000000000155e+01 1.855795000000000073e+03
4.900000000000000189e-02 1.263104999999999922e-01 1.942624999999999957e+01 7.346110000000000184e+01 1.855750000000000000e+03
5.000000000000000278e-02 1.262854999999999950e-01 1.861185000000000045e+01 7.177004999999999768e+01 1.855474999999999909e+03
5.100000000000000366e-02 1.262389999999999901e-01 1.754054999999999964e+01 6.942134999999998968e+01 1.854954999999999927e+03
5.200000000000000455e-02 1.261730000000000074e-01 1.625215000000000032e+01 6.654964999999999975e+01 1.854210000000000036e+03
5.300000000000000544e-02 1.260910000000000086e-01 1.479664999999999964e+01 6.331194999999999595e+01 1.853285000000000082e+03
5.399999999999999939e-02 1.259965000000000113e-01 1.322886500000000076e+01 5.986905000000000143e+01 1.852214999999999918e+03
5.500000000000000028e-02 1.258944999999999925e-01 1.160507499999999936e+01 5.637290000000000134e+01 1.851049999999999955e+03
5.600000000000000117e-02 1.257884999999999975e-01 9.980169999999999320e+00 5.295949999999999847e+01 1.849840000000000146e+03
5.700000000000000205e-02 1.256825000000000025e-01 8.406774999999999665e+00 4.974739999999999895e+01 1.848634999999999991e+03
5.800000000000000294e-02 1.255799999999999972e-01 6.934860000000000468e+00 4.683934999999999604e+01 1.847464999999999918e+03
5.900000000000000383e-02 1.254854999999999998e-01 5.611805000000000376e+00 4.432529999999999859e+01 1.846380000000000109e+03
6.000000000000000472e-02 1.254014999999999991e-01 4.481894999999999740e+00 4.228555000000000064e+01 1.845409999999999854e+03
6.099999999999999867e-02 1.253299999999999970e-01 3.585879999999999956e+00 4.079180000000000206e+01 1.844589999999999918e+03
6.199999999999999956e-02 1.252749999999999975e-01 2.959729999999999972e+00 3.990664999999999907e+01 1.843944999999999936e+03
6.300000000000000044e-02 1.252375000000000016e-01 2.633035000000000014e+00 3.968115000000000236e+01 1.843509999999999991e+03
6.400000000000000133e-02 1.252205000000000124e-01 2.627254999999999896e+00 4.015075000000000216e+01 1.843295000000000073e+03
6.500000000000000222e-02 1.252250000000000030e-01 2.954069999999999752e+00 4.133135000000000048e+01 1.843325000000000045e+03
6.600000000000000311e-02 1.252520000000000022e-01 3.614184999999999981e+00 4.321600000000000108e+01 1.843599999999999909e+03
6.700000000000000400e-02 1.252999999999999947e-01 4.596885000000000332e+00 4.577315000000000111e+01 1.844125000000000000e+03
6.800000000000000488e-02 1.253704999999999958e-01 5.880354999999999777e+00 4.894695000000000107e+01 1.844900000000000091e+03
6.900000000000000577e-02 1.254605000000000026e-01 7.432874999999999233e+00 5.266009999999999991e+01 1.845905000000000200e+03
7.000000000000000666e-02 1.255680000000000129e-01 9.214610000000000412e+00 5.681820000000000448e+01 1.847115000000000009e+03
7.100000000000000755e-02 1.256909999999999972e-01 1.118012000000000050e+01 6.131595000000000084e+01 1.848505000000000109e+03
7.200000000000000844e-02 1.258269999999999944e-01 1.328064000000000000e+01 6.604329999999998790e+01 1.850039999999999964e+03
7.300000000000000933e-02 1.259720000000000006e-01 1.546654999999999802e+01 7.089185000000000514e+01 1.851690000000000055e+03
7.399999999999999634e-02 1.261229999999999851e-01 1.768979999999999819e+01 7.576040000000000418e+01 1.853414999999999964e+03
7.499999999999999722e-02 1.262765000000000137e-01 1.990559999999999974e+01 8.055889999999999418e+01 1.855179999999999836e+03
7.599999999999999811e-02 1.264305000000000012e-01 2.207394999999999996e+01 8.521184999999999832e+01 1.856954999999999927e+03
7.699999999999999900e-02 1.265820000000000001e-01 2.416094999999999970e+01 8.966015000000000157e+01 1.858704999999999927e+03
7.799999999999999989e-02 1.267284999999999939e-01 2.613969999999999771e+01 9.386209999999999809e+01 1.860414999999999964e+03
7.900000000000000078e-02 1.268704999999999972e-01 2.799060000000000059e+01 9.779394999999999527e+01 1.862059999999999945e+03
8.000000000000000167e-02 1.270044999999999924e-01 2.970204999999999984e+01 1.014484999999999957e+02 1.863630000000000109e+03
8.100000000000000255e-02 1.271309999999999940e-01 3.126989999999999981e+01 1.048362999999999943e+02 1.865119999999999891e+03
8.200000000000000344e-02 1.272504999999999886e-01 3.269750000000000512e+01 1.079809999999999945e+02 1.866519999999999982e+03
8.300000000000000433e-02 1.273630000000000040e-01 3.399459999999999837e+01 1.109194999999999993e+02 1.867845000000000027e+03
8.400000000000000522e-02 1.274689999999999990e-01 3.517650000000000432e+01 1.136974999999999909e+02 1.869105000000000018e+03
8.500000000000000611e-02 1.275700000000000167e-01 3.626234999999999786e+01 1.163670000000000044e+02 1.870305000000000064e+03
8.600000000000000699e-02 1.276675000000000171e-01 3.727380000000000138e+01 1.189809999999999945e+02 1.871464999999999918e+03
8.700000000000000788e-02 1.277629999999999877e-01 3.823340000000000316e+01 1.215919999999999987e+02 1.872599999999999909e+03
8.800000000000000877e-02 1.278579999999999994e-01 3.916244999999999976e+01 1.242459999999999951e+02 1.873719999999999800e+03
8.899999999999999578e-02 1.279534999999999978e-01 4.007994999999999663e+01 1.269814999999999969e+02 1.874855000000000018e+03
8.999999999999999667e-02 1.280499999999999972e-01 4.100105000000000643e+01 1.298230000000000075e+02 1.876005000000000109e+03
9.099999999999999756e-02 1.281500000000000139e-01 4.193614999999999782e+01 1.327849999999999966e+02 1.877190000000000055e+03
9.199999999999999845e-02 1.282524999999999915e-01 4.289024999999999466e+01 1.358654999999999973e+02 1.878405000000000200e+03
9.299999999999999933e-02 1.283584999999999865e-01 4.386280000000000001e+01 1.390500000000000114e+02 1.879654999999999973e+03
9.400000000000000022e-02 1.284669999999999979e-01 4.484779999999999944e+01 1.423114999999999952e+02 1.880945000000000164e+03
9.500000000000000111e-02 1.285769999999999968e-01 4.583455000000000013e+01 1.456125000000000114e+02 1.882255000000000109e+03
9.600000000000000200e-02 1.286884999999999835e-01 4.680819999999999936e+01 1.489074999999999989e+02 1.883579999999999927e+03
9.700000000000000289e-02 1.287999999999999978e-01 4.775100000000000477e+01 1.521454999999999984e+02 1.884904999999999973e+03
9.800000000000000377e-02 1.289095000000000102e-01 4.864329999999999643e+01 1.552735000000000127e+02 1.886210000000000036e+03
9.900000000000000466e-02 1.290155000000000052e-01 4.946474999999999511e+01 1.582390000000000043e+02 1.887480000000000018e+03
1.000000000000000056e-01 1.291174999999999962e-01 5.019550000000000267e+01 1.609929999999999950e+02 1.888695000000000164e+03
1.010000000000000064e-01 1.292130000000000223e-01 5.081700000000000017e+01 1.634925000000000068e+02 1.889845000000000027e+03
1.020000000000000073e-01 1.293004999999999849e-01 5.131324999999999648e+01 1.657009999999999934e+02 1.890900000000000091e+03
1.030000000000000082e-01 1.293795000000000084e-01 5.167110000000000269e+01 1.675919999999999845e+02 1.891855000000000018e+03
1.040000000000000091e-01 1.294489999999999807e-01 5.188129999999999598e+01 1.691460000000000150e+02 1.892695000000000164e+03
1.050000000000000100e-01 1.295080000000000120e-01 5.193829999999999814e+01 1.703550000000000182e+02 1.893414999999999964e+03
1.059999999999999970e-01 1.295564999999999911e-01 5.184080000000000155e+01 1.712199999999999989e+02 1.894009999999999991e+03
1.069999999999999979e-01 1.295939999999999870e-01 5.159175000000000466e+01 1.717520000000000095e+02 1.894474999999999909e+03
1.079999999999999988e-01 1.296215000000000006e-01 5.119794999999999874e+01 1.719689999999999941e+02 1.894809999999999945e+03
1.089999999999999997e-01 1.296384999999999899e-01 5.066975000000000051e+01 1.718965000000000032e+02 1.895025000000000091e+03
1.100000000000000006e-01 1.296454999999999969e-01 5.002089999999999748e+01 1.715674999999999955e+02 1.895134999999999991e+03
1.110000000000000014e-01 1.296439999999999815e-01 4.926744999999999663e+01 1.710184999999999889e+02 1.895130000000000109e+03
1.120000000000000023e-01 1.296350000000000002e-01 4.842754999999999654e+01 1.702889999999999873e+02 1.895034999999999854e+03
1.130000000000000032e-01 1.296194999999999986e-01 4.752049999999999841e+01 1.694200000000000159e+02 1.894860000000000127e+03
1.140000000000000041e-01 1.295989999999999920e-01 4.656600000000000250e+01 1.684530000000000030e+02 1.894625000000000000e+03
1.150000000000000050e-01 1.295745000000000091e-01 4.558350000000000080e+01 1.674279999999999973e+02 1.894335000000000036e+03
1.160000000000000059e-01 1.295469999999999955e-01 4.459159999999999968e+01 1.663799999999999955e+02 1.894009999999999991e+03
1.170000000000000068e-01 1.295175000000000076e-01 4.360710000000000264e+01 1.653430000000000177e+02 1.893660000000000082e+03
1.180000000000000077e-01 1.294874999999999776e-01 4.264494999999999436e+01 1.643435000000000059e+02 1.893304999999999836e+03
1.190000000000000085e-01 1.294575000000000031e-01 4.171744999999999948e+01 1.634035000000000082e+02 1.892950000000000045e+03
1.200000000000000094e-01 1.294290000000000163e-01 4.083405000000000484e+01 1.625380000000000109e+02 1.892605000000000018e+03
1.209999999999999964e-01 1.294015000000000026e-01 4.000140000000000384e+01 1.617560000000000002e+02 1.892275000000000091e+03
1.219999999999999973e-01 1.293759999999999910e-01 3.922285000000000110e+01 1.610589999999999975e+02 1.891965000000000146e+03
1.229999999999999982e-01 1.293524999999999814e-01 3.849875000000000114e+01 1.604454999999999814e+02 1.891680000000000064e+03
1.239999999999999991e-01 1.293310000000000015e-01 3.782690000000000197e+01 1.599044999999999845e+02 1.891424999999999955e+03
1.250000000000000000e-01 1.293120000000000103e-01 3.720229999999999393e+01 1.594219999999999970e+02 1.891184999999999945e+03
1.260000000000000009e-01 1.292945000000000066e-01 3.661780000000000257e+01 1.589800000000000182e+02 1.890970000000000027e+03
1.270000000000000018e-01 1.292780000000000040e-01 3.606454999999999700e+01 1.585584999999999809e+02 1.890769999999999982e+03
1.280000000000000027e-01 1.292619999999999880e-01 3.553249999999999886e+01 1.581329999999999814e+02 1.890570000000000164e+03
1.290000000000000036e-01 1.292459999999999998e-01 3.501089999999999947e+01 1.576814999999999998e+02 1.890375000000000000e+03
1.300000000000000044e-01 1.292290000000000105e-01 3.448864999999999981e+01 1.571794999999999902e+02 1.890175000000000182e+03
1.310000000000000053e-01 1.292114999999999791e-01 3.395514999999999617e+01 1.566050000000000182e+02 1.889954999999999927e+03
1.320000000000000062e-01 1.291910000000000003e-01 3.340040000000000475e+01 1.559404999999999859e+02 1.889710000000000036e+03
1.330000000000000071e-01 1.291684999999999917e-01 3.281584999999999752e+01 1.551680000000000064e+02 1.889440000000000055e+03
1.340000000000000080e-01 1.291424999999999934e-01 3.219460000000000122e+01 1.542775000000000034e+02 1.889134999999999991e+03
1.350000000000000089e-01 1.291134999999999922e-01 3.153159999999999741e+01 1.532615000000000123e+02 1.888779999999999973e+03
1.360000000000000098e-01 1.290804999999999869e-01 3.082415000000000305e+01 1.521169999999999902e+02 1.888389999999999873e+03
1.370000000000000107e-01 1.290435000000000054e-01 3.007189999999999941e+01 1.508485000000000014e+02 1.887950000000000045e+03
1.380000000000000115e-01 1.290025000000000199e-01 2.927694999999999936e+01 1.494639999999999986e+02 1.887470000000000027e+03
1.390000000000000124e-01 1.289585000000000037e-01 2.844364999999999810e+01 1.479770000000000039e+02 1.886945000000000164e+03
1.400000000000000133e-01 1.289109999999999978e-01 2.757864999999999966e+01 1.464064999999999941e+02 1.886380000000000109e+03
1.410000000000000142e-01 1.288605000000000167e-01 2.669050000000000011e+01 1.447729999999999961e+02 1.885785000000000082e+03
1.420000000000000151e-01 1.288080000000000058e-01 2.578930000000000078e+01 1.431020000000000039e+02 1.885159999999999854e+03
1.430000000000000160e-01 1.287544999999999940e-01 2.488640000000000185e+01 1.414194999999999993e+02 1.884525000000000091e+03
1.440000000000000169e-01 1.286994999999999945e-01 2.399370000000000047e+01 1.397545000000000073e+02 1.883875000000000000e+03
1.450000000000000178e-01 1.286450000000000093e-01 2.312359999999999971e+01 1.381334999999999980e+02 1.883230000000000018e+03
1.459999999999999909e-01 1.285914999999999975e-01 2.228815000000000168e+01 1.365835000000000150e+02 1.882590000000000146e+03
1.469999999999999918e-01 1.285395000000000010e-01 2.149855000000000160e+01 1.351290000000000191e+02 1.881974999999999909e+03
1.479999999999999927e-01 1.284905000000000075e-01 2.076500000000000057e+01 1.337900000000000205e+02 1.881389999999999873e+03
1.489999999999999936e-01 1.284445000000000170e-01 2.009619999999999962e+01 1.325844999999999914e+02 1.880840000000000146e+03
1.499999999999999944e-01 1.284025000000000027e-01 1.949895000000000067e+01 1.315260000000000105e+02 1.880339999999999918e+03
1.509999999999999953e-01 1.283650000000000069e-01 1.897824999999999918e+01 1.306215000000000259e+02 1.879884999999999991e+03
1.519999999999999962e-01 1.283314999999999872e-01 1.853685000000000116e+01 1.298760000000000048e+02 1.879484999999999900e+03
1.529999999999999971e-01 1.283030000000000004e-01 1.817530000000000001e+01 1.292890000000000157e+02 1.879144999999999982e+03
1.539999999999999980e-01 1.282794999999999908e-01 1.789215000000000089e+01 1.288530000000000086e+02 1.878860000000000127e+03
1.549999999999999989e-01 1.282604999999999995e-01 1.768420000000000059e+01 1.285610000000000070e+02 1.878630000000000109e+03
1.559999999999999998e-01 1.282465000000000133e-01 1.754615000000000080e+01 1.283999999999999773e+02 1.878454999999999927e+03
1.570000000000000007e-01 1.282365000000000033e-01 1.747155000000000058e+01 1.283534999999999968e+02 1.878329999999999927e+03
1.580000000000000016e-01 1.282304999999999973e-01 1.745264999999999844e+01 1.284055000000000177e+02 1.878250000000000000e+03
1.590000000000000024e-01 1.282280000000000086e-01 1.748100000000000165e+01 1.285364999999999895e+02 1.878215000000000146e+03
