# t [s], A [cm^2], U [cm/s], P [cPa], c [cm/s]
1.000000000000000021e-03 2.155654999999999932e-01 1.631579999999999975e-01 8.751149999999999807e+01 1.984184999999999945e+03
2.000000000000000042e-03 2.155289999999999984e-01 1.371914000000000078e+00 8.506040000000000134e+01 1.983945000000000164e+03
3.000000000000000062e-03 2.154065000000000007e-01 2.908993999999999858e+00 8.163280000000000314e+01 1.983179999999999836e+03
4.000000000000000083e-03 2.152275000000000160e-01 4.643110000000000070e+00 7.766525000000000034e+01 1.982079999999999927e+03
5.000000000000000104e-03 2.150234999999999785e-01 6.528230000000000643e+00 7.385224999999999795e+01 1.980849999999999909e+03
6.000000000000000125e-03 2.148209999999999842e-01 8.465849999999999653e+00 7.059890000000000043e+01 1.979630000000000109e+03
7.000000000000000146e-03 2.146295000000000008e-01 1.029138999999999982e+01 6.789150000000000773e+01 1.978490000000000009e+03
8.000000000000000167e-03 2.144504999999999884e-01 1.187394499999999908e+01 6.551574999999999704e+01 1.977454999999999927e+03
9.000000000000001055e-03 2.142884999999999929e-01 1.319445499999999960e+01 6.339495000000000857e+01 1.976534999999999854e+03
1.000000000000000194e-02 2.141485000000000194e-01 1.428689999999999927e+01 6.159525000000000716e+01 1.975740000000000009e+03
1.099999999999999936e-02 2.140309999999999990e-01 1.517440000000000033e+01 6.015685000000000571e+01 1.975085000000000036e+03
1.200000000000000025e-02 2.139365000000000017e-01 1.587005000000000088e+01 5.905884999999999252e+01 1.974565000000000055e+03
1.300000000000000114e-02 2.138629999999999975e-01 1.638329999999999842e+01 5.824855000000000160e+01 1.974164999999999964e+03
1.400000000000000203e-02 2.138059999999999961e-01 1.671555000000000035e+01 5.764074999999999704e+01 1.973860000000000127e+03
1.499999999999999944e-02 2.137605000000000199e-01 1.687519999999999953e+01 5.714244999999999663e+01 1.973635000000000218e+03
1.600000000000000033e-02 2.137249999999999983e-01 1.690804999999999936e+01 5.673734999999999928e+01 1.973454999999999927e+03
1.700000000000000122e-02 2.137020000000000031e-01 1.690800000000000125e+01 5.655129999999999768e+01 1.973349999999999909e+03
1.800000000000000211e-02 2.136990000000000001e-01 1.698924999999999841e+01 5.681799999999999784e+01 1.973345000000000027e+03
1.900000000000000300e-02 2.137239999999999973e-01 1.723604999999999876e+01 5.775495000000000090e+01 1.973494999999999891e+03
2.000000000000000042e-02 2.137815000000000132e-01 1.766434999999999889e+01 5.943030000000000257e+01 1.973820000000000164e+03
2.100000000000000130e-02 2.138680000000000025e-01 1.821410000000000196e+01 6.170000000000000284e+01 1.974304999999999836e+03
2.200000000000000219e-02 2.139734999999999832e-01 1.877374999999999972e+01 6.424044999999999561e+01 1.974904999999999973e+03
2.299999999999999961e-02 2.140839999999999965e-01 1.922010000000000218e+01 6.665075000000000216e+01 1.975539999999999964e+03
2.400000000000000050e-02 2.141850000000000143e-01 1.945759999999999934e+01 6.857519999999999527e+01 1.976130000000000109e+03
2.500000000000000139e-02 2.142649999999999832e-01 1.944344999999999857e+01 6.979964999999999975e+01 1.976599999999999909e+03
2.600000000000000228e-02 2.143180000000000085e-01 1.919184999999999874e+01 7.029259999999999309e+01 1.976924999999999955e+03
2.700000000000000316e-02 2.143444999999999934e-01 1.876019999999999754e+01 7.018479999999999563e+01 1.977095000000000027e+03
2.800000000000000058e-02 2.143504999999999994e-01 1.822415000000000163e+01 6.970329999999999870e+01 1.977144999999999982e+03
2.900000000000000147e-02 2.143435000000000201e-01 1.765109999999999957e+01 6.908644999999999925e+01 1.977115000000000009e+03
3.000000000000000236e-02 2.143309999999999937e-01 1.708129999999999882e+01 6.851044999999999163e+01 1.977049999999999955e+03
3.099999999999999978e-02 2.143174999999999941e-01 1.652104999999999890e+01 6.804910000000000991e+01 1.976974999999999909e+03
3.200000000000000067e-02 2.143034999999999801e-01 1.594855000000000089e+01 6.767279999999999518e+01 1.976894999999999982e+03
3.300000000000000155e-02 2.142875000000000196e-01 1.532774999999999999e+01 6.728119999999999834e+01 1.976809999999999945e+03
3.400000000000000244e-02 2.142669999999999852e-01 1.462630000000000052e+01 6.675475000000000136e+01 1.976695000000000164e+03
3.500000000000000333e-02 2.142379999999999840e-01 1.383084999999999987e+01 6.600815000000000055e+01 1.976529999999999973e+03
3.600000000000000422e-02 2.141994999999999871e-01 1.295684999999999931e+01 6.503005000000000280e+01 1.976315000000000055e+03
3.700000000000000511e-02 2.141524999999999956e-01 1.204915000000000092e+01 6.389855000000000018e+01 1.976059999999999945e+03
3.799999999999999906e-02 2.141020000000000145e-01 1.117402999999999835e+01 6.276900000000000546e+01 1.975775000000000091e+03
3.899999999999999994e-02 2.140555000000000097e-01 1.040480000000000160e+01 6.183754999999999313e+01 1.975509999999999991e+03
4.000000000000000083e-02 2.140210000000000168e-01 9.805410000000000181e+00 6.129335000000000377e+01 1.975304999999999836e+03
4.100000000000000172e-02 2.140044999999999864e-01 9.416119999999999379e+00 6.127089999999999748e+01 1.975204999999999927e+03
4.200000000000000261e-02 2.140104999999999924e-01 9.245124999999999815e+00 6.181770000000000209e+01 1.975224999999999909e+03
4.300000000000000350e-02 2.140394999999999937e-01 9.267749999999999488e+00 6.288244999999999862e+01 1.975375000000000000e+03
4.400000000000000439e-02 2.140885000000000149e-01 9.431820000000000093e+00 6.432550000000000523e+01 1.975639999999999873e+03
4.499999999999999833e-02 2.141509999999999803e-01 9.668034999999999712e+00 6.594679999999999609e+01 1.975985000000000127e+03
4.599999999999999922e-02 2.142189999999999928e-01 9.901474999999999582e+00 6.752170000000000982e+01 1.976365000000000009e+03
4.700000000000000011e-02 2.142835000000000156e-01 1.006306499999999993e+01 6.883809999999999718e+01 1.976724999999999909e+03
4.800000000000000100e-02 2.143355000000000121e-01 1.009745500000000007e+01 6.972585000000000832e+01 1.977029999999999973e+03
4.900000000000000189e-02 2.143700000000000050e-01 9.967905000000000015e+00 7.007474999999999454e+01 1.977230000000000018e+03
5.000000000000000278e-02 2.143815000000000026e-01 9.657090000000000174e+00 6.984045000000000414e+01 1.977305000000000064e+03
5.100000000000000366e-02 2.143680000000000030e-01 9.164899999999999380e+00 6.903800000000001091e+01 1.977240000000000009e+03
5.200000000000000455e-02 2.143305000000000071e-01 8.504305000000000447e+00 6.772820000000000107e+01 1.977035000000000082e+03
5.300000000000000544e-02 2.142715000000000036e-01 7.696509999999999962e+00 6.599989999999999668e+01 1.976704999999999927e+03
5.399999999999999939e-02 2.141930000000000223e-01 6.766775000000000873e+00 6.395264999999999844e+01 1.976264999999999873e+03
5.500000000000000028e-02 2.140994999999999981e-01 5.741204999999999892e+00 6.168330000000000268e+01 1.975740000000000009e+03
5.600000000000000117e-02 2.139949999999999908e-01 4.645134999999999792e+00 5.927819999999999823e+01 1.975150000000000091e+03
5.700000000000000205e-02 2.138829999999999898e-01 3.502902500000000252e+00 5.681010000000000559e+01 1.974509999999999991e+03
5.800000000000000294e-02 2.137660000000000116e-01 2.338499000000000105e+00 5.434040000000000248e+01 1.973849999999999909e+03
5.900000000000000383e-02 2.136480000000000046e-01 1.176660000000000039e+00 5.192320000000000135e+01 1.973174999999999955e+03
6.000000000000000472e-02 2.135319999999999996e-01 4.384999999999994458e-02 4.961039999999999850e+01 1.972514999999999873e+03
6.099999999999999867e-02 2.134194999999999842e-01 -1.031235000000000124e+00 4.745584999999999809e+01 1.971869999999999891e+03
6.199999999999999956e-02 2.133149999999999769e-01 -2.017854499999999884e+00 4.551760000000000161e+01 1.971269999999999982e+03
6.300000000000000044e-02 2.132200000000000206e-01 -2.884113000000000149e+00 4.385734999999999673e+01 1.970724999999999909e+03
6.400000000000000133e-02 2.131385000000000085e-01 -3.598494999999999777e+00 4.253820000000000334e+01 1.970250000000000000e+03
6.500000000000000222e-02 2.130734999999999990e-01 -4.131694999999999673e+00 4.162040000000000362e+01 1.969875000000000000e+03
6.600000000000000311e-02 2.130274999999999808e-01 -4.458599999999999675e+00 4.115635000000000332e+01 1.969595000000000027e+03
6.700000000000000400e-02 2.130029999999999979e-01 -4.560039999999999871e+00 4.118569999999999709e+01 1.969444999999999936e+03
6.800000000000000488e-02 2.130015000000000103e-01 -4.424115000000000464e+00 4.173165000000000191e+01 1.969420000000000073e+03
6.900000000000000577e-02 2.130250000000000199e-01 -4.047015000000000029e+00 4.279845000000000255e+01 1.969534999999999854e+03
7.000000000000000666e-02 2.130724999999999980e-01 -3.433199999999999807e+00 4.437049999999999983e+01 1.969784999999999854e+03
7.100000000000000755e-02 2.131440000000000001e-01 -2.595054499999999820e+00 4.641360000000000241e+01 1.970174999999999955e+03
7.200000000000000844e-02 2.132379999999999831e-01 -1.552026499999999976e+00 4.887685000000000457e+01 1.970690000000000055e+03
7.300000000000000933e-02 2.133519999999999861e-01 -3.294349999999999223e-01 5.169679999999999609e+01 1.971325000000000045e+03
7.399999999999999634e-02 2.134829999999999783e-01 1.043024999999999869e+00 5.480095000000000027e+01 1.972054999999999836e+03
7.499999999999999722e-02 2.136279999999999846e-01 2.532875499999999835e+00 5.811265000000000214e+01 1.972875000000000000e+03
7.599999999999999811e-02 2.137840000000000018e-01 4.106527999999999956e+00 6.155530000000000257e+01 1.973750000000000000e+03
7.699999999999999900e-02 2.139469999999999983e-01 5.730885000000000673e+00 6.505684999999999718e+01 1.974674999999999955e+03
7.799999999999999989e-02 2.141139999999999988e-01 7.374819999999999709e+00 6.855289999999999395e+01 1.975630000000000109e+03
7.900000000000000078e-02 2.142824999999999869e-01 9.010369999999999990e+00 7.199014999999999986e+01 1.976589999999999918e+03
8.000000000000000167e-02 2.144490000000000007e-01 1.061385999999999896e+01 7.532784999999999798e+01 1.977545000000000073e+03
8.100000000000000255e-02 2.146129999999999982e-01 1.216622999999999877e+01 7.853915000000000646e+01 1.978485000000000127e+03
8.200000000000000344e-02 2.147720000000000184e-01 1.365344999999999942e+01 8.161039999999999850e+01 1.979404999999999973e+03
8.300000000000000433e-02 2.149254999999999916e-01 1.506640000000000157e+01 8.454030000000000200e+01 1.980289999999999964e+03
8.400000000000000522e-02 2.150730000000000142e-01 1.640019999999999811e+01 8.733760000000000900e+01 1.981150000000000091e+03
8.500000000000000611e-02 2.152155000000000040e-01 1.765360000000000085e+01 9.001859999999999218e+01 1.981974999999999909e+03
8.600000000000000699e-02 2.153535000000000033e-01 1.882824999999999704e+01 9.260409999999998831e+01 1.982779999999999973e+03
8.700000000000000788e-02 2.154874999999999985e-01 1.992745000000000033e+01 9.511629999999999541e+01 1.983554999999999836e+03
8.800000000000000877e-02 2.156180000000000041e-01 2.095554999999999879e+01 9.757614999999999839e+01 1.984320000000000164e+03
8.899999999999999578e-02 2.157459999999999933e-01 2.191720000000000113e+01 1.000016999999999996e+02 1.985069999999999936e+03
8.999999999999999667e-02 2.158724999999999949e-01 2.281660000000000110e+01 1.024059499999999900e+02 1.985809999999999945e+03
9.099999999999999756e-02 2.159984999999999822e-01 2.365695000000000192e+01 1.047964999999999947e+02 1.986545000000000073e+03
9.199999999999999845e-02 2.161230000000000095e-01 2.444059999999999988e+01 1.071754999999999995e+02 1.987275000000000091e+03
9.299999999999999933e-02 2.162465000000000082e-01 2.516844999999999999e+01 1.095395000000000039e+02 1.987994999999999891e+03
9.400000000000000022e-02 2.163694999999999924e-01 2.584025000000000105e+01 1.118795000000000073e+02 1.988720000000000027e+03
9.500000000000000111e-02 2.164909999999999890e-01 2.645455000000000112e+01 1.141829999999999927e+02 1.989429999999999836e+03
9.600000000000000200e-02 2.166104999999999836e-01 2.700880000000000081e+01 1.164350000000000023e+02 1.990130000000000109e+03
9.700000000000000289e-02 2.167275000000000174e-01 2.749960000000000093e+01 1.186179999999999950e+02 1.990815000000000055e+03
9.800000000000000377e-02 2.168404999999999916e-01 2.792285000000000039e+01 1.207119999999999891e+02 1.991480000000000018e+03
9.900000000000000466e-02 2.169494999999999896e-01 2.827389999999999759e+01 1.226984999999999957e+02 1.992119999999999891e+03
1.000000000000000056e-01 2.170529999999999959e-01 2.854789999999999850e+01 1.245575000000000045e+02 1.992730000000000018e+03
1.010000000000000064e-01 2.171504999999999963e-01 2.874009999999999820e+01 1.262710000000000008e+02 1.993305000000000064e+03
1.020000000000000073e-01 2.172405000000000030e-01 2.884570000000000078e+01 1.278220000000000027e+02 1.993835000000000036e+03
1.030000000000000082e-01 2.173229999999999884e-01 2.886080000000000112e+01 1.291945000000000050e+02 1.994325000000000045e+03
1.040000000000000091e-01 2.173964999999999925e-01 2.878204999999999814e+01 1.303770000000000095e+02 1.994759999999999991e+03
1.050000000000000100e-01 2.174605000000000010e-01 2.860739999999999839e+01 1.313594999999999970e+02 1.995139999999999873e+03
1.059999999999999970e-01 2.175144999999999995e-01 2.833624999999999972e+01 1.321365000000000123e+02 1.995469999999999800e+03
1.069999999999999979e-01 2.175595000000000168e-01 2.796954999999999814e+01 1.327079999999999984e+02 1.995735000000000127e+03
1.079999999999999988e-01 2.175934999999999953e-01 2.751010000000000133e+01 1.330760000000000218e+02 1.995940000000000055e+03
1.089999999999999997e-01 2.176180000000000059e-01 2.696260000000000190e+01 1.332485000000000070e+02 1.996094999999999800e+03
1.100000000000000006e-01 2.176325000000000065e-01 2.633350000000000080e+01 1.332384999999999877e+02 1.996190000000000055e+03
1.110000000000000014e-01 2.176385000000000125e-01 2.563094999999999857e+01 1.330620000000000118e+02 1.996235000000000127e+03
1.120000000000000023e-01 2.176359999999999961e-01 2.486469999999999914e+01 1.327384999999999877e+02 1.996220000000000027e+03
1.130000000000000032e-01 2.176259999999999861e-01 2.404550000000000054e+01 1.322909999999999968e+02 1.996170000000000073e+03
1.140000000000000041e-01 2.176095000000000113e-01 2.318489999999999895e+01 1.317420000000000186e+02 1.996085000000000036e+03
1.150000000000000050e-01 2.175880000000000036e-01 2.229489999999999839e+01 1.311169999999999902e+02 1.995960000000000036e+03
1.160000000000000059e-01 2.175620000000000054e-01 2.138739999999999952e+01 1.304395000000000095e+02 1.995815000000000055e+03
1.170000000000000068e-01 2.175334999999999908e-01 2.047395000000000209e+01 1.297314999999999827e+02 1.995650000000000091e+03
1.180000000000000077e-01 2.175024999999999875e-01 1.956524999999999892e+01 1.290140000000000100e+02 1.995474999999999909e+03
1.190000000000000085e-01 2.174705000000000110e-01 1.867099999999999937e+01 1.283035000000000139e+02 1.995289999999999964e+03
1.200000000000000094e-01 2.174379999999999924e-01 1.779945000000000022e+01 1.276144999999999925e+02 1.995099999999999909e+03
1.209999999999999964e-01 2.174065000000000025e-01 1.695734999999999815e+01 1.269575000000000102e+02 1.994914999999999964e+03
1.219999999999999973e-01 2.173760000000000137e-01 1.614970000000000283e+01 1.263389999999999986e+02 1.994734999999999900e+03
1.229999999999999982e-01 2.173464999999999980e-01 1.537989999999999924e+01 1.257614999999999839e+02 1.994559999999999945e+03
1.239999999999999991e-01 2.173184999999999978e-01 1.464930000000000021e+01 1.252245000000000061e+02 1.994394999999999982e+03
1.250000000000000000e-01 2.172919999999999852e-01 1.395785000000000053e+01 1.247230000000000132e+02 1.994240000000000009e+03
1.260000000000000009e-01 2.172669999999999879e-01 1.330380000000000074e+01 1.242489999999999952e+02 1.994090000000000146e+03
1.270000000000000018e-01 2.172425000000000050e-01 1.268404999999999916e+01 1.237940000000000111e+02 1.993944999999999936e+03
1.280000000000000027e-01 2.172189999999999954e-01 1.209434999999999860e+01 1.233449999999999989e+02 1.993805000000000064e+03
1.290000000000000036e-01 2.171960000000000002e-01 1.152960000000000029e+01 1.228894999999999982e+02 1.993664999999999964e+03
1.300000000000000044e-01 2.171715000000000173e-01 1.098410499999999956e+01 1.224139999999999873e+02 1.993519999999999982e+03
1.310000000000000053e-01 2.171465000000000201e-01 1.045199500000000015e+01 1.219044999999999987e+02 1.993369999999999891e+03
1.320000000000000062e-01 2.171200000000000074e-01 9.927400000000000446e+00 1.213495000000000061e+02 1.993210000000000036e+03
1.330000000000000071e-01 2.170905000000000196e-01 9.404795000000000016e+00 1.207379999999999995e+02 1.993039999999999964e+03
1.340000000000000080e-01 2.170590000000000019e-01 8.879355000000000331e+00 1.200604999999999905e+02 1.992849999999999909e+03
1.350000000000000089e-01 2.170239999999999947e-01 8.347194999999999254e+00 1.193110000000000070e+02 1.992650000000000091e+03
1.360000000000000098e-01 2.169854999999999978e-01 7.805505000000000138e+00 1.184869999999999948e+02 1.992424999999999955e+03
1.370000000000000107e-01 2.169439999999999980e-01 7.252774999999999750e+00 1.175885000000000105e+02 1.992184999999999945e+03
1.380000000000000115e-01 2.168984999999999941e-01 6.688900000000000290e+00 1.166185000000000116e+02 1.991920000000000073e+03
1.390000000000000124e-01 2.168499999999999872e-01 6.115169999999999995e+00 1.155844999999999914e+02 1.991634999999999991e+03
1.400000000000000133e-01 2.167979999999999907e-01 5.534275000000000055e+00 1.144959999999999951e+02 1.991335000000000036e+03
1.410000000000000142e-01 2.167439999999999922e-01 4.950165000000000148e+00 1.133650000000000091e+02 1.991019999999999982e+03
1.420000000000000151e-01 2.166875000000000051e-01 4.367899999999999672e+00 1.122069999999999936e+02 1.990690000000000055e+03
1.430000000000000160e-01 2.166299999999999892e-01 3.793404999999999916e+00 1.110390000000000015e+02 1.990355000000000018e+03
1.440000000000000169e-01 2.165719999999999867e-01 3.233214999999999950e+00 1.098780000000000001e+02 1.990019999999999982e+03
1.450000000000000178e-01 2.165140000000000120e-01 2.694170000000000176e+00 1.087419999999999902e+02 1.989679999999999836e+03
1.459999999999999909e-01 2.164575000000000249e-01 2.183087999999999695e+00 1.076475000000000080e+02 1.989349999999999909e+03
1.469999999999999918e-01 2.164030000000000120e-01 1.706493000000000038e+00 1.066109999999999900e+02 1.989029999999999973e+03
1.479999999999999927e-01 2.163505000000000011e-01 1.270311500000000038e+00 1.056465000000000032e+02 1.988724999999999909e+03
1.489999999999999936e-01 2.163014999999999799e-01 8.796379999999999200e-01 1.047644999999999982e+02 1.988440000000000055e+03
1.499999999999999944e-01 2.162564999999999904e-01 5.385459999999999692e-01 1.039749999999999943e+02 1.988174999999999955e+03
1.509999999999999953e-01 2.162160000000000193e-01 2.499470000000000303e-01 1.032830000000000013e+02 1.987934999999999945e+03
1.519999999999999962e-01 2.161790000000000100e-01 1.553000000000004377e-02 1.026910000000000025e+02 1.987720000000000027e+03
1.529999999999999971e-01 2.161480000000000068e-01 -1.642925000000000080e-01 1.021995000000000005e+02 1.987534999999999854e+03
1.539999999999999980e-01 2.161210000000000075e-01 -2.903200000000000225e-01 1.018050000000000068e+02 1.987369999999999891e+03
1.549999999999999989e-01 2.160984999999999989e-01 -3.644994999999999763e-01 1.015024999999999977e+02 1.987235000000000127e+03
1.559999999999999998e-01 2.160809999999999953e-01 -3.898071899999999701e-01 1.012839999999999918e+02 1.987130000000000109e+03
1.570000000000000007e-01 2.160670000000000091e-01 -3.701059999999999905e-01 1.011415000000000077e+02 1.987045000000000073e+03
1.580000000000000016e-01 2.160575000000000134e-01 -3.099844999999999962e-01 1.010635000000000048e+02 1.986985000000000127e+03
1.590000000000000024e-01 2.160504999999999787e-01 -2.145865499999999870e-01 1.010400000000000063e+02 1.986940000000000055e+03
