# t [s], A [cm^2], U [cm/s], P [cPa], c [cm/s]
1.000000000000000021e-03 7.939214999999999467e-01 6.266999999999994797e-03 1.008305000000000007e+02 1.791154999999999973e+03
2.000000000000000042e-03 7.939125000000000210e-01 4.201000000000000741e-03 1.008000000000000114e+02 1.791150000000000091e+03
3.000000000000000062e-03 7.939950000000000063e-01 1.387760999999999856e-01 1.009635499999999979e+02 1.791184999999999945e+03
4.000000000000000083e-03 7.940325000000000299e-01 2.205815000000000137e-01 1.010657500000000084e+02 1.791210000000000036e+03
5.000000000000000104e-03 7.939594999999999292e-01 1.371584999999999888e-01 1.008799999999999955e+02 1.791174999999999955e+03
6.000000000000000125e-03 7.938735000000000097e-01 2.332800000000001539e-02 1.005490000000000066e+02 1.791099999999999909e+03
7.000000000000000146e-03 7.937784999999999425e-01 -1.186450000000000005e-01 1.001102500000000077e+02 1.791010000000000218e+03
8.000000000000000167e-03 7.936024999999999885e-01 -4.094950000000000534e-01 9.939594999999999914e+01 1.790855000000000018e+03
9.000000000000001055e-03 7.933360000000000412e-01 -8.662600000000000300e-01 9.832989999999999498e+01 1.790625000000000000e+03
1.000000000000000194e-02 7.929559999999999942e-01 -1.512699999999999712e+00 9.682410000000000139e+01 1.790309999999999945e+03
1.099999999999999936e-02 7.924400000000000333e-01 -2.367634999999999934e+00 9.478685000000000116e+01 1.789860000000000127e+03
1.200000000000000025e-02 7.918354999999999144e-01 -3.324195000000000455e+00 9.230570000000000164e+01 1.789309999999999945e+03
1.300000000000000114e-02 7.912570000000000991e-01 -4.160311000000000092e+00 8.968365000000000009e+01 1.788704999999999927e+03
1.400000000000000203e-02 7.908009999999999762e-01 -4.672047249999999430e+00 8.727264999999999873e+01 1.788125000000000000e+03
1.499999999999999944e-02 7.904919999999999725e-01 -4.778095000000000425e+00 8.528675000000001205e+01 1.787605000000000018e+03
1.600000000000000033e-02 7.902875000000000316e-01 -4.530780000000000030e+00 8.373304999999999154e+01 1.787164999999999964e+03
1.700000000000000122e-02 7.901080000000000325e-01 -4.063064999999999927e+00 8.245329999999999870e+01 1.786784999999999854e+03
1.800000000000000211e-02 7.898825000000000429e-01 -3.517305000000000348e+00 8.122315000000000396e+01 1.786414999999999964e+03
1.900000000000000300e-02 7.895729999999999693e-01 -2.986900499999999958e+00 7.985710000000000264e+01 1.786025000000000091e+03
2.000000000000000042e-02 7.891839999999999966e-01 -2.490206500000000212e+00 7.827815000000001078e+01 1.785595000000000027e+03
2.100000000000000130e-02 7.887539999999999552e-01 -1.983935000000000226e+00 7.652684999999999604e+01 1.785125000000000000e+03
2.200000000000000219e-02 7.883264999999999301e-01 -1.405065000000000230e+00 7.471340000000000714e+01 1.784634999999999991e+03
2.299999999999999961e-02 7.879309999999999370e-01 -7.168849999999997724e-01 7.294384999999999764e+01 1.784154999999999973e+03
2.400000000000000050e-02 7.875634999999999719e-01 6.246000000000018204e-02 7.125915000000000532e+01 1.783690000000000055e+03
2.500000000000000139e-02 7.871934999999999905e-01 8.566449999999998788e-01 6.960784999999999911e+01 1.783224999999999909e+03
2.600000000000000228e-02 7.867714999999999570e-01 1.549755000000000216e+00 6.785630000000000450e+01 1.782750000000000000e+03
2.700000000000000316e-02 7.862450000000000827e-01 2.018219999999999903e+00 6.582935000000000514e+01 1.782215000000000146e+03
2.800000000000000058e-02 7.855799999999999450e-01 2.166439999999999699e+00 6.336714999999999520e+01 1.781590000000000146e+03
2.900000000000000147e-02 7.847684999999999800e-01 1.955374999999999641e+00 6.038195000000000334e+01 1.780865000000000009e+03
3.000000000000000236e-02 7.838380000000000347e-01 1.414235000000000131e+00 5.689410000000000167e+01 1.780025000000000091e+03
3.099999999999999978e-02 7.828405000000000502e-01 6.311999999999997613e-01 5.303555000000000064e+01 1.779099999999999909e+03
3.200000000000000067e-02 7.818435000000000246e-01 -2.716099999999999071e-01 4.902134999999999820e+01 1.778134999999999991e+03
3.300000000000000155e-02 7.809109999999999108e-01 -1.167525000000000368e+00 4.510325000000000273e+01 1.777170000000000073e+03
3.400000000000000244e-02 7.800960000000000116e-01 -1.949455000000000382e+00 4.152280000000000371e+01 1.776264999999999873e+03
3.500000000000000333e-02 7.794320000000000137e-01 -2.542490000000000361e+00 3.847650000000000148e+01 1.775474999999999909e+03
3.600000000000000422e-02 7.789364999999999206e-01 -2.906015000000000015e+00 3.609700000000000131e+01 1.774825000000000045e+03
3.700000000000000511e-02 7.786120000000000818e-01 -3.027614999999999945e+00 3.445120000000000005e+01 1.774340000000000146e+03
3.799999999999999906e-02 7.784515000000000740e-01 -2.912649999999999739e+00 3.355060000000000286e+01 1.774029999999999973e+03
3.899999999999999994e-02 7.784439999999999138e-01 -2.573240000000000194e+00 3.336925000000000097e+01 1.773894999999999982e+03
4.000000000000000083e-02 7.785789999999999100e-01 -2.019835500000000117e+00 3.386220000000000141e+01 1.773925000000000182e+03
4.100000000000000172e-02 7.788479999999999848e-01 -1.257349999999999968e+00 3.498040000000000305e+01 1.774119999999999891e+03
4.200000000000000261e-02 7.792455000000000354e-01 -2.862199999999996969e-01 3.667795000000000272e+01 1.774460000000000036e+03
4.300000000000000350e-02 7.797640000000000127e-01 8.930400000000000560e-01 3.891199999999999903e+01 1.774934999999999945e+03
4.400000000000000439e-02 7.803944999999999910e-01 2.274110000000000298e+00 4.163755000000000450e+01 1.775545000000000073e+03
4.499999999999999833e-02 7.811255000000000281e-01 3.840320000000000178e+00 4.480109999999999815e+01 1.776269999999999982e+03
4.599999999999999922e-02 7.819380000000000219e-01 5.562775000000000247e+00 4.833605000000000018e+01 1.777094999999999800e+03
4.700000000000000011e-02 7.828110000000000346e-01 7.401720000000000077e+00 5.216145000000000209e+01 1.778000000000000000e+03
4.800000000000000100e-02 7.837220000000000297e-01 9.309805000000000774e+00 5.618580000000000041e+01 1.778965000000000146e+03
4.900000000000000189e-02 7.846465000000000245e-01 1.123742500000000000e+01 6.031295000000000073e+01 1.779965000000000146e+03
5.000000000000000278e-02 7.855639999999999290e-01 1.313743499999999997e+01 6.445029999999999859e+01 1.780990000000000009e+03
5.100000000000000366e-02 7.864575000000000315e-01 1.496978499999999990e+01 6.851659999999999684e+01 1.782009999999999991e+03
5.200000000000000455e-02 7.873149999999999871e-01 1.670408000000000115e+01 7.244830000000000325e+01 1.783009999999999991e+03
5.300000000000000544e-02 7.881299999999999972e-01 1.832079999999999842e+01 7.620319999999999538e+01 1.783980000000000018e+03
5.399999999999999939e-02 7.889024999999999510e-01 1.981080000000000041e+01 7.976130000000000564e+01 1.784909999999999854e+03
5.500000000000000028e-02 7.896350000000000868e-01 2.117425000000000068e+01 8.312319999999999709e+01 1.785795000000000073e+03
5.600000000000000117e-02 7.903340000000000920e-01 2.241825000000000045e+01 8.630705000000000382e+01 1.786640000000000100e+03
5.700000000000000205e-02 7.910070000000000157e-01 2.355499999999999972e+01 8.934379999999998745e+01 1.787454999999999927e+03
5.800000000000000294e-02 7.916639999999999233e-01 2.459984999999999999e+01 9.227270000000000039e+01 1.788240000000000009e+03
5.900000000000000383e-02 7.923145000000000326e-01 2.556929999999999836e+01 9.513604999999999734e+01 1.789009999999999991e+03
6.000000000000000472e-02 7.929669999999999774e-01 2.647939999999999827e+01 9.797520000000000095e+01 1.789769999999999982e+03
6.099999999999999867e-02 7.936285000000000700e-01 2.734440000000000026e+01 1.008257499999999993e+02 1.790525000000000091e+03
6.199999999999999956e-02 7.943035000000000512e-01 2.817510000000000048e+01 1.037158000000000015e+02 1.791295000000000073e+03
6.300000000000000044e-02 7.949935000000000196e-01 2.897845000000000226e+01 1.066610000000000014e+02 1.792070000000000164e+03
6.400000000000000133e-02 7.956980000000000164e-01 2.975625000000000142e+01 1.096630000000000109e+02 1.792855000000000018e+03
6.500000000000000222e-02 7.964130000000000376e-01 3.050570000000000093e+01 1.127125000000000057e+02 1.793654999999999973e+03
6.600000000000000311e-02 7.971314999999999928e-01 3.121950000000000003e+01 1.157849999999999966e+02 1.794460000000000036e+03
6.700000000000000400e-02 7.978454999999999853e-01 3.188719999999999999e+01 1.188495000000000061e+02 1.795269999999999982e+03
6.800000000000000488e-02 7.985440000000000316e-01 3.249584999999999724e+01 1.218654999999999973e+02 1.796059999999999945e+03
6.900000000000000577e-02 7.992179999999999840e-01 3.303195000000000192e+01 1.247889999999999873e+02 1.796840000000000146e+03
7.000000000000000666e-02 7.998579999999999579e-01 3.348224999999999341e+01 1.275780000000000030e+02 1.797585000000000036e+03
7.100000000000000755e-02 8.004549999999999166e-01 3.383504999999999541e+01 1.301904999999999859e+02 1.798289999999999964e+03
7.200000000000000844e-02 8.010014999999999219e-01 3.408079999999999643e+01 1.325925000000000011e+02 1.798944999999999936e+03
7.300000000000000933e-02 8.014935000000000809e-01 3.421300000000000097e+01 1.347565000000000168e+02 1.799545000000000073e+03
7.399999999999999634e-02 8.019264999999999866e-01 3.422800000000000153e+01 1.366634999999999991e+02 1.800085000000000036e+03
7.499999999999999722e-02 8.022990000000000954e-01 3.412569999999999482e+01 1.383040000000000020e+02 1.800559999999999945e+03
7.599999999999999811e-02 8.026115000000000332e-01 3.390914999999999679e+01 1.396759999999999877e+02 1.800965000000000146e+03
7.699999999999999900e-02 8.028664999999999274e-01 3.358474999999999966e+01 1.407880000000000109e+02 1.801300000000000182e+03
7.799999999999999989e-02 8.030684999999999629e-01 3.316179999999999950e+01 1.416544999999999845e+02 1.801570000000000164e+03
7.900000000000000078e-02 8.032224999999999504e-01 3.265220000000000056e+01 1.422980000000000018e+02 1.801784999999999854e+03
8.000000000000000167e-02 8.033339999999999925e-01 3.207009999999999650e+01 1.427464999999999975e+02 1.801950000000000045e+03
8.100000000000000255e-02 8.034114999999999451e-01 3.143124999999999858e+01 1.430310000000000059e+02 1.802065000000000055e+03
8.200000000000000344e-02 8.034630000000000383e-01 3.075224999999999653e+01 1.431860000000000070e+02 1.802140000000000100e+03
8.300000000000000433e-02 8.034945000000000004e-01 3.004970000000000141e+01 1.432459999999999809e+02 1.802190000000000055e+03
8.400000000000000522e-02 8.035139999999999505e-01 2.933970000000000056e+01 1.432444999999999879e+02 1.802215000000000146e+03
8.500000000000000611e-02 8.035289999999999377e-01 2.863645000000000351e+01 1.432125000000000057e+02 1.802230000000000018e+03
8.600000000000000699e-02 8.035434999999999661e-01 2.795224999999999937e+01 1.431770000000000209e+02 1.802235000000000127e+03
8.700000000000000788e-02 8.035619999999999985e-01 2.729630000000000223e+01 1.431574999999999989e+02 1.802240000000000009e+03
8.800000000000000877e-02 8.035879999999999690e-01 2.667470000000000141e+01 1.431694999999999993e+02 1.802250000000000000e+03
8.899999999999999578e-02 8.036205000000000709e-01 2.609009999999999962e+01 1.432199999999999989e+02 1.802264999999999873e+03
8.999999999999999667e-02 8.036600000000000410e-01 2.554200000000000159e+01 1.433089999999999975e+02 1.802280000000000200e+03
9.099999999999999756e-02 8.037045000000000439e-01 2.502685000000000315e+01 1.434309999999999832e+02 1.802309999999999945e+03
9.199999999999999845e-02 8.037505000000000344e-01 2.453865000000000052e+01 1.435745000000000005e+02 1.802345000000000027e+03
9.299999999999999933e-02 8.037944999999999673e-01 2.406944999999999979e+01 1.437249999999999943e+02 1.802380000000000109e+03
9.400000000000000022e-02 8.038330000000000197e-01 2.360999999999999943e+01 1.438620000000000232e+02 1.802410000000000082e+03
9.500000000000000111e-02 8.038600000000000190e-01 2.315050000000000097e+01 1.439675000000000011e+02 1.802434999999999945e+03
9.600000000000000200e-02 8.038724999999999898e-01 2.268110000000000070e+01 1.440199999999999818e+02 1.802450000000000045e+03
9.700000000000000289e-02 8.038655000000000106e-01 2.219284999999999997e+01 1.440029999999999859e+02 1.802450000000000045e+03
9.800000000000000377e-02 8.038369999999999127e-01 2.167774999999999963e+01 1.438994999999999891e+02 1.802429999999999836e+03
9.900000000000000466e-02 8.037844999999999018e-01 2.112989999999999924e+01 1.436984999999999957e+02 1.802384999999999991e+03
1.000000000000000056e-01 8.037069999999999492e-01 2.054545000000000243e+01 1.433930000000000007e+02 1.802319999999999936e+03
1.010000000000000064e-01 8.036045000000000549e-01 1.992304999999999993e+01 1.429809999999999945e+02 1.802219999999999800e+03
1.020000000000000073e-01 8.034794999999999021e-01 1.926419999999999888e+01 1.424660000000000082e+02 1.802105000000000018e+03
1.030000000000000082e-01 8.033345000000000624e-01 1.857294999999999874e+01 1.418580000000000041e+02 1.801960000000000036e+03
1.040000000000000091e-01 8.031725000000000669e-01 1.785575000000000045e+01 1.411719999999999970e+02 1.801795000000000073e+03
1.050000000000000100e-01 8.029990000000000183e-01 1.712134999999999962e+01 1.404269999999999925e+02 1.801615000000000009e+03
1.059999999999999970e-01 8.028199999999999781e-01 1.638015000000000043e+01 1.396460000000000150e+02 1.801425000000000182e+03
1.069999999999999979e-01 8.026409999999999378e-01 1.564375000000000071e+01 1.388545000000000016e+02 1.801230000000000018e+03
1.079999999999999988e-01 8.024679999999999591e-01 1.492429999999999879e+01 1.380785000000000196e+02 1.801034999999999854e+03
1.089999999999999997e-01 8.023074999999999513e-01 1.423374999999999879e+01 1.373449999999999989e+02 1.800845000000000027e+03
1.100000000000000006e-01 8.021635000000000293e-01 1.358335500000000096e+01 1.366765000000000043e+02 1.800670000000000073e+03
1.110000000000000014e-01 8.020419999999999217e-01 1.298302999999999940e+01 1.360964999999999918e+02 1.800514999999999873e+03
1.120000000000000023e-01 8.019460000000000477e-01 1.244078499999999998e+01 1.356214999999999975e+02 1.800380000000000109e+03
1.130000000000000032e-01 8.018764999999999921e-01 1.196263000000000076e+01 1.352640000000000100e+02 1.800275000000000091e+03
1.140000000000000041e-01 8.018365000000000631e-01 1.155193500000000029e+01 1.350305000000000177e+02 1.800200000000000045e+03
1.150000000000000050e-01 8.018244999999999401e-01 1.120964000000000027e+01 1.349234999999999900e+02 1.800150000000000091e+03
1.160000000000000059e-01 8.018395000000000383e-01 1.093437499999999929e+01 1.349385000000000048e+02 1.800134999999999991e+03
1.170000000000000068e-01 8.018790000000000084e-01 1.072242999999999924e+01 1.350685000000000002e+02 1.800150000000000091e+03
1.180000000000000077e-01 8.019399999999999862e-01 1.056831000000000031e+01 1.352995000000000232e+02 1.800190000000000055e+03
1.190000000000000085e-01 8.020190000000000374e-01 1.046495499999999979e+01 1.356164999999999736e+02 1.800250000000000000e+03
1.200000000000000094e-01 8.021110000000000184e-01 1.040452999999999939e+01 1.360020000000000095e+02 1.800335000000000036e+03
1.209999999999999964e-01 8.022130000000000649e-01 1.037836000000000070e+01 1.364375000000000000e+02 1.800429999999999836e+03
1.219999999999999973e-01 8.023199999999999221e-01 1.037779499999999899e+01 1.369039999999999964e+02 1.800534999999999854e+03
1.229999999999999982e-01 8.024284999999999890e-01 1.039451500000000017e+01 1.373849999999999909e+02 1.800650000000000091e+03
1.239999999999999991e-01 8.025349999999999984e-01 1.042063999999999879e+01 1.378644999999999925e+02 1.800764999999999873e+03
1.250000000000000000e-01 8.026370000000000449e-01 1.044921000000000078e+01 1.383280000000000030e+02 1.800880000000000109e+03
1.260000000000000009e-01 8.027329999999999188e-01 1.047429999999999950e+01 1.387659999999999911e+02 1.800990000000000009e+03
1.270000000000000018e-01 8.028199999999999781e-01 1.049091500000000110e+01 1.391705000000000041e+02 1.801090000000000146e+03
1.280000000000000027e-01 8.028984999999999594e-01 1.049544999999999995e+01 1.395344999999999800e+02 1.801190000000000055e+03
1.290000000000000036e-01 8.029675000000000562e-01 1.048528500000000108e+01 1.398565000000000111e+02 1.801275000000000091e+03
1.300000000000000044e-01 8.030275000000000052e-01 1.045901500000000084e+01 1.401354999999999791e+02 1.801349999999999909e+03
1.310000000000000053e-01 8.030779999999999585e-01 1.041624999999999979e+01 1.403734999999999786e+02 1.801420000000000073e+03
1.320000000000000062e-01 8.031209999999999738e-01 1.035744500000000023e+01 1.405740000000000123e+02 1.801474999999999909e+03
1.330000000000000071e-01 8.031570000000000098e-01 1.028392999999999979e+01 1.407409999999999854e+02 1.801525000000000091e+03
1.340000000000000080e-01 8.031880000000000130e-01 1.019769499999999951e+01 1.408810000000000002e+02 1.801570000000000164e+03
1.350000000000000089e-01 8.032150000000000123e-01 1.010116000000000014e+01 1.409995000000000118e+02 1.801605000000000018e+03
1.360000000000000098e-01 8.032394999999999952e-01 9.997044999999999959e+00 1.411034999999999968e+02 1.801639999999999873e+03
1.370000000000000107e-01 8.032630000000000603e-01 9.888270000000000337e+00 1.411985000000000241e+02 1.801664999999999964e+03
1.380000000000000115e-01 8.032865000000000144e-01 9.777509999999999479e+00 1.412905000000000086e+02 1.801695000000000164e+03
1.390000000000000124e-01 8.033109999999999973e-01 9.667410000000000281e+00 1.413845000000000027e+02 1.801720000000000027e+03
1.400000000000000133e-01 8.033369999999999678e-01 9.560095000000000454e+00 1.414834999999999923e+02 1.801750000000000000e+03
1.410000000000000142e-01 8.033650000000001068e-01 9.457254999999999967e+00 1.415905000000000200e+02 1.801779999999999973e+03
1.420000000000000151e-01 8.033959999999999990e-01 9.360044999999999504e+00 1.417065000000000055e+02 1.801809999999999945e+03
1.430000000000000160e-01 8.034280000000000310e-01 9.269110000000001293e+00 1.418315000000000055e+02 1.801845000000000027e+03
1.440000000000000169e-01 8.034624999999999684e-01 9.184429999999998984e+00 1.419635000000000105e+02 1.801875000000000000e+03
1.450000000000000178e-01 8.034970000000000168e-01 9.105574999999999974e+00 1.421005000000000109e+02 1.801909999999999854e+03
1.459999999999999909e-01 8.035320000000000240e-01 9.031805000000000305e+00 1.422390000000000043e+02 1.801949999999999818e+03
1.469999999999999918e-01 8.035660000000000025e-01 8.962035000000000196e+00 1.423754999999999882e+02 1.801985000000000127e+03
1.479999999999999927e-01 8.035984999999999934e-01 8.895134999999999792e+00 1.425060000000000002e+02 1.802019999999999982e+03
1.489999999999999936e-01 8.036280000000000090e-01 8.830004999999999882e+00 1.426274999999999977e+02 1.802050000000000182e+03
1.499999999999999944e-01 8.036544999999999384e-01 8.765654999999998864e+00 1.427365000000000066e+02 1.802079999999999927e+03
1.509999999999999953e-01 8.036769999999999747e-01 8.701394999999999769e+00 1.428310000000000173e+02 1.802110000000000127e+03
1.519999999999999962e-01 8.036965000000000359e-01 8.636814999999998577e+00 1.429095000000000084e+02 1.802125000000000000e+03
1.529999999999999971e-01 8.037114999999999121e-01 8.571899999999999409e+00 1.429724999999999966e+02 1.802144999999999982e+03
1.539999999999999980e-01 8.037229999999999652e-01 8.506959999999999411e+00 1.430199999999999818e+02 1.802159999999999854e+03
1.549999999999999989e-01 8.037320000000000020e-01 8.442650000000000432e+00 1.430545000000000186e+02 1.802170000000000073e+03
1.559999999999999998e-01 8.037389999999999812e-01 8.379934999999999690e+00 1.430790000000000077e+02 1.802179999999999836e+03
1.570000000000000007e-01 8.037445000000000839e-01 8.320029999999999148e+00 1.430964999999999918e+02 1.802184999999999945e+03
1.580000000000000016e-01 8.037490000000000467e-01 8.264334999999999098e+00 1.431125000000000114e+02 1.802190000000000055e+03
1.590000000000000024e-01 8.037549999999999972e-01 8.214385000000000048e+00 1.431304999999999836e+02 1.802194999999999936e+03
