# t [s], A [cm^2], U [cm/s], P [cPa], c [cm/s]
1.000000000000000021e-03 7.109309999999999796e-01 2.387000000000000233e-03 1.035964999999999918e+02 1.630154999999999973e+03
2.000000000000000042e-03 7.109324999999999672e-01 2.015089999999999937e-02 1.035829999999999984e+02 1.630150000000000091e+03
3.000000000000000062e-03 7.110269999999999646e-01 1.796674500000000063e-01 1.037570000000000050e+02 1.630194999999999936e+03
4.000000000000000083e-03 7.110454999999999970e-01 2.298465000000000091e-01 1.038089999999999975e+02 1.630210000000000036e+03
5.000000000000000104e-03 7.109604999999999952e-01 1.127119999999999789e-01 1.035705000000000098e+02 1.630159999999999854e+03
6.000000000000000125e-03 7.108615000000000350e-01 -3.905499999999995087e-02 1.031680000000000064e+02 1.630069999999999936e+03
7.000000000000000146e-03 7.107204999999999773e-01 -2.751850000000000129e-01 1.025660000000000025e+02 1.629934999999999945e+03
8.000000000000000167e-03 7.104725000000000623e-01 -7.030100000000000238e-01 1.015995000000000061e+02 1.629719999999999800e+03
9.000000000000001055e-03 7.101180000000000270e-01 -1.313400000000000123e+00 1.002094500000000039e+02 1.629404999999999973e+03
1.000000000000000194e-02 7.096390000000000198e-01 -2.112694999999999990e+00 9.833254999999999768e+01 1.628970000000000027e+03
1.099999999999999936e-02 7.090110000000000579e-01 -3.109725000000000072e+00 9.589850000000001273e+01 1.628394999999999982e+03
1.200000000000000025e-02 7.082800000000000207e-01 -4.192549999999999777e+00 9.299649999999999750e+01 1.627684999999999945e+03
1.300000000000000114e-02 7.075659999999999172e-01 -5.119941500000000367e+00 8.994120000000000914e+01 1.626920000000000073e+03
1.400000000000000203e-02 7.069860000000000033e-01 -5.649449500000000235e+00 8.713679999999999382e+01 1.626180000000000064e+03
1.499999999999999944e-02 7.065919999999999979e-01 -5.661810000000000009e+00 8.487720000000000198e+01 1.625529999999999973e+03
1.600000000000000033e-02 7.063559999999999839e-01 -5.196930000000000049e+00 8.323555000000000348e+01 1.625000000000000000e+03
1.700000000000000122e-02 7.061945000000000583e-01 -4.413280000000000314e+00 8.206730000000000302e+01 1.624579999999999927e+03
1.800000000000000211e-02 7.060134999999999605e-01 -3.511025000000000063e+00 8.109624999999999773e+01 1.624210000000000036e+03
1.900000000000000300e-02 7.057409999999999517e-01 -2.653233999999999870e+00 8.003605000000000302e+01 1.623835000000000036e+03
2.000000000000000042e-02 7.053555000000000241e-01 -1.914439999999999920e+00 7.869809999999999661e+01 1.623414999999999964e+03
2.100000000000000130e-02 7.048794999999999922e-01 -1.277234999999999898e+00 7.703974999999999795e+01 1.622925000000000182e+03
2.200000000000000219e-02 7.043589999999999574e-01 -6.734250000000003844e-01 7.513745000000000118e+01 1.622384999999999991e+03
2.299999999999999961e-02 7.038349999999999884e-01 -4.161999999999999034e-02 7.311154999999999404e+01 1.621804999999999836e+03
2.400000000000000050e-02 7.033205000000000151e-01 6.291799999999998505e-01 7.104814999999999259e+01 1.621204999999999927e+03
2.500000000000000139e-02 7.027989999999999515e-01 1.284669999999999757e+00 6.895035000000000025e+01 1.620595000000000027e+03
2.600000000000000228e-02 7.022284999999999222e-01 1.817460000000000075e+00 6.672934999999999661e+01 1.619949999999999818e+03
2.700000000000000316e-02 7.015569999999999862e-01 2.097374999999999989e+00 6.423120000000000118e+01 1.619244999999999891e+03
2.800000000000000058e-02 7.007380000000000830e-01 2.009065000000000545e+00 6.128705000000000069e+01 1.618434999999999945e+03
2.900000000000000147e-02 6.997504999999999420e-01 1.486194999999999489e+00 5.777179999999999893e+01 1.617505000000000109e+03
3.000000000000000236e-02 6.986029999999999740e-01 5.330000000000003624e-01 5.365290000000000248e+01 1.616429999999999836e+03
3.099999999999999978e-02 6.973384999999999723e-01 -7.737499999999997158e-01 4.901480000000000103e+01 1.615230000000000018e+03
3.200000000000000067e-02 6.960224999999999884e-01 -2.300749999999999851e+00 4.405214999999999748e+01 1.613940000000000055e+03
3.300000000000000155e-02 6.947335000000000038e-01 -3.885824999999999640e+00 3.903744999999999976e+01 1.612615000000000009e+03
3.400000000000000244e-02 6.935489999999999711e-01 -5.366690000000000182e+00 3.427514999999999645e+01 1.611340000000000146e+03
3.500000000000000333e-02 6.925345000000000528e-01 -6.604320000000000412e+00 3.005600000000000094e+01 1.610164999999999964e+03
3.600000000000000422e-02 6.917375000000000052e-01 -7.495761400000000130e+00 2.662105000000000388e+01 1.609160000000000082e+03
3.700000000000000511e-02 6.911859999999999671e-01 -7.978170000000000428e+00 2.413980000000000103e+01 1.608380000000000109e+03
3.799999999999999906e-02 6.908919999999999506e-01 -8.024549999999999628e+00 2.270349999999999824e+01 1.607855000000000018e+03
3.899999999999999994e-02 6.908495000000000053e-01 -7.635619999999999408e+00 2.233135000000000048e+01 1.607599999999999909e+03
4.000000000000000083e-02 6.910454999999999792e-01 -6.830130000000000479e+00 2.298525000000000063e+01 1.607609999999999900e+03
4.100000000000000172e-02 6.914599999999999635e-01 -5.636860500000000052e+00 2.458689999999999998e+01 1.607875000000000000e+03
4.200000000000000261e-02 6.920680000000000165e-01 -4.089974999999999916e+00 2.703444999999999965e+01 1.608375000000000000e+03
4.300000000000000350e-02 6.928449999999999331e-01 -2.227580000000000116e+00 3.021354999999999791e+01 1.609090000000000146e+03
4.400000000000000439e-02 6.937634999999999774e-01 -9.341499999999935966e-02 3.400270000000000437e+01 1.609980000000000018e+03
4.499999999999999833e-02 6.947939999999999117e-01 2.261159999999999393e+00 3.827554999999999552e+01 1.611025000000000091e+03
4.599999999999999922e-02 6.959039999999999671e-01 4.775924999999999088e+00 4.290019999999999811e+01 1.612180000000000064e+03
4.700000000000000011e-02 6.970600000000000129e-01 7.382589999999999542e+00 4.774054999999999893e+01 1.613420000000000073e+03
4.800000000000000100e-02 6.982275000000000009e-01 1.000784999999999947e+01 5.265914999999999679e+01 1.614699999999999818e+03
4.900000000000000189e-02 6.993745000000000100e-01 1.257799000000000156e+01 5.752240000000000464e+01 1.615994999999999891e+03
5.000000000000000278e-02 7.004704999999999959e-01 1.502444500000000005e+01 6.220780000000000598e+01 1.617264999999999873e+03
5.100000000000000366e-02 7.014940000000000619e-01 1.728874499999999870e+01 6.661175000000000068e+01 1.618490000000000009e+03
5.200000000000000455e-02 7.024274999999999824e-01 1.932645000000000124e+01 7.065604999999999336e+01 1.619634999999999991e+03
5.300000000000000544e-02 7.032629999999999715e-01 2.110960000000000036e+01 7.429229999999999734e+01 1.620690000000000055e+03
5.399999999999999939e-02 7.040005000000000290e-01 2.262685000000000102e+01 7.750390000000000157e+01 1.621650000000000091e+03
5.500000000000000028e-02 7.046455000000000357e-01 2.388264999999999816e+01 8.030424999999999613e+01 1.622505000000000109e+03
5.600000000000000117e-02 7.052104999999999624e-01 2.489454999999999885e+01 8.273349999999999227e+01 1.623269999999999982e+03
5.700000000000000205e-02 7.057119999999998949e-01 2.569064999999999799e+01 8.485249999999999204e+01 1.623944999999999936e+03
5.800000000000000294e-02 7.061675000000000590e-01 2.630655000000000143e+01 8.673659999999999570e+01 1.624555000000000064e+03
5.900000000000000383e-02 7.065974999999999895e-01 2.678224999999999767e+01 8.846935000000000571e+01 1.625119999999999891e+03
6.000000000000000472e-02 7.070214999999999694e-01 2.716019999999999968e+01 9.013665000000000305e+01 1.625654999999999973e+03
6.099999999999999867e-02 7.074590000000000600e-01 2.748274999999999935e+01 9.182144999999999868e+01 1.626184999999999945e+03
6.199999999999999956e-02 7.079265000000000141e-01 2.779070000000000107e+01 9.359969999999999857e+01 1.626730000000000018e+03
6.300000000000000044e-02 7.084390000000000409e-01 2.812075000000000102e+01 9.553630000000001132e+01 1.627304999999999836e+03
6.400000000000000133e-02 7.090064999999999840e-01 2.850395000000000323e+01 9.768215000000000714e+01 1.627924999999999955e+03
6.500000000000000222e-02 7.096365000000000034e-01 2.896365000000000123e+01 1.000708500000000072e+02 1.628599999999999909e+03
6.600000000000000311e-02 7.103295000000000581e-01 2.951360000000000028e+01 1.027157499999999999e+02 1.629339999999999918e+03
6.700000000000000400e-02 7.110830000000000206e-01 3.015694999999999837e+01 1.056105000000000018e+02 1.630140000000000100e+03
6.800000000000000488e-02 7.118879999999999653e-01 3.088605000000000089e+01 1.087259999999999991e+02 1.630994999999999891e+03
6.900000000000000577e-02 7.127310000000000034e-01 3.168260000000000076e+01 1.120139999999999958e+02 1.631904999999999973e+03
7.000000000000000666e-02 7.135934999999999917e-01 3.251950000000000074e+01 1.154080000000000013e+02 1.632845000000000027e+03
7.100000000000000755e-02 7.144559999999999800e-01 3.336280000000000001e+01 1.188290000000000077e+02 1.633795000000000073e+03
7.200000000000000844e-02 7.152975000000000305e-01 3.417425000000000068e+01 1.221910000000000025e+02 1.634744999999999891e+03
7.300000000000000933e-02 7.160954999999999959e-01 3.491455000000000553e+01 1.254044999999999987e+02 1.635659999999999854e+03
7.399999999999999634e-02 7.168300000000000782e-01 3.554585000000000150e+01 1.283855000000000075e+02 1.636519999999999982e+03
7.499999999999999722e-02 7.174850000000000394e-01 3.603430000000000177e+01 1.310579999999999927e+02 1.637309999999999945e+03
7.599999999999999811e-02 7.180455000000000032e-01 3.635235000000000127e+01 1.333600000000000136e+02 1.638014999999999873e+03
7.699999999999999900e-02 7.185030000000000028e-01 3.647984999999999900e+01 1.352475000000000023e+02 1.638610000000000127e+03
7.799999999999999989e-02 7.188529999999999642e-01 3.640529999999999688e+01 1.366945000000000050e+02 1.639099999999999909e+03
7.900000000000000078e-02 7.190944999999999698e-01 3.612595000000000312e+01 1.376945000000000050e+02 1.639460000000000036e+03
8.000000000000000167e-02 7.192324999999999413e-01 3.564770000000000039e+01 1.382615000000000123e+02 1.639710000000000036e+03
8.100000000000000255e-02 7.192749999999999977e-01 3.498434999999999917e+01 1.384244999999999948e+02 1.639845000000000027e+03
8.200000000000000344e-02 7.192339999999999289e-01 3.415675000000000239e+01 1.382275000000000205e+02 1.639880000000000109e+03
8.300000000000000433e-02 7.191235000000000266e-01 3.319129999999999825e+01 1.377280000000000086e+02 1.639820000000000164e+03
8.400000000000000522e-02 7.189585000000000559e-01 3.211869999999999692e+01 1.369904999999999973e+02 1.639690000000000055e+03
8.500000000000000611e-02 7.187559999999999505e-01 3.097224999999999895e+01 1.360829999999999984e+02 1.639500000000000000e+03
8.600000000000000699e-02 7.185325000000000184e-01 2.978625000000000256e+01 1.350759999999999934e+02 1.639275000000000091e+03
8.700000000000000788e-02 7.183044999999999014e-01 2.859434999999999860e+01 1.340374999999999943e+02 1.639025000000000091e+03
8.800000000000000877e-02 7.180860000000000021e-01 2.742804999999999893e+01 1.330280000000000200e+02 1.638775000000000091e+03
8.899999999999999578e-02 7.178889999999999993e-01 2.631524999999999892e+01 1.321020000000000039e+02 1.638529999999999973e+03
8.999999999999999667e-02 7.177234999999999587e-01 2.527915000000000134e+01 1.313029999999999973e+02 1.638309999999999945e+03
9.099999999999999756e-02 7.175960000000000116e-01 2.433719999999999928e+01 1.306620000000000061e+02 1.638130000000000109e+03
9.199999999999999845e-02 7.175104999999999400e-01 2.350070000000000192e+01 1.301990000000000123e+02 1.637985000000000127e+03
9.299999999999999933e-02 7.174670000000000769e-01 2.277430000000000021e+01 1.299184999999999945e+02 1.637880000000000109e+03
9.400000000000000022e-02 7.174644999999999495e-01 2.215635000000000332e+01 1.298149999999999977e+02 1.637824999999999818e+03
9.500000000000000111e-02 7.174964999999999815e-01 2.163929999999999865e+01 1.298694999999999879e+02 1.637809999999999945e+03
9.600000000000000200e-02 7.175564999999999305e-01 2.121025000000000205e+01 1.300550000000000068e+02 1.637829999999999927e+03
9.700000000000000289e-02 7.176350000000000229e-01 2.085215000000000174e+01 1.303355000000000246e+02 1.637875000000000000e+03
9.800000000000000377e-02 7.177225000000000410e-01 2.054479999999999862e+01 1.306700000000000159e+02 1.637944999999999936e+03
9.900000000000000466e-02 7.178074999999999317e-01 2.026630000000000109e+01 1.310144999999999982e+02 1.638019999999999982e+03
1.000000000000000056e-01 7.178804999999999215e-01 1.999390000000000001e+01 1.313249999999999886e+02 1.638089999999999918e+03
1.010000000000000064e-01 7.179314999999999447e-01 1.970575000000000188e+01 1.315595000000000141e+02 1.638150000000000091e+03
1.020000000000000073e-01 7.179510000000000058e-01 1.938194999999999979e+01 1.316800000000000068e+02 1.638184999999999945e+03
1.030000000000000082e-01 7.179329999999999323e-01 1.900529999999999831e+01 1.316560000000000059e+02 1.638179999999999836e+03
1.040000000000000091e-01 7.178724999999999135e-01 1.856265000000000143e+01 1.314639999999999986e+02 1.638139999999999873e+03
1.050000000000000100e-01 7.177670000000000439e-01 1.804500000000000171e+01 1.310900000000000034e+02 1.638049999999999955e+03
1.059999999999999970e-01 7.176154999999999617e-01 1.744845000000000113e+01 1.305294999999999845e+02 1.637920000000000073e+03
1.069999999999999979e-01 7.174214999999999343e-01 1.677394999999999925e+01 1.297880000000000109e+02 1.637740000000000009e+03
1.079999999999999988e-01 7.171880000000000477e-01 1.602734999999999843e+01 1.288799999999999955e+02 1.637509999999999991e+03
1.089999999999999997e-01 7.169220000000000592e-01 1.521894999999999953e+01 1.278294999999999959e+02 1.637240000000000009e+03
1.100000000000000006e-01 7.166314999999999769e-01 1.436323500000000131e+01 1.266664999999999992e+02 1.636944999999999936e+03
1.110000000000000014e-01 7.163249999999999895e-01 1.347776500000000155e+01 1.254284999999999997e+02 1.636619999999999891e+03
1.120000000000000023e-01 7.160139999999999283e-01 1.258236999999999917e+01 1.241545000000000130e+02 1.636284999999999854e+03
1.130000000000000032e-01 7.157074999999999410e-01 1.169829499999999989e+01 1.228874999999999886e+02 1.635940000000000055e+03
1.140000000000000041e-01 7.154154999999999820e-01 1.084690499999999957e+01 1.216694999999999993e+02 1.635605000000000018e+03
1.150000000000000050e-01 7.151480000000000059e-01 1.004862999999999928e+01 1.205399999999999920e+02 1.635284999999999854e+03
1.160000000000000059e-01 7.149125000000000618e-01 9.322025000000000006e+00 1.195339999999999918e+02 1.634990000000000009e+03
1.170000000000000068e-01 7.147170000000000467e-01 8.682700000000000529e+00 1.186809999999999974e+02 1.634735000000000127e+03
1.180000000000000077e-01 7.145645000000000469e-01 8.142780000000000129e+00 1.180030000000000001e+02 1.634525000000000091e+03
1.190000000000000085e-01 7.144580000000000375e-01 7.710319999999999396e+00 1.175140000000000100e+02 1.634360000000000127e+03
1.200000000000000094e-01 7.143984999999999363e-01 7.388899999999999579e+00 1.172185000000000059e+02 1.634240000000000009e+03
1.209999999999999964e-01 7.143850000000000477e-01 7.177785000000000082e+00 1.171140000000000043e+02 1.634179999999999836e+03
1.219999999999999973e-01 7.144135000000000346e-01 7.072020000000000195e+00 1.171885000000000048e+02 1.634159999999999854e+03
1.229999999999999982e-01 7.144790000000000862e-01 7.062875000000000014e+00 1.174240000000000066e+02 1.634184999999999945e+03
1.239999999999999991e-01 7.145749999999999602e-01 7.138395000000000046e+00 1.177965000000000089e+02 1.634255000000000109e+03
1.250000000000000000e-01 7.146950000000000802e-01 7.284069999999999823e+00 1.182775000000000034e+02 1.634355000000000018e+03
1.260000000000000009e-01 7.148309999999999942e-01 7.483665000000000234e+00 1.188350000000000080e+02 1.634480000000000018e+03
1.270000000000000018e-01 7.149754999999999860e-01 7.719965000000000188e+00 1.194369999999999976e+02 1.634619999999999891e+03
1.280000000000000027e-01 7.151199999999999779e-01 7.975590000000000401e+00 1.200510000000000019e+02 1.634769999999999982e+03
1.290000000000000036e-01 7.152585000000000193e-01 8.233765000000000001e+00 1.206475000000000080e+02 1.634924999999999955e+03
1.300000000000000044e-01 7.153840000000000199e-01 8.478975000000000151e+00 1.211984999999999957e+02 1.635069999999999936e+03
1.310000000000000053e-01 7.154914999999999470e-01 8.697535000000000238e+00 1.216819999999999879e+02 1.635204999999999927e+03
1.320000000000000062e-01 7.155774999999999775e-01 8.878064999999999429e+00 1.220789999999999935e+02 1.635315000000000055e+03
1.330000000000000071e-01 7.156390000000000251e-01 9.011820000000000164e+00 1.223774999999999977e+02 1.635404999999999973e+03
1.340000000000000080e-01 7.156750000000000611e-01 9.092829999999999302e+00 1.225704999999999956e+02 1.635470000000000027e+03
1.350000000000000089e-01 7.156854999999999745e-01 9.118114999999999526e+00 1.226550000000000011e+02 1.635505000000000109e+03
1.360000000000000098e-01 7.156719999999999748e-01 9.087279999999999802e+00 1.226355000000000075e+02 1.635519999999999982e+03
1.370000000000000107e-01 7.156359999999999388e-01 9.002825000000001410e+00 1.225190000000000055e+02 1.635505000000000109e+03
1.380000000000000115e-01 7.155804999999999527e-01 8.869350000000000733e+00 1.223185000000000002e+02 1.635464999999999918e+03
1.390000000000000124e-01 7.155104999999999382e-01 8.693670000000000897e+00 1.220474999999999994e+02 1.635410000000000082e+03
1.400000000000000133e-01 7.154290000000000926e-01 8.483900000000000219e+00 1.217239999999999895e+02 1.635335000000000036e+03
1.410000000000000142e-01 7.153410000000000046e-01 8.249449999999999505e+00 1.213659999999999997e+02 1.635255000000000109e+03
1.420000000000000151e-01 7.152509999999999701e-01 8.000075000000000713e+00 1.209919999999999902e+02 1.635164999999999964e+03
1.430000000000000160e-01 7.151629999999999932e-01 7.745804999999999829e+00 1.206200000000000045e+02 1.635069999999999936e+03
1.440000000000000169e-01 7.150810000000000777e-01 7.496105000000000018e+00 1.202665000000000077e+02 1.634974999999999909e+03
1.450000000000000178e-01 7.150084999999999358e-01 7.259629999999999583e+00 1.199459999999999980e+02 1.634889999999999873e+03
1.459999999999999909e-01 7.149479999999999169e-01 7.043789999999999552e+00 1.196699999999999875e+02 1.634809999999999945e+03
1.469999999999999918e-01 7.148999999999999799e-01 6.854449999999999932e+00 1.194470000000000027e+02 1.634744999999999891e+03
1.479999999999999927e-01 7.148670000000000302e-01 6.695759999999999934e+00 1.192814999999999941e+02 1.634695000000000164e+03
1.489999999999999936e-01 7.148479999999999279e-01 6.570024999999999338e+00 1.191754999999999995e+02 1.634659999999999854e+03
1.499999999999999944e-01 7.148419999999999774e-01 6.477729999999999322e+00 1.191260000000000048e+02 1.634634999999999991e+03
1.509999999999999953e-01 7.148484999999999978e-01 6.417624999999999247e+00 1.191295000000000073e+02 1.634630000000000109e+03
1.519999999999999962e-01 7.148649999999999727e-01 6.386919999999999931e+00 1.191769999999999925e+02 1.634634999999999991e+03
1.529999999999999971e-01 7.148890000000001077e-01 6.381524999999999892e+00 1.192590000000000003e+02 1.634644999999999982e+03
1.539999999999999980e-01 7.149170000000000247e-01 6.396345000000000169e+00 1.193650000000000091e+02 1.634664999999999964e+03
1.549999999999999989e-01 7.149464999999999293e-01 6.425639999999999574e+00 1.194819999999999993e+02 1.634690000000000055e+03
1.559999999999999998e-01 7.149749999999999162e-01 6.463320000000000398e+00 1.195985000000000014e+02 1.634715000000000146e+03
1.570000000000000007e-01 7.149995000000000100e-01 6.503305000000000113e+00 1.197034999999999911e+02 1.634740000000000009e+03
1.580000000000000016e-01 7.150175000000000836e-01 6.539835000000000065e+00 1.197849999999999966e+02 1.634759999999999991e+03
1.590000000000000024e-01 7.150270000000000792e-01 6.567740000000000578e+00 1.198359999999999985e+02 1.634775000000000091e+03
