# t [s], A [cm^2], U [cm/s], P [cPa], c [cm/s]
1.000000000000000021e-03 7.457260000000000000e-01 6.835500000000001297e-03 1.078460000000000036e+02 1.755319999999999936e+03
2.000000000000000042e-03 7.457184999999999508e-01 7.989050000000001012e-03 1.078144999999999953e+02 1.755315000000000055e+03
3.000000000000000062e-03 7.458085000000000964e-01 1.639602500000000018e-01 1.079979999999999905e+02 1.755355000000000018e+03
4.000000000000000083e-03 7.458339999999999970e-01 2.373514999999999930e-01 1.080739999999999981e+02 1.755369999999999891e+03
5.000000000000000104e-03 7.457380000000000120e-01 1.177790000000000226e-01 1.078070000000000022e+02 1.755320000000000164e+03
6.000000000000000125e-03 7.456395000000000106e-01 -1.966049999999996967e-02 1.073934999999999889e+02 1.755230000000000018e+03
7.000000000000000146e-03 7.455125000000000224e-01 -2.227250000000000618e-01 1.068179999999999978e+02 1.755110000000000127e+03
8.000000000000000167e-03 7.452825000000000699e-01 -6.229299999999998727e-01 1.058804999999999978e+02 1.754920000000000073e+03
9.000000000000001055e-03 7.449580000000000091e-01 -1.200649999999999995e+00 1.045380000000000109e+02 1.754639999999999873e+03
1.000000000000000194e-02 7.445140000000000091e-01 -1.978255000000000097e+00 1.027008500000000026e+02 1.754255000000000109e+03
1.099999999999999936e-02 7.439210000000000544e-01 -2.975354999999999972e+00 1.002666499999999985e+02 1.753740000000000009e+03
1.200000000000000025e-02 7.432455000000000034e-01 -4.043109999999999538e+00 9.737180000000000746e+01 1.753105000000000018e+03
1.300000000000000114e-02 7.426280000000000658e-01 -4.893049000000000426e+00 9.441964999999999009e+01 1.752434999999999945e+03
1.400000000000000203e-02 7.421804999999999097e-01 -5.281359500000000651e+00 9.184694999999999254e+01 1.751809999999999945e+03
1.499999999999999944e-02 7.419179999999999664e-01 -5.138469999999999871e+00 8.988259999999999650e+01 1.751295000000000073e+03
1.600000000000000033e-02 7.417700000000000404e-01 -4.571105000000000196e+00 8.847415000000000873e+01 1.750884999999999991e+03
1.700000000000000122e-02 7.416285000000000238e-01 -3.785039999999999960e+00 8.735580000000000211e+01 1.750535000000000082e+03
1.800000000000000211e-02 7.413985000000000714e-01 -2.984759500000000010e+00 8.619320000000000448e+01 1.750179999999999836e+03
1.900000000000000300e-02 7.410375000000000156e-01 -2.289556999999999842e+00 8.473644999999999072e+01 1.749779999999999973e+03
2.000000000000000042e-02 7.405675000000000452e-01 -1.699824999999999919e+00 8.291714999999999236e+01 1.749309999999999945e+03
2.100000000000000130e-02 7.400510000000000144e-01 -1.128765000000000018e+00 8.084290000000000020e+01 1.748784999999999854e+03
2.200000000000000219e-02 7.395545000000000035e-01 -4.754850000000003796e-01 7.870489999999999498e+01 1.748240000000000009e+03
2.299999999999999961e-02 7.391094999999999748e-01 3.061799999999998967e-01 7.666055000000000064e+01 1.747710000000000036e+03
2.400000000000000050e-02 7.387040000000000273e-01 1.174110000000000209e+00 7.475045000000000073e+01 1.747199999999999818e+03
2.500000000000000139e-02 7.382869999999999155e-01 2.003919999999999924e+00 7.287354999999999450e+01 1.746699999999999818e+03
2.600000000000000228e-02 7.377854999999999830e-01 2.624155000000000015e+00 7.081634999999999991e+01 1.746160000000000082e+03
2.700000000000000316e-02 7.371330000000000382e-01 2.867059999999999498e+00 6.832285000000000252e+01 1.745549999999999955e+03
2.800000000000000058e-02 7.362889999999999713e-01 2.620870000000000033e+00 6.518299999999999272e+01 1.744805000000000064e+03
2.900000000000000147e-02 7.352589999999999959e-01 1.867009999999999614e+00 6.131284999999999741e+01 1.743909999999999854e+03
3.000000000000000236e-02 7.340914999999998969e-01 6.878500000000000725e-01 5.679550000000000409e+01 1.742884999999999991e+03
3.099999999999999978e-02 7.328704999999999803e-01 -7.575500000000001677e-01 5.186925000000000097e+01 1.741755000000000109e+03
3.200000000000000067e-02 7.316884999999999639e-01 -2.277129999999999654e+00 4.687125000000000341e+01 1.740590000000000146e+03
3.300000000000000155e-02 7.306295000000000428e-01 -3.689015000000000377e+00 4.216425000000000267e+01 1.739470000000000027e+03
3.400000000000000244e-02 7.297565000000000301e-01 -4.851490000000000080e+00 3.807175000000000153e+01 1.738460000000000036e+03
3.500000000000000333e-02 7.291045000000000442e-01 -5.675720000000000098e+00 3.483389999999999986e+01 1.737619999999999891e+03
3.600000000000000422e-02 7.286869999999999736e-01 -6.123565000000000147e+00 3.258984999999999843e+01 1.736994999999999891e+03
3.700000000000000511e-02 7.284960000000000324e-01 -6.195734999999999992e+00 3.138215000000000288e+01 1.736599999999999909e+03
3.799999999999999906e-02 7.285139999999999949e-01 -5.915195000000000647e+00 3.117769999999999797e+01 1.736430000000000064e+03
3.899999999999999994e-02 7.287200000000000344e-01 -5.311580000000000190e+00 3.189714999999999989e+01 1.736490000000000009e+03
4.000000000000000083e-02 7.290940000000000198e-01 -4.410410000000000608e+00 3.344284999999999997e+01 1.736750000000000000e+03
4.100000000000000172e-02 7.296194999999999764e-01 -3.229805000000000259e+00 3.571784999999999854e+01 1.737200000000000045e+03
4.200000000000000261e-02 7.302815000000000278e-01 -1.784099999999999575e+00 3.863349999999999795e+01 1.737809999999999945e+03
4.300000000000000350e-02 7.310639999999999361e-01 -9.141499999999957993e-02 4.210569999999999879e+01 1.738565000000000055e+03
4.400000000000000439e-02 7.319489999999999608e-01 1.818855000000000111e+00 4.604614999999999725e+01 1.739440000000000055e+03
4.499999999999999833e-02 7.329125000000000778e-01 3.901934999999999931e+00 5.035469999999999402e+01 1.740414999999999964e+03
4.599999999999999922e-02 7.339240000000000208e-01 6.098169999999999646e+00 5.491564999999999941e+01 1.741464999999999918e+03
4.700000000000000011e-02 7.349535000000000373e-01 8.337764999999999205e+00 5.960099999999999909e+01 1.742565000000000055e+03
4.800000000000000100e-02 7.359689999999999843e-01 1.054814499999999988e+01 6.427844999999999231e+01 1.743674999999999955e+03
4.900000000000000189e-02 7.369430000000000147e-01 1.266144000000000069e+01 6.882310000000001082e+01 1.744775000000000091e+03
5.000000000000000278e-02 7.378540000000000099e-01 1.462146500000000060e+01 7.312829999999999586e+01 1.745835000000000036e+03
5.100000000000000366e-02 7.386885000000000812e-01 1.638773000000000124e+01 7.711475000000000080e+01 1.746840000000000146e+03
5.200000000000000455e-02 7.394404999999999450e-01 1.793684999999999974e+01 8.073545000000000016e+01 1.747760000000000218e+03
5.300000000000000544e-02 7.401115000000000332e-01 1.926180000000000092e+01 8.397585000000000832e+01 1.748610000000000127e+03
5.399999999999999939e-02 7.407080000000000330e-01 2.036880000000000024e+01 8.685060000000000002e+01 1.749369999999999891e+03
5.500000000000000028e-02 7.412419999999999565e-01 2.127470000000000283e+01 8.939815000000000111e+01 1.750059999999999945e+03
5.600000000000000117e-02 7.417260000000001074e-01 2.200365000000000038e+01 9.167365000000000919e+01 1.750679999999999836e+03
5.700000000000000205e-02 7.421754999999999880e-01 2.258455000000000013e+01 9.374320000000000164e+01 1.751250000000000000e+03
5.800000000000000294e-02 7.426059999999999883e-01 2.304915000000000092e+01 9.567799999999999727e+01 1.751779999999999973e+03
5.900000000000000383e-02 7.430315000000000669e-01 2.343059999999999832e+01 9.754939999999999145e+01 1.752284999999999854e+03
6.000000000000000472e-02 7.434670000000001000e-01 2.376129999999999853e+01 9.942474999999998886e+01 1.752789999999999964e+03
6.099999999999999867e-02 7.439225000000000421e-01 2.407110000000000127e+01 1.013619999999999948e+02 1.753299999999999955e+03
6.199999999999999956e-02 7.444089999999999874e-01 2.438459999999999894e+01 1.034069999999999965e+02 1.753825000000000045e+03
6.300000000000000044e-02 7.449284999999999934e-01 2.471925000000000239e+01 1.055865000000000009e+02 1.754384999999999991e+03
6.400000000000000133e-02 7.454804999999999904e-01 2.508344999999999914e+01 1.079085000000000036e+02 1.754965000000000146e+03
6.500000000000000222e-02 7.460605000000000153e-01 2.547579999999999956e+01 1.103580000000000041e+02 1.755579999999999927e+03
6.600000000000000311e-02 7.466574999999999740e-01 2.588579999999999970e+01 1.129000000000000057e+02 1.756210000000000036e+03
6.700000000000000400e-02 7.472579999999999778e-01 2.629475000000000051e+01 1.154809999999999945e+02 1.756855000000000018e+03
6.800000000000000488e-02 7.478454999999999409e-01 2.667860000000000298e+01 1.180349999999999966e+02 1.757500000000000000e+03
6.900000000000000577e-02 7.484045000000000281e-01 2.701024999999999920e+01 1.204885000000000019e+02 1.758119999999999891e+03
7.000000000000000666e-02 7.489170000000000549e-01 2.726265000000000072e+01 1.227674999999999983e+02 1.758704999999999927e+03
7.100000000000000755e-02 7.493689999999999518e-01 2.741069999999999851e+01 1.248040000000000020e+02 1.759235000000000127e+03
7.200000000000000844e-02 7.497494999999999576e-01 2.743384999999999962e+01 1.265384999999999991e+02 1.759704999999999927e+03
7.300000000000000933e-02 7.500499999999999945e-01 2.731705000000000183e+01 1.279265000000000043e+02 1.760090000000000146e+03
7.399999999999999634e-02 7.502649999999999597e-01 2.705165000000000219e+01 1.289399999999999977e+02 1.760389999999999873e+03
7.499999999999999722e-02 7.503949999999999232e-01 2.663575000000000159e+01 1.295695000000000050e+02 1.760599999999999909e+03
7.599999999999999811e-02 7.504414999999999836e-01 2.607430000000000092e+01 1.298195000000000050e+02 1.760714999999999918e+03
7.699999999999999900e-02 7.504120000000000790e-01 2.537825000000000131e+01 1.297130000000000223e+02 1.760744999999999891e+03
7.799999999999999989e-02 7.503144999999999953e-01 2.456405000000000172e+01 1.292855000000000132e+02 1.760695000000000164e+03
7.900000000000000078e-02 7.501599999999999380e-01 2.365265000000000128e+01 1.285840000000000032e+02 1.760565000000000055e+03
8.000000000000000167e-02 7.499610000000000998e-01 2.266825000000000045e+01 1.276634999999999991e+02 1.760384999999999991e+03
8.100000000000000255e-02 7.497309999999999253e-01 2.163705000000000211e+01 1.265834999999999866e+02 1.760150000000000091e+03
8.200000000000000344e-02 7.494825000000000514e-01 2.058605000000000018e+01 1.254050000000000011e+02 1.759889999999999873e+03
8.300000000000000433e-02 7.492290000000000338e-01 1.954129999999999967e+01 1.241875000000000000e+02 1.759615000000000009e+03
8.400000000000000522e-02 7.489820000000000366e-01 1.852680000000000149e+01 1.229864999999999924e+02 1.759324999999999818e+03
8.500000000000000611e-02 7.487515000000000143e-01 1.756334999999999980e+01 1.218499999999999943e+02 1.759050000000000182e+03
8.600000000000000699e-02 7.485439999999999872e-01 1.666750000000000043e+01 1.208155000000000001e+02 1.758795000000000073e+03
8.700000000000000788e-02 7.483659999999999757e-01 1.585084999999999944e+01 1.199114999999999895e+02 1.758559999999999945e+03
8.800000000000000877e-02 7.482195000000000373e-01 1.511984999999999957e+01 1.191554999999999893e+02 1.758355000000000018e+03
8.899999999999999578e-02 7.481044999999999501e-01 1.447550000000000026e+01 1.185519999999999925e+02 1.758184999999999945e+03
8.999999999999999667e-02 7.480199999999999072e-01 1.391399999999999793e+01 1.180954999999999870e+02 1.758050000000000182e+03
9.099999999999999756e-02 7.479599999999999582e-01 1.342664999999999864e+01 1.177700000000000102e+02 1.757949999999999818e+03
9.199999999999999845e-02 7.479204999999999881e-01 1.300140000000000029e+01 1.175529999999999973e+02 1.757875000000000000e+03
9.299999999999999933e-02 7.478940000000000587e-01 1.262294999999999945e+01 1.174134999999999991e+02 1.757820000000000164e+03
9.400000000000000022e-02 7.478730000000000100e-01 1.227394999999999925e+01 1.173174999999999955e+02 1.757775000000000091e+03
9.500000000000000111e-02 7.478485000000000271e-01 1.193630500000000083e+01 1.172300000000000040e+02 1.757740000000000009e+03
9.600000000000000200e-02 7.478145000000000486e-01 1.159194499999999906e+01 1.171129999999999995e+02 1.757700000000000045e+03
9.700000000000000289e-02 7.477624999999999966e-01 1.122404500000000027e+01 1.169344999999999999e+02 1.757650000000000091e+03
9.800000000000000377e-02 7.476875000000000604e-01 1.081802499999999867e+01 1.166645000000000039e+02 1.757579999999999927e+03
9.900000000000000466e-02 7.475849999999999440e-01 1.036258499999999927e+01 1.162810000000000059e+02 1.757490000000000009e+03
1.000000000000000056e-01 7.474529999999999230e-01 9.850305000000000533e+00 1.157694999999999936e+02 1.757375000000000000e+03
1.010000000000000064e-01 7.472914999999999974e-01 9.278230000000000643e+00 1.151239999999999952e+02 1.757230000000000018e+03
1.020000000000000073e-01 7.471019999999999328e-01 8.647994999999999877e+00 1.143489999999999895e+02 1.757050000000000182e+03
1.030000000000000082e-01 7.468884999999999552e-01 7.965980000000000061e+00 1.134574999999999960e+02 1.756839999999999918e+03
1.040000000000000091e-01 7.466570000000000151e-01 7.242609999999999992e+00 1.124724999999999966e+02 1.756615000000000009e+03
1.050000000000000100e-01 7.464140000000000219e-01 6.491940000000000488e+00 1.114224999999999994e+02 1.756365000000000009e+03
1.059999999999999970e-01 7.461690000000000822e-01 5.730775000000000396e+00 1.103425000000000011e+02 1.756109999999999900e+03
1.069999999999999979e-01 7.459295000000000231e-01 4.977655000000000385e+00 1.092710000000000008e+02 1.755849999999999909e+03
1.079999999999999988e-01 7.457055000000000211e-01 4.251689999999999969e+00 1.082485000000000070e+02 1.755594999999999800e+03
1.089999999999999997e-01 7.455045000000000144e-01 3.571471999999999980e+00 1.073114999999999952e+02 1.755365000000000009e+03
1.100000000000000006e-01 7.453339999999999410e-01 2.953986000000000001e+00 1.064969999999999999e+02 1.755154999999999973e+03
1.110000000000000014e-01 7.451999999999999735e-01 2.413627000000000411e+00 1.058325000000000102e+02 1.754980000000000018e+03
1.120000000000000023e-01 7.451054999999999762e-01 1.961423499999999986e+00 1.053405000000000058e+02 1.754835000000000036e+03
1.130000000000000032e-01 7.450539999999999941e-01 1.604508000000000045e+00 1.050345000000000084e+02 1.754740000000000009e+03
1.140000000000000041e-01 7.450449999999999573e-01 1.345831000000000000e+00 1.049180000000000064e+02 1.754690000000000055e+03
1.150000000000000050e-01 7.450759999999999605e-01 1.184174999999999978e+00 1.049879999999999995e+02 1.754679999999999836e+03
1.160000000000000059e-01 7.451440000000000285e-01 1.114389000000000074e+00 1.052309999999999945e+02 1.754714999999999918e+03
1.170000000000000068e-01 7.452440000000000175e-01 1.127867999999999871e+00 1.056274999999999977e+02 1.754784999999999854e+03
1.180000000000000077e-01 7.453700000000000880e-01 1.213165049999999967e+00 1.061504999999999939e+02 1.754885000000000218e+03
1.190000000000000085e-01 7.455145000000000799e-01 1.356725600000000087e+00 1.067710000000000008e+02 1.755019999999999982e+03
1.200000000000000094e-01 7.456694999999999851e-01 1.543641700000000005e+00 1.074569999999999936e+02 1.755170000000000073e+03
1.209999999999999964e-01 7.458294999999999231e-01 1.758444499999999966e+00 1.081749999999999972e+02 1.755335000000000036e+03
1.219999999999999973e-01 7.459869999999999557e-01 1.985791000000000084e+00 1.088940000000000055e+02 1.755494999999999891e+03
1.229999999999999982e-01 7.461355000000000626e-01 2.211151000000000089e+00 1.095840000000000032e+02 1.755659999999999854e+03
1.239999999999999991e-01 7.462699999999999889e-01 2.421335000000000015e+00 1.102194999999999965e+02 1.755815000000000055e+03
1.250000000000000000e-01 7.463859999999999939e-01 2.604960000000000164e+00 1.107795000000000130e+02 1.755960000000000036e+03
1.260000000000000009e-01 7.464809999999999501e-01 2.752799999999999692e+00 1.112469999999999999e+02 1.756079999999999927e+03
1.270000000000000018e-01 7.465519999999999934e-01 2.857965000000000089e+00 1.116109999999999900e+02 1.756175000000000182e+03
1.280000000000000027e-01 7.465995000000000825e-01 2.916080000000000005e+00 1.118654999999999973e+02 1.756250000000000000e+03
1.290000000000000036e-01 7.466224999999999667e-01 2.925234999999999808e+00 1.120095000000000027e+02 1.756295000000000073e+03
1.300000000000000044e-01 7.466234999999999955e-01 2.885914999999999786e+00 1.120474999999999994e+02 1.756325000000000045e+03
1.310000000000000053e-01 7.466034999999999755e-01 2.800815000000000055e+00 1.119874999999999972e+02 1.756325000000000045e+03
1.320000000000000062e-01 7.465660000000000629e-01 2.674554999999999794e+00 1.118400000000000034e+02 1.756299999999999955e+03
1.330000000000000071e-01 7.465135000000000520e-01 2.513329999999999842e+00 1.116195000000000022e+02 1.756264999999999873e+03
1.340000000000000080e-01 7.464504999999999058e-01 2.324520000000000142e+00 1.113425000000000011e+02 1.756204999999999927e+03
1.350000000000000089e-01 7.463809999999999611e-01 2.116237499999999994e+00 1.110245000000000033e+02 1.756139999999999873e+03
1.360000000000000098e-01 7.463070000000000537e-01 1.896862500000000118e+00 1.106825000000000045e+02 1.756065000000000055e+03
1.370000000000000107e-01 7.462334999999999940e-01 1.674560999999999966e+00 1.103325000000000102e+02 1.755985000000000127e+03
1.380000000000000115e-01 7.461619999999999919e-01 1.456883499999999998e+00 1.099879999999999995e+02 1.755905000000000200e+03
1.390000000000000124e-01 7.460960000000000925e-01 1.250351499999999838e+00 1.096604999999999990e+02 1.755824999999999818e+03
1.400000000000000133e-01 7.460360000000000325e-01 1.060203999999999924e+00 1.093584999999999923e+02 1.755755000000000109e+03
1.410000000000000142e-01 7.459830000000000627e-01 8.901775000000000659e-01 1.090870000000000033e+02 1.755684999999999945e+03
1.420000000000000151e-01 7.459370000000000722e-01 7.424419999999999353e-01 1.088474999999999966e+02 1.755625000000000000e+03
1.430000000000000160e-01 7.458979999999999499e-01 6.176068999999999587e-01 1.086394999999999982e+02 1.755565000000000055e+03
1.440000000000000169e-01 7.458639999999999715e-01 5.148707000000000145e-01 1.084585000000000008e+02 1.755519999999999982e+03
1.450000000000000178e-01 7.458329999999999682e-01 4.322162500000000240e-01 1.082974999999999994e+02 1.755480000000000018e+03
1.459999999999999909e-01 7.458044999999999813e-01 3.666758250000000108e-01 1.081490000000000009e+02 1.755434999999999945e+03
1.469999999999999918e-01 7.457754999999999246e-01 3.146347500000000186e-01 1.080035000000000025e+02 1.755394999999999982e+03
1.479999999999999927e-01 7.457435000000000036e-01 2.721370499999999915e-01 1.078520000000000039e+02 1.755355000000000018e+03
1.489999999999999936e-01 7.457065000000000499e-01 2.351850000000000329e-01 1.076854999999999905e+02 1.755315000000000055e+03
1.499999999999999944e-01 7.456639999999999935e-01 2.000069999999999903e-01 1.074964999999999975e+02 1.755264999999999873e+03
1.509999999999999953e-01 7.456139999999999990e-01 1.632844999999999713e-01 1.072779999999999916e+02 1.755210000000000036e+03
1.519999999999999962e-01 7.455559999999999965e-01 1.223434999999999662e-01 1.070259999999999962e+02 1.755144999999999982e+03
1.529999999999999971e-01 7.454895000000000271e-01 7.528800000000002157e-02 1.067390000000000043e+02 1.755079999999999927e+03
1.539999999999999980e-01 7.454149999999999388e-01 2.109149999999998526e-02 1.064164999999999992e+02 1.754994999999999891e+03
1.549999999999999989e-01 7.453324999999999534e-01 -4.035850000000001936e-02 1.060600000000000023e+02 1.754914999999999964e+03
1.559999999999999998e-01 7.452440000000000175e-01 -1.082629999999999981e-01 1.056750000000000114e+02 1.754820000000000164e+03
1.570000000000000007e-01 7.451499999999999790e-01 -1.809594999999999398e-01 1.052669999999999959e+02 1.754719999999999800e+03
1.580000000000000016e-01 7.450539999999999941e-01 -2.560019999999999518e-01 1.048449999999999989e+02 1.754615000000000009e+03
1.590000000000000024e-01 7.449570000000000913e-01 -3.303054999999999741e-01 1.044164999999999992e+02 1.754509999999999991e+03
