# t [s], A [cm^2], U [cm/s], P [cPa], c [cm/s]
1.000000000000000021e-03 1.254644999999999788e-01 2.061189999999999967e-01 9.373624999999999829e+01 1.811480000000000018e+03
2.000000000000000042e-03 1.254470000000000030e-01 1.557014000000000120e+00 9.115234999999999843e+01 1.811255000000000109e+03
3.000000000000000062e-03 1.253739999999999855e-01 3.252879500000000146e+00 8.773855000000000359e+01 1.810375000000000000e+03
4.000000000000000083e-03 1.252604999999999968e-01 5.147077000000000346e+00 8.379295000000000471e+01 1.809039999999999964e+03
5.000000000000000104e-03 1.251260000000000150e-01 7.193945000000000256e+00 7.992125000000000057e+01 1.807464999999999918e+03
6.000000000000000125e-03 1.249860000000000138e-01 9.315659999999999386e+00 7.651194999999999879e+01 1.805845000000000027e+03
7.000000000000000146e-03 1.248495000000000021e-01 1.138201500000000088e+01 7.362415000000000020e+01 1.804284999999999854e+03
8.000000000000000167e-03 1.247194999999999970e-01 1.326615999999999929e+01 7.110200000000000387e+01 1.802815000000000055e+03
9.000000000000001055e-03 1.245974999999999999e-01 1.491706499999999913e+01 6.881749999999999545e+01 1.801460000000000036e+03
1.000000000000000194e-02 1.244864999999999999e-01 1.634984999999999999e+01 6.677649999999999864e+01 1.800244999999999891e+03
1.099999999999999936e-02 1.243889999999999996e-01 1.758879999999999910e+01 6.502309999999999945e+01 1.799174999999999955e+03
1.200000000000000025e-02 1.243039999999999978e-01 1.864675000000000082e+01 6.356065000000000254e+01 1.798259999999999991e+03
1.300000000000000114e-02 1.242314999999999947e-01 1.953265000000000029e+01 6.236114999999999498e+01 1.797490000000000009e+03
1.400000000000000203e-02 1.241715000000000041e-01 2.025345000000000084e+01 6.138195000000000334e+01 1.796860000000000127e+03
1.499999999999999944e-02 1.241210000000000091e-01 2.081184999999999974e+01 6.056315000000000026e+01 1.796335000000000036e+03
1.600000000000000033e-02 1.240785000000000082e-01 2.121750000000000114e+01 5.984609999999999985e+01 1.795900000000000091e+03
1.700000000000000122e-02 1.240425000000000000e-01 2.150590000000000046e+01 5.922305000000000064e+01 1.795539999999999964e+03
1.800000000000000211e-02 1.240139999999999992e-01 2.174494999999999933e+01 5.877545000000000641e+01 1.795250000000000000e+03
1.900000000000000300e-02 1.239955000000000085e-01 2.201849999999999952e+01 5.865729999999999933e+01 1.795075000000000045e+03
2.000000000000000042e-02 1.239919999999999911e-01 2.239564999999999984e+01 5.902550000000000097e+01 1.795050000000000182e+03
2.100000000000000130e-02 1.240045000000000036e-01 2.290384999999999849e+01 5.995794999999999675e+01 1.795199999999999818e+03
2.200000000000000219e-02 1.240345000000000059e-01 2.351800000000000068e+01 6.140285000000000082e+01 1.795525000000000091e+03
2.299999999999999961e-02 1.240785000000000082e-01 2.417000000000000171e+01 6.317990000000000350e+01 1.796000000000000000e+03
2.400000000000000050e-02 1.241305000000000047e-01 2.477100000000000080e+01 6.502805000000000746e+01 1.796570000000000164e+03
2.500000000000000139e-02 1.241829999999999878e-01 2.523785000000000167e+01 6.667654999999999177e+01 1.797154999999999973e+03
2.600000000000000228e-02 1.242310000000000081e-01 2.551439999999999841e+01 6.791304999999999836e+01 1.797684999999999945e+03
2.700000000000000316e-02 1.242685000000000040e-01 2.558269999999999911e+01 6.862924999999999898e+01 1.798119999999999891e+03
2.800000000000000058e-02 1.242930000000000007e-01 2.546215000000000117e+01 6.883294999999999675e+01 1.798409999999999854e+03
2.900000000000000147e-02 1.243054999999999993e-01 2.519904999999999973e+01 6.862860000000000582e+01 1.798565000000000055e+03
3.000000000000000236e-02 1.243080000000000018e-01 2.485020000000000095e+01 6.817480000000000473e+01 1.798610000000000127e+03
3.099999999999999978e-02 1.243039999999999978e-01 2.446689999999999898e+01 6.763479999999999848e+01 1.798585000000000036e+03
3.200000000000000067e-02 1.242969999999999908e-01 2.408285000000000053e+01 6.713335000000000719e+01 1.798509999999999991e+03
3.300000000000000155e-02 1.242894999999999972e-01 2.370935000000000059e+01 6.673239999999999839e+01 1.798429999999999836e+03
3.400000000000000244e-02 1.242820000000000036e-01 2.333735000000000070e+01 6.642744999999999322e+01 1.798355000000000018e+03
3.500000000000000333e-02 1.242749999999999966e-01 2.294480000000000075e+01 6.616239999999999100e+01 1.798279999999999973e+03
3.600000000000000422e-02 1.242665000000000020e-01 2.250695000000000334e+01 6.585714999999999009e+01 1.798195000000000164e+03
3.700000000000000511e-02 1.242560000000000053e-01 2.200639999999999930e+01 6.543815000000000737e+01 1.798085000000000036e+03
3.799999999999999906e-02 1.242414999999999908e-01 2.144069999999999965e+01 6.486495000000000744e+01 1.797929999999999836e+03
3.899999999999999994e-02 1.242225000000000135e-01 2.082589999999999719e+01 6.414650000000000318e+01 1.797730000000000018e+03
4.000000000000000083e-02 1.242000000000000048e-01 2.019529999999999959e+01 6.334394999999999953e+01 1.797490000000000009e+03
4.100000000000000172e-02 1.241754999999999942e-01 1.959389999999999787e+01 6.255974999999999397e+01 1.797235000000000127e+03
4.200000000000000261e-02 1.241535000000000000e-01 1.906960000000000122e+01 6.191630000000000678e+01 1.796985000000000127e+03
4.300000000000000350e-02 1.241354999999999958e-01 1.866400000000000148e+01 6.152980000000000160e+01 1.796789999999999964e+03
4.400000000000000439e-02 1.241250000000000131e-01 1.840444999999999709e+01 6.148489999999999611e+01 1.796674999999999955e+03
4.499999999999999833e-02 1.241249999999999992e-01 1.829885000000000161e+01 6.181730000000000302e+01 1.796660000000000082e+03
4.599999999999999922e-02 1.241344999999999948e-01 1.833449999999999847e+01 6.250615000000000521e+01 1.796755000000000109e+03
4.700000000000000011e-02 1.241545000000000010e-01 1.848055000000000092e+01 6.347724999999999795e+01 1.796954999999999927e+03
4.800000000000000100e-02 1.241815000000000002e-01 1.869324999999999903e+01 6.461625000000000796e+01 1.797240000000000009e+03
4.900000000000000189e-02 1.242140000000000050e-01 1.892224999999999824e+01 6.578669999999999618e+01 1.797585000000000036e+03
5.000000000000000278e-02 1.242469999999999963e-01 1.911765000000000114e+01 6.684985000000000355e+01 1.797934999999999945e+03
5.100000000000000366e-02 1.242765000000000120e-01 1.923550000000000182e+01 6.768295000000000528e+01 1.798264999999999873e+03
5.200000000000000455e-02 1.243009999999999948e-01 1.924199999999999733e+01 6.819259999999999877e+01 1.798529999999999973e+03
5.300000000000000544e-02 1.243164999999999965e-01 1.911545000000000272e+01 6.832189999999999941e+01 1.798700000000000045e+03
5.399999999999999939e-02 1.243215000000000015e-01 1.884655000000000058e+01 6.805169999999999675e+01 1.798759999999999991e+03
5.500000000000000028e-02 1.243144999999999945e-01 1.843679999999999808e+01 6.739679999999999893e+01 1.798700000000000045e+03
5.600000000000000117e-02 1.242969999999999908e-01 1.789634999999999820e+01 6.639795000000000869e+01 1.798509999999999991e+03
5.700000000000000205e-02 1.242685000000000040e-01 1.724114999999999753e+01 6.511260000000000048e+01 1.798210000000000036e+03
5.800000000000000294e-02 1.242310000000000081e-01 1.649060000000000059e+01 6.360640000000000072e+01 1.797809999999999945e+03
5.900000000000000383e-02 1.241855000000000042e-01 1.566535000000000011e+01 6.194505000000000194e+01 1.797324999999999818e+03
6.000000000000000472e-02 1.241349999999999953e-01 1.478620000000000090e+01 6.019020000000000437e+01 1.796775000000000091e+03
6.099999999999999867e-02 1.240799999999999959e-01 1.387374999999999936e+01 5.839690000000000225e+01 1.796180000000000064e+03
6.199999999999999956e-02 1.240224999999999939e-01 1.294824999999999982e+01 5.661364999999999981e+01 1.795559999999999945e+03
6.300000000000000044e-02 1.239640000000000047e-01 1.203003999999999962e+01 5.488434999999999775e+01 1.794924999999999955e+03
6.400000000000000133e-02 1.239069999999999894e-01 1.114011499999999977e+01 5.325010000000000332e+01 1.794300000000000182e+03
6.500000000000000222e-02 1.238515000000000033e-01 1.030025000000000013e+01 5.175175000000000125e+01 1.793700000000000045e+03
6.600000000000000311e-02 1.237999999999999934e-01 9.533314999999999984e+00 5.043134999999999479e+01 1.793139999999999873e+03
6.700000000000000400e-02 1.237530000000000019e-01 8.862705000000000055e+00 4.933249999999999602e+01 1.792630000000000109e+03
6.800000000000000488e-02 1.237140000000000045e-01 8.311820000000000874e+00 4.849949999999999761e+01 1.792190000000000055e+03
6.900000000000000577e-02 1.236825000000000008e-01 7.903124999999999289e+00 4.797589999999999577e+01 1.791844999999999800e+03
7.000000000000000666e-02 1.236615000000000075e-01 7.656939999999999635e+00 4.780180000000000007e+01 1.791605000000000018e+03
7.100000000000000755e-02 1.236504999999999965e-01 7.590405000000000513e+00 4.801135000000000019e+01 1.791480000000000018e+03
7.200000000000000844e-02 1.236529999999999990e-01 7.716459999999999653e+00 4.862999999999999545e+01 1.791490000000000009e+03
7.300000000000000933e-02 1.236680000000000001e-01 8.043084999999999596e+00 4.967249999999999943e+01 1.791634999999999991e+03
7.399999999999999634e-02 1.236975000000000019e-01 8.572815000000000296e+00 5.114170000000000016e+01 1.791940000000000055e+03
7.499999999999999722e-02 1.237405000000000033e-01 9.302665000000001072e+00 5.302785000000000082e+01 1.792389999999999873e+03
7.599999999999999811e-02 1.237974999999999909e-01 1.022421999999999898e+01 5.530939999999999657e+01 1.792994999999999891e+03
7.699999999999999900e-02 1.238674999999999915e-01 1.132437499999999986e+01 5.795400000000000063e+01 1.793740000000000009e+03
7.799999999999999989e-02 1.239505000000000051e-01 1.258576000000000050e+01 6.092045000000000243e+01 1.794625000000000000e+03
7.900000000000000078e-02 1.240439999999999876e-01 1.398795000000000144e+01 6.416145000000000209e+01 1.795634999999999991e+03
8.000000000000000167e-02 1.241485000000000088e-01 1.550820000000000043e+01 6.762550000000000239e+01 1.796755000000000109e+03
8.100000000000000255e-02 1.242604999999999960e-01 1.712259999999999849e+01 7.125995000000000346e+01 1.797970000000000027e+03
8.200000000000000344e-02 1.243795000000000039e-01 1.880720000000000169e+01 7.501345000000000596e+01 1.799264999999999873e+03
8.300000000000000433e-02 1.245040000000000036e-01 2.053859999999999886e+01 7.883789999999999054e+01 1.800619999999999891e+03
8.400000000000000522e-02 1.246320000000000067e-01 2.229509999999999792e+01 8.269060000000000343e+01 1.802019999999999982e+03
8.500000000000000611e-02 1.247619999999999979e-01 2.405740000000000123e+01 8.653569999999999141e+01 1.803449999999999818e+03
8.600000000000000699e-02 1.248934999999999906e-01 2.580874999999999986e+01 9.034475000000000477e+01 1.804894999999999982e+03
8.700000000000000788e-02 1.250245000000000106e-01 2.753580000000000183e+01 9.409764999999998736e+01 1.806340000000000146e+03
8.800000000000000877e-02 1.251550000000000162e-01 2.922824999999999918e+01 9.778190000000000737e+01 1.807784999999999854e+03
8.899999999999999578e-02 1.252845000000000208e-01 3.087880000000000180e+01 1.013932499999999948e+02 1.809220000000000027e+03
8.999999999999999667e-02 1.254119999999999957e-01 3.248324999999999818e+01 1.049316499999999905e+02 1.810639999999999873e+03
9.099999999999999756e-02 1.255379999999999829e-01 3.403960000000000008e+01 1.084044999999999987e+02 1.812039999999999964e+03
9.199999999999999845e-02 1.256625000000000103e-01 3.554774999999999352e+01 1.118209999999999980e+02 1.813430000000000064e+03
9.299999999999999933e-02 1.257854999999999945e-01 3.700910000000000366e+01 1.151914999999999907e+02 1.814809999999999945e+03
9.400000000000000022e-02 1.259069999999999911e-01 3.842534999999999457e+01 1.185264999999999986e+02 1.816170000000000073e+03
9.500000000000000111e-02 1.260275000000000145e-01 3.979879999999999995e+01 1.218365000000000009e+02 1.817525000000000091e+03
9.600000000000000200e-02 1.261474999999999957e-01 4.113115000000000521e+01 1.251269999999999953e+02 1.818869999999999891e+03
9.700000000000000289e-02 1.262665000000000037e-01 4.242354999999999876e+01 1.284025000000000034e+02 1.820214999999999918e+03
9.800000000000000377e-02 1.263849999999999973e-01 4.367615000000000691e+01 1.316614999999999895e+02 1.821549999999999955e+03
9.900000000000000466e-02 1.265025000000000177e-01 4.488795000000000357e+01 1.349005000000000223e+02 1.822875000000000000e+03
1.000000000000000056e-01 1.266200000000000103e-01 4.605700000000000216e+01 1.381109999999999900e+02 1.824199999999999818e+03
1.010000000000000064e-01 1.267355000000000009e-01 4.717994999999999806e+01 1.412810000000000059e+02 1.825509999999999991e+03
1.020000000000000073e-01 1.268505000000000049e-01 4.825270000000000437e+01 1.443974999999999795e+02 1.826809999999999945e+03
1.030000000000000082e-01 1.269629999999999925e-01 4.927020000000000266e+01 1.474424999999999955e+02 1.828095000000000027e+03
1.040000000000000091e-01 1.270735000000000059e-01 5.022695000000000221e+01 1.504005000000000223e+02 1.829349999999999909e+03
1.050000000000000100e-01 1.271809999999999885e-01 5.111679999999999779e+01 1.532509999999999764e+02 1.830570000000000164e+03
1.059999999999999970e-01 1.272849999999999815e-01 5.193370000000000175e+01 1.559774999999999920e+02 1.831755000000000109e+03
1.069999999999999979e-01 1.273849999999999982e-01 5.267149999999999466e+01 1.585620000000000118e+02 1.832894999999999982e+03
1.079999999999999988e-01 1.274800000000000100e-01 5.332444999999999879e+01 1.609875000000000114e+02 1.833985000000000127e+03
1.089999999999999997e-01 1.275699999999999890e-01 5.388715000000000543e+01 1.632395000000000209e+02 1.835019999999999982e+03
1.100000000000000006e-01 1.276539999999999897e-01 5.435510000000000019e+01 1.653054999999999950e+02 1.835985000000000127e+03
1.110000000000000014e-01 1.277324999999999988e-01 5.472449999999999903e+01 1.671750000000000114e+02 1.836889999999999873e+03
1.120000000000000023e-01 1.278040000000000009e-01 5.499264999999999759e+01 1.688389999999999986e+02 1.837710000000000036e+03
1.130000000000000032e-01 1.278684999999999961e-01 5.515814999999999912e+01 1.702944999999999993e+02 1.838460000000000036e+03
1.140000000000000041e-01 1.279260000000000119e-01 5.522084999999999866e+01 1.715380000000000109e+02 1.839130000000000109e+03
1.150000000000000050e-01 1.279764999999999930e-01 5.518195000000000050e+01 1.725715000000000146e+02 1.839719999999999800e+03
1.160000000000000059e-01 1.280199999999999949e-01 5.504415000000000191e+01 1.733999999999999773e+02 1.840224999999999909e+03
1.170000000000000068e-01 1.280564999999999898e-01 5.481170000000000186e+01 1.740300000000000011e+02 1.840650000000000091e+03
1.180000000000000077e-01 1.280854999999999910e-01 5.449004999999999654e+01 1.744730000000000132e+02 1.841000000000000000e+03
1.190000000000000085e-01 1.281090000000000007e-01 5.408605000000000018e+01 1.747425000000000068e+02 1.841269999999999982e+03
1.200000000000000094e-01 1.281255000000000033e-01 5.360760000000000502e+01 1.748534999999999968e+02 1.841474999999999909e+03
1.209999999999999964e-01 1.281365000000000143e-01 5.306345000000000312e+01 1.748240000000000123e+02 1.841610000000000127e+03
1.219999999999999973e-01 1.281420000000000059e-01 5.246295000000000641e+01 1.746730000000000018e+02 1.841684999999999945e+03
1.229999999999999982e-01 1.281434999999999935e-01 5.181584999999999752e+01 1.744189999999999827e+02 1.841710000000000036e+03
1.239999999999999991e-01 1.281410000000000049e-01 5.113195000000000334e+01 1.740815000000000055e+02 1.841684999999999945e+03
1.250000000000000000e-01 1.281349999999999989e-01 5.042079999999999984e+01 1.736800000000000068e+02 1.841625000000000000e+03
1.260000000000000009e-01 1.281260000000000177e-01 4.969140000000000157e+01 1.732299999999999898e+02 1.841529999999999973e+03
1.270000000000000018e-01 1.281150000000000067e-01 4.895199999999999818e+01 1.727470000000000141e+02 1.841410000000000082e+03
1.280000000000000027e-01 1.281025000000000080e-01 4.821004999999999541e+01 1.722454999999999927e+02 1.841264999999999873e+03
1.290000000000000036e-01 1.280879999999999797e-01 4.747175000000000011e+01 1.717355000000000018e+02 1.841105000000000018e+03
1.300000000000000044e-01 1.280735000000000068e-01 4.674224999999999852e+01 1.712244999999999777e+02 1.840940000000000055e+03
1.310000000000000053e-01 1.280580000000000052e-01 4.602524999999999977e+01 1.707189999999999941e+02 1.840764999999999873e+03
1.320000000000000062e-01 1.280419999999999892e-01 4.532339999999999947e+01 1.702205000000000155e+02 1.840579999999999927e+03
1.330000000000000071e-01 1.280260000000000009e-01 4.463790000000000191e+01 1.697309999999999945e+02 1.840400000000000091e+03
1.340000000000000080e-01 1.280100000000000127e-01 4.396880000000000166e+01 1.692479999999999905e+02 1.840220000000000027e+03
1.350000000000000089e-01 1.279939999999999967e-01 4.331515000000000271e+01 1.687665000000000077e+02 1.840029999999999973e+03
1.360000000000000098e-01 1.279779999999999807e-01 4.267499999999999716e+01 1.682819999999999823e+02 1.839839999999999918e+03
1.370000000000000107e-01 1.279609999999999914e-01 4.204550000000000409e+01 1.677860000000000014e+02 1.839644999999999982e+03
1.380000000000000115e-01 1.279435000000000155e-01 4.142329999999999757e+01 1.672715000000000032e+02 1.839450000000000045e+03
1.390000000000000124e-01 1.279254999999999975e-01 4.080469999999999686e+01 1.667305000000000064e+02 1.839240000000000009e+03
1.400000000000000133e-01 1.279069999999999929e-01 4.018545000000000300e+01 1.661530000000000200e+02 1.839019999999999982e+03
1.410000000000000142e-01 1.278870000000000007e-01 3.956159999999999854e+01 1.655314999999999941e+02 1.838789999999999964e+03
1.420000000000000151e-01 1.278650000000000064e-01 3.892919999999999447e+01 1.648580000000000041e+02 1.838545000000000073e+03
1.430000000000000160e-01 1.278420000000000112e-01 3.828459999999999752e+01 1.641254999999999882e+02 1.838275000000000091e+03
1.440000000000000169e-01 1.278164999999999996e-01 3.762465000000000259e+01 1.633290000000000077e+02 1.837990000000000009e+03
1.450000000000000178e-01 1.277895000000000003e-01 3.694700000000000273e+01 1.624644999999999868e+02 1.837679999999999836e+03
1.459999999999999909e-01 1.277594999999999981e-01 3.624980000000000047e+01 1.615300000000000011e+02 1.837340000000000146e+03
1.469999999999999918e-01 1.277274999999999938e-01 3.553229999999999933e+01 1.605260000000000105e+02 1.836980000000000018e+03
1.479999999999999927e-01 1.276935000000000153e-01 3.479470000000000596e+01 1.594540000000000077e+02 1.836590000000000146e+03
1.489999999999999936e-01 1.276570000000000205e-01 3.403799999999999670e+01 1.583189999999999884e+02 1.836174999999999955e+03
1.499999999999999944e-01 1.276184999999999958e-01 3.326429999999999865e+01 1.571260000000000048e+02 1.835739999999999782e+03
1.509999999999999953e-01 1.275775000000000103e-01 3.247659999999999769e+01 1.558845000000000027e+02 1.835275000000000091e+03
1.519999999999999962e-01 1.275359999999999827e-01 3.167885000000000062e+01 1.546030000000000086e+02 1.834795000000000073e+03
1.529999999999999971e-01 1.274915000000000076e-01 3.087554999999999694e+01 1.532950000000000159e+02 1.834300000000000182e+03
1.539999999999999980e-01 1.274470000000000047e-01 3.007209999999999894e+01 1.519714999999999918e+02 1.833795000000000073e+03
1.549999999999999989e-01 1.274015000000000009e-01 2.927414999999999878e+01 1.506460000000000150e+02 1.833275000000000091e+03
1.559999999999999998e-01 1.273559999999999970e-01 2.848770000000000024e+01 1.493329999999999984e+02 1.832759999999999991e+03
1.570000000000000007e-01 1.273104999999999931e-01 2.771890000000000143e+01 1.480450000000000159e+02 1.832244999999999891e+03
1.580000000000000016e-01 1.272655000000000036e-01 2.697364999999999924e+01 1.467970000000000255e+02 1.831735000000000127e+03
1.590000000000000024e-01 1.272215000000000151e-01 2.625755000000000194e+01 1.455994999999999777e+02 1.831234999999999900e+03
