# t [s], A [cm^2], U [cm/s], P [cPa], c [cm/s]
1.000000000000000021e-03 2.085385000000000155e-01 3.503207499999999586e-01 1.053025000000000091e+02 2.174909999999999854e+03
2.000000000000000042e-03 2.084624999999999950e-01 2.095550499999999872e+00 1.013746500000000026e+02 2.174300000000000182e+03
3.000000000000000062e-03 2.082760000000000167e-01 4.277279999999999305e+00 9.577850000000000819e+01 2.172864999999999782e+03
4.000000000000000083e-03 2.080335000000000101e-01 6.756525499999999518e+00 8.980965000000000487e+01 2.171029999999999745e+03
5.000000000000000104e-03 2.077855000000000119e-01 9.409435000000000215e+00 8.463880000000000337e+01 2.169170000000000073e+03
6.000000000000000125e-03 2.075545000000000029e-01 1.194740499999999983e+01 8.046815000000000850e+01 2.167465000000000146e+03
7.000000000000000146e-03 2.073424999999999851e-01 1.409138000000000090e+01 7.684059999999999491e+01 2.165935000000000400e+03
8.000000000000000167e-03 2.071544999999999914e-01 1.581654999999999944e+01 7.360894999999999300e+01 2.164605000000000018e+03
9.000000000000001055e-03 2.069969999999999866e-01 1.719924999999999926e+01 7.094689999999999941e+01 2.163505000000000109e+03
1.000000000000000194e-02 2.068709999999999993e-01 1.827629999999999910e+01 6.888779999999999859e+01 2.162635000000000218e+03
1.099999999999999936e-02 2.067745000000000000e-01 1.908765000000000001e+01 6.738304999999999723e+01 2.161975000000000364e+03
1.200000000000000025e-02 2.067045000000000132e-01 1.966300000000000026e+01 6.635214999999999463e+01 2.161510000000000218e+03
1.300000000000000114e-02 2.066525000000000167e-01 2.000000000000000000e+01 6.560110000000000241e+01 2.161175000000000182e+03
1.400000000000000203e-02 2.066129999999999911e-01 2.014390000000000214e+01 6.499134999999999707e+01 2.160930000000000291e+03
1.499999999999999944e-02 2.065895000000000092e-01 2.026545000000000130e+01 6.473930000000000007e+01 2.160789999999999964e+03
1.600000000000000033e-02 2.065974999999999895e-01 2.060379999999999967e+01 6.539669999999999561e+01 2.160855000000000018e+03
1.700000000000000122e-02 2.066520000000000024e-01 2.131145000000000067e+01 6.744155000000000655e+01 2.161239999999999782e+03
1.800000000000000211e-02 2.067559999999999953e-01 2.233910000000000196e+01 7.083979999999999677e+01 2.161960000000000036e+03
1.900000000000000300e-02 2.068935000000000080e-01 2.344399999999999906e+01 7.492334999999999923e+01 2.162930000000000291e+03
2.000000000000000042e-02 2.070339999999999958e-01 2.430274999999999963e+01 7.864315000000000566e+01 2.163934999999999945e+03
2.100000000000000130e-02 2.071454999999999824e-01 2.465594999999999715e+01 8.101945000000000618e+01 2.164750000000000000e+03
2.200000000000000219e-02 2.072039999999999993e-01 2.441299999999999670e+01 8.154404999999999859e+01 2.165204999999999927e+03
2.299999999999999961e-02 2.072045000000000137e-01 2.367354999999999876e+01 8.035210000000000719e+01 2.165255000000000109e+03
2.400000000000000050e-02 2.071600000000000108e-01 2.266639999999999944e+01 7.810490000000000066e+01 2.164965000000000146e+03
2.500000000000000139e-02 2.070934999999999859e-01 2.164229999999999876e+01 7.566679999999999495e+01 2.164510000000000218e+03
2.600000000000000228e-02 2.070285000000000042e-01 2.077469999999999928e+01 7.374334999999999241e+01 2.164050000000000182e+03
2.700000000000000316e-02 2.069799999999999973e-01 2.010914999999999964e+01 7.264189999999999259e+01 2.163699999999999818e+03
2.800000000000000058e-02 2.069519999999999971e-01 1.957199999999999918e+01 7.222845000000000937e+01 2.163480000000000018e+03
2.900000000000000147e-02 2.069344999999999934e-01 1.902335000000000065e+01 7.206204999999999927e+01 2.163355000000000018e+03
3.000000000000000236e-02 2.069150000000000156e-01 1.832835000000000036e+01 7.162494999999999834e+01 2.163215000000000146e+03
3.099999999999999978e-02 2.068790000000000073e-01 1.742050000000000054e+01 7.055719999999999459e+01 2.162974999999999909e+03
3.200000000000000067e-02 2.068225000000000202e-01 1.633660000000000068e+01 6.881579999999999586e+01 2.162585000000000036e+03
3.300000000000000155e-02 2.067505000000000037e-01 1.521204999999999963e+01 6.670799999999999841e+01 2.162085000000000036e+03
3.400000000000000244e-02 2.066780000000000006e-01 1.423874999999999957e+01 6.478909999999999059e+01 2.161565000000000055e+03
3.500000000000000333e-02 2.066235000000000155e-01 1.360079999999999956e+01 6.366689999999999827e+01 2.161170000000000073e+03
3.600000000000000422e-02 2.066040000000000099e-01 1.341494999999999926e+01 6.378990000000000293e+01 2.161010000000000218e+03
3.700000000000000511e-02 2.066299999999999804e-01 1.369374999999999964e+01 6.529664999999999964e+01 2.161159999999999854e+03
3.799999999999999906e-02 2.066999999999999948e-01 1.434295000000000009e+01 6.797049999999998704e+01 2.161630000000000109e+03
3.899999999999999994e-02 2.068025000000000002e-01 1.518750000000000000e+01 7.130185000000000173e+01 2.162329999999999927e+03
4.000000000000000083e-02 2.069175000000000042e-01 1.601480000000000103e+01 7.462180000000000746e+01 2.163135000000000218e+03
4.100000000000000172e-02 2.070239999999999858e-01 1.661999999999999744e+01 7.726085000000000491e+01 2.163890000000000327e+03
4.200000000000000261e-02 2.070994999999999919e-01 1.684360000000000213e+01 7.868600000000000705e+01 2.164444999999999709e+03
4.300000000000000350e-02 2.071294999999999942e-01 1.659275000000000233e+01 7.858924999999999272e+01 2.164680000000000291e+03
4.400000000000000439e-02 2.071064999999999989e-01 1.584595000000000020e+01 7.691270000000000095e+01 2.164545000000000073e+03
4.499999999999999833e-02 2.070289999999999908e-01 1.464314999999999856e+01 7.381825000000000614e+01 2.164025000000000091e+03
4.599999999999999922e-02 2.069044999999999912e-01 1.306597999999999971e+01 6.961759999999999593e+01 2.163159999999999854e+03
4.700000000000000011e-02 2.067430000000000101e-01 1.121685000000000088e+01 6.468925000000000125e+01 2.162029999999999745e+03
4.800000000000000100e-02 2.065565000000000040e-01 9.200575000000000614e+00 5.940514999999999901e+01 2.160724999999999909e+03
4.900000000000000189e-02 2.063574999999999993e-01 7.113575000000000870e+00 5.408330000000000126e+01 2.159320000000000164e+03
5.000000000000000278e-02 2.061564999999999925e-01 5.040017500000000261e+00 4.896975000000000477e+01 2.157894999999999982e+03
5.100000000000000366e-02 2.059614999999999918e-01 3.053549999999999986e+00 4.424600000000000222e+01 2.156510000000000218e+03
5.200000000000000455e-02 2.057804999999999773e-01 1.221614999999999895e+00 4.005020000000000380e+01 2.155220000000000255e+03
5.300000000000000544e-02 2.056189999999999962e-01 -3.905700000000000838e-01 3.650050000000000239e+01 2.154069999999999709e+03
5.399999999999999939e-02 2.054830000000000267e-01 -1.718237999999999932e+00 3.371269999999999811e+01 2.153090000000000146e+03
5.500000000000000028e-02 2.053770000000000040e-01 -2.698460999999999999e+00 3.180535000000000068e+01 2.152314999999999600e+03
5.600000000000000117e-02 2.053059999999999885e-01 -3.274340000000000028e+00 3.089399999999999835e+01 2.151789999999999964e+03
5.700000000000000205e-02 2.052749999999999853e-01 -3.400800000000000267e+00 3.107605000000000217e+01 2.151539999999999964e+03
5.800000000000000294e-02 2.052869999999999973e-01 -3.050424999999999720e+00 3.241294999999999504e+01 2.151595000000000255e+03
5.900000000000000383e-02 2.053439999999999988e-01 -2.217642000000000113e+00 3.491490000000000293e+01 2.151960000000000036e+03
6.000000000000000472e-02 2.054459999999999897e-01 -9.204250000000000487e-01 3.853275000000000006e+01 2.152650000000000091e+03
6.099999999999999867e-02 2.055909999999999960e-01 8.009749999999999925e-01 4.315864999999999441e+01 2.153635000000000218e+03
6.199999999999999956e-02 2.057729999999999837e-01 2.887645000000000017e+00 4.863550000000000040e+01 2.154894999999999982e+03
6.300000000000000044e-02 2.059870000000000034e-01 5.267119500000000620e+00 5.477165000000000106e+01 2.156389999999999873e+03
6.400000000000000133e-02 2.062260000000000204e-01 7.858929999999999971e+00 6.135770000000000124e+01 2.158069999999999709e+03
6.500000000000000222e-02 2.064825000000000133e-01 1.057970500000000058e+01 6.818255000000000621e+01 2.159880000000000109e+03
6.600000000000000311e-02 2.067485000000000017e-01 1.334749000000000052e+01 7.504630000000000223e+01 2.161765000000000327e+03
6.700000000000000400e-02 2.070159999999999778e-01 1.608569999999999922e+01 8.176974999999998772e+01 2.163675000000000182e+03
6.800000000000000488e-02 2.072789999999999910e-01 1.872589999999999932e+01 8.820160000000001332e+01 2.165560000000000400e+03
6.900000000000000577e-02 2.075319999999999943e-01 2.121085000000000065e+01 9.422389999999998622e+01 2.167375000000000000e+03
7.000000000000000666e-02 2.077700000000000102e-01 2.349719999999999942e+01 9.975724999999999909e+01 2.169095000000000255e+03
7.100000000000000755e-02 2.079910000000000092e-01 2.555700000000000216e+01 1.047616000000000014e+02 2.170699999999999818e+03
7.200000000000000844e-02 2.081930000000000169e-01 2.737924999999999898e+01 1.092409999999999997e+02 2.172175000000000182e+03
7.300000000000000933e-02 2.083764999999999923e-01 2.896920000000000073e+01 1.132390000000000043e+02 2.173515000000000327e+03
7.399999999999999634e-02 2.085430000000000061e-01 3.034709999999999752e+01 1.168335000000000008e+02 2.174739999999999782e+03
7.499999999999999722e-02 2.086959999999999926e-01 3.154485000000000028e+01 1.201289999999999907e+02 2.175860000000000127e+03
7.599999999999999811e-02 2.088384999999999825e-01 3.260240000000000293e+01 1.232439999999999998e+02 2.176909999999999854e+03
7.699999999999999900e-02 2.089755000000000085e-01 3.356300000000000239e+01 1.262980000000000018e+02 2.177914999999999964e+03
7.799999999999999989e-02 2.091105000000000047e-01 3.446849999999999881e+01 1.294014999999999986e+02 2.178904999999999745e+03
7.900000000000000078e-02 2.092474999999999752e-01 3.535564999999999714e+01 1.326415000000000077e+02 2.179909999999999854e+03
8.000000000000000167e-02 2.093895000000000062e-01 3.625249999999999773e+01 1.360754999999999768e+02 2.180949999999999818e+03
8.100000000000000255e-02 2.095380000000000020e-01 3.717674999999999841e+01 1.397290000000000134e+02 2.182029999999999745e+03
8.200000000000000344e-02 2.096935000000000049e-01 3.813439999999999941e+01 1.435914999999999964e+02 2.183159999999999854e+03
8.300000000000000433e-02 2.098565000000000014e-01 3.912014999999999532e+01 1.476225000000000023e+02 2.184340000000000146e+03
8.400000000000000522e-02 2.100235000000000019e-01 4.011870000000000402e+01 1.517535000000000025e+02 2.185555000000000291e+03
8.500000000000000611e-02 2.101935000000000053e-01 4.110645000000000238e+01 1.558980000000000246e+02 2.186795000000000073e+03
8.600000000000000699e-02 2.103619999999999934e-01 4.205395000000000039e+01 1.599579999999999984e+02 2.188030000000000200e+03
8.700000000000000788e-02 2.105255000000000043e-01 4.292839999999999634e+01 1.638310000000000173e+02 2.189224999999999909e+03
8.800000000000000877e-02 2.106810000000000072e-01 4.369639999999999702e+01 1.674180000000000064e+02 2.190364999999999782e+03
8.899999999999999578e-02 2.108254999999999990e-01 4.432620000000000005e+01 1.706315000000000168e+02 2.191425000000000182e+03
8.999999999999999667e-02 2.109535000000000160e-01 4.478990000000000293e+01 1.733965000000000032e+02 2.192375000000000000e+03
9.099999999999999756e-02 2.110644999999999882e-01 4.506525000000000603e+01 1.756589999999999918e+02 2.193194999999999709e+03
9.199999999999999845e-02 2.111560000000000104e-01 4.513680000000000092e+01 1.773834999999999980e+02 2.193880000000000109e+03
9.299999999999999933e-02 2.112259999999999971e-01 4.499689999999999657e+01 1.785579999999999927e+02 2.194409999999999854e+03
9.400000000000000022e-02 2.112749999999999906e-01 4.464609999999999701e+01 1.791915000000000191e+02 2.194789999999999964e+03
9.500000000000000111e-02 2.113035000000000052e-01 4.409284999999999854e+01 1.793125000000000000e+02 2.195010000000000218e+03
9.600000000000000200e-02 2.113119999999999998e-01 4.335299999999999443e+01 1.789679999999999893e+02 2.195090000000000146e+03
9.700000000000000289e-02 2.113025000000000042e-01 4.244870000000000232e+01 1.782185000000000059e+02 2.195034999999999854e+03
9.800000000000000377e-02 2.112775000000000070e-01 4.140715000000000146e+01 1.771355000000000075e+02 2.194869999999999891e+03
9.900000000000000466e-02 2.112394999999999967e-01 4.025914999999999822e+01 1.757955000000000041e+02 2.194605000000000018e+03
1.000000000000000056e-01 2.111915000000000042e-01 3.903690000000000282e+01 1.742794999999999845e+02 2.194265000000000327e+03
1.010000000000000064e-01 2.111365000000000047e-01 3.777320000000000277e+01 1.726634999999999991e+02 2.193869999999999891e+03
1.020000000000000073e-01 2.110775000000000012e-01 3.649954999999999927e+01 1.710199999999999818e+02 2.193445000000000164e+03
1.030000000000000082e-01 2.110170000000000101e-01 3.524479999999999791e+01 1.694134999999999991e+02 2.193000000000000000e+03
1.040000000000000091e-01 2.109575000000000200e-01 3.403425000000000011e+01 1.678985000000000127e+02 2.192565000000000055e+03
1.050000000000000100e-01 2.109004999999999908e-01 3.288864999999999839e+01 1.665155000000000030e+02 2.192149999999999636e+03
1.059999999999999970e-01 2.108480000000000076e-01 3.182345000000000113e+01 1.652955000000000041e+02 2.191760000000000218e+03
1.069999999999999979e-01 2.108015000000000028e-01 3.084855000000000302e+01 1.642535000000000025e+02 2.191414999999999964e+03
1.079999999999999988e-01 2.107609999999999761e-01 2.996779999999999688e+01 1.633910000000000196e+02 2.191109999999999673e+03
1.089999999999999997e-01 2.107264999999999833e-01 2.917920000000000158e+01 1.626965000000000146e+02 2.190855000000000018e+03
1.100000000000000006e-01 2.106979999999999964e-01 2.847540000000000049e+01 1.621460000000000150e+02 2.190639999999999873e+03
1.110000000000000014e-01 2.106744999999999868e-01 2.784384999999999977e+01 1.617040000000000077e+02 2.190460000000000036e+03
1.120000000000000023e-01 2.106545000000000223e-01 2.726810000000000045e+01 1.613254999999999768e+02 2.190300000000000182e+03
1.130000000000000032e-01 2.106365000000000043e-01 2.672865000000000180e+01 1.609625000000000057e+02 2.190164999999999964e+03
1.140000000000000041e-01 2.106179999999999997e-01 2.620449999999999946e+01 1.605600000000000023e+02 2.190029999999999745e+03
1.150000000000000050e-01 2.105974999999999930e-01 2.567410000000000281e+01 1.600670000000000073e+02 2.189875000000000000e+03
1.160000000000000059e-01 2.105739999999999834e-01 2.511704999999999899e+01 1.594350000000000023e+02 2.189699999999999818e+03
1.170000000000000068e-01 2.105444999999999955e-01 2.451550000000000296e+01 1.586229999999999905e+02 2.189485000000000127e+03
1.180000000000000077e-01 2.105080000000000007e-01 2.385494999999999877e+01 1.576005000000000109e+02 2.189220000000000255e+03
1.190000000000000085e-01 2.104634999999999978e-01 2.312565000000000026e+01 1.563489999999999895e+02 2.188894999999999982e+03
1.200000000000000094e-01 2.104099999999999859e-01 2.232280000000000086e+01 1.548645000000000209e+02 2.188515000000000327e+03
1.209999999999999964e-01 2.103479999999999794e-01 2.144740000000000180e+01 1.531569999999999823e+02 2.188065000000000055e+03
1.219999999999999973e-01 2.102779999999999927e-01 2.050590000000000046e+01 1.512500000000000000e+02 2.187559999999999945e+03
1.229999999999999982e-01 2.102005000000000123e-01 1.950975000000000037e+01 1.491795000000000186e+02 2.187000000000000000e+03
1.239999999999999991e-01 2.101169999999999982e-01 1.847500000000000142e+01 1.469925000000000068e+02 2.186394999999999982e+03
1.250000000000000000e-01 2.100299999999999945e-01 1.742094999999999771e+01 1.447429999999999950e+02 2.185765000000000327e+03
1.260000000000000009e-01 2.099404999999999744e-01 1.636949999999999861e+01 1.424904999999999973e+02 2.185114999999999782e+03
1.270000000000000018e-01 2.098510000000000097e-01 1.534315000000000140e+01 1.402920000000000016e+02 2.184465000000000146e+03
1.280000000000000027e-01 2.097644999999999926e-01 1.436434999999999995e+01 1.382069999999999936e+02 2.183835000000000036e+03
1.290000000000000036e-01 2.096819999999999795e-01 1.345384999999999920e+01 1.362855000000000132e+02 2.183234999999999673e+03
1.300000000000000044e-01 2.096065000000000011e-01 1.262985000000000113e+01 1.345715000000000146e+02 2.182680000000000291e+03
1.310000000000000053e-01 2.095385000000000164e-01 1.190689000000000064e+01 1.330969999999999800e+02 2.182180000000000291e+03
1.320000000000000062e-01 2.094799999999999995e-01 1.129542000000000002e+01 1.318849999999999909e+02 2.181744999999999891e+03
1.330000000000000071e-01 2.094309999999999783e-01 1.080149000000000115e+01 1.309445000000000050e+02 2.181385000000000218e+03
1.340000000000000080e-01 2.093929999999999958e-01 1.042651500000000020e+01 1.302754999999999939e+02 2.181095000000000255e+03
1.350000000000000089e-01 2.093650000000000233e-01 1.016749500000000062e+01 1.298650000000000091e+02 2.180885000000000218e+03
1.360000000000000098e-01 2.093464999999999909e-01 1.001754500000000014e+01 1.296915000000000191e+02 2.180739999999999782e+03
1.370000000000000107e-01 2.093369999999999953e-01 9.966390000000000526e+00 1.297284999999999968e+02 2.180664999999999964e+03
1.380000000000000115e-01 2.093364999999999809e-01 1.000101499999999888e+01 1.299395000000000095e+02 2.180649999999999636e+03
1.390000000000000124e-01 2.093415000000000137e-01 1.010641000000000034e+01 1.302884999999999991e+02 2.180680000000000291e+03
1.400000000000000133e-01 2.093524999999999969e-01 1.026648499999999942e+01 1.307370000000000232e+02 2.180755000000000109e+03
1.410000000000000142e-01 2.093669999999999976e-01 1.046470000000000056e+01 1.312450000000000045e+02 2.180850000000000364e+03
1.420000000000000151e-01 2.093844999999999734e-01 1.068464999999999954e+01 1.317769999999999868e+02 2.180970000000000255e+03
1.430000000000000160e-01 2.094030000000000058e-01 1.091104999999999947e+01 1.322980000000000018e+02 2.181100000000000364e+03
1.440000000000000169e-01 2.094210000000000238e-01 1.112969999999999970e+01 1.327794999999999845e+02 2.181234999999999673e+03
1.450000000000000178e-01 2.094380000000000130e-01 1.132845000000000013e+01 1.331970000000000027e+02 2.181355000000000018e+03
1.459999999999999909e-01 2.094524999999999859e-01 1.149725000000000108e+01 1.335305000000000177e+02 2.181460000000000036e+03
1.469999999999999918e-01 2.094639999999999835e-01 1.162849999999999895e+01 1.337674999999999841e+02 2.181545000000000073e+03
1.479999999999999927e-01 2.094725000000000059e-01 1.171710000000000029e+01 1.339000000000000057e+02 2.181605000000000018e+03
1.489999999999999936e-01 2.094765000000000099e-01 1.176055000000000028e+01 1.339275000000000091e+02 2.181640000000000327e+03
1.499999999999999944e-01 2.094774999999999832e-01 1.175894999999999868e+01 1.338525000000000205e+02 2.181649999999999636e+03
1.509999999999999953e-01 2.094739999999999935e-01 1.171464999999999890e+01 1.336860000000000070e+02 2.181630000000000109e+03
1.519999999999999962e-01 2.094679999999999875e-01 1.163204999999999956e+01 1.334395000000000095e+02 2.181585000000000036e+03
1.529999999999999971e-01 2.094584999999999919e-01 1.151719999999999899e+01 1.331310000000000002e+02 2.181519999999999982e+03
1.539999999999999980e-01 2.094469999999999943e-01 1.137739999999999974e+01 1.327785000000000082e+02 2.181440000000000055e+03
1.549999999999999989e-01 2.094340000000000090e-01 1.122060000000000102e+01 1.324014999999999986e+02 2.181350000000000364e+03
1.559999999999999998e-01 2.094195000000000084e-01 1.105499999999999972e+01 1.320199999999999818e+02 2.181250000000000000e+03
1.570000000000000007e-01 2.094054999999999944e-01 1.088834999999999908e+01 1.316514999999999986e+02 2.181144999999999982e+03
1.580000000000000016e-01 2.093920000000000226e-01 1.072776999999999958e+01 1.313115000000000236e+02 2.181050000000000182e+03
1.590000000000000024e-01 2.093794999999999962e-01 1.057919000000000054e+01 1.310110000000000241e+02 2.180954999999999927e+03
