# t [s], A [cm^2], U [cm/s], P [cPa], c [cm/s]
1.000000000000000021e-03 7.439729999999999954e-01 5.899999999999995526e-03 1.000661000000000058e+02 1.781115000000000009e+03
2.000000000000000042e-03 7.439655000000000573e-01 5.720150000000000234e-03 1.000372000000000128e+02 1.781110000000000127e+03
3.000000000000000062e-03 7.440444999999999975e-01 1.427573500000000051e-01 1.002026000000000039e+02 1.781150000000000091e+03
4.000000000000000083e-03 7.440780000000000172e-01 2.212899999999999867e-01 1.002999000000000080e+02 1.781170000000000073e+03
5.000000000000000104e-03 7.440089999999999204e-01 1.351029999999999731e-01 1.001104500000000002e+02 1.781130000000000109e+03
6.000000000000000125e-03 7.439275000000000748e-01 1.946700000000001207e-02 9.977574999999998795e+01 1.781059999999999945e+03
7.000000000000000146e-03 7.438354999999999828e-01 -1.294149999999999467e-01 9.932529999999999859e+01 1.780970000000000027e+03
8.000000000000000167e-03 7.436644999999999506e-01 -4.304000000000000048e-01 9.859139999999999304e+01 1.780820000000000164e+03
9.000000000000001055e-03 7.434064999999999701e-01 -8.994400000000000173e-01 9.749705000000000155e+01 1.780599999999999909e+03
1.000000000000000194e-02 7.430404999999999927e-01 -1.559445000000000192e+00 9.595609999999999218e+01 1.780284999999999854e+03
1.099999999999999936e-02 7.425450000000000106e-01 -2.425409999999999844e+00 9.388235000000000241e+01 1.779855000000000018e+03
1.200000000000000025e-02 7.419685000000000308e-01 -3.388040000000000163e+00 9.136775000000000091e+01 1.779325000000000045e+03
1.300000000000000114e-02 7.414160000000000750e-01 -4.226732499999999781e+00 8.871535000000000082e+01 1.778740000000000009e+03
1.400000000000000203e-02 7.409779999999999145e-01 -4.740056000000000047e+00 8.627405000000000257e+01 1.778174999999999955e+03
1.499999999999999944e-02 7.406779999999999475e-01 -4.847409999999999997e+00 8.425905000000000200e+01 1.777670000000000073e+03
1.600000000000000033e-02 7.404775000000000107e-01 -4.599935000000000329e+00 8.268189999999999884e+01 1.777250000000000000e+03
1.700000000000000122e-02 7.403029999999999333e-01 -4.129020000000000579e+00 8.138935000000000741e+01 1.776880000000000109e+03
1.800000000000000211e-02 7.400895000000000667e-01 -3.576489999999999725e+00 8.015995000000000914e+01 1.776519999999999982e+03
1.900000000000000300e-02 7.397990000000000954e-01 -3.036766000000000076e+00 7.880719999999999459e+01 1.776150000000000091e+03
2.000000000000000042e-02 7.394359999999999822e-01 -2.530329999999999746e+00 7.724994999999999834e+01 1.775740000000000009e+03
2.100000000000000130e-02 7.390330000000000510e-01 -2.016529999999999934e+00 7.552224999999999966e+01 1.775295000000000073e+03
2.200000000000000219e-02 7.386325000000000252e-01 -1.435085000000000166e+00 7.372720000000001050e+01 1.774839999999999918e+03
2.299999999999999961e-02 7.382569999999999411e-01 -7.518750000000000711e-01 7.196414999999998940e+01 1.774380000000000109e+03
2.400000000000000050e-02 7.379039999999998933e-01 1.277000000000017010e-02 7.026855000000000473e+01 1.773930000000000064e+03
2.500000000000000139e-02 7.375439999999999774e-01 7.811849999999997962e-01 6.858509999999999707e+01 1.773480000000000018e+03
2.600000000000000228e-02 7.371289999999999232e-01 1.437230000000000008e+00 6.677845000000000653e+01 1.773014999999999873e+03
2.700000000000000316e-02 7.366120000000000445e-01 1.858384999999999732e+00 6.467385000000000161e+01 1.772490000000000009e+03
2.800000000000000058e-02 7.359599999999999476e-01 1.951045000000000140e+00 6.211374999999999602e+01 1.771875000000000000e+03
2.900000000000000147e-02 7.351674999999999738e-01 1.678420000000000023e+00 5.901330000000000098e+01 1.771154999999999973e+03
3.000000000000000236e-02 7.342599999999999127e-01 1.071620000000000239e+00 5.539580000000000126e+01 1.770324999999999818e+03
3.099999999999999978e-02 7.332875000000000920e-01 2.202549999999998676e-01 5.139530000000000598e+01 1.769409999999999854e+03
3.200000000000000067e-02 7.323125000000000329e-01 -7.525649999999997064e-01 4.722899999999999920e+01 1.768445000000000164e+03
3.300000000000000155e-02 7.313969999999999638e-01 -1.719125000000000014e+00 4.315080000000000382e+01 1.767490000000000009e+03
3.400000000000000244e-02 7.305900000000000727e-01 -2.571119999999999628e+00 3.940529999999999688e+01 1.766590000000000146e+03
3.500000000000000333e-02 7.299260000000000748e-01 -3.232174999999999798e+00 3.619189999999999685e+01 1.765795000000000073e+03
3.600000000000000422e-02 7.294205000000000272e-01 -3.660319999999999574e+00 3.364650000000000318e+01 1.765130000000000109e+03
3.700000000000000511e-02 7.290775000000000450e-01 -3.841927599999999998e+00 3.183849999999999625e+01 1.764625000000000000e+03
3.799999999999999906e-02 7.288900000000000379e-01 -3.781449999999999534e+00 3.078135000000000332e+01 1.764289999999999964e+03
3.899999999999999994e-02 7.288494999999999280e-01 -3.490685000000000038e+00 3.044950000000000045e+01 1.764119999999999891e+03
4.000000000000000083e-02 7.289455000000000240e-01 -2.980465000000000142e+00 3.079720000000000013e+01 1.764115000000000009e+03
4.100000000000000172e-02 7.291684999999999972e-01 -2.256810500000000275e+00 3.177309999999999945e+01 1.764259999999999991e+03
4.200000000000000261e-02 7.295120000000000493e-01 -1.321900000000000075e+00 3.332779999999999632e+01 1.764549999999999955e+03
4.300000000000000350e-02 7.299689999999999790e-01 -1.783899999999998265e-01 3.541394999999999982e+01 1.764970000000000027e+03
4.400000000000000439e-02 7.305295000000000538e-01 1.165150000000000130e+00 3.798219999999999885e+01 1.765509999999999991e+03
4.499999999999999833e-02 7.311814999999999287e-01 2.689929999999999488e+00 4.097449999999999903e+01 1.766154999999999973e+03
4.599999999999999922e-02 7.319065000000000154e-01 4.365280000000000271e+00 4.432049999999999557e+01 1.766889999999999873e+03
4.700000000000000011e-02 7.326844999999999608e-01 6.149944999999999773e+00 4.793649999999999523e+01 1.767704999999999927e+03
4.800000000000000100e-02 7.334935000000000205e-01 7.995556499999999289e+00 5.172890000000000299e+01 1.768575000000000045e+03
4.900000000000000189e-02 7.343105000000000881e-01 9.851630000000000109e+00 5.560020000000000095e+01 1.769470000000000027e+03
5.000000000000000278e-02 7.351159999999999917e-01 1.167056000000000004e+01 5.945710000000000406e+01 1.770380000000000109e+03
5.100000000000000366e-02 7.358934999999999782e-01 1.341189999999999927e+01 6.321815000000000850e+01 1.771279999999999973e+03
5.200000000000000455e-02 7.366329999999999822e-01 1.504496499999999948e+01 6.681990000000000407e+01 1.772159999999999854e+03
5.300000000000000544e-02 7.373264999999999958e-01 1.655020000000000024e+01 7.022024999999999295e+01 1.773000000000000000e+03
5.399999999999999939e-02 7.379755000000000065e-01 1.791864999999999952e+01 7.340000000000000568e+01 1.773800000000000182e+03
5.500000000000000028e-02 7.385810000000000430e-01 1.915080000000000027e+01 7.636070000000000846e+01 1.774549999999999955e+03
5.600000000000000117e-02 7.391499999999999737e-01 2.025455000000000183e+01 7.912190000000001078e+01 1.775255000000000109e+03
5.700000000000000205e-02 7.396914999999999463e-01 2.124314999999999998e+01 8.171639999999999304e+01 1.775925000000000182e+03
5.800000000000000294e-02 7.402135000000000797e-01 2.213324999999999676e+01 8.418600000000000705e+01 1.776569999999999936e+03
5.900000000000000383e-02 7.407269999999999133e-01 2.294324999999999903e+01 8.657615000000001260e+01 1.777190000000000055e+03
6.000000000000000472e-02 7.412399999999998990e-01 2.369109999999999872e+01 8.893170000000000641e+01 1.777795000000000073e+03
6.099999999999999867e-02 7.417605000000000448e-01 2.439345000000000141e+01 9.129279999999999973e+01 1.778404999999999973e+03
6.199999999999999956e-02 7.422929999999999806e-01 2.506350000000000122e+01 9.369085000000001173e+01 1.779014999999999873e+03
6.300000000000000044e-02 7.428414999999999324e-01 2.571054999999999779e+01 9.614589999999999748e+01 1.779634999999999991e+03
6.400000000000000133e-02 7.434054999999999414e-01 2.633879999999999910e+01 9.866575000000000273e+01 1.780269999999999982e+03
6.500000000000000222e-02 7.439820000000000322e-01 2.694729999999999848e+01 1.012431500000000000e+02 1.780914999999999964e+03
6.600000000000000311e-02 7.445645000000000735e-01 2.753059999999999974e+01 1.038585999999999956e+02 1.781569999999999936e+03
6.700000000000000400e-02 7.451464999999999339e-01 2.807920000000000016e+01 1.064814999999999969e+02 1.782224999999999909e+03
6.800000000000000488e-02 7.457190000000000207e-01 2.858084999999999809e+01 1.090749999999999886e+02 1.782880000000000109e+03
6.900000000000000577e-02 7.462709999999999066e-01 2.902205000000000013e+01 1.115955000000000013e+02 1.783519999999999982e+03
7.000000000000000666e-02 7.467949999999999866e-01 2.938929999999999865e+01 1.139985000000000070e+02 1.784125000000000000e+03
7.100000000000000755e-02 7.472820000000000018e-01 2.966989999999999839e+01 1.162425000000000068e+02 1.784710000000000036e+03
7.200000000000000844e-02 7.477249999999999730e-01 2.985334999999999894e+01 1.182914999999999992e+02 1.785244999999999891e+03
7.300000000000000933e-02 7.481169999999999209e-01 2.993180000000000263e+01 1.201154999999999973e+02 1.785724999999999909e+03
7.399999999999999634e-02 7.484560000000000102e-01 2.990030000000000143e+01 1.216924999999999955e+02 1.786154999999999973e+03
7.499999999999999722e-02 7.487384999999999735e-01 2.975730000000000075e+01 1.230109999999999957e+02 1.786519999999999982e+03
7.599999999999999811e-02 7.489660000000000206e-01 2.950469999999999970e+01 1.240665000000000049e+02 1.786829999999999927e+03
7.699999999999999900e-02 7.491384999999999295e-01 2.914775000000000205e+01 1.248654999999999973e+02 1.787069999999999936e+03
7.799999999999999989e-02 7.492620000000000946e-01 2.869469999999999743e+01 1.254215000000000089e+02 1.787250000000000000e+03
7.900000000000000078e-02 7.493384999999999074e-01 2.815680000000000049e+01 1.257560000000000002e+02 1.787380000000000109e+03
8.000000000000000167e-02 7.493769999999999598e-01 2.754775000000000063e+01 1.258960000000000008e+02 1.787454999999999927e+03
8.100000000000000255e-02 7.493819999999999926e-01 2.688300000000000267e+01 1.258725000000000023e+02 1.787490000000000009e+03
8.200000000000000344e-02 7.493619999999999726e-01 2.617900000000000205e+01 1.257210000000000036e+02 1.787490000000000009e+03
8.300000000000000433e-02 7.493244999999999489e-01 2.545284999999999798e+01 1.254774999999999920e+02 1.787460000000000036e+03
8.400000000000000522e-02 7.492775000000000407e-01 2.472080000000000055e+01 1.251760000000000019e+02 1.787404999999999973e+03
8.500000000000000611e-02 7.492259999999999476e-01 2.399794999999999945e+01 1.248489999999999895e+02 1.787345000000000027e+03
8.600000000000000699e-02 7.491760000000000641e-01 2.329724999999999824e+01 1.245260000000000105e+02 1.787279999999999973e+03
8.700000000000000788e-02 7.491330000000000489e-01 2.262884999999999991e+01 1.242295000000000016e+02 1.787215000000000146e+03
8.800000000000000877e-02 7.490985000000000005e-01 2.199974999999999881e+01 1.239754999999999967e+02 1.787159999999999854e+03
8.899999999999999578e-02 7.490740000000000176e-01 2.141355000000000075e+01 1.237734999999999985e+02 1.787099999999999909e+03
8.999999999999999667e-02 7.490594999999999892e-01 2.087049999999999983e+01 1.236254999999999882e+02 1.787065000000000055e+03
9.099999999999999756e-02 7.490539999999999976e-01 2.036759999999999948e+01 1.235275000000000034e+02 1.787034999999999854e+03
9.199999999999999845e-02 7.490529999999999688e-01 1.989920000000000044e+01 1.234680000000000035e+02 1.787009999999999991e+03
9.299999999999999933e-02 7.490544999999999565e-01 1.945734999999999815e+01 1.234314999999999998e+02 1.786994999999999891e+03
9.400000000000000022e-02 7.490535000000000387e-01 1.903280000000000172e+01 1.233995000000000033e+02 1.786980000000000018e+03
9.500000000000000111e-02 7.490459999999999896e-01 1.861499999999999844e+01 1.233505000000000109e+02 1.786965000000000146e+03
9.600000000000000200e-02 7.490269999999999984e-01 1.819350000000000023e+01 1.232634999999999934e+02 1.786940000000000055e+03
9.700000000000000289e-02 7.489924999999999500e-01 1.775819999999999865e+01 1.231184999999999974e+02 1.786905000000000200e+03
9.800000000000000377e-02 7.489395000000000913e-01 1.730004999999999882e+01 1.228954999999999984e+02 1.786855000000000018e+03
9.900000000000000466e-02 7.488639999999999741e-01 1.681184999999999974e+01 1.225815000000000055e+02 1.786779999999999973e+03
1.000000000000000056e-01 7.487665000000000015e-01 1.628835000000000122e+01 1.221659999999999968e+02 1.786684999999999945e+03
1.010000000000000064e-01 7.486444999999999350e-01 1.572705000000000020e+01 1.216440000000000055e+02 1.786569999999999936e+03
1.020000000000000073e-01 7.484999999999999432e-01 1.512815000000000154e+01 1.210169999999999959e+02 1.786424999999999955e+03
1.030000000000000082e-01 7.483360000000000012e-01 1.449460000000000015e+01 1.202930000000000064e+02 1.786259999999999991e+03
1.040000000000000091e-01 7.481539999999999857e-01 1.383209000000000088e+01 1.194834999999999923e+02 1.786069999999999936e+03
1.050000000000000100e-01 7.479594999999999994e-01 1.314875500000000130e+01 1.186069999999999993e+02 1.785869999999999891e+03
1.059999999999999970e-01 7.477579999999999227e-01 1.245478499999999933e+01 1.176860000000000070e+02 1.785654999999999973e+03
1.069999999999999979e-01 7.475549999999999695e-01 1.176165999999999912e+01 1.167460000000000093e+02 1.785429999999999836e+03
1.079999999999999988e-01 7.473555000000000614e-01 1.108182500000000026e+01 1.158135000000000048e+02 1.785210000000000036e+03
1.089999999999999997e-01 7.471665000000000667e-01 1.042780500000000110e+01 1.149159999999999968e+02 1.784984999999999900e+03
1.100000000000000006e-01 7.469920000000001004e-01 9.811659999999999826e+00 1.140784999999999911e+02 1.784779999999999973e+03
1.110000000000000014e-01 7.468384999999999607e-01 9.244144999999999612e+00 1.133264999999999958e+02 1.784589999999999918e+03
1.120000000000000023e-01 7.467090000000000671e-01 8.734404999999998864e+00 1.126779999999999973e+02 1.784420000000000073e+03
1.130000000000000032e-01 7.466055000000000330e-01 8.289339999999999264e+00 1.121490000000000009e+02 1.784275000000000091e+03
1.140000000000000041e-01 7.465300000000000269e-01 7.913414999999999644e+00 1.117479999999999905e+02 1.784159999999999854e+03
1.150000000000000050e-01 7.464835000000000775e-01 7.608475000000000321e+00 1.114795000000000016e+02 1.784075000000000045e+03
1.160000000000000059e-01 7.464640000000000164e-01 7.373759999999999870e+00 1.113414999999999964e+02 1.784019999999999982e+03
1.170000000000000068e-01 7.464699999999999669e-01 7.206139999999999546e+00 1.113269999999999982e+02 1.784000000000000000e+03
1.180000000000000077e-01 7.464984999999999538e-01 7.100360000000000227e+00 1.114240000000000066e+02 1.784000000000000000e+03
1.190000000000000085e-01 7.465459999999999319e-01 7.049459999999999837e+00 1.116175000000000068e+02 1.784025000000000091e+03
1.200000000000000094e-01 7.466085000000000083e-01 7.045250000000000234e+00 1.118900000000000006e+02 1.784075000000000045e+03
1.209999999999999964e-01 7.466820000000000679e-01 7.078755000000000130e+00 1.122220000000000084e+02 1.784139999999999873e+03
1.219999999999999973e-01 7.467624999999999957e-01 7.140735000000000277e+00 1.125944999999999965e+02 1.784215000000000146e+03
1.229999999999999982e-01 7.468455000000000510e-01 7.222065000000000623e+00 1.129879999999999995e+02 1.784299999999999955e+03
1.239999999999999991e-01 7.469274999999999665e-01 7.314149999999999707e+00 1.133855000000000075e+02 1.784389999999999873e+03
1.250000000000000000e-01 7.470064999999999067e-01 7.409189999999999721e+00 1.137720000000000056e+02 1.784474999999999909e+03
1.260000000000000009e-01 7.470799999999999663e-01 7.500434999999999519e+00 1.141359999999999957e+02 1.784559999999999945e+03
1.270000000000000018e-01 7.471455000000000179e-01 7.582314999999999472e+00 1.144664999999999964e+02 1.784639999999999873e+03
1.280000000000000027e-01 7.472024999999999917e-01 7.650544999999999263e+00 1.147584999999999980e+02 1.784715000000000146e+03
1.290000000000000036e-01 7.472505000000000397e-01 7.702139999999999986e+00 1.150074999999999932e+02 1.784775000000000091e+03
1.300000000000000044e-01 7.472894999999999399e-01 7.735370000000000523e+00 1.152125000000000057e+02 1.784825000000000045e+03
1.310000000000000053e-01 7.473199999999999843e-01 7.749710000000000321e+00 1.153760000000000048e+02 1.784869999999999891e+03
1.320000000000000062e-01 7.473425000000000207e-01 7.745720000000000383e+00 1.155004999999999882e+02 1.784910000000000082e+03
1.330000000000000071e-01 7.473594999999999544e-01 7.724890000000000256e+00 1.155919999999999987e+02 1.784940000000000055e+03
1.340000000000000080e-01 7.473710000000000075e-01 7.689470000000000027e+00 1.156570000000000107e+02 1.784960000000000036e+03
1.350000000000000089e-01 7.473799999999999333e-01 7.642265000000000086e+00 1.157025000000000006e+02 1.784974999999999909e+03
1.360000000000000098e-01 7.473870000000000235e-01 7.586415000000000575e+00 1.157359999999999900e+02 1.784989999999999782e+03
1.370000000000000107e-01 7.473940000000000028e-01 7.525190000000000268e+00 1.157644999999999982e+02 1.785000000000000000e+03
1.380000000000000115e-01 7.474024999999999697e-01 7.461769999999999570e+00 1.157950000000000017e+02 1.785014999999999873e+03
1.390000000000000124e-01 7.474129999999999940e-01 7.399039999999999395e+00 1.158319999999999936e+02 1.785025000000000091e+03
1.400000000000000133e-01 7.474260000000000348e-01 7.339425000000000310e+00 1.158815000000000026e+02 1.785039999999999964e+03
1.410000000000000142e-01 7.474429999999999685e-01 7.284754999999999647e+00 1.159445000000000050e+02 1.785055000000000064e+03
1.420000000000000151e-01 7.474635000000000584e-01 7.236220000000000319e+00 1.160234999999999985e+02 1.785075000000000045e+03
1.430000000000000160e-01 7.474870000000000125e-01 7.194304999999999950e+00 1.161175000000000068e+02 1.785099999999999909e+03
1.440000000000000169e-01 7.475129999999999830e-01 7.158860000000000667e+00 1.162240000000000038e+02 1.785119999999999891e+03
1.450000000000000178e-01 7.475410000000000110e-01 7.129160000000000608e+00 1.163414999999999964e+02 1.785150000000000091e+03
1.459999999999999909e-01 7.475704999999999156e-01 7.104029999999999845e+00 1.164639999999999986e+02 1.785179999999999836e+03
1.469999999999999918e-01 7.475985000000000547e-01 7.082005000000000550e+00 1.165875000000000057e+02 1.785210000000000036e+03
1.479999999999999927e-01 7.476264999999999716e-01 7.061465000000000103e+00 1.167069999999999936e+02 1.785240000000000009e+03
1.489999999999999936e-01 7.476510000000000655e-01 7.040815000000000268e+00 1.168180000000000121e+02 1.785269999999999982e+03
1.499999999999999944e-01 7.476730000000000320e-01 7.018634999999999735e+00 1.169159999999999968e+02 1.785289999999999964e+03
1.509999999999999953e-01 7.476905000000000356e-01 6.993775000000000297e+00 1.169975000000000023e+02 1.785315000000000055e+03
1.519999999999999962e-01 7.477044999999999941e-01 6.965455000000000396e+00 1.170610000000000070e+02 1.785329999999999927e+03
1.529999999999999971e-01 7.477139999999999898e-01 6.933315000000000339e+00 1.171050000000000040e+02 1.785345000000000027e+03
1.539999999999999980e-01 7.477190000000000225e-01 6.897439999999999571e+00 1.171295000000000073e+02 1.785349999999999909e+03
1.549999999999999989e-01 7.477205000000000101e-01 6.858340000000000103e+00 1.171364999999999981e+02 1.785355000000000018e+03
1.559999999999999998e-01 7.477190000000000225e-01 6.816930000000000156e+00 1.171280000000000001e+02 1.785355000000000018e+03
1.570000000000000007e-01 7.477154999999999774e-01 6.774460000000000370e+00 1.171080000000000041e+02 1.785349999999999909e+03
1.580000000000000016e-01 7.477099999999999858e-01 6.732465000000000366e+00 1.170805000000000007e+02 1.785349999999999909e+03
1.590000000000000024e-01 7.477044999999999941e-01 6.692695000000000505e+00 1.170510000000000019e+02 1.785340000000000146e+03
