# t [s], A [cm^2], U [cm/s], P [cPa], c [cm/s]
1.000000000000000021e-03 1.408850000000000102e-01 4.539799999999999947e-01 9.525700000000000500e+01 1.844429999999999836e+03
2.000000000000000042e-03 1.408500000000000030e-01 2.151115499999999958e+00 9.183605000000000018e+01 1.844090000000000146e+03
3.000000000000000062e-03 1.407430000000000070e-01 4.162412500000000293e+00 8.744549999999999557e+01 1.843090000000000146e+03
4.000000000000000083e-03 1.405910000000000215e-01 6.372394499999999518e+00 8.286375000000001023e+01 1.841700000000000045e+03
5.000000000000000104e-03 1.404239999999999933e-01 8.713525000000000631e+00 7.886105000000000587e+01 1.840170000000000073e+03
6.000000000000000125e-03 1.402585000000000082e-01 1.102740999999999971e+01 7.564304999999998813e+01 1.838675000000000182e+03
7.000000000000000146e-03 1.401014999999999899e-01 1.313058499999999995e+01 7.296659999999999968e+01 1.837279999999999973e+03
8.000000000000000167e-03 1.399549999999999961e-01 1.494355499999999992e+01 7.058680000000001087e+01 1.836000000000000000e+03
9.000000000000001055e-03 1.398225000000000162e-01 1.649344999999999928e+01 6.849635000000000673e+01 1.834855000000000018e+03
1.000000000000000194e-02 1.397069999999999979e-01 1.781490000000000151e+01 6.675140000000000384e+01 1.833865000000000009e+03
1.099999999999999936e-02 1.396085000000000242e-01 1.891859999999999786e+01 6.532634999999999081e+01 1.833030000000000200e+03
1.200000000000000025e-02 1.395250000000000101e-01 1.981494999999999962e+01 6.416134999999999877e+01 1.832335000000000036e+03
1.300000000000000114e-02 1.394564999999999833e-01 2.051715000000000089e+01 6.320165000000000077e+01 1.831764999999999873e+03
1.400000000000000203e-02 1.393989999999999951e-01 2.103705000000000069e+01 6.238575000000000159e+01 1.831295000000000073e+03
1.499999999999999944e-02 1.393510000000000026e-01 2.140310000000000201e+01 6.167699999999999960e+01 1.830909999999999854e+03
1.600000000000000033e-02 1.393115000000000048e-01 2.168529999999999802e+01 6.114005000000000223e+01 1.830599999999999909e+03
1.700000000000000122e-02 1.392844999999999778e-01 2.199049999999999727e+01 6.096670000000000300e+01 1.830394999999999982e+03
1.800000000000000211e-02 1.392754999999999965e-01 2.242184999999999917e+01 6.139404999999999291e+01 1.830329999999999927e+03
1.900000000000000300e-02 1.392889999999999961e-01 2.302939999999999898e+01 6.256445000000000078e+01 1.830454999999999927e+03
2.000000000000000042e-02 1.393270000000000064e-01 2.378334999999999866e+01 6.441724999999999568e+01 1.830785000000000082e+03
2.100000000000000130e-02 1.393845000000000223e-01 2.458259999999999934e+01 6.667619999999999436e+01 1.831280000000000200e+03
2.200000000000000219e-02 1.394529999999999936e-01 2.529044999999999987e+01 6.892945000000000277e+01 1.831869999999999891e+03
2.299999999999999961e-02 1.395204999999999917e-01 2.578024999999999878e+01 7.075870000000000459e+01 1.832454999999999927e+03
2.400000000000000050e-02 1.395770000000000066e-01 2.597240000000000038e+01 7.186249999999999716e+01 1.832954999999999927e+03
2.500000000000000139e-02 1.396145000000000025e-01 2.585224999999999795e+01 7.213139999999999930e+01 1.833300000000000182e+03
2.600000000000000228e-02 1.396310000000000051e-01 2.546594999999999942e+01 7.165545000000000186e+01 1.833454999999999927e+03
2.700000000000000316e-02 1.396275000000000155e-01 2.489799999999999969e+01 7.067019999999999413e+01 1.833449999999999818e+03
2.800000000000000058e-02 1.396100000000000119e-01 2.424159999999999826e+01 6.946665000000000134e+01 1.833320000000000164e+03
2.900000000000000147e-02 1.395854999999999735e-01 2.357164999999999822e+01 6.829980000000000473e+01 1.833115000000000009e+03
3.000000000000000236e-02 1.395589999999999886e-01 2.292914999999999992e+01 6.732604999999999507e+01 1.832894999999999982e+03
3.099999999999999978e-02 1.395345000000000057e-01 2.231954999999999956e+01 6.658209999999999695e+01 1.832690000000000055e+03
3.200000000000000067e-02 1.395124999999999837e-01 2.172204999999999941e+01 6.600540000000000873e+01 1.832505000000000109e+03
3.300000000000000155e-02 1.394920000000000049e-01 2.110600000000000165e+01 6.548054999999999382e+01 1.832329999999999927e+03
3.400000000000000244e-02 1.394714999999999983e-01 2.044749999999999801e+01 6.489414999999999623e+01 1.832160000000000082e+03
3.500000000000000333e-02 1.394485000000000030e-01 1.974215000000000231e+01 6.418120000000000402e+01 1.831965000000000146e+03
3.600000000000000422e-02 1.394219999999999904e-01 1.901100000000000279e+01 6.335190000000000055e+01 1.831740000000000009e+03
3.700000000000000511e-02 1.393929999999999891e-01 1.829820000000000135e+01 6.249360000000000070e+01 1.831494999999999891e+03
3.799999999999999906e-02 1.393645000000000023e-01 1.766190000000000282e+01 6.174895000000000778e+01 1.831255000000000109e+03
3.899999999999999994e-02 1.393409999999999926e-01 1.716069999999999851e+01 6.127799999999999869e+01 1.831054999999999836e+03
4.000000000000000083e-02 1.393264999999999920e-01 1.683905000000000030e+01 6.121479999999999677e+01 1.830929999999999836e+03
4.100000000000000172e-02 1.393245000000000178e-01 1.671655000000000157e+01 6.163070000000000448e+01 1.830900000000000091e+03
4.200000000000000261e-02 1.393365000000000020e-01 1.678215000000000146e+01 6.251245000000000118e+01 1.830994999999999891e+03
4.300000000000000350e-02 1.393625000000000003e-01 1.699479999999999791e+01 6.376030000000000086e+01 1.831200000000000045e+03
4.400000000000000439e-02 1.393984999999999808e-01 1.729015000000000057e+01 6.520400000000000773e+01 1.831505000000000109e+03
4.499999999999999833e-02 1.394414999999999960e-01 1.759065000000000012e+01 6.663220000000001164e+01 1.831855000000000018e+03
4.599999999999999922e-02 1.394839999999999969e-01 1.781694999999999851e+01 6.782640000000000668e+01 1.832214999999999918e+03
4.700000000000000011e-02 1.395199999999999774e-01 1.789804999999999779e+01 6.859325000000001182e+01 1.832525000000000091e+03
4.800000000000000100e-02 1.395440000000000014e-01 1.777919999999999945e+01 6.878909999999999059e+01 1.832730000000000018e+03
4.900000000000000189e-02 1.395514999999999950e-01 1.742624999999999957e+01 6.833314999999998918e+01 1.832795000000000073e+03
5.000000000000000278e-02 1.395394999999999830e-01 1.682649999999999935e+01 6.721009999999999707e+01 1.832700000000000045e+03
5.100000000000000366e-02 1.395059999999999911e-01 1.598685000000000045e+01 6.546240000000000236e+01 1.832424999999999955e+03
5.200000000000000455e-02 1.394529999999999936e-01 1.493024999999999913e+01 6.317714999999999748e+01 1.831985000000000127e+03
5.300000000000000544e-02 1.393814999999999915e-01 1.369120000000000026e+01 6.046984999999999388e+01 1.831380000000000109e+03
5.399999999999999939e-02 1.392944999999999878e-01 1.231136499999999856e+01 5.746864999999999668e+01 1.830650000000000091e+03
5.500000000000000028e-02 1.391965000000000008e-01 1.083614999999999995e+01 5.430275000000000318e+01 1.829815000000000055e+03
5.600000000000000117e-02 1.390899999999999914e-01 9.312190000000001078e+00 5.109390000000000498e+01 1.828909999999999854e+03
5.700000000000000205e-02 1.389795000000000058e-01 7.785904999999999632e+00 4.795270000000000010e+01 1.827974999999999909e+03
5.800000000000000294e-02 1.388689999999999924e-01 6.302519999999999456e+00 4.497835000000000605e+01 1.827035000000000082e+03
5.900000000000000383e-02 1.387625000000000108e-01 4.905974999999999753e+00 4.225945000000000107e+01 1.826119999999999891e+03
6.000000000000000472e-02 1.386614999999999931e-01 3.638515999999999639e+00 3.987639999999999674e+01 1.825259999999999991e+03
6.099999999999999867e-02 1.385704999999999854e-01 2.540243499999999877e+00 3.790255000000000507e+01 1.824485000000000127e+03
6.199999999999999956e-02 1.384925000000000184e-01 1.648295499999999913e+00 3.640455000000000041e+01 1.823809999999999945e+03
6.300000000000000044e-02 1.384294999999999831e-01 9.956709999999999727e-01 3.544055000000000177e+01 1.823264999999999873e+03
6.400000000000000133e-02 1.383840000000000070e-01 6.098364999999998926e-01 3.505854999999999677e+01 1.822869999999999891e+03
6.500000000000000222e-02 1.383584999999999954e-01 5.112870999999999944e-01 3.529255000000000564e+01 1.822635000000000218e+03
6.600000000000000311e-02 1.383540000000000048e-01 7.122089999999999810e-01 3.615980000000000416e+01 1.822579999999999927e+03
6.700000000000000400e-02 1.383714999999999806e-01 1.215610000000000079e+00 3.765820000000000078e+01 1.822710000000000036e+03
6.800000000000000488e-02 1.384110000000000062e-01 2.014886999999999873e+00 3.976525000000000176e+01 1.823029999999999973e+03
6.900000000000000577e-02 1.384724999999999984e-01 3.094077500000000036e+00 4.243829999999999814e+01 1.823534999999999854e+03
7.000000000000000666e-02 1.385545000000000249e-01 4.428645000000000387e+00 4.561659999999999826e+01 1.824215000000000146e+03
7.100000000000000755e-02 1.386560000000000015e-01 5.986810000000000187e+00 4.922435000000000116e+01 1.825065000000000055e+03
7.200000000000000844e-02 1.387734999999999941e-01 7.731234999999999857e+00 5.317534999999999457e+01 1.826049999999999955e+03
7.300000000000000933e-02 1.389055000000000151e-01 9.620910000000000295e+00 5.737745000000000317e+01 1.827164999999999964e+03
7.399999999999999634e-02 1.390484999999999915e-01 1.161310500000000090e+01 6.173760000000000048e+01 1.828375000000000000e+03
7.499999999999999722e-02 1.391999999999999904e-01 1.366520999999999830e+01 6.616624999999999091e+01 1.829654999999999973e+03
7.599999999999999811e-02 1.393559999999999799e-01 1.573629999999999995e+01 7.058115000000000805e+01 1.830985000000000127e+03
7.699999999999999900e-02 1.395135000000000125e-01 1.778900000000000148e+01 7.491049999999999898e+01 1.832340000000000146e+03
7.799999999999999989e-02 1.396715000000000040e-01 1.979025000000000034e+01 7.909524999999999295e+01 1.833695000000000164e+03
7.900000000000000078e-02 1.398265000000000202e-01 2.171260000000000190e+01 8.309069999999999823e+01 1.835025000000000091e+03
8.000000000000000167e-02 1.399770000000000181e-01 2.353490000000000038e+01 8.686724999999999852e+01 1.836324999999999818e+03
8.100000000000000255e-02 1.401215000000000099e-01 2.524244999999999806e+01 9.041055000000000064e+01 1.837579999999999927e+03
8.200000000000000344e-02 1.402595000000000092e-01 2.682730000000000103e+01 9.372079999999999700e+01 1.838780000000000200e+03
8.300000000000000433e-02 1.403905000000000014e-01 2.828800000000000026e+01 9.681170000000000186e+01 1.839914999999999964e+03
8.400000000000000522e-02 1.405144999999999866e-01 2.962894999999999968e+01 9.970770000000000266e+01 1.841000000000000000e+03
8.500000000000000611e-02 1.406324999999999936e-01 3.085940000000000083e+01 1.024429999999999978e+02 1.842034999999999854e+03
8.600000000000000699e-02 1.407444999999999946e-01 3.199254999999999782e+01 1.050575000000000045e+02 1.843014999999999873e+03
8.700000000000000788e-02 1.408524999999999916e-01 3.304439999999999600e+01 1.075925000000000011e+02 1.843965000000000146e+03
8.800000000000000877e-02 1.409569999999999990e-01 3.403199999999999648e+01 1.100914999999999964e+02 1.844884999999999991e+03
8.899999999999999578e-02 1.410600000000000187e-01 3.497244999999999493e+01 1.125914999999999964e+02 1.845789999999999964e+03
8.999999999999999667e-02 1.411624999999999963e-01 3.588169999999999504e+01 1.151270000000000095e+02 1.846690000000000055e+03
9.099999999999999756e-02 1.412654999999999883e-01 3.677325000000000443e+01 1.177215000000000060e+02 1.847595000000000027e+03
9.199999999999999845e-02 1.413690000000000224e-01 3.765755000000000052e+01 1.203905000000000030e+02 1.848505000000000109e+03
9.299999999999999933e-02 1.414755000000000040e-01 3.854115000000000180e+01 1.231400000000000006e+02 1.849434999999999945e+03
9.400000000000000022e-02 1.415835000000000010e-01 3.942669999999999675e+01 1.259635000000000105e+02 1.850389999999999873e+03
9.500000000000000111e-02 1.416939999999999866e-01 4.031275000000000119e+01 1.288464999999999918e+02 1.851355000000000018e+03
9.600000000000000200e-02 1.418055000000000010e-01 4.119395000000000095e+01 1.317659999999999911e+02 1.852335000000000036e+03
9.700000000000000289e-02 1.419185000000000030e-01 4.206165000000000020e+01 1.346910000000000025e+02 1.853329999999999927e+03
9.800000000000000377e-02 1.420319999999999916e-01 4.290435000000000088e+01 1.375860000000000127e+02 1.854324999999999818e+03
9.900000000000000466e-02 1.421439999999999926e-01 4.370855000000000246e+01 1.404125000000000227e+02 1.855309999999999945e+03
1.000000000000000056e-01 1.422539999999999916e-01 4.445940000000000225e+01 1.431299999999999955e+02 1.856279999999999973e+03
1.010000000000000064e-01 1.423610000000000153e-01 4.514180000000000348e+01 1.456995000000000005e+02 1.857219999999999800e+03
1.020000000000000073e-01 1.424624999999999919e-01 4.574075000000000557e+01 1.480854999999999961e+02 1.858115000000000009e+03
1.030000000000000082e-01 1.425575000000000037e-01 4.624255000000000138e+01 1.502535000000000025e+02 1.858960000000000036e+03
1.040000000000000091e-01 1.426459999999999950e-01 4.663514999999999588e+01 1.521775000000000091e+02 1.859740000000000009e+03
1.050000000000000100e-01 1.427260000000000195e-01 4.690864999999999441e+01 1.538369999999999891e+02 1.860454999999999927e+03
1.059999999999999970e-01 1.427964999999999929e-01 4.705610000000000070e+01 1.552175000000000011e+02 1.861085000000000036e+03
1.069999999999999979e-01 1.428574999999999984e-01 4.707319999999999993e+01 1.563125000000000000e+02 1.861634999999999991e+03
1.079999999999999988e-01 1.429084999999999939e-01 4.695900000000000318e+01 1.571214999999999975e+02 1.862090000000000146e+03
1.089999999999999997e-01 1.429495000000000071e-01 4.671564999999999657e+01 1.576519999999999868e+02 1.862460000000000036e+03
1.100000000000000006e-01 1.429805000000000104e-01 4.634834999999999638e+01 1.579184999999999945e+02 1.862740000000000009e+03
1.110000000000000014e-01 1.430009999999999892e-01 4.586520000000000152e+01 1.579395000000000095e+02 1.862934999999999945e+03
1.120000000000000023e-01 1.430124999999999869e-01 4.527680000000000149e+01 1.577400000000000091e+02 1.863049999999999955e+03
1.130000000000000032e-01 1.430159999999999765e-01 4.459600000000000364e+01 1.573480000000000132e+02 1.863085000000000036e+03
1.140000000000000041e-01 1.430115000000000136e-01 4.383709999999999951e+01 1.567950000000000159e+02 1.863055000000000064e+03
1.150000000000000050e-01 1.430005000000000026e-01 4.301574999999999704e+01 1.561129999999999995e+02 1.862970000000000027e+03
1.160000000000000059e-01 1.429840000000000000e-01 4.214799999999999613e+01 1.553360000000000127e+02 1.862829999999999927e+03
1.170000000000000068e-01 1.429624999999999924e-01 4.124989999999999668e+01 1.544950000000000045e+02 1.862644999999999982e+03
1.180000000000000077e-01 1.429384999999999961e-01 4.033695000000000164e+01 1.536209999999999809e+02 1.862440000000000055e+03
1.190000000000000085e-01 1.429114999999999969e-01 3.942365000000000208e+01 1.527414999999999736e+02 1.862204999999999927e+03
1.200000000000000094e-01 1.428834999999999966e-01 3.852290000000000703e+01 1.518795000000000073e+02 1.861960000000000036e+03
1.209999999999999964e-01 1.428554999999999964e-01 3.764570000000000505e+01 1.510540000000000020e+02 1.861710000000000036e+03
1.219999999999999973e-01 1.428269999999999817e-01 3.680089999999999861e+01 1.502805000000000177e+02 1.861464999999999918e+03
1.229999999999999982e-01 1.427994999999999959e-01 3.599500000000000455e+01 1.495670000000000073e+02 1.861224999999999909e+03
1.239999999999999991e-01 1.427740000000000120e-01 3.523199999999999932e+01 1.489184999999999945e+02 1.860994999999999891e+03
1.250000000000000000e-01 1.427495000000000014e-01 3.451350000000000051e+01 1.483330000000000268e+02 1.860779999999999973e+03
1.260000000000000009e-01 1.427275000000000071e-01 3.383859999999999957e+01 1.478054999999999950e+02 1.860579999999999927e+03
1.270000000000000018e-01 1.427065000000000139e-01 3.320449999999999591e+01 1.473259999999999934e+02 1.860389999999999873e+03
1.280000000000000027e-01 1.426870000000000083e-01 3.260625000000000284e+01 1.468810000000000002e+02 1.860215000000000146e+03
1.290000000000000036e-01 1.426680000000000170e-01 3.203749999999999432e+01 1.464560000000000173e+02 1.860045000000000073e+03
1.300000000000000044e-01 1.426505000000000134e-01 3.149069999999999681e+01 1.460319999999999823e+02 1.859889999999999873e+03
1.310000000000000053e-01 1.426330000000000098e-01 3.095755000000000123e+01 1.455910000000000082e+02 1.859730000000000018e+03
1.320000000000000062e-01 1.426145000000000052e-01 3.042919999999999803e+01 1.451144999999999925e+02 1.859559999999999945e+03
1.330000000000000071e-01 1.425954999999999862e-01 2.989714999999999989e+01 1.445850000000000080e+02 1.859389999999999873e+03
1.340000000000000080e-01 1.425739999999999785e-01 2.935314999999999941e+01 1.439859999999999900e+02 1.859204999999999927e+03
1.350000000000000089e-01 1.425514999999999977e-01 2.879005000000000081e+01 1.433045000000000186e+02 1.859000000000000000e+03
1.360000000000000098e-01 1.425254999999999994e-01 2.820165000000000077e+01 1.425300000000000011e+02 1.858769999999999982e+03
1.370000000000000107e-01 1.424964999999999982e-01 2.758339999999999748e+01 1.416560000000000059e+02 1.858519999999999982e+03
1.380000000000000115e-01 1.424644999999999939e-01 2.693229999999999791e+01 1.406790000000000020e+02 1.858235000000000127e+03
1.390000000000000124e-01 1.424285000000000134e-01 2.624735000000000085e+01 1.396005000000000109e+02 1.857920000000000073e+03
1.400000000000000133e-01 1.423889999999999878e-01 2.552935000000000088e+01 1.384265000000000043e+02 1.857579999999999927e+03
1.410000000000000142e-01 1.423470000000000013e-01 2.478099999999999881e+01 1.371655000000000086e+02 1.857204999999999927e+03
1.420000000000000151e-01 1.423010000000000108e-01 2.400694999999999979e+01 1.358309999999999889e+02 1.856804999999999836e+03
1.430000000000000160e-01 1.422525000000000039e-01 2.321325000000000216e+01 1.344395000000000095e+02 1.856380000000000109e+03
1.440000000000000169e-01 1.422019999999999951e-01 2.240755000000000052e+01 1.330095000000000027e+02 1.855930000000000064e+03
1.450000000000000178e-01 1.421494999999999842e-01 2.159850000000000136e+01 1.315629999999999882e+02 1.855474999999999909e+03
1.459999999999999909e-01 1.420960000000000001e-01 2.079560000000000031e+01 1.301204999999999927e+02 1.855009999999999991e+03
1.469999999999999918e-01 1.420425000000000160e-01 2.000860000000000127e+01 1.287059999999999889e+02 1.854534999999999854e+03
1.479999999999999927e-01 1.419894999999999907e-01 1.924739999999999895e+01 1.273394999999999868e+02 1.854069999999999936e+03
1.489999999999999936e-01 1.419380000000000086e-01 1.852159999999999940e+01 1.260430000000000064e+02 1.853619999999999891e+03
1.499999999999999944e-01 1.418874999999999997e-01 1.783985000000000198e+01 1.248340000000000032e+02 1.853180000000000064e+03
1.509999999999999953e-01 1.418409999999999949e-01 1.720994999999999919e+01 1.237274999999999920e+02 1.852769999999999982e+03
1.519999999999999962e-01 1.417964999999999920e-01 1.663835000000000264e+01 1.227379999999999995e+02 1.852380000000000109e+03
1.529999999999999971e-01 1.417565000000000075e-01 1.612995000000000090e+01 1.218729999999999905e+02 1.852030000000000200e+03
1.539999999999999980e-01 1.417204999999999993e-01 1.568819999999999837e+01 1.211380000000000052e+02 1.851710000000000036e+03
1.549999999999999989e-01 1.416894999999999960e-01 1.531460000000000043e+01 1.205354999999999990e+02 1.851430000000000064e+03
1.559999999999999998e-01 1.416625000000000245e-01 1.500905000000000022e+01 1.200614999999999952e+02 1.851184999999999945e+03
1.570000000000000007e-01 1.416399999999999881e-01 1.476994999999999969e+01 1.197125000000000057e+02 1.850985000000000127e+03
1.580000000000000016e-01 1.416219999999999979e-01 1.459400000000000119e+01 1.194789999999999992e+02 1.850825000000000045e+03
1.590000000000000024e-01 1.416084999999999983e-01 1.447670000000000101e+01 1.193504999999999967e+02 1.850695000000000164e+03
