# t [s], A [cm^2], U [cm/s], P [cPa], c [cm/s]
1.000000000000000021e-03 5.303670000000000329e-01 2.509100000000000219e-03 1.007400000000000091e+02 1.464984999999999900e+03
2.000000000000000042e-03 5.303614999999999302e-01 3.064810000000000277e-03 1.007224999999999966e+02 1.464980000000000018e+03
3.000000000000000062e-03 5.304109999999999658e-01 9.784795000000000298e-02 1.008114999999999952e+02 1.465005000000000109e+03
4.000000000000000083e-03 5.304539999999999811e-01 1.829496674999999961e-01 1.009130499999999984e+02 1.465034999999999854e+03
5.000000000000000104e-03 5.304370000000000474e-01 1.586181499999999855e-01 1.008735000000000070e+02 1.465030000000000200e+03
6.000000000000000125e-03 5.303875000000000117e-01 6.641449999999998743e-02 1.006945000000000050e+02 1.464990000000000009e+03
7.000000000000000146e-03 5.303360000000000296e-01 -3.497549999999999271e-02 1.004364999999999952e+02 1.464940000000000055e+03
8.000000000000000167e-03 5.302580000000000071e-01 -1.951450000000000129e-01 1.000543499999999995e+02 1.464849999999999909e+03
9.000000000000001055e-03 5.301255000000000273e-01 -4.690849999999999742e-01 9.946720000000000539e+01 1.464719999999999800e+03
1.000000000000000194e-02 5.299344999999999750e-01 -8.597900000000000542e-01 9.863329999999999131e+01 1.464535000000000082e+03
1.099999999999999936e-02 5.296760000000000357e-01 -1.370125000000000259e+00 9.751449999999999818e+01 1.464269999999999982e+03
1.200000000000000025e-02 5.293400000000000327e-01 -2.005910000000000082e+00 9.607085000000000719e+01 1.463929999999999836e+03
1.300000000000000114e-02 5.289319999999999578e-01 -2.730845000000000411e+00 9.430949999999999989e+01 1.463500000000000000e+03
1.400000000000000203e-02 5.284904999999999742e-01 -3.446744999999999504e+00 9.232450000000000045e+01 1.463000000000000000e+03
1.499999999999999944e-02 5.280654999999999655e-01 -4.024960000000000093e+00 9.027955000000000041e+01 1.462470000000000027e+03
1.600000000000000033e-02 5.276990000000000292e-01 -4.358552500000000052e+00 8.834459999999999980e+01 1.461940000000000055e+03
1.700000000000000122e-02 5.274060000000000414e-01 -4.397901500000000574e+00 8.663939999999999486e+01 1.461445000000000164e+03
1.800000000000000211e-02 5.271780000000000355e-01 -4.157365000000000421e+00 8.520404999999999518e+01 1.461000000000000000e+03
1.900000000000000300e-02 5.269880000000000120e-01 -3.699641500000000249e+00 8.400139999999998963e+01 1.460605000000000018e+03
2.000000000000000042e-02 5.268034999999999801e-01 -3.109504300000000221e+00 8.294149999999999068e+01 1.460230000000000018e+03
2.100000000000000130e-02 5.265950000000000353e-01 -2.466449499999999961e+00 8.191700000000000159e+01 1.459880000000000109e+03
2.200000000000000219e-02 5.263465000000000504e-01 -1.823975000000000124e+00 8.083735000000000070e+01 1.459509999999999991e+03
2.299999999999999961e-02 5.260584999999999845e-01 -1.201219999999999954e+00 7.965234999999999843e+01 1.459130000000000109e+03
2.400000000000000050e-02 5.257399999999999851e-01 -5.886950000000001904e-01 7.835675000000000523e+01 1.458719999999999800e+03
2.500000000000000139e-02 5.254060000000000397e-01 3.586500000000025778e-02 7.697785000000000366e+01 1.458295000000000073e+03
2.600000000000000228e-02 5.250690000000000079e-01 6.892149999999999110e-01 7.555320000000000391e+01 1.457849999999999909e+03
2.700000000000000316e-02 5.247325000000000461e-01 1.368880000000000319e+00 7.410864999999999725e+01 1.457404999999999973e+03
2.800000000000000058e-02 5.243910000000000515e-01 2.047814999999999941e+00 7.264339999999999975e+01 1.456945000000000164e+03
2.900000000000000147e-02 5.240295000000000369e-01 2.677325000000000621e+00 7.112565000000000737e+01 1.456480000000000018e+03
3.000000000000000236e-02 5.236300000000000399e-01 3.196305000000000174e+00 6.949835000000000207e+01 1.455980000000000018e+03
3.099999999999999978e-02 5.231729999999999992e-01 3.543829999999999814e+00 6.769275000000000375e+01 1.455445000000000164e+03
3.200000000000000067e-02 5.226459999999999440e-01 3.672215000000000007e+00 6.564580000000000837e+01 1.454849999999999909e+03
3.300000000000000155e-02 5.220434999999999937e-01 3.557374999999999954e+00 6.331749999999999545e+01 1.454194999999999936e+03
3.400000000000000244e-02 5.213719999999999466e-01 3.204539999999999722e+00 6.070470000000000255e+01 1.453474999999999909e+03
3.500000000000000333e-02 5.206484999999999586e-01 2.648249999999999993e+00 5.784669999999999845e+01 1.452690000000000055e+03
3.600000000000000422e-02 5.198990000000000000e-01 1.946309999999999540e+00 5.482305000000000206e+01 1.451865000000000009e+03
3.700000000000000511e-02 5.191529999999999756e-01 1.170510000000000161e+00 5.174430000000000263e+01 1.451009999999999991e+03
3.799999999999999906e-02 5.184414999999999996e-01 3.962799999999999656e-01 4.873740000000000094e+01 1.450170000000000073e+03
3.899999999999999994e-02 5.177930000000000588e-01 -3.064749999999998309e-01 4.593115000000000236e+01 1.449369999999999891e+03
4.000000000000000083e-02 5.172305000000000375e-01 -8.798349999999994786e-01 4.344249999999999545e+01 1.448634999999999991e+03
4.100000000000000172e-02 5.167709999999999804e-01 -1.280949999999999811e+00 4.136740000000000350e+01 1.447994999999999891e+03
4.200000000000000261e-02 5.164260000000000517e-01 -1.482249999999999845e+00 3.977485000000000070e+01 1.447480000000000018e+03
4.300000000000000350e-02 5.161985000000000046e-01 -1.469514999999999905e+00 3.870629999999999882e+01 1.447090000000000146e+03
4.400000000000000439e-02 5.160909999999999664e-01 -1.238673499999999983e+00 3.817770000000000152e+01 1.446845000000000027e+03
4.499999999999999833e-02 5.160989999999999744e-01 -7.923929999999999030e-01 3.818430000000000035e+01 1.446740000000000009e+03
4.599999999999999922e-02 5.162185000000000246e-01 -1.371999999999999886e-01 3.870575000000000188e+01 1.446775000000000091e+03
4.700000000000000011e-02 5.164420000000000677e-01 7.183150000000000368e-01 3.971169999999999334e+01 1.446954999999999927e+03
4.800000000000000100e-02 5.167625000000000135e-01 1.764115000000000100e+00 4.116510000000000247e+01 1.447259999999999991e+03
4.900000000000000189e-02 5.171719999999999651e-01 2.988345000000000251e+00 4.302500000000000568e+01 1.447690000000000055e+03
5.000000000000000278e-02 5.176619999999999555e-01 4.376345000000000596e+00 4.524730000000000274e+01 1.448220000000000027e+03
5.100000000000000366e-02 5.182210000000000427e-01 5.909589999999999677e+00 4.778484999999999872e+01 1.448855000000000018e+03
5.200000000000000455e-02 5.188390000000000502e-01 7.565254499999999993e+00 5.058724999999999739e+01 1.449570000000000164e+03
5.300000000000000544e-02 5.195024999999999782e-01 9.316105500000000816e+00 5.360074999999999790e+01 1.450349999999999909e+03
5.399999999999999939e-02 5.201994999999999258e-01 1.113146500000000039e+01 5.676899999999999835e+01 1.451194999999999936e+03
5.500000000000000028e-02 5.209150000000000169e-01 1.297841999999999985e+01 6.003444999999999254e+01 1.452075000000000045e+03
5.600000000000000117e-02 5.216385000000000050e-01 1.482377500000000126e+01 6.334039999999999537e+01 1.452980000000000018e+03
5.700000000000000205e-02 5.223560000000000425e-01 1.663604999999999734e+01 6.663335000000000719e+01 1.453900000000000091e+03
5.800000000000000294e-02 5.230584999999999818e-01 1.838685000000000258e+01 6.986544999999999561e+01 1.454815000000000055e+03
5.900000000000000383e-02 5.237374999999999670e-01 2.005249999999999844e+01 7.299680000000000746e+01 1.455715000000000146e+03
6.000000000000000472e-02 5.243875000000000064e-01 2.161500000000000199e+01 7.599674999999999159e+01 1.456590000000000146e+03
6.099999999999999867e-02 5.250055000000000138e-01 2.306230000000000047e+01 7.884534999999999627e+01 1.457430000000000064e+03
6.199999999999999956e-02 5.255900000000000016e-01 2.438804999999999978e+01 8.153299999999998704e+01 1.458239999999999782e+03
6.300000000000000044e-02 5.261419999999999986e-01 2.559154999999999802e+01 8.406024999999999636e+01 1.459009999999999991e+03
6.400000000000000133e-02 5.266644999999999799e-01 2.667665000000000219e+01 8.643654999999999688e+01 1.459744999999999891e+03
6.500000000000000222e-02 5.271620000000000195e-01 2.765124999999999744e+01 8.867859999999998877e+01 1.460440000000000055e+03
6.600000000000000311e-02 5.276399999999999979e-01 2.852599999999999980e+01 9.080875000000000341e+01 1.461109999999999900e+03
6.700000000000000400e-02 5.281029999999999891e-01 2.931360000000000099e+01 9.285299999999999443e+01 1.461755000000000109e+03
6.800000000000000488e-02 5.285575000000000134e-01 3.002819999999999823e+01 9.483899999999999864e+01 1.462380000000000109e+03
6.900000000000000577e-02 5.290099999999999802e-01 3.068394999999999939e+01 9.679454999999998677e+01 1.462990000000000009e+03
7.000000000000000666e-02 5.294650000000000745e-01 3.129485000000000028e+01 9.874514999999999532e+01 1.463599999999999909e+03
7.100000000000000755e-02 5.299274999999999958e-01 3.187369999999999948e+01 1.007145999999999901e+02 1.464210000000000036e+03
7.200000000000000844e-02 5.304005000000000525e-01 3.243144999999999811e+01 1.027203499999999963e+02 1.464825000000000045e+03
7.300000000000000933e-02 5.308859999999999690e-01 3.297660000000000480e+01 1.047759999999999962e+02 1.465449999999999818e+03
7.399999999999999634e-02 5.313855000000000661e-01 3.351485000000000269e+01 1.068864999999999981e+02 1.466090000000000146e+03
7.499999999999999722e-02 5.318984999999999408e-01 3.404865000000000208e+01 1.090534999999999997e+02 1.466744999999999891e+03
7.599999999999999811e-02 5.324210000000000331e-01 3.457739999999999725e+01 1.112690000000000055e+02 1.467409999999999854e+03
7.699999999999999900e-02 5.329515000000000224e-01 3.509695000000000675e+01 1.135190000000000055e+02 1.468079999999999927e+03
7.799999999999999989e-02 5.334845000000000281e-01 3.560079999999999956e+01 1.157849999999999966e+02 1.468759999999999991e+03
7.900000000000000078e-02 5.340139999999999887e-01 3.607985000000000042e+01 1.180430000000000064e+02 1.469440000000000055e+03
8.000000000000000167e-02 5.345329999999999249e-01 3.652339999999999520e+01 1.202655000000000030e+02 1.470114999999999782e+03
8.100000000000000255e-02 5.350360000000000671e-01 3.691979999999999507e+01 1.224230000000000018e+02 1.470764999999999873e+03
8.200000000000000344e-02 5.355159999999999920e-01 3.725714999999999577e+01 1.244865000000000066e+02 1.471404999999999973e+03
8.300000000000000433e-02 5.359665000000000123e-01 3.752414999999999878e+01 1.264274999999999949e+02 1.472005000000000109e+03
8.400000000000000522e-02 5.363824999999999843e-01 3.771039999999999992e+01 1.282205000000000155e+02 1.472569999999999936e+03
8.500000000000000611e-02 5.367594999999999450e-01 3.780740000000000123e+01 1.298430000000000177e+02 1.473085000000000036e+03
8.600000000000000699e-02 5.370935000000000015e-01 3.780854999999999677e+01 1.312785000000000082e+02 1.473555000000000064e+03
8.700000000000000788e-02 5.373814999999999564e-01 3.770974999999999966e+01 1.325134999999999934e+02 1.473974999999999909e+03
8.800000000000000877e-02 5.376239999999999908e-01 3.750929999999999609e+01 1.335414999999999850e+02 1.474329999999999927e+03
8.899999999999999578e-02 5.378195000000000059e-01 3.720834999999999582e+01 1.343619999999999948e+02 1.474630000000000109e+03
8.999999999999999667e-02 5.379705000000000181e-01 3.681029999999999802e+01 1.349784999999999968e+02 1.474869999999999891e+03
9.099999999999999756e-02 5.380774999999999864e-01 3.632110000000000127e+01 1.354014999999999986e+02 1.475055000000000064e+03
9.199999999999999845e-02 5.381460000000000132e-01 3.574880000000000280e+01 1.356440000000000055e+02 1.475190000000000055e+03
9.299999999999999933e-02 5.381789999999999630e-01 3.510340000000000060e+01 1.357245000000000061e+02 1.475269999999999982e+03
9.400000000000000022e-02 5.381804999999999506e-01 3.439605000000000246e+01 1.356639999999999873e+02 1.475309999999999945e+03
9.500000000000000111e-02 5.381565000000000376e-01 3.363940000000000197e+01 1.354845000000000255e+02 1.475305000000000064e+03
9.600000000000000200e-02 5.381115000000000759e-01 3.284629999999999939e+01 1.352105000000000246e+02 1.475264999999999873e+03
9.700000000000000289e-02 5.380525000000000446e-01 3.203005000000000280e+01 1.348665000000000020e+02 1.475210000000000036e+03
9.800000000000000377e-02 5.379819999999999602e-01 3.120344999999999658e+01 1.344764999999999873e+02 1.475125000000000000e+03
9.900000000000000466e-02 5.379074999999999829e-01 3.037875000000000369e+01 1.340629999999999882e+02 1.475035000000000082e+03
1.000000000000000056e-01 5.378319999999999768e-01 2.956689999999999685e+01 1.336449999999999818e+02 1.474934999999999945e+03
1.010000000000000064e-01 5.377585000000000282e-01 2.877740000000000009e+01 1.332415000000000020e+02 1.474829999999999927e+03
1.020000000000000073e-01 5.376914999999999889e-01 2.801800000000000068e+01 1.328654999999999973e+02 1.474730000000000018e+03
1.030000000000000082e-01 5.376315000000000399e-01 2.729444999999999766e+01 1.325275000000000034e+02 1.474634999999999991e+03
1.040000000000000091e-01 5.375805000000000167e-01 2.661019999999999897e+01 1.322344999999999970e+02 1.474549999999999955e+03
1.050000000000000100e-01 5.375389999999999890e-01 2.596679999999999922e+01 1.319894999999999925e+02 1.474474999999999909e+03
1.059999999999999970e-01 5.375064999999999982e-01 2.536350000000000193e+01 1.317895000000000039e+02 1.474409999999999854e+03
1.069999999999999979e-01 5.374809999999999865e-01 2.479784999999999684e+01 1.316314999999999884e+02 1.474355000000000018e+03
1.079999999999999988e-01 5.374615000000000364e-01 2.426539999999999964e+01 1.315074999999999932e+02 1.474305000000000064e+03
1.089999999999999997e-01 5.374455000000000204e-01 2.376050000000000040e+01 1.314064999999999941e+02 1.474269999999999982e+03
1.100000000000000006e-01 5.374295000000000044e-01 2.327640000000000242e+01 1.313170000000000073e+02 1.474230000000000018e+03
1.110000000000000014e-01 5.374115000000000419e-01 2.280559999999999832e+01 1.312249999999999943e+02 1.474194999999999936e+03
1.120000000000000023e-01 5.373879999999999768e-01 2.234039999999999893e+01 1.311170000000000186e+02 1.474159999999999854e+03
1.130000000000000032e-01 5.373565000000000147e-01 2.187299999999999756e+01 1.309794999999999732e+02 1.474110000000000127e+03
1.140000000000000041e-01 5.373134999999999994e-01 2.139630000000000010e+01 1.308004999999999995e+02 1.474059999999999945e+03
1.150000000000000050e-01 5.372574999999999434e-01 2.090370000000000061e+01 1.305674999999999955e+02 1.473990000000000009e+03
1.160000000000000059e-01 5.371869999999999701e-01 2.038990000000000080e+01 1.302725000000000080e+02 1.473909999999999854e+03
1.170000000000000068e-01 5.371000000000000218e-01 1.985069999999999979e+01 1.299079999999999870e+02 1.473809999999999945e+03
1.180000000000000077e-01 5.369960000000000289e-01 1.928355000000000175e+01 1.294710000000000036e+02 1.473690000000000055e+03
1.190000000000000085e-01 5.368755000000000610e-01 1.868740000000000023e+01 1.289599999999999795e+02 1.473549999999999955e+03
1.200000000000000094e-01 5.367389999999999661e-01 1.806279999999999930e+01 1.283770000000000095e+02 1.473394999999999982e+03
1.209999999999999964e-01 5.365874999999999950e-01 1.741209999999999880e+01 1.277265000000000157e+02 1.473215000000000146e+03
1.219999999999999973e-01 5.364240000000000119e-01 1.673904999999999887e+01 1.270174999999999983e+02 1.473014999999999873e+03
1.229999999999999982e-01 5.362500000000000044e-01 1.604895000000000138e+01 1.262595000000000027e+02 1.472809999999999945e+03
1.239999999999999991e-01 5.360679999999999890e-01 1.534820000000000029e+01 1.254645000000000010e+02 1.472585000000000036e+03
1.250000000000000000e-01 5.358825000000000394e-01 1.464427000000000056e+01 1.246465000000000032e+02 1.472360000000000127e+03
1.260000000000000009e-01 5.356959999999999500e-01 1.394528000000000034e+01 1.238209999999999980e+02 1.472125000000000000e+03
1.270000000000000018e-01 5.355125000000000579e-01 1.325975000000000037e+01 1.230039999999999907e+02 1.471889999999999873e+03
1.280000000000000027e-01 5.353354999999999642e-01 1.259632000000000041e+01 1.222094999999999914e+02 1.471659999999999854e+03
1.290000000000000036e-01 5.351679999999999771e-01 1.196330000000000027e+01 1.214544999999999959e+02 1.471429999999999836e+03
1.300000000000000044e-01 5.350129999999999608e-01 1.136850499999999897e+01 1.207514999999999930e+02 1.471220000000000027e+03
1.310000000000000053e-01 5.348735000000000017e-01 1.081888000000000005e+01 1.201129999999999995e+02 1.471025000000000091e+03
1.320000000000000062e-01 5.347509999999999764e-01 1.032033999999999985e+01 1.195500000000000114e+02 1.470845000000000027e+03
1.330000000000000071e-01 5.346480000000000121e-01 9.877295000000000158e+00 1.190695000000000050e+02 1.470690000000000055e+03
1.340000000000000080e-01 5.345640000000000391e-01 9.492990000000000705e+00 1.186775000000000091e+02 1.470559999999999945e+03
1.350000000000000089e-01 5.345005000000000450e-01 9.168865000000000265e+00 1.183750000000000000e+02 1.470444999999999936e+03
1.360000000000000098e-01 5.344569999999999599e-01 8.905034999999999812e+00 1.181640000000000015e+02 1.470364999999999782e+03
1.370000000000000107e-01 5.344324999999999770e-01 8.700050000000000949e+00 1.180390000000000015e+02 1.470300000000000182e+03
1.380000000000000115e-01 5.344259999999999566e-01 8.551040000000000418e+00 1.179959999999999951e+02 1.470259999999999991e+03
1.390000000000000124e-01 5.344349999999999934e-01 8.453990000000001004e+00 1.180275000000000034e+02 1.470250000000000000e+03
1.400000000000000133e-01 5.344575000000000298e-01 8.403784999999999172e+00 1.181239999999999952e+02 1.470255000000000109e+03
1.410000000000000142e-01 5.344915000000000083e-01 8.394560000000000244e+00 1.182754999999999939e+02 1.470269999999999982e+03
1.420000000000000151e-01 5.345345000000000235e-01 8.419890000000000541e+00 1.184705000000000013e+02 1.470304999999999836e+03
1.430000000000000160e-01 5.345834999999999892e-01 8.473029999999999617e+00 1.186970000000000027e+02 1.470355000000000018e+03
1.440000000000000169e-01 5.346370000000000289e-01 8.547170000000001266e+00 1.189445000000000050e+02 1.470409999999999854e+03
1.450000000000000178e-01 5.346910000000000274e-01 8.635659999999999670e+00 1.192009999999999934e+02 1.470470000000000027e+03
1.459999999999999909e-01 5.347450000000000259e-01 8.732195000000000817e+00 1.194565000000000055e+02 1.470529999999999973e+03
1.469999999999999918e-01 5.347960000000000491e-01 8.831019999999998760e+00 1.197030000000000030e+02 1.470599999999999909e+03
1.479999999999999927e-01 5.348429999999999573e-01 8.927025000000000432e+00 1.199325000000000045e+02 1.470655000000000200e+03
1.489999999999999936e-01 5.348844999999999850e-01 9.015869999999999607e+00 1.201384999999999934e+02 1.470710000000000036e+03
1.499999999999999944e-01 5.349200000000000621e-01 9.094059999999998922e+00 1.203164999999999907e+02 1.470764999999999873e+03
1.509999999999999953e-01 5.349490000000000078e-01 9.158975000000001643e+00 1.204650000000000034e+02 1.470809999999999945e+03
1.519999999999999962e-01 5.349710000000000854e-01 9.208764999999999645e+00 1.205815000000000055e+02 1.470845000000000027e+03
1.529999999999999971e-01 5.349865000000000315e-01 9.242564999999999031e+00 1.206664999999999992e+02 1.470875000000000000e+03
1.539999999999999980e-01 5.349954999999999572e-01 9.260225000000000151e+00 1.207224999999999966e+02 1.470894999999999982e+03
1.549999999999999989e-01 5.349994999999999612e-01 9.262214999999999421e+00 1.207504999999999882e+02 1.470910000000000082e+03
1.559999999999999998e-01 5.349980000000000846e-01 9.249715000000000131e+00 1.207549999999999955e+02 1.470920000000000073e+03
1.570000000000000007e-01 5.349935000000000107e-01 9.224349999999999383e+00 1.207399999999999949e+02 1.470920000000000073e+03
1.580000000000000016e-01 5.349855000000000027e-01 9.188189999999998747e+00 1.207100000000000080e+02 1.470914999999999964e+03
1.590000000000000024e-01 5.349764999999999660e-01 9.143489999999999895e+00 1.206694999999999993e+02 1.470909999999999854e+03
