# t [s], A [cm^2], U [cm/s], P [cPa], c [cm/s]
1.000000000000000021e-03 1.923035000000000161e-01 3.042005000000000403e-01 9.214244999999999663e+01 2.102920000000000073e+03
2.000000000000000042e-03 1.922470000000000012e-01 1.799721500000000196e+00 8.886260000000000048e+01 2.102510000000000218e+03
3.000000000000000062e-03 1.921009999999999940e-01 3.652977499999999988e+00 8.424789999999998713e+01 2.101494999999999891e+03
4.000000000000000083e-03 1.919075000000000086e-01 5.746817000000000064e+00 7.928614999999999213e+01 2.100159999999999854e+03
5.000000000000000104e-03 1.917050000000000143e-01 7.998545000000000016e+00 7.495040000000000191e+01 2.098784999999999854e+03
6.000000000000000125e-03 1.915149999999999908e-01 1.019215999999999944e+01 7.148345000000000482e+01 2.097500000000000000e+03
7.000000000000000146e-03 1.913400000000000101e-01 1.208262999999999998e+01 6.852634999999999366e+01 2.096349999999999909e+03
8.000000000000000167e-03 1.911825000000000052e-01 1.361387999999999998e+01 6.586664999999999281e+01 2.095329999999999927e+03
9.000000000000001055e-03 1.910479999999999956e-01 1.485010000000000119e+01 6.362930000000000064e+01 2.094475000000000364e+03
1.000000000000000194e-02 1.909385000000000110e-01 1.582699999999999996e+01 6.188220000000000454e+01 2.093784999999999854e+03
1.099999999999999936e-02 1.908524999999999805e-01 1.656660000000000110e+01 6.058064999999999856e+01 2.093250000000000000e+03
1.200000000000000025e-02 1.907884999999999998e-01 1.709264999999999901e+01 5.965964999999999918e+01 2.092860000000000127e+03
1.300000000000000114e-02 1.907404999999999795e-01 1.740915000000000035e+01 5.899389999999999645e+01 2.092574999999999818e+03
1.400000000000000203e-02 1.907039999999999846e-01 1.753450000000000131e+01 5.844794999999999874e+01 2.092364999999999782e+03
1.499999999999999944e-02 1.906769999999999854e-01 1.756889999999999930e+01 5.808285000000000053e+01 2.092220000000000255e+03
1.600000000000000033e-02 1.906690000000000051e-01 1.769330000000000069e+01 5.824930000000000518e+01 2.092184999999999945e+03
1.700000000000000122e-02 1.906935000000000158e-01 1.807574999999999932e+01 5.939385000000000048e+01 2.092345000000000255e+03
1.800000000000000211e-02 1.907574999999999965e-01 1.876500000000000057e+01 6.172135000000000105e+01 2.092750000000000000e+03
1.900000000000000300e-02 1.908579999999999999e-01 1.964999999999999858e+01 6.498105000000001041e+01 2.093390000000000327e+03
2.000000000000000042e-02 1.909780000000000089e-01 2.050544999999999973e+01 6.851085000000000491e+01 2.094164999999999964e+03
2.100000000000000130e-02 1.910939999999999861e-01 2.108820000000000050e+01 7.149285000000000423e+01 2.094920000000000073e+03
2.200000000000000219e-02 1.911829999999999918e-01 2.123304999999999865e+01 7.327139999999999986e+01 2.095514999999999873e+03
2.299999999999999961e-02 1.912304999999999977e-01 2.090840000000000032e+01 7.358584999999999354e+01 2.095849999999999909e+03
2.400000000000000050e-02 1.912345000000000017e-01 2.021249999999999858e+01 7.262850000000000250e+01 2.095904999999999745e+03
2.500000000000000139e-02 1.912055000000000005e-01 1.931990000000000052e+01 7.092044999999998822e+01 2.095739999999999782e+03
2.600000000000000228e-02 1.911595000000000100e-01 1.840599999999999881e+01 6.907609999999999673e+01 2.095460000000000036e+03
2.700000000000000316e-02 1.911125000000000185e-01 1.758425000000000082e+01 6.756819999999999027e+01 2.095154999999999745e+03
2.800000000000000058e-02 1.910739999999999938e-01 1.687790000000000035e+01 6.658539999999999281e+01 2.094905000000000200e+03
2.900000000000000147e-02 1.910459999999999936e-01 1.623160000000000025e+01 6.602129999999999654e+01 2.094715000000000146e+03
3.000000000000000236e-02 1.910235000000000127e-01 1.555015000000000214e+01 6.557399999999999807e+01 2.094570000000000164e+03
3.099999999999999978e-02 1.909970000000000001e-01 1.474745000000000061e+01 6.490344999999999231e+01 2.094399999999999636e+03
3.200000000000000067e-02 1.909600000000000186e-01 1.378839999999999932e+01 6.378620000000000090e+01 2.094164999999999964e+03
3.300000000000000155e-02 1.909085000000000087e-01 1.271105000000000018e+01 6.221804999999999808e+01 2.093845000000000255e+03
3.400000000000000244e-02 1.908475000000000033e-01 1.162197000000000102e+01 6.043274999999999864e+01 2.093460000000000036e+03
3.500000000000000333e-02 1.907864999999999978e-01 1.066705500000000129e+01 5.883400000000000318e+01 2.093065000000000055e+03
3.600000000000000422e-02 1.907400000000000206e-01 9.987379999999999924e+00 5.786509999999999820e+01 2.092755000000000109e+03
3.700000000000000511e-02 1.907194999999999863e-01 9.677319999999999922e+00 5.786560000000000059e+01 2.092610000000000127e+03
3.799999999999999906e-02 1.907335000000000003e-01 9.756574999999999775e+00 5.896269999999999811e+01 2.092680000000000291e+03
3.899999999999999994e-02 1.907830000000000081e-01 1.016510500000000050e+01 6.102994999999999948e+01 2.092970000000000255e+03
4.000000000000000083e-02 1.908595000000000153e-01 1.077816999999999936e+01 6.371779999999999688e+01 2.093449999999999818e+03
4.100000000000000172e-02 1.909520000000000106e-01 1.143493000000000137e+01 6.653874999999999318e+01 2.094029999999999745e+03
4.200000000000000261e-02 1.910429999999999906e-01 1.197119999999999962e+01 6.897464999999999691e+01 2.094614999999999782e+03
4.300000000000000350e-02 1.911165000000000225e-01 1.224794999999999945e+01 7.057909999999999684e+01 2.095095000000000255e+03
4.400000000000000439e-02 1.911599999999999966e-01 1.217030000000000101e+01 7.104970000000000141e+01 2.095385000000000218e+03
4.499999999999999833e-02 1.911640000000000006e-01 1.169519999999999982e+01 7.026069999999999993e+01 2.095425000000000182e+03
4.599999999999999922e-02 1.911245000000000027e-01 1.082785000000000153e+01 6.825615000000000521e+01 2.095194999999999709e+03
4.700000000000000011e-02 1.910449999999999926e-01 9.611365000000001046e+00 6.521184999999999832e+01 2.094699999999999818e+03
4.800000000000000100e-02 1.909305000000000030e-01 8.112190000000000012e+00 6.138205000000000666e+01 2.093974999999999909e+03
4.900000000000000189e-02 1.907889999999999864e-01 6.406725000000000669e+00 5.704545000000000243e+01 2.093074999999999818e+03
5.000000000000000278e-02 1.906289999999999929e-01 4.571146999999999849e+00 5.246345000000000169e+01 2.092054999999999836e+03
5.100000000000000366e-02 1.904595000000000038e-01 2.676125000000000309e+00 4.785634999999999906e+01 2.090965000000000146e+03
5.200000000000000455e-02 1.902874999999999983e-01 7.856049999999998867e-01 4.339809999999999945e+01 2.089855000000000018e+03
5.300000000000000544e-02 1.901194999999999968e-01 -1.041534999999999878e+00 3.922390000000000043e+01 2.088775000000000091e+03
5.399999999999999939e-02 1.899609999999999910e-01 -2.748866500000000102e+00 3.544474999999999909e+01 2.087744999999999891e+03
5.500000000000000028e-02 1.898159999999999847e-01 -4.280454999999999899e+00 3.216140000000000043e+01 2.086805000000000291e+03
5.600000000000000117e-02 1.896899999999999975e-01 -5.580499999999999794e+00 2.947359999999999758e+01 2.085980000000000018e+03
5.700000000000000205e-02 1.895864999999999911e-01 -6.594965000000000188e+00 2.748160000000000025e+01 2.085305000000000291e+03
5.800000000000000294e-02 1.895104999999999984e-01 -7.274849999999999817e+00 2.628119999999999834e+01 2.084789999999999964e+03
5.900000000000000383e-02 1.894645000000000079e-01 -7.580320000000000391e+00 2.595329999999999870e+01 2.084474999999999909e+03
6.000000000000000472e-02 1.894520000000000093e-01 -7.484785000000000466e+00 2.655239999999999867e+01 2.084375000000000000e+03
6.099999999999999867e-02 1.894750000000000045e-01 -6.977935000000000443e+00 2.809619999999999962e+01 2.084494999999999891e+03
6.199999999999999956e-02 1.895334999999999936e-01 -6.067235000000000156e+00 3.055965000000000131e+01 2.084845000000000255e+03
6.300000000000000044e-02 1.896265000000000034e-01 -4.777590000000000003e+00 3.387465000000000259e+01 2.085414999999999964e+03
6.400000000000000133e-02 1.897510000000000030e-01 -3.149433499999999775e+00 3.793460000000000321e+01 2.086195000000000164e+03
6.500000000000000222e-02 1.899035000000000029e-01 -1.235700000000000021e+00 4.260254999999999370e+01 2.087154999999999745e+03
6.600000000000000311e-02 1.900795000000000123e-01 9.017799999999998040e-01 4.772240000000000038e+01 2.088269999999999982e+03
6.700000000000000400e-02 1.902719999999999967e-01 3.196004999999999985e+00 5.312944999999999851e+01 2.089500000000000000e+03
6.800000000000000488e-02 1.904770000000000074e-01 5.578351000000000504e+00 5.866055000000000064e+01 2.090815000000000055e+03
6.900000000000000577e-02 1.906869999999999954e-01 7.981740000000000279e+00 6.416254999999999598e+01 2.092164999999999964e+03
7.000000000000000666e-02 1.908964999999999967e-01 1.034375999999999962e+01 6.949974999999999170e+01 2.093525000000000091e+03
7.100000000000000755e-02 1.911010000000000209e-01 1.260940000000000083e+01 7.455960000000000321e+01 2.094850000000000364e+03
7.200000000000000844e-02 1.912965000000000082e-01 1.473335000000000150e+01 7.925759999999999650e+01 2.096130000000000109e+03
7.300000000000000933e-02 1.914799999999999836e-01 1.668189999999999884e+01 8.354079999999999018e+01 2.097324999999999818e+03
7.399999999999999634e-02 1.916495000000000004e-01 1.843444999999999823e+01 8.738930000000000575e+01 2.098440000000000055e+03
7.499999999999999722e-02 1.918035000000000156e-01 1.998349999999999937e+01 9.081579999999999586e+01 2.099460000000000036e+03
7.599999999999999811e-02 1.919429999999999747e-01 2.133389999999999986e+01 9.386199999999999477e+01 2.100385000000000218e+03
7.699999999999999900e-02 1.920695000000000041e-01 2.250150000000000006e+01 9.659395000000000664e+01 2.101225000000000364e+03
7.799999999999999989e-02 1.921849999999999947e-01 2.351044999999999874e+01 9.909350000000000591e+01 2.101994999999999891e+03
7.900000000000000078e-02 1.922925000000000051e-01 2.439000000000000057e+01 1.014482500000000016e+02 2.102715000000000146e+03
8.000000000000000167e-02 1.923960000000000115e-01 2.517170000000000130e+01 1.037464999999999975e+02 2.103404999999999745e+03
8.100000000000000255e-02 1.924965000000000148e-01 2.588615000000000066e+01 1.060655000000000001e+02 2.104074999999999818e+03
8.200000000000000344e-02 1.925979999999999914e-01 2.656029999999999802e+01 1.084670000000000130e+02 2.104744999999999891e+03
8.300000000000000433e-02 1.927019999999999844e-01 2.721589999999999776e+01 1.109909999999999997e+02 2.105435000000000400e+03
8.400000000000000522e-02 1.928099999999999814e-01 2.786759999999999948e+01 1.136574999999999989e+02 2.106144999999999982e+03
8.500000000000000611e-02 1.929219999999999824e-01 2.852279999999999660e+01 1.164625000000000057e+02 2.106885000000000218e+03
8.600000000000000699e-02 1.930390000000000161e-01 2.918140000000000001e+01 1.193820000000000050e+02 2.107654999999999745e+03
8.700000000000000788e-02 1.931589999999999974e-01 2.983670000000000044e+01 1.223750000000000000e+02 2.108444999999999709e+03
8.800000000000000877e-02 1.932810000000000084e-01 3.047599999999999909e+01 1.253870000000000005e+02 2.109250000000000000e+03
8.899999999999999578e-02 1.934029999999999916e-01 3.108230000000000004e+01 1.283555000000000064e+02 2.110055000000000291e+03
8.999999999999999667e-02 1.935224999999999862e-01 3.163550000000000040e+01 1.312135000000000105e+02 2.110840000000000146e+03
9.099999999999999756e-02 1.936374999999999902e-01 3.211384999999999934e+01 1.338935000000000173e+02 2.111599999999999909e+03
9.199999999999999845e-02 1.937450000000000006e-01 3.249595000000000056e+01 1.363340000000000032e+02 2.112315000000000055e+03
9.299999999999999933e-02 1.938425000000000009e-01 3.276149999999999807e+01 1.384789999999999850e+02 2.112965000000000146e+03
9.400000000000000022e-02 1.939294999999999769e-01 3.289305000000000234e+01 1.402835000000000036e+02 2.113539999999999964e+03
9.500000000000000111e-02 1.940024999999999944e-01 3.287689999999999912e+01 1.417139999999999986e+02 2.114034999999999854e+03
9.600000000000000200e-02 1.940614999999999979e-01 3.270404999999999518e+01 1.427504999999999882e+02 2.114430000000000291e+03
9.700000000000000289e-02 1.941054999999999864e-01 3.237040000000000362e+01 1.433874999999999886e+02 2.114734999999999673e+03
9.800000000000000377e-02 1.941340000000000010e-01 3.187765000000000271e+01 1.436334999999999980e+02 2.114930000000000291e+03
9.900000000000000466e-02 1.941479999999999873e-01 3.123270000000000124e+01 1.435084999999999980e+02 2.115034999999999854e+03
1.000000000000000056e-01 1.941475000000000006e-01 3.044764999999999944e+01 1.430464999999999804e+02 2.115045000000000073e+03
1.010000000000000064e-01 1.941344999999999876e-01 2.953889999999999816e+01 1.422905000000000086e+02 2.114965000000000146e+03
1.020000000000000073e-01 1.941094999999999904e-01 2.852655000000000030e+01 1.412895000000000039e+02 2.114815000000000055e+03
1.030000000000000082e-01 1.940759999999999985e-01 2.743335000000000079e+01 1.400994999999999777e+02 2.114595000000000255e+03
1.040000000000000091e-01 1.940334999999999976e-01 2.628345000000000198e+01 1.387764999999999986e+02 2.114329999999999927e+03
1.050000000000000100e-01 1.939865000000000061e-01 2.510170000000000101e+01 1.373760000000000048e+02 2.114024999999999636e+03
1.059999999999999970e-01 1.939359999999999973e-01 2.391219999999999857e+01 1.359519999999999982e+02 2.113695000000000164e+03
1.069999999999999979e-01 1.938840000000000008e-01 2.273785000000000167e+01 1.345514999999999759e+02 2.113354999999999563e+03
1.079999999999999988e-01 1.938330000000000053e-01 2.159895000000000209e+01 1.332164999999999964e+02 2.113019999999999982e+03
1.089999999999999997e-01 1.937829999999999830e-01 2.051285000000000025e+01 1.319815000000000111e+02 2.112690000000000055e+03
1.100000000000000006e-01 1.937364999999999782e-01 1.949324999999999974e+01 1.308695000000000164e+02 2.112380000000000109e+03
1.110000000000000014e-01 1.936944999999999917e-01 1.854979999999999762e+01 1.298969999999999914e+02 2.112100000000000364e+03
1.120000000000000023e-01 1.936569999999999958e-01 1.768775000000000119e+01 1.290670000000000073e+02 2.111850000000000364e+03
1.130000000000000032e-01 1.936240000000000183e-01 1.690809999999999746e+01 1.283755000000000166e+02 2.111625000000000000e+03
1.140000000000000041e-01 1.935959999999999903e-01 1.620739999999999981e+01 1.278089999999999975e+02 2.111440000000000055e+03
1.150000000000000050e-01 1.935719999999999941e-01 1.557860000000000156e+01 1.273445000000000107e+02 2.111275000000000091e+03
1.160000000000000059e-01 1.935520000000000018e-01 1.501099999999999923e+01 1.269524999999999864e+02 2.111135000000000218e+03
1.170000000000000068e-01 1.935335000000000250e-01 1.449129999999999896e+01 1.265985000000000014e+02 2.111010000000000218e+03
1.180000000000000077e-01 1.935169999999999946e-01 1.400455000000000005e+01 1.262445000000000022e+02 2.110894999999999982e+03
1.190000000000000085e-01 1.935000000000000053e-01 1.353459999999999930e+01 1.258534999999999968e+02 2.110779999999999745e+03
1.200000000000000094e-01 1.934815000000000007e-01 1.306550000000000011e+01 1.253880000000000052e+02 2.110649999999999636e+03
1.209999999999999964e-01 1.934599999999999931e-01 1.258245000000000147e+01 1.248149999999999977e+02 2.110510000000000218e+03
1.219999999999999973e-01 1.934339999999999948e-01 1.207225000000000037e+01 1.241069999999999993e+02 2.110340000000000146e+03
1.229999999999999982e-01 1.934035000000000060e-01 1.152454999999999963e+01 1.232450000000000045e+02 2.110140000000000327e+03
1.239999999999999991e-01 1.933674999999999977e-01 1.093226500000000101e+01 1.222180000000000035e+02 2.109904999999999745e+03
1.250000000000000000e-01 1.933249999999999968e-01 1.029203499999999849e+01 1.210240000000000009e+02 2.109625000000000000e+03
1.260000000000000009e-01 1.932765000000000177e-01 9.604290000000000660e+00 1.196730000000000018e+02 2.109305000000000291e+03
1.270000000000000018e-01 1.932220000000000049e-01 8.873509999999999565e+00 1.181804999999999950e+02 2.108954999999999927e+03
1.280000000000000027e-01 1.931630000000000014e-01 8.107655000000001166e+00 1.165745000000000005e+02 2.108565000000000055e+03
1.290000000000000036e-01 1.930989999999999929e-01 7.317899999999999849e+00 1.148874999999999886e+02 2.108154999999999745e+03
1.300000000000000044e-01 1.930330000000000101e-01 6.517929999999999779e+00 1.131580000000000013e+02 2.107720000000000255e+03
1.310000000000000053e-01 1.929649999999999976e-01 5.723139999999999894e+00 1.114269999999999925e+02 2.107275000000000091e+03
1.320000000000000062e-01 1.928974999999999995e-01 4.949804999999999566e+00 1.097355000000000018e+02 2.106829999999999927e+03
1.330000000000000071e-01 1.928310000000000024e-01 4.214150000000000063e+00 1.081260000000000048e+02 2.106399999999999636e+03
1.340000000000000080e-01 1.927679999999999949e-01 3.531560000000000255e+00 1.066340000000000003e+02 2.105985000000000127e+03
1.350000000000000089e-01 1.927094999999999780e-01 2.915750000000000064e+00 1.052920000000000016e+02 2.105595000000000255e+03
1.360000000000000098e-01 1.926565000000000083e-01 2.378138499999999933e+00 1.041250000000000000e+02 2.105244999999999891e+03
1.370000000000000107e-01 1.926104999999999901e-01 1.927381500000000081e+00 1.031504999999999939e+02 2.104930000000000291e+03
1.380000000000000115e-01 1.925709999999999922e-01 1.569008000000000180e+00 1.023780000000000001e+02 2.104675000000000182e+03
1.390000000000000124e-01 1.925390000000000157e-01 1.305313500000000015e+00 1.018094999999999999e+02 2.104454999999999927e+03
1.400000000000000133e-01 1.925149999999999917e-01 1.135355000000000114e+00 1.014375000000000000e+02 2.104295000000000073e+03
1.410000000000000142e-01 1.924985000000000168e-01 1.055163000000000073e+00 1.012510000000000048e+02 2.104175000000000182e+03
1.420000000000000151e-01 1.924885000000000068e-01 1.058002500000000179e+00 1.012295000000000016e+02 2.104105000000000018e+03
1.430000000000000160e-01 1.924850000000000172e-01 1.134844999999999882e+00 1.013499999999999943e+02 2.104069999999999709e+03
1.440000000000000169e-01 1.924865000000000048e-01 1.274789999999999868e+00 1.015865000000000009e+02 2.104079999999999927e+03
1.450000000000000178e-01 1.924929999999999974e-01 1.465634999999999799e+00 1.019085000000000036e+02 2.104114999999999782e+03
1.459999999999999909e-01 1.925030000000000074e-01 1.694379999999999997e+00 1.022874999999999943e+02 2.104175000000000182e+03
1.469999999999999918e-01 1.925149999999999917e-01 1.947780000000000067e+00 1.026945000000000050e+02 2.104250000000000000e+03
1.479999999999999927e-01 1.925279999999999769e-01 2.212835000000000107e+00 1.031015000000000015e+02 2.104335000000000036e+03
1.489999999999999936e-01 1.925419999999999909e-01 2.477249999999999730e+00 1.034840000000000089e+02 2.104414999999999964e+03
1.499999999999999944e-01 1.925545000000000173e-01 2.729835000000000012e+00 1.038195000000000050e+02 2.104500000000000000e+03
1.509999999999999953e-01 1.925659999999999872e-01 2.960849999999999760e+00 1.040900000000000034e+02 2.104574999999999818e+03
1.519999999999999962e-01 1.925749999999999962e-01 3.162244999999999973e+00 1.042824999999999989e+02 2.104635000000000218e+03
1.529999999999999971e-01 1.925810000000000022e-01 3.327879999999999949e+00 1.043865000000000123e+02 2.104675000000000182e+03
1.539999999999999980e-01 1.925844999999999918e-01 3.453605000000000036e+00 1.043984999999999985e+02 2.104699999999999818e+03
1.549999999999999989e-01 1.925839999999999774e-01 3.537295000000000300e+00 1.043170000000000073e+02 2.104699999999999818e+03
1.559999999999999998e-01 1.925804999999999878e-01 3.578775000000000261e+00 1.041460000000000008e+02 2.104685000000000400e+03
1.570000000000000007e-01 1.925744999999999818e-01 3.579695000000000071e+00 1.038930000000000007e+02 2.104639999999999873e+03
1.580000000000000016e-01 1.925645000000000273e-01 3.543285000000000018e+00 1.035680000000000121e+02 2.104579999999999927e+03
1.590000000000000024e-01 1.925525000000000153e-01 3.474075000000000024e+00 1.031835000000000093e+02 2.104505000000000109e+03
