# t [s], A [cm^2], U [cm/s], P [cPa], c [cm/s]
1.000000000000000021e-03 7.239869999999999362e-01 5.938999999999999835e-03 9.629445000000001187e+01 1.670440000000000055e+03
2.000000000000000042e-03 7.239754999999999940e-01 -1.106590000000000178e-03 9.626085000000000491e+01 1.670434999999999945e+03
3.000000000000000062e-03 7.240489999999999426e-01 1.216474500000000181e-01 9.639490000000000691e+01 1.670460000000000036e+03
4.000000000000000083e-03 7.240955000000000030e-01 2.183978500000000045e-01 9.650839999999999463e+01 1.670485000000000127e+03
5.000000000000000104e-03 7.240359999999999019e-01 1.552910000000000124e-01 9.637120000000000175e+01 1.670460000000000036e+03
6.000000000000000125e-03 7.239450000000000607e-01 3.272000000000002684e-02 9.606419999999999959e+01 1.670400000000000091e+03
7.000000000000000146e-03 7.238609999999999767e-01 -9.107599999999999030e-02 9.568604999999999450e+01 1.670325000000000045e+03
8.000000000000000167e-03 7.237089999999999357e-01 -3.416500000000000092e-01 9.509040000000000248e+01 1.670204999999999927e+03
9.000000000000001055e-03 7.234749999999999792e-01 -7.481749999999999234e-01 9.419630000000000791e+01 1.670025000000000091e+03
1.000000000000000194e-02 7.231559999999999100e-01 -1.303830000000000044e+00 9.296599999999999397e+01 1.669785000000000082e+03
1.099999999999999936e-02 7.227220000000000866e-01 -2.040720000000000312e+00 9.131069999999999709e+01 1.669449999999999818e+03
1.200000000000000025e-02 7.221754999999999702e-01 -2.932154999999999845e+00 8.920724999999998772e+01 1.669019999999999982e+03
1.300000000000000114e-02 7.215914999999999413e-01 -3.823134999999999728e+00 8.682114999999998872e+01 1.668519999999999982e+03
1.400000000000000203e-02 7.210754999999999804e-01 -4.498871000000000286e+00 8.445529999999999404e+01 1.668000000000000000e+03
1.499999999999999944e-02 7.206954999999999334e-01 -4.804645500000000347e+00 8.238840000000000430e+01 1.667514999999999873e+03
1.600000000000000033e-02 7.204530000000000101e-01 -4.709125000000000227e+00 8.075075000000001069e+01 1.667105000000000018e+03
1.700000000000000122e-02 7.202934999999999199e-01 -4.293644999999999712e+00 7.949649999999999750e+01 1.666759999999999991e+03
1.800000000000000211e-02 7.201405000000000722e-01 -3.699969999999999981e+00 7.845265000000000555e+01 1.666454999999999927e+03
1.900000000000000300e-02 7.199269999999999836e-01 -3.067966000000000193e+00 7.740545000000000186e+01 1.666160000000000082e+03
2.000000000000000042e-02 7.196214999999999140e-01 -2.484640500000000252e+00 7.618844999999998890e+01 1.665835000000000036e+03
2.100000000000000130e-02 7.192340000000000400e-01 -1.961704999999999810e+00 7.474099999999999966e+01 1.665470000000000027e+03
2.200000000000000219e-02 7.188034999999999286e-01 -1.450174999999999770e+00 7.311239999999999384e+01 1.665069999999999936e+03
2.299999999999999961e-02 7.183770000000000433e-01 -8.820150000000002155e-01 7.141630000000000678e+01 1.664650000000000091e+03
2.400000000000000050e-02 7.179849999999999843e-01 -2.150249999999997996e-01 6.976279999999999859e+01 1.664235000000000127e+03
2.500000000000000139e-02 7.176279999999999326e-01 5.389500000000002622e-01 6.820199999999999818e+01 1.663835000000000036e+03
2.600000000000000228e-02 7.172769999999999424e-01 1.309630000000000072e+00 6.669724999999999682e+01 1.663444999999999936e+03
2.700000000000000316e-02 7.168849999999999945e-01 1.984070000000000000e+00 6.513084999999999525e+01 1.663045000000000073e+03
2.800000000000000058e-02 7.163984999999999381e-01 2.435399999999999565e+00 6.333630000000000848e+01 1.662609999999999900e+03
2.900000000000000147e-02 7.157759999999999678e-01 2.556650000000000311e+00 6.114764999999999873e+01 1.662094999999999800e+03
3.000000000000000236e-02 7.150009999999999977e-01 2.290779999999999816e+00 5.845219999999999771e+01 1.661485000000000127e+03
3.099999999999999978e-02 7.140885000000000149e-01 1.647765000000000146e+00 5.523090000000000543e+01 1.660775000000000091e+03
3.200000000000000067e-02 7.130829999999999114e-01 7.023749999999999716e-01 5.157224999999999682e+01 1.659965000000000146e+03
3.300000000000000155e-02 7.120484999999999731e-01 -4.257499999999998508e-01 4.765684999999999860e+01 1.659095000000000027e+03
3.400000000000000244e-02 7.110520000000000174e-01 -1.600209999999999688e+00 4.371985000000000099e+01 1.658215000000000146e+03
3.500000000000000333e-02 7.101539999999999520e-01 -2.694739999999999469e+00 4.000670000000000215e+01 1.657360000000000127e+03
3.600000000000000422e-02 7.093994999999999607e-01 -3.610890000000000377e+00 3.673474999999999824e+01 1.656585000000000036e+03
3.700000000000000511e-02 7.088149999999999729e-01 -4.285465000000000302e+00 3.406850000000000023e+01 1.655925000000000182e+03
3.799999999999999906e-02 7.084099999999999842e-01 -4.688676000000000066e+00 3.210854999999999393e+01 1.655414999999999964e+03
3.899999999999999994e-02 7.081819999999999782e-01 -4.816824999999999690e+00 3.089464999999999861e+01 1.655055000000000064e+03
4.000000000000000083e-02 7.081204999999999306e-01 -4.681594999999999729e+00 3.041765000000000185e+01 1.654859999999999900e+03
4.100000000000000172e-02 7.082125000000000226e-01 -4.299920000000000186e+00 3.063644999999999641e+01 1.654829999999999927e+03
4.200000000000000261e-02 7.084449999999999914e-01 -3.686570500000000195e+00 3.149535000000000196e+01 1.654945000000000164e+03
4.300000000000000350e-02 7.088065000000000060e-01 -2.850999999999999979e+00 3.293649999999999523e+01 1.655195000000000164e+03
4.400000000000000439e-02 7.092890000000000583e-01 -1.798690000000000122e+00 3.490639999999999787e+01 1.655575000000000045e+03
4.499999999999999833e-02 7.098835000000000006e-01 -5.355900000000000105e-01 3.735519999999999641e+01 1.656075000000000045e+03
4.599999999999999922e-02 7.105799999999999894e-01 9.265600000000002723e-01 4.023199999999999932e+01 1.656680000000000064e+03
4.700000000000000011e-02 7.113635000000000375e-01 2.566050000000000164e+00 4.347934999999999661e+01 1.657375000000000000e+03
4.800000000000000100e-02 7.122159999999999602e-01 4.349605000000000388e+00 4.702890000000000015e+01 1.658150000000000091e+03
4.900000000000000189e-02 7.131149999999999434e-01 6.233500000000000263e+00 5.080055000000000121e+01 1.658980000000000018e+03
5.000000000000000278e-02 7.140379999999999505e-01 8.167205000000000936e+00 5.470510000000000161e+01 1.659855000000000018e+03
5.100000000000000366e-02 7.149604999999999988e-01 1.009788999999999959e+01 5.864975000000000449e+01 1.660755000000000109e+03
5.200000000000000455e-02 7.158615000000000395e-01 1.197560000000000002e+01 6.254505000000000337e+01 1.661650000000000091e+03
5.300000000000000544e-02 7.167229999999999990e-01 1.375714999999999932e+01 6.631194999999999595e+01 1.662534999999999854e+03
5.399999999999999939e-02 7.175335000000000463e-01 1.540921999999999947e+01 6.988714999999999122e+01 1.663389999999999873e+03
5.500000000000000028e-02 7.182855000000000212e-01 1.690950000000000131e+01 7.322700000000000387e+01 1.664194999999999936e+03
5.600000000000000117e-02 7.189769999999999772e-01 1.824644999999999939e+01 7.630844999999999345e+01 1.664954999999999927e+03
5.700000000000000205e-02 7.196099999999999719e-01 1.941809999999999903e+01 7.912784999999999513e+01 1.665660000000000082e+03
5.800000000000000294e-02 7.201899999999999968e-01 2.043050000000000210e+01 8.169854999999999734e+01 1.666309999999999945e+03
5.900000000000000383e-02 7.207254999999999079e-01 2.129560000000000031e+01 8.404744999999999777e+01 1.666914999999999964e+03
6.000000000000000472e-02 7.212250000000000050e-01 2.202980000000000160e+01 8.621119999999999095e+01 1.667470000000000027e+03
6.099999999999999867e-02 7.216994999999999383e-01 2.265245000000000175e+01 8.823259999999999081e+01 1.667994999999999891e+03
6.199999999999999956e-02 7.221589999999999954e-01 2.318464999999999776e+01 9.015715000000000146e+01 1.668490000000000009e+03
6.300000000000000044e-02 7.226135000000000197e-01 2.364775000000000205e+01 9.203000000000000114e+01 1.668970000000000027e+03
6.400000000000000133e-02 7.230725000000000069e-01 2.406210000000000093e+01 9.389230000000000587e+01 1.669445000000000164e+03
6.500000000000000222e-02 7.235424999999999773e-01 2.444575000000000031e+01 9.577889999999999304e+01 1.669920000000000073e+03
6.600000000000000311e-02 7.240290000000000337e-01 2.481284999999999741e+01 9.771484999999999843e+01 1.670400000000000091e+03
6.700000000000000400e-02 7.245325000000000237e-01 2.517249999999999943e+01 9.971344999999999459e+01 1.670894999999999982e+03
6.800000000000000488e-02 7.250514999999999599e-01 2.552824999999999989e+01 1.017758499999999913e+02 1.671400000000000091e+03
6.900000000000000577e-02 7.255825000000000191e-01 2.587780000000000058e+01 1.038890000000000100e+02 1.671909999999999854e+03
7.000000000000000666e-02 7.261165000000000536e-01 2.621374999999999744e+01 1.060289999999999964e+02 1.672430000000000064e+03
7.100000000000000755e-02 7.266455000000000553e-01 2.652449999999999974e+01 1.081614999999999895e+02 1.672954999999999927e+03
7.200000000000000844e-02 7.271585000000000409e-01 2.679565000000000197e+01 1.102444999999999879e+02 1.673460000000000036e+03
7.300000000000000933e-02 7.276434999999999986e-01 2.701165000000000305e+01 1.122344999999999970e+02 1.673954999999999927e+03
7.399999999999999634e-02 7.280919999999999614e-01 2.715715000000000146e+01 1.140865000000000009e+02 1.674420000000000073e+03
7.499999999999999722e-02 7.284934999999999050e-01 2.721819999999999951e+01 1.157595000000000027e+02 1.674845000000000027e+03
7.599999999999999811e-02 7.288410000000000721e-01 2.718325000000000102e+01 1.172180000000000035e+02 1.675219999999999800e+03
7.699999999999999900e-02 7.291285000000000682e-01 2.704404999999999859e+01 1.184354999999999905e+02 1.675545000000000073e+03
7.799999999999999989e-02 7.293529999999999180e-01 2.679565000000000197e+01 1.193915000000000077e+02 1.675809999999999945e+03
7.900000000000000078e-02 7.295125000000000082e-01 2.643715000000000259e+01 1.200780000000000030e+02 1.676014999999999873e+03
8.000000000000000167e-02 7.296089999999999520e-01 2.597119999999999962e+01 1.204954999999999927e+02 1.676154999999999973e+03
8.100000000000000255e-02 7.296450000000000990e-01 2.540415000000000134e+01 1.206529999999999916e+02 1.676235000000000127e+03
8.200000000000000344e-02 7.296255000000000379e-01 2.474555000000000149e+01 1.205685000000000002e+02 1.676259999999999991e+03
8.300000000000000433e-02 7.295560000000000933e-01 2.400805000000000078e+01 1.202674999999999983e+02 1.676224999999999909e+03
8.400000000000000522e-02 7.294454999999999689e-01 2.320660000000000167e+01 1.197804999999999893e+02 1.676144999999999982e+03
8.500000000000000611e-02 7.293015000000000470e-01 2.235775000000000290e+01 1.191424999999999983e+02 1.676025000000000091e+03
8.600000000000000699e-02 7.291334999999999900e-01 2.147935000000000016e+01 1.183909999999999911e+02 1.675875000000000000e+03
8.700000000000000788e-02 7.289499999999999869e-01 2.058930000000000149e+01 1.175645000000000095e+02 1.675700000000000045e+03
8.800000000000000877e-02 7.287600000000000744e-01 1.970485000000000042e+01 1.167000000000000028e+02 1.675509999999999991e+03
8.899999999999999578e-02 7.285710000000000797e-01 1.884215000000000018e+01 1.158340000000000032e+02 1.675315000000000055e+03
8.999999999999999667e-02 7.283904999999999408e-01 1.801494999999999891e+01 1.149960000000000093e+02 1.675125000000000000e+03
9.099999999999999756e-02 7.282230000000000647e-01 1.723454999999999870e+01 1.142125000000000057e+02 1.674934999999999945e+03
9.199999999999999845e-02 7.280729999999999702e-01 1.650900000000000034e+01 1.135024999999999977e+02 1.674764999999999873e+03
9.299999999999999933e-02 7.279435000000000766e-01 1.584295000000000186e+01 1.128799999999999955e+02 1.674605000000000018e+03
9.400000000000000022e-02 7.278335000000000221e-01 1.523770000000000024e+01 1.123505000000000109e+02 1.674469999999999800e+03
9.500000000000000111e-02 7.277439999999999465e-01 1.469130000000000003e+01 1.119120000000000061e+02 1.674349999999999909e+03
9.600000000000000200e-02 7.276715000000000266e-01 1.419860000000000078e+01 1.115594999999999999e+02 1.674255000000000109e+03
9.700000000000000289e-02 7.276135000000000241e-01 1.375215000000000032e+01 1.112789999999999964e+02 1.674170000000000073e+03
9.800000000000000377e-02 7.275655000000000872e-01 1.334239999999999959e+01 1.110550000000000068e+02 1.674099999999999909e+03
9.900000000000000466e-02 7.275220000000000020e-01 1.295814999999999984e+01 1.108675000000000068e+02 1.674039999999999964e+03
1.000000000000000056e-01 7.274789999999999868e-01 1.258765000000000001e+01 1.106945000000000050e+02 1.673990000000000009e+03
1.010000000000000064e-01 7.274304999999999799e-01 1.221873000000000076e+01 1.105130000000000052e+02 1.673934999999999945e+03
1.020000000000000073e-01 7.273724999999999774e-01 1.183979000000000070e+01 1.103034999999999997e+02 1.673880000000000109e+03
1.030000000000000082e-01 7.273000000000000576e-01 1.144026000000000032e+01 1.100449999999999875e+02 1.673815000000000055e+03
1.040000000000000091e-01 7.272100000000000231e-01 1.101130999999999993e+01 1.097210000000000036e+02 1.673744999999999891e+03
1.050000000000000100e-01 7.270999999999999686e-01 1.054626000000000019e+01 1.093199999999999932e+02 1.673650000000000091e+03
1.059999999999999970e-01 7.269695000000000462e-01 1.004093500000000105e+01 1.088335000000000008e+02 1.673539999999999964e+03
1.069999999999999979e-01 7.268175000000000052e-01 9.494109999999999161e+00 1.082599999999999909e+02 1.673409999999999854e+03
1.079999999999999988e-01 7.266470000000000429e-01 8.907379999999999853e+00 1.076024999999999920e+02 1.673259999999999991e+03
1.089999999999999997e-01 7.264595000000000358e-01 8.285299999999999443e+00 1.068704999999999927e+02 1.673099999999999909e+03
1.100000000000000006e-01 7.262600000000000167e-01 7.634965000000000224e+00 1.060785000000000053e+02 1.672920000000000073e+03
1.110000000000000014e-01 7.260530000000000594e-01 6.965724999999999945e+00 1.052434999999999974e+02 1.672730000000000018e+03
1.120000000000000023e-01 7.258439999999999337e-01 6.288830000000000808e+00 1.043888499999999908e+02 1.672534999999999854e+03
1.130000000000000032e-01 7.256394999999999929e-01 5.616534999999999833e+00 1.035382999999999925e+02 1.672335000000000036e+03
1.140000000000000041e-01 7.254445000000000476e-01 4.961705000000000254e+00 1.027171000000000021e+02 1.672139999999999873e+03
1.150000000000000050e-01 7.252659999999999663e-01 4.337064999999999948e+00 1.019494499999999988e+02 1.671954999999999927e+03
1.160000000000000059e-01 7.251080000000000858e-01 3.754515000000000047e+00 1.012588000000000079e+02 1.671789999999999964e+03
1.170000000000000068e-01 7.249760000000000648e-01 3.224584999999999813e+00 1.006653499999999894e+02 1.671639999999999873e+03
1.180000000000000077e-01 7.248725000000000307e-01 2.755905000000000271e+00 1.001852000000000089e+02 1.671514999999999873e+03
1.190000000000000085e-01 7.248004999999999587e-01 2.354810000000000070e+00 9.982975000000000421e+01 1.671414999999999964e+03
1.200000000000000094e-01 7.247595000000000010e-01 2.025090000000000057e+00 9.960509999999999309e+01 1.671349999999999909e+03
1.209999999999999964e-01 7.247509999999999231e-01 1.767905000000000060e+00 9.951290000000000191e+01 1.671309999999999945e+03
1.219999999999999973e-01 7.247714999999999019e-01 1.581784999999999997e+00 9.954805000000000348e+01 1.671295000000000073e+03
1.229999999999999982e-01 7.248189999999999911e-01 1.462874999999999925e+00 9.970150000000001000e+01 1.671309999999999945e+03
1.239999999999999991e-01 7.248900000000000343e-01 1.405158000000000129e+00 9.996020000000000039e+01 1.671355000000000018e+03
1.250000000000000000e-01 7.249805000000000277e-01 1.400907500000000194e+00 1.003063500000000090e+02 1.671414999999999964e+03
1.260000000000000009e-01 7.250844999999999096e-01 1.441063999999999901e+00 1.007212499999999977e+02 1.671500000000000000e+03
1.270000000000000018e-01 7.251980000000000093e-01 1.515742000000000145e+00 1.011839999999999975e+02 1.671599999999999909e+03
1.280000000000000027e-01 7.253155000000000019e-01 1.614679499999999823e+00 1.016740000000000066e+02 1.671699999999999818e+03
1.290000000000000036e-01 7.254324999999999246e-01 1.727648500000000142e+00 1.021700000000000017e+02 1.671809999999999945e+03
1.300000000000000044e-01 7.255449999999999955e-01 1.844882000000000133e+00 1.026525000000000034e+02 1.671920000000000073e+03
1.310000000000000053e-01 7.256484999999999186e-01 1.957390000000000185e+00 1.031055000000000064e+02 1.672019999999999982e+03
1.320000000000000062e-01 7.257405000000000106e-01 2.057234999999999925e+00 1.035130000000000052e+02 1.672119999999999891e+03
1.330000000000000071e-01 7.258180000000000742e-01 2.137739999999999974e+00 1.038650000000000091e+02 1.672204999999999927e+03
1.340000000000000080e-01 7.258795000000000108e-01 2.193620000000000125e+00 1.041504999999999939e+02 1.672275000000000091e+03
1.350000000000000089e-01 7.259240000000000137e-01 2.221090000000000231e+00 1.043654999999999973e+02 1.672329999999999927e+03
1.360000000000000098e-01 7.259510000000000129e-01 2.217855000000000132e+00 1.045074999999999932e+02 1.672375000000000000e+03
1.370000000000000107e-01 7.259614999999999263e-01 2.183074999999999655e+00 1.045765000000000100e+02 1.672400000000000091e+03
1.380000000000000115e-01 7.259554999999999758e-01 2.117304999999999993e+00 1.045745000000000005e+02 1.672410000000000082e+03
1.390000000000000124e-01 7.259360000000000257e-01 2.022324999999999928e+00 1.045090000000000003e+02 1.672400000000000091e+03
1.400000000000000133e-01 7.259035000000000348e-01 1.901005000000000056e+00 1.043849999999999909e+02 1.672384999999999991e+03
1.410000000000000142e-01 7.258599999999999497e-01 1.757074499999999873e+00 1.042109999999999985e+02 1.672355000000000018e+03
1.420000000000000151e-01 7.258080000000000087e-01 1.594918999999999976e+00 1.039975000000000023e+02 1.672309999999999945e+03
1.430000000000000160e-01 7.257510000000000350e-01 1.419313499999999895e+00 1.037530000000000001e+02 1.672259999999999991e+03
1.440000000000000169e-01 7.256895000000000984e-01 1.235188500000000023e+00 1.034869999999999948e+02 1.672204999999999927e+03
1.450000000000000178e-01 7.256255000000000344e-01 1.047369999999999912e+00 1.032090000000000032e+02 1.672144999999999982e+03
1.459999999999999909e-01 7.255620000000000402e-01 8.603717499999999907e-01 1.029265000000000043e+02 1.672079999999999927e+03
1.469999999999999918e-01 7.255000000000000338e-01 6.781899999999999595e-01 1.026465000000000032e+02 1.672019999999999982e+03
1.479999999999999927e-01 7.254400000000000848e-01 5.041314999999999547e-01 1.023739999999999952e+02 1.671954999999999927e+03
1.489999999999999936e-01 7.253830000000000000e-01 3.407474999999999810e-01 1.021129999999999995e+02 1.671894999999999982e+03
1.499999999999999944e-01 7.253290000000000015e-01 1.897210000000000285e-01 1.018650000000000091e+02 1.671835000000000036e+03
1.509999999999999953e-01 7.252784999999999371e-01 5.192849999999998856e-02 1.016295000000000073e+02 1.671775000000000091e+03
1.519999999999999962e-01 7.252294999999999714e-01 -7.254099999999996662e-02 1.014054999999999893e+02 1.671724999999999909e+03
1.529999999999999971e-01 7.251825000000000632e-01 -1.842680000000000151e-01 1.011899999999999977e+02 1.671670000000000073e+03
1.539999999999999980e-01 7.251360000000000028e-01 -2.843709999999999849e-01 1.009799999999999898e+02 1.671619999999999891e+03
1.549999999999999989e-01 7.250890000000000946e-01 -3.743421000000000110e-01 1.007710000000000008e+02 1.671565000000000055e+03
1.559999999999999998e-01 7.250400000000000178e-01 -4.558860200000000029e-01 1.005579999999999927e+02 1.671514999999999873e+03
1.570000000000000007e-01 7.249885000000000357e-01 -5.307545999999999653e-01 1.003369500000000016e+02 1.671460000000000036e+03
1.580000000000000016e-01 7.249339999999999673e-01 -6.006100000000000882e-01 1.001047999999999973e+02 1.671405000000000200e+03
1.590000000000000024e-01 7.248755000000000059e-01 -6.669019999999999948e-01 9.985775000000001000e+01 1.671345000000000027e+03
