# t [s], A [cm^2], U [cm/s], P [cPa], c [cm/s]
1.000000000000000021e-03 7.400594999999999812e-01 4.499650000000000871e-03 1.005844999999999914e+02 1.589550000000000182e+03
2.000000000000000042e-03 7.400484999999999980e-01 -1.135780000000000079e-03 1.005610000000000070e+02 1.589539999999999964e+03
3.000000000000000062e-03 7.401075000000000292e-01 8.515435000000000365e-02 1.006516499999999894e+02 1.589559999999999945e+03
4.000000000000000083e-03 7.401655000000000317e-01 1.777989000000000097e-01 1.007680500000000023e+02 1.589585000000000036e+03
5.000000000000000104e-03 7.401450000000000529e-01 1.640524499999999886e-01 1.007352500000000077e+02 1.589579999999999927e+03
6.000000000000000125e-03 7.400765000000000260e-01 7.699850000000002526e-02 1.005504999999999995e+02 1.589549999999999955e+03
7.000000000000000146e-03 7.400139999999999496e-01 -7.405500000000009297e-03 1.003044999999999902e+02 1.589500000000000000e+03
8.000000000000000167e-03 7.399255000000000138e-01 -1.413704999999999545e-01 9.995329999999999870e+01 1.589429999999999836e+03
9.000000000000001055e-03 7.397709999999999564e-01 -3.861700000000000133e-01 9.940670000000000073e+01 1.589320000000000164e+03
1.000000000000000194e-02 7.395445000000000491e-01 -7.510949999999998461e-01 9.861799999999999500e+01 1.589164999999999964e+03
1.099999999999999936e-02 7.392305000000000126e-01 -1.250064999999999982e+00 9.753395000000000437e+01 1.588944999999999936e+03
1.200000000000000025e-02 7.388140000000000818e-01 -1.890020000000000255e+00 9.610499999999998977e+01 1.588650000000000091e+03
1.300000000000000114e-02 7.383170000000000011e-01 -2.617764999999999898e+00 9.435724999999999341e+01 1.588284999999999854e+03
1.400000000000000203e-02 7.377989999999999826e-01 -3.315084999999999837e+00 9.241970000000000596e+01 1.587864999999999782e+03
1.499999999999999944e-02 7.373275000000000245e-01 -3.850103999999999527e+00 9.047520000000000095e+01 1.587424999999999955e+03
1.600000000000000033e-02 7.369414999999999161e-01 -4.133778999999999648e+00 8.868170000000000641e+01 1.587005000000000109e+03
1.700000000000000122e-02 7.366414999999999491e-01 -4.144702999999999804e+00 8.712009999999999366e+01 1.586615000000000009e+03
1.800000000000000211e-02 7.364005000000000134e-01 -3.921084999999999710e+00 8.578369999999999607e+01 1.586259999999999991e+03
1.900000000000000300e-02 7.361744999999999539e-01 -3.534923500000000107e+00 8.460034999999999172e+01 1.585929999999999836e+03
2.000000000000000042e-02 7.359264999999999279e-01 -3.062302499999999927e+00 8.346980000000000643e+01 1.585610000000000127e+03
2.100000000000000130e-02 7.356320000000000636e-01 -2.559140499999999818e+00 8.230230000000000246e+01 1.585285000000000082e+03
2.200000000000000219e-02 7.352885000000000115e-01 -2.048505000000000464e+00 8.104739999999999611e+01 1.584950000000000045e+03
2.299999999999999961e-02 7.349099999999999522e-01 -1.522634999999999739e+00 7.970269999999999300e+01 1.584590000000000146e+03
2.400000000000000050e-02 7.345185000000000741e-01 -9.574899999999997302e-01 7.830275000000000318e+01 1.584220000000000027e+03
2.500000000000000139e-02 7.341334999999999944e-01 -3.324149999999996830e-01 7.689470000000000027e+01 1.583845000000000027e+03
2.600000000000000228e-02 7.337620000000000253e-01 3.535299999999996778e-01 7.551175000000000637e+01 1.583474999999999909e+03
2.700000000000000316e-02 7.333975000000000355e-01 1.074019999999999753e+00 7.415529999999999688e+01 1.583105000000000018e+03
2.800000000000000058e-02 7.330179999999999474e-01 1.777585000000000193e+00 7.278894999999999982e+01 1.582740000000000009e+03
2.900000000000000147e-02 7.325975000000000126e-01 2.397619999999999862e+00 7.134555000000000291e+01 1.582360000000000127e+03
3.000000000000000236e-02 7.321085000000000509e-01 2.866744999999999877e+00 6.974415000000000475e+01 1.581944999999999936e+03
3.099999999999999978e-02 7.315320000000000711e-01 3.132000000000000117e+00 6.791145000000000209e+01 1.581485000000000127e+03
3.200000000000000067e-02 7.308624999999999705e-01 3.167060000000000652e+00 6.580344999999999800e+01 1.580980000000000018e+03
3.300000000000000155e-02 7.301124999999999421e-01 2.978264999999999940e+00 6.342054999999999865e+01 1.580414999999999964e+03
3.400000000000000244e-02 7.293074999999999974e-01 2.603454999999999853e+00 6.081250000000000000e+01 1.579805000000000064e+03
3.500000000000000333e-02 7.284840000000000204e-01 2.103340000000000209e+00 5.807300000000000040e+01 1.579159999999999854e+03
3.600000000000000422e-02 7.276830000000000798e-01 1.549905000000000310e+00 5.532464999999999833e+01 1.578505000000000109e+03
3.700000000000000511e-02 7.269430000000000058e-01 1.014235000000000220e+00 5.270074999999999932e+01 1.577875000000000000e+03
3.799999999999999906e-02 7.262945000000000650e-01 5.574750000000001648e-01 5.032835000000000036e+01 1.577295000000000073e+03
3.899999999999999994e-02 7.257625000000000881e-01 2.256899999999997242e-01 4.831470000000000198e+01 1.576779999999999973e+03
4.000000000000000083e-02 7.253610000000000335e-01 4.893999999999998352e-02 4.673999999999999488e+01 1.576355000000000018e+03
4.100000000000000172e-02 7.250959999999999628e-01 4.342500000000004690e-02 4.565554999999999808e+01 1.576045000000000073e+03
4.200000000000000261e-02 7.249680000000000568e-01 2.154599999999998738e-01 4.508634999999999593e+01 1.575845000000000027e+03
4.300000000000000350e-02 7.249764999999999127e-01 5.658800000000000496e-01 4.503709999999999525e+01 1.575764999999999873e+03
4.400000000000000439e-02 7.251164999999999417e-01 1.093707999999999902e+00 4.549855000000000160e+01 1.575804999999999836e+03
4.499999999999999833e-02 7.253840000000000288e-01 1.798360000000000181e+00 4.645340000000000202e+01 1.575954999999999927e+03
4.599999999999999922e-02 7.257744999999999891e-01 2.679990000000000094e+00 4.788060000000000116e+01 1.576230000000000018e+03
4.700000000000000011e-02 7.262844999999999995e-01 3.738350000000000062e+00 4.975650000000000261e+01 1.576610000000000127e+03
4.800000000000000100e-02 7.269075000000000397e-01 4.970669999999999256e+00 5.205460000000000065e+01 1.577105000000000018e+03
4.900000000000000189e-02 7.276354999999999906e-01 6.369460000000000122e+00 5.474384999999999479e+01 1.577684999999999945e+03
5.000000000000000278e-02 7.284570000000000212e-01 7.921010999999999136e+00 5.778660000000000707e+01 1.578360000000000127e+03
5.100000000000000366e-02 7.293600000000000083e-01 9.604650499999999980e+00 6.113759999999999906e+01 1.579119999999999891e+03
5.200000000000000455e-02 7.303285000000000471e-01 1.139338500000000032e+01 6.474375000000000568e+01 1.579940000000000055e+03
5.300000000000000544e-02 7.313439999999999941e-01 1.325547000000000075e+01 6.854554999999999154e+01 1.580825000000000045e+03
5.399999999999999939e-02 7.323889999999999567e-01 1.515653999999999968e+01 7.247969999999999402e+01 1.581744999999999891e+03
5.500000000000000028e-02 7.334465000000000012e-01 1.706194500000000147e+01 7.648245000000000005e+01 1.582695000000000164e+03
5.600000000000000117e-02 7.344995000000000829e-01 1.893910499999999786e+01 8.049280000000000257e+01 1.583655000000000200e+03
5.700000000000000205e-02 7.355355000000000087e-01 2.075924999999999798e+01 8.445635000000000048e+01 1.584619999999999891e+03
5.800000000000000294e-02 7.365435000000000176e-01 2.249889999999999901e+01 8.832685000000000741e+01 1.585575000000000045e+03
5.900000000000000383e-02 7.375160000000000604e-01 2.414005000000000223e+01 9.206950000000000500e+01 1.586505000000000109e+03
6.000000000000000472e-02 7.384490000000000220e-01 2.567070000000000007e+01 9.566049999999999898e+01 1.587409999999999854e+03
6.099999999999999867e-02 7.393410000000000259e-01 2.708429999999999893e+01 9.908660000000000423e+01 1.588284999999999854e+03
6.199999999999999956e-02 7.401919999999999611e-01 2.837879999999999825e+01 1.023451000000000022e+02 1.589119999999999891e+03
6.300000000000000044e-02 7.410054999999999836e-01 2.955624999999999858e+01 1.054418499999999881e+02 1.589920000000000073e+03
6.400000000000000133e-02 7.417849999999999167e-01 3.062170000000000414e+01 1.083888499999999908e+02 1.590690000000000055e+03
6.500000000000000222e-02 7.425349999999999451e-01 3.158214999999999861e+01 1.112030000000000030e+02 1.591430000000000064e+03
6.600000000000000311e-02 7.432615000000000194e-01 3.244590000000000174e+01 1.139044999999999987e+02 1.592144999999999982e+03
6.700000000000000400e-02 7.439685000000000326e-01 3.322169999999999845e+01 1.165124999999999886e+02 1.592829999999999927e+03
6.800000000000000488e-02 7.446599999999999886e-01 3.391779999999999973e+01 1.190455000000000041e+02 1.593500000000000000e+03
6.900000000000000577e-02 7.453404999999999614e-01 3.454169999999999874e+01 1.215194999999999936e+02 1.594154999999999973e+03
7.000000000000000666e-02 7.460109999999999797e-01 3.509904999999999831e+01 1.239449999999999932e+02 1.594789999999999964e+03
7.100000000000000755e-02 7.466725000000000723e-01 3.559390000000000498e+01 1.263280000000000030e+02 1.595414999999999964e+03
7.200000000000000844e-02 7.473235000000000294e-01 3.602805000000000035e+01 1.286689999999999827e+02 1.596034999999999854e+03
7.300000000000000933e-02 7.479620000000000157e-01 3.640135000000000076e+01 1.309619999999999891e+02 1.596634999999999991e+03
7.399999999999999634e-02 7.485839999999999161e-01 3.671195000000000164e+01 1.331970000000000027e+02 1.597224999999999909e+03
7.499999999999999722e-02 7.491860000000000186e-01 3.695660000000000167e+01 1.353589999999999804e+02 1.597795000000000073e+03
7.599999999999999811e-02 7.497614999999999696e-01 3.713119999999999976e+01 1.374314999999999998e+02 1.598345000000000027e+03
7.699999999999999900e-02 7.503060000000000285e-01 3.723130000000000450e+01 1.393940000000000055e+02 1.598869999999999891e+03
7.799999999999999989e-02 7.508145000000000513e-01 3.725275000000000603e+01 1.412284999999999968e+02 1.599365000000000009e+03
7.900000000000000078e-02 7.512825000000000752e-01 3.719185000000000230e+01 1.429159999999999968e+02 1.599819999999999936e+03
8.000000000000000167e-02 7.517050000000000676e-01 3.704595000000000482e+01 1.444415000000000191e+02 1.600240000000000009e+03
8.100000000000000255e-02 7.520799999999999708e-01 3.681369999999999720e+01 1.457909999999999968e+02 1.600619999999999891e+03
8.200000000000000344e-02 7.524049999999999905e-01 3.649490000000000123e+01 1.469555000000000007e+02 1.600954999999999927e+03
8.300000000000000433e-02 7.526789999999999869e-01 3.609100000000000108e+01 1.479290000000000020e+02 1.601244999999999891e+03
8.400000000000000522e-02 7.529004999999999725e-01 3.560490000000000066e+01 1.487105000000000246e+02 1.601485000000000127e+03
8.500000000000000611e-02 7.530725000000000335e-01 3.504095000000000226e+01 1.493025000000000091e+02 1.601674999999999955e+03
8.600000000000000699e-02 7.531959999999999766e-01 3.440494999999999948e+01 1.497110000000000127e+02 1.601820000000000164e+03
8.700000000000000788e-02 7.532739999999999991e-01 3.370414999999999850e+01 1.499459999999999980e+02 1.601920000000000073e+03
8.800000000000000877e-02 7.533094999999999652e-01 3.294669999999999987e+01 1.500215000000000032e+02 1.601980000000000018e+03
8.899999999999999578e-02 7.533080000000000886e-01 3.214209999999999923e+01 1.499519999999999982e+02 1.602000000000000000e+03
8.999999999999999667e-02 7.532730000000000814e-01 3.130049999999999955e+01 1.497574999999999932e+02 1.601990000000000009e+03
9.099999999999999756e-02 7.532105000000000050e-01 3.043244999999999933e+01 1.494565000000000055e+02 1.601940000000000055e+03
9.199999999999999845e-02 7.531259999999999621e-01 2.954879999999999995e+01 1.490699999999999932e+02 1.601875000000000000e+03
9.299999999999999933e-02 7.530244999999999855e-01 2.866020000000000323e+01 1.486189999999999998e+02 1.601789999999999964e+03
9.400000000000000022e-02 7.529124999999999845e-01 2.777665000000000006e+01 1.481245000000000118e+02 1.601679999999999836e+03
9.500000000000000111e-02 7.527935000000000043e-01 2.690735000000000099e+01 1.476055000000000064e+02 1.601565000000000055e+03
9.600000000000000200e-02 7.526729999999999254e-01 2.606000000000000227e+01 1.470790000000000077e+02 1.601444999999999936e+03
9.700000000000000289e-02 7.525530000000000275e-01 2.524089999999999989e+01 1.465595000000000141e+02 1.601319999999999936e+03
9.800000000000000377e-02 7.524374999999999813e-01 2.445439999999999969e+01 1.460585000000000093e+02 1.601200000000000045e+03
9.900000000000000466e-02 7.523279999999999967e-01 2.370300000000000296e+01 1.455850000000000080e+02 1.601085000000000036e+03
1.000000000000000056e-01 7.522254999999999914e-01 2.298709999999999809e+01 1.451435000000000173e+02 1.600965000000000146e+03
1.010000000000000064e-01 7.521290000000000475e-01 2.230535000000000068e+01 1.447340000000000089e+02 1.600860000000000127e+03
1.020000000000000073e-01 7.520385000000000542e-01 2.165469999999999828e+01 1.443545000000000016e+02 1.600755000000000109e+03
1.030000000000000082e-01 7.519510000000000360e-01 2.103040000000000020e+01 1.440000000000000000e+02 1.600659999999999854e+03
1.040000000000000091e-01 7.518659999999999233e-01 2.042674999999999841e+01 1.436630000000000109e+02 1.600570000000000164e+03
1.050000000000000100e-01 7.517789999999999750e-01 1.983725000000000094e+01 1.433325000000000102e+02 1.600474999999999909e+03
1.059999999999999970e-01 7.516890000000000516e-01 1.925479999999999947e+01 1.429989999999999952e+02 1.600389999999999873e+03
1.069999999999999979e-01 7.515924999999999967e-01 1.867239999999999966e+01 1.426510000000000105e+02 1.600295000000000073e+03
1.079999999999999988e-01 7.514864999999999462e-01 1.808324999999999960e+01 1.422779999999999916e+02 1.600200000000000045e+03
1.089999999999999997e-01 7.513684999999999947e-01 1.748109999999999786e+01 1.418695000000000164e+02 1.600094999999999800e+03
1.100000000000000006e-01 7.512380000000000724e-01 1.686074999999999946e+01 1.414164999999999850e+02 1.599980000000000018e+03
1.110000000000000014e-01 7.510920000000000929e-01 1.621815000000000140e+01 1.409145000000000039e+02 1.599860000000000127e+03
1.120000000000000023e-01 7.509304999999999453e-01 1.555039999999999978e+01 1.403575000000000159e+02 1.599724999999999909e+03
1.130000000000000032e-01 7.507539999999999214e-01 1.485630000000000095e+01 1.397450000000000045e+02 1.599579999999999927e+03
1.140000000000000041e-01 7.505630000000000912e-01 1.413603999999999949e+01 1.390774999999999864e+02 1.599420000000000073e+03
1.150000000000000050e-01 7.503584999999999283e-01 1.339144500000000093e+01 1.383584999999999923e+02 1.599239999999999782e+03
1.160000000000000059e-01 7.501434999999999631e-01 1.262575500000000162e+01 1.375960000000000036e+02 1.599059999999999945e+03
1.170000000000000068e-01 7.499204999999999899e-01 1.184368500000000068e+01 1.367984999999999900e+02 1.598869999999999891e+03
1.180000000000000077e-01 7.496920000000000250e-01 1.105089000000000077e+01 1.359755000000000109e+02 1.598664999999999964e+03
1.190000000000000085e-01 7.494624999999999204e-01 1.025423999999999936e+01 1.351410000000000196e+02 1.598465000000000146e+03
1.200000000000000094e-01 7.492354999999999432e-01 9.461024999999999352e+00 1.343079999999999927e+02 1.598259999999999991e+03
1.209999999999999964e-01 7.490144999999999165e-01 8.679024999999999324e+00 1.334910000000000139e+02 1.598065000000000055e+03
1.219999999999999973e-01 7.488034999999999553e-01 7.915984999999999161e+00 1.327030000000000030e+02 1.597865000000000009e+03
1.229999999999999982e-01 7.486059999999999937e-01 7.179324999999999513e+00 1.319575000000000102e+02 1.597675000000000182e+03
1.239999999999999991e-01 7.484245000000000481e-01 6.475985000000000547e+00 1.312665000000000077e+02 1.597500000000000000e+03
1.250000000000000000e-01 7.482625000000000526e-01 5.811930000000000263e+00 1.306405000000000030e+02 1.597335000000000036e+03
1.260000000000000009e-01 7.481204999999999661e-01 5.192095000000000127e+00 1.300869999999999891e+02 1.597184999999999945e+03
1.270000000000000018e-01 7.480005000000000681e-01 4.620129999999999626e+00 1.296115000000000066e+02 1.597059999999999945e+03
1.280000000000000027e-01 7.479029999999999845e-01 4.098329999999999806e+00 1.292164999999999964e+02 1.596945000000000164e+03
1.290000000000000036e-01 7.478264999999999496e-01 3.627569999999999961e+00 1.289019999999999868e+02 1.596855000000000018e+03
1.300000000000000044e-01 7.477709999999999635e-01 3.207370000000000054e+00 1.286655000000000086e+02 1.596779999999999973e+03
1.310000000000000053e-01 7.477344999999999686e-01 2.835954999999999782e+00 1.285015000000000214e+02 1.596724999999999909e+03
1.320000000000000062e-01 7.477145000000000596e-01 2.510440000000000005e+00 1.284035000000000082e+02 1.596684999999999945e+03
1.330000000000000071e-01 7.477089999999999570e-01 2.226970000000000116e+00 1.283625000000000114e+02 1.596660000000000082e+03
1.340000000000000080e-01 7.477149999999999075e-01 1.980999999999999872e+00 1.283675000000000068e+02 1.596650000000000091e+03
1.350000000000000089e-01 7.477285000000000181e-01 1.767490000000000006e+00 1.284069999999999823e+02 1.596639999999999873e+03
1.360000000000000098e-01 7.477480000000000793e-01 1.581150000000000055e+00 1.284714999999999918e+02 1.596650000000000091e+03
1.370000000000000107e-01 7.477690000000000170e-01 1.416644999999999932e+00 1.285490000000000066e+02 1.596654999999999973e+03
1.380000000000000115e-01 7.477905000000000246e-01 1.268835000000000157e+00 1.286285000000000025e+02 1.596664999999999964e+03
1.390000000000000124e-01 7.478089999999999460e-01 1.132855000000000167e+00 1.287019999999999982e+02 1.596679999999999836e+03
1.400000000000000133e-01 7.478225000000000566e-01 1.004356000000000027e+00 1.287599999999999909e+02 1.596690000000000055e+03
1.410000000000000142e-01 7.478304999999999536e-01 8.794925000000000104e-01 1.287965000000000089e+02 1.596694999999999936e+03
1.420000000000000151e-01 7.478299999999999947e-01 7.550485000000000113e-01 1.288054999999999950e+02 1.596694999999999936e+03
1.430000000000000160e-01 7.478219999999999867e-01 6.284399999999999986e-01 1.287835000000000036e+02 1.596690000000000055e+03
1.440000000000000169e-01 7.478044999999999831e-01 4.977224999999999566e-01 1.287289999999999850e+02 1.596674999999999955e+03
1.450000000000000178e-01 7.477780000000000538e-01 3.615716999999999959e-01 1.286405000000000030e+02 1.596654999999999973e+03
1.459999999999999909e-01 7.477430000000000465e-01 2.192444999999999811e-01 1.285175000000000125e+02 1.596625000000000000e+03
1.469999999999999918e-01 7.476994999999999614e-01 7.053150000000002473e-02 1.283620000000000232e+02 1.596595000000000027e+03
1.479999999999999927e-01 7.476479999999999793e-01 -8.430150000000000143e-02 1.281760000000000161e+02 1.596549999999999955e+03
1.489999999999999936e-01 7.475899999999999768e-01 -2.445864999999999845e-01 1.279620000000000033e+02 1.596505000000000109e+03
1.499999999999999944e-01 7.475259999999999128e-01 -4.093194999999999473e-01 1.277230000000000132e+02 1.596450000000000045e+03
1.509999999999999953e-01 7.474564999999999682e-01 -5.772394999999999055e-01 1.274625000000000057e+02 1.596385000000000218e+03
1.519999999999999962e-01 7.473825000000000607e-01 -7.469251000000000085e-01 1.271850000000000023e+02 1.596319999999999936e+03
1.529999999999999971e-01 7.473060000000000258e-01 -9.168449999999999100e-01 1.268935000000000031e+02 1.596250000000000000e+03
1.539999999999999980e-01 7.472265000000000157e-01 -1.085474000000000050e+00 1.265910000000000082e+02 1.596180000000000064e+03
1.549999999999999989e-01 7.471449999999999481e-01 -1.251363000000000003e+00 1.262810000000000059e+02 1.596105000000000018e+03
1.559999999999999998e-01 7.470624999999999627e-01 -1.413208000000000020e+00 1.259654999999999916e+02 1.596025000000000091e+03
1.570000000000000007e-01 7.469795000000000185e-01 -1.569913000000000114e+00 1.256469999999999914e+02 1.595950000000000045e+03
1.580000000000000016e-01 7.468964999999999632e-01 -1.720660000000000078e+00 1.253259999999999934e+02 1.595865000000000009e+03
1.590000000000000024e-01 7.468125000000001013e-01 -1.864924999999999944e+00 1.250035000000000025e+02 1.595789999999999964e+03
