# t [s], A [cm^2], U [cm/s], P [cPa], c [cm/s]
1.000000000000000021e-03 5.467589999999999950e-01 4.573449999999999738e-03 1.077415000000000020e+02 1.491069999999999936e+03
2.000000000000000042e-03 5.467494999999999994e-01 -1.149929999999999963e-03 1.077194999999999965e+02 1.491065000000000055e+03
3.000000000000000062e-03 5.467919999999999447e-01 7.525270000000000570e-02 1.077940000000000111e+02 1.491085000000000036e+03
4.000000000000000083e-03 5.468404999999999516e-01 1.690453499999999831e-01 1.079064999999999941e+02 1.491119999999999891e+03
5.000000000000000104e-03 5.468334999999999724e-01 1.671199999999999908e-01 1.078944999999999936e+02 1.491115000000000009e+03
6.000000000000000125e-03 5.467809999999999615e-01 8.209700000000003106e-02 1.077325000000000017e+02 1.491085000000000036e+03
7.000000000000000146e-03 5.467305000000000081e-01 -6.655000000000022009e-03 1.075010000000000048e+02 1.491034999999999854e+03
8.000000000000000167e-03 5.466665000000000552e-01 -1.280525000000000690e-01 1.071850000000000023e+02 1.490965000000000146e+03
9.000000000000001055e-03 5.465560000000000418e-01 -3.482149999999999412e-01 1.066995000000000005e+02 1.490855000000000018e+03
1.000000000000000194e-02 5.463930000000000176e-01 -6.764000000000001123e-01 1.060030000000000001e+02 1.490690000000000055e+03
1.099999999999999936e-02 5.461719999999999908e-01 -1.114104999999999901e+00 1.050594999999999999e+02 1.490474999999999909e+03
1.200000000000000025e-02 5.458769999999999456e-01 -1.675464999999999982e+00 1.038183500000000095e+02 1.490179999999999836e+03
1.300000000000000114e-02 5.455079999999999929e-01 -2.342430000000000234e+00 1.022618999999999971e+02 1.489805000000000064e+03
1.400000000000000203e-02 5.450960000000000250e-01 -3.031905000000000072e+00 1.004571499999999986e+02 1.489355000000000018e+03
1.499999999999999944e-02 5.446904999999999664e-01 -3.618079999999999963e+00 9.854949999999999477e+01 1.488869999999999891e+03
1.600000000000000033e-02 5.443365000000000009e-01 -3.986180500000000571e+00 9.670449999999999591e+01 1.488375000000000000e+03
1.700000000000000122e-02 5.440525000000000500e-01 -4.074385999999999619e+00 9.504319999999999879e+01 1.487905000000000200e+03
1.800000000000000211e-02 5.438315000000000232e-01 -3.885431200000000196e+00 9.361275000000000546e+01 1.487474999999999909e+03
1.900000000000000300e-02 5.436460000000000736e-01 -3.473364499999999744e+00 9.238304999999999723e+01 1.487079999999999927e+03
2.000000000000000042e-02 5.434620000000000006e-01 -2.918109999999999982e+00 9.127115000000000578e+01 1.486715000000000146e+03
2.100000000000000130e-02 5.432504999999999695e-01 -2.298027000000000264e+00 9.017539999999999623e+01 1.486349999999999909e+03
2.200000000000000219e-02 5.429930000000000589e-01 -1.667885000000000062e+00 8.900999999999999091e+01 1.485974999999999909e+03
2.299999999999999961e-02 5.426904999999999646e-01 -1.048039999999999861e+00 8.772960000000000491e+01 1.485570000000000164e+03
2.400000000000000050e-02 5.423550000000000315e-01 -4.276499999999998636e-01 8.633639999999999759e+01 1.485139999999999873e+03
2.500000000000000139e-02 5.420049999999999590e-01 2.205050000000001731e-01 8.486885000000000900e+01 1.484695000000000164e+03
2.600000000000000228e-02 5.416590000000000016e-01 9.208249999999997826e-01 8.337864999999999327e+01 1.484234999999999900e+03
2.700000000000000316e-02 5.413235000000000685e-01 1.678964999999999819e+00 8.190654999999999575e+01 1.483779999999999973e+03
2.800000000000000058e-02 5.409969999999999501e-01 2.474014999999999631e+00 8.046490000000000009e+01 1.483329999999999927e+03
2.900000000000000147e-02 5.406644999999999923e-01 3.259490000000000443e+00 7.903045000000000186e+01 1.482880000000000109e+03
3.000000000000000236e-02 5.403069999999999817e-01 3.971510000000000318e+00 7.754834999999999923e+01 1.482420000000000073e+03
3.099999999999999978e-02 5.399024999999999519e-01 4.541389999999999816e+00 7.594489999999998986e+01 1.481934999999999945e+03
3.200000000000000067e-02 5.394324999999999815e-01 4.909939999999999749e+00 7.414589999999999748e+01 1.481414999999999964e+03
3.300000000000000155e-02 5.388890000000000624e-01 5.039749999999999730e+00 7.209574999999999534e+01 1.480829999999999927e+03
3.400000000000000244e-02 5.382750000000000590e-01 4.923610000000000042e+00 6.977410000000000423e+01 1.480184999999999945e+03
3.500000000000000333e-02 5.376045000000000407e-01 4.586059999999999803e+00 6.720459999999999923e+01 1.479485000000000127e+03
3.600000000000000422e-02 5.369034999999999780e-01 4.078554999999999708e+00 6.445465000000000089e+01 1.478740000000000009e+03
3.700000000000000511e-02 5.362014999999999976e-01 3.469904999999999795e+00 6.162615000000000265e+01 1.477965000000000146e+03
3.799999999999999906e-02 5.355309999999999793e-01 2.834450000000000358e+00 5.884085000000000321e+01 1.477194999999999936e+03
3.899999999999999994e-02 5.349190000000000333e-01 2.242039999999999811e+00 5.622435000000000116e+01 1.476460000000000036e+03
4.000000000000000083e-02 5.343900000000000317e-01 1.750624999999999432e+00 5.389199999999999591e+01 1.475784999999999854e+03
4.100000000000000172e-02 5.339599999999999902e-01 1.402544999999999931e+00 5.193800000000000239e+01 1.475195000000000164e+03
4.200000000000000261e-02 5.336385000000000156e-01 1.224435000000000162e+00 5.043044999999999334e+01 1.474720000000000027e+03
4.300000000000000350e-02 5.334289999999999310e-01 1.229339999999999877e+00 4.940990000000000038e+01 1.474365000000000009e+03
4.400000000000000439e-02 5.333320000000000283e-01 1.420512500000000067e+00 4.889229999999999876e+01 1.474139999999999873e+03
4.499999999999999833e-02 5.333430000000000115e-01 1.795440000000000147e+00 4.887404999999999688e+01 1.474049999999999955e+03
4.599999999999999922e-02 5.334570000000000700e-01 2.349369999999999958e+00 4.933825000000000216e+01 1.474089999999999918e+03
4.700000000000000011e-02 5.336705000000000476e-01 3.077507500000000285e+00 5.026004999999999967e+01 1.474264999999999873e+03
4.800000000000000100e-02 5.339769999999999239e-01 3.975750300000000070e+00 5.161100000000000421e+01 1.474559999999999945e+03
4.900000000000000189e-02 5.343710000000000404e-01 5.039992999999999945e+00 5.336119999999999663e+01 1.474965000000000146e+03
5.000000000000000278e-02 5.348470000000000724e-01 6.264576049999999618e+00 5.547944999999999993e+01 1.475485000000000127e+03
5.100000000000000366e-02 5.353984999999999994e-01 7.640315000000000190e+00 5.793245000000000289e+01 1.476105000000000018e+03
5.200000000000000455e-02 5.360160000000000480e-01 9.153150000000000119e+00 6.068309999999999604e+01 1.476809999999999945e+03
5.300000000000000544e-02 5.366904999999999593e-01 1.078350000000000009e+01 6.368950000000000244e+01 1.477589999999999918e+03
5.399999999999999939e-02 5.374100000000000543e-01 1.250638999999999967e+01 6.690489999999999782e+01 1.478445000000000164e+03
5.500000000000000028e-02 5.381614999999999593e-01 1.429287500000000044e+01 7.027795000000000414e+01 1.479355000000000018e+03
5.600000000000000117e-02 5.389334999999999543e-01 1.611142500000000055e+01 7.375489999999999213e+01 1.480295000000000073e+03
5.700000000000000205e-02 5.397125000000000394e-01 1.793041499999999999e+01 7.728190000000000737e+01 1.481269999999999982e+03
5.800000000000000294e-02 5.404875000000000096e-01 1.971990000000000265e+01 8.080750000000000455e+01 1.482250000000000000e+03
5.900000000000000383e-02 5.412485000000000213e-01 2.145349999999999824e+01 8.428594999999999970e+01 1.483234999999999900e+03
6.000000000000000472e-02 5.419880000000000253e-01 2.310929999999999751e+01 8.767889999999999873e+01 1.484204999999999927e+03
6.099999999999999867e-02 5.427014999999999478e-01 2.467105000000000103e+01 9.095660000000000878e+01 1.485154999999999973e+03
6.199999999999999956e-02 5.433855000000000768e-01 2.612785000000000224e+01 9.409999999999999432e+01 1.486079999999999927e+03
6.300000000000000044e-02 5.440395000000000092e-01 2.747404999999999831e+01 9.709895000000000209e+01 1.486965000000000146e+03
6.400000000000000133e-02 5.446634999999999671e-01 2.870860000000000056e+01 9.995234999999999559e+01 1.487820000000000164e+03
6.500000000000000222e-02 5.452614999999999545e-01 2.983415000000000106e+01 1.026670500000000033e+02 1.488640000000000100e+03
6.600000000000000311e-02 5.458350000000000701e-01 3.085654999999999859e+01 1.052555499999999995e+02 1.489434999999999945e+03
6.700000000000000400e-02 5.463894999999999724e-01 3.178354999999999819e+01 1.077349999999999994e+02 1.490190000000000055e+03
6.800000000000000488e-02 5.469284999999999286e-01 3.262465000000000259e+01 1.101254999999999882e+02 1.490924999999999955e+03
6.900000000000000577e-02 5.474559999999999427e-01 3.338965000000000316e+01 1.124474999999999909e+02 1.491639999999999873e+03
7.000000000000000666e-02 5.479775000000000063e-01 3.408874999999999744e+01 1.147214999999999918e+02 1.492335000000000036e+03
7.100000000000000755e-02 5.484959999999999836e-01 3.473130000000000450e+01 1.169659999999999940e+02 1.493025000000000091e+03
7.200000000000000844e-02 5.490140000000000020e-01 3.532574999999999932e+01 1.191949999999999932e+02 1.493704999999999927e+03
7.300000000000000933e-02 5.495330000000000492e-01 3.587855000000000416e+01 1.214215000000000089e+02 1.494380000000000109e+03
7.399999999999999634e-02 5.500540000000000429e-01 3.639410000000000167e+01 1.236490000000000009e+02 1.495059999999999945e+03
7.499999999999999722e-02 5.505765000000000242e-01 3.687445000000000306e+01 1.258785000000000025e+02 1.495735000000000127e+03
7.599999999999999811e-02 5.510980000000000878e-01 3.731905000000000427e+01 1.281045000000000016e+02 1.496405000000000200e+03
7.699999999999999900e-02 5.516159999999999952e-01 3.772494999999999976e+01 1.303160000000000025e+02 1.497075000000000045e+03
7.799999999999999989e-02 5.521255000000000468e-01 3.808715000000000117e+01 1.324964999999999975e+02 1.497735000000000127e+03
7.900000000000000078e-02 5.526220000000000576e-01 3.839900000000000091e+01 1.346270000000000095e+02 1.498380000000000109e+03
8.000000000000000167e-02 5.531004999999999949e-01 3.865285000000000082e+01 1.366845000000000141e+02 1.499005000000000109e+03
8.100000000000000255e-02 5.535559999999999370e-01 3.884060000000000201e+01 1.386460000000000150e+02 1.499610000000000127e+03
8.200000000000000344e-02 5.539819999999999744e-01 3.895434999999999803e+01 1.404879999999999995e+02 1.500179999999999836e+03
8.300000000000000433e-02 5.543749999999999512e-01 3.898695000000000022e+01 1.421885000000000048e+02 1.500714999999999918e+03
8.400000000000000522e-02 5.547309999999999741e-01 3.893249999999999744e+01 1.437289999999999850e+02 1.501210000000000036e+03
8.500000000000000611e-02 5.550454999999999695e-01 3.878655000000000541e+01 1.450919999999999845e+02 1.501650000000000091e+03
8.600000000000000699e-02 5.553174999999999084e-01 3.854670000000000130e+01 1.462669999999999959e+02 1.502039999999999964e+03
8.700000000000000788e-02 5.555455000000000254e-01 3.821245000000000402e+01 1.472460000000000093e+02 1.502380000000000109e+03
8.800000000000000877e-02 5.557294999999999874e-01 3.778530000000000655e+01 1.480279999999999916e+02 1.502660000000000082e+03
8.899999999999999578e-02 5.558689999999999465e-01 3.726890000000000214e+01 1.486134999999999877e+02 1.502884999999999991e+03
8.999999999999999667e-02 5.559675000000000589e-01 3.666875000000000284e+01 1.490099999999999909e+02 1.503049999999999955e+03
9.099999999999999756e-02 5.560264999999999791e-01 3.599204999999999899e+01 1.492280000000000086e+02 1.503170000000000073e+03
9.199999999999999845e-02 5.560494999999999743e-01 3.524779999999999802e+01 1.492819999999999823e+02 1.503235000000000127e+03
9.299999999999999933e-02 5.560404999999999376e-01 3.444594999999999629e+01 1.491890000000000214e+02 1.503255000000000109e+03
9.400000000000000022e-02 5.560045000000000126e-01 3.359770000000000323e+01 1.489694999999999823e+02 1.503240000000000009e+03
9.500000000000000111e-02 5.559454999999999814e-01 3.271470000000000056e+01 1.486430000000000007e+02 1.503180000000000064e+03
9.600000000000000200e-02 5.558684999999999876e-01 3.180884999999999962e+01 1.482324999999999875e+02 1.503099999999999909e+03
9.700000000000000289e-02 5.557779999999999943e-01 3.089219999999999899e+01 1.477599999999999909e+02 1.502990000000000009e+03
9.800000000000000377e-02 5.556794999999999929e-01 2.997585000000000122e+01 1.472459999999999809e+02 1.502865000000000009e+03
9.900000000000000466e-02 5.555760000000000698e-01 2.907030000000000314e+01 1.467110000000000127e+02 1.502735000000000127e+03
1.000000000000000056e-01 5.554715000000000069e-01 2.818489999999999895e+01 1.461725000000000136e+02 1.502585000000000036e+03
1.010000000000000064e-01 5.553699999999999193e-01 2.732730000000000103e+01 1.456465000000000032e+02 1.502445000000000164e+03
1.020000000000000073e-01 5.552734999999999754e-01 2.650330000000000297e+01 1.451444999999999936e+02 1.502305000000000064e+03
1.030000000000000082e-01 5.551834999999999409e-01 2.571699999999999875e+01 1.446754999999999995e+02 1.502164999999999964e+03
1.040000000000000091e-01 5.551000000000000378e-01 2.497039999999999793e+01 1.442445000000000164e+02 1.502035000000000082e+03
1.050000000000000100e-01 5.550249999999999906e-01 2.426360000000000028e+01 1.438540000000000134e+02 1.501920000000000073e+03
1.059999999999999970e-01 5.549564999999999637e-01 2.359470000000000312e+01 1.435024999999999977e+02 1.501809999999999945e+03
1.069999999999999979e-01 5.548945000000000682e-01 2.296034999999999826e+01 1.431845000000000141e+02 1.501704999999999927e+03
1.079999999999999988e-01 5.548355000000000370e-01 2.235559999999999903e+01 1.428944999999999936e+02 1.501610000000000127e+03
1.089999999999999997e-01 5.547790000000000221e-01 2.177450000000000330e+01 1.426214999999999975e+02 1.501519999999999982e+03
1.100000000000000006e-01 5.547214999999999785e-01 2.121045000000000158e+01 1.423559999999999945e+02 1.501430000000000064e+03
1.110000000000000014e-01 5.546610000000000706e-01 2.065630000000000166e+01 1.420860000000000127e+02 1.501349999999999909e+03
1.120000000000000023e-01 5.545949999999999491e-01 2.010484999999999900e+01 1.418009999999999877e+02 1.501259999999999991e+03
1.130000000000000032e-01 5.545210000000000417e-01 1.954935000000000045e+01 1.414875000000000114e+02 1.501159999999999854e+03
1.140000000000000041e-01 5.544369999999999576e-01 1.898349999999999937e+01 1.411374999999999886e+02 1.501059999999999945e+03
1.150000000000000050e-01 5.543420000000000014e-01 1.840180000000000149e+01 1.407409999999999854e+02 1.500940000000000055e+03
1.160000000000000059e-01 5.542334999999999345e-01 1.780010000000000048e+01 1.402920000000000016e+02 1.500815000000000055e+03
1.170000000000000068e-01 5.541114999999999791e-01 1.717524999999999835e+01 1.397849999999999966e+02 1.500670000000000073e+03
1.180000000000000077e-01 5.539760000000000240e-01 1.652580000000000027e+01 1.392194999999999823e+02 1.500509999999999991e+03
1.190000000000000085e-01 5.538274999999999171e-01 1.585154999999999959e+01 1.385955000000000155e+02 1.500335000000000036e+03
1.200000000000000094e-01 5.536665000000000614e-01 1.515404999999999980e+01 1.379164999999999850e+02 1.500144999999999982e+03
1.209999999999999964e-01 5.534955000000000291e-01 1.443603500000000039e+01 1.371875000000000000e+02 1.499944999999999936e+03
1.219999999999999973e-01 5.533164999999999889e-01 1.370184499999999872e+01 1.364175000000000182e+02 1.499730000000000018e+03
1.229999999999999982e-01 5.531304999999999694e-01 1.295693499999999965e+01 1.356159999999999854e+02 1.499505000000000109e+03
1.239999999999999991e-01 5.529420000000000446e-01 1.220772499999999994e+01 1.347959999999999923e+02 1.499275000000000091e+03
1.250000000000000000e-01 5.527539999999999676e-01 1.146148499999999970e+01 1.339694999999999823e+02 1.499039999999999964e+03
1.260000000000000009e-01 5.525690000000000879e-01 1.072580999999999918e+01 1.331510000000000105e+02 1.498804999999999836e+03
1.270000000000000018e-01 5.523899999999999366e-01 1.000869499999999945e+01 1.323534999999999968e+02 1.498574999999999818e+03
1.280000000000000027e-01 5.522205000000000030e-01 9.317875000000000796e+00 1.315925000000000011e+02 1.498349999999999909e+03
1.290000000000000036e-01 5.520629999999999704e-01 8.660829999999998918e+00 1.308789999999999907e+02 1.498139999999999873e+03
1.300000000000000044e-01 5.519199999999999662e-01 8.044180000000000774e+00 1.302259999999999991e+02 1.497940000000000055e+03
1.310000000000000053e-01 5.517940000000000067e-01 7.473815000000000097e+00 1.296424999999999841e+02 1.497759999999999991e+03
1.320000000000000062e-01 5.516860000000000097e-01 6.954439999999999955e+00 1.291359999999999957e+02 1.497599999999999909e+03
1.330000000000000071e-01 5.515970000000000040e-01 6.489440000000000097e+00 1.287125000000000057e+02 1.497460000000000036e+03
1.340000000000000080e-01 5.515275000000000594e-01 6.080890000000000128e+00 1.283754999999999882e+02 1.497345000000000027e+03
1.350000000000000089e-01 5.514775000000000649e-01 5.729434999999999611e+00 1.281239999999999952e+02 1.497250000000000000e+03
1.360000000000000098e-01 5.514455000000000329e-01 5.434345000000000425e+00 1.279565000000000055e+02 1.497184999999999945e+03
1.370000000000000107e-01 5.514315000000000744e-01 5.193595000000000184e+00 1.278679999999999950e+02 1.497134999999999991e+03
1.380000000000000115e-01 5.514324999999999921e-01 5.003980000000000317e+00 1.278530000000000086e+02 1.497110000000000127e+03
1.390000000000000124e-01 5.514479999999999382e-01 4.861324999999999896e+00 1.279025000000000034e+02 1.497099999999999909e+03
1.400000000000000133e-01 5.514744999999999786e-01 4.760640000000000427e+00 1.280074999999999932e+02 1.497115000000000009e+03
1.410000000000000142e-01 5.515094999999999859e-01 4.696390000000000065e+00 1.281574999999999989e+02 1.497139999999999873e+03
1.420000000000000151e-01 5.515520000000000422e-01 4.662689999999999557e+00 1.283410000000000082e+02 1.497175000000000182e+03
1.430000000000000160e-01 5.515980000000000327e-01 4.653539999999999566e+00 1.285484999999999900e+02 1.497220000000000027e+03
1.440000000000000169e-01 5.516465000000000396e-01 4.663024999999999309e+00 1.287684999999999889e+02 1.497275000000000091e+03
1.450000000000000178e-01 5.516949999999999354e-01 4.685515000000000541e+00 1.289919999999999902e+02 1.497325000000000045e+03
1.459999999999999909e-01 5.517414999999999958e-01 4.715770000000000017e+00 1.292099999999999795e+02 1.497380000000000109e+03
1.469999999999999918e-01 5.517845000000000111e-01 4.749125000000000263e+00 1.294159999999999968e+02 1.497434999999999945e+03
1.479999999999999927e-01 5.518229999999999524e-01 4.781520000000000437e+00 1.296019999999999754e+02 1.497485000000000127e+03
1.489999999999999936e-01 5.518564999999999721e-01 4.809594999999999843e+00 1.297659999999999911e+02 1.497530000000000200e+03
1.499999999999999944e-01 5.518834999999999713e-01 4.830680000000000085e+00 1.299025000000000034e+02 1.497570000000000164e+03
1.509999999999999953e-01 5.519045000000000201e-01 4.842814999999999870e+00 1.300109999999999957e+02 1.497599999999999909e+03
1.519999999999999962e-01 5.519199999999999662e-01 4.844694999999999752e+00 1.300904999999999916e+02 1.497630000000000109e+03
1.529999999999999971e-01 5.519285000000000441e-01 4.835664999999999658e+00 1.301419999999999959e+02 1.497644999999999982e+03
1.539999999999999980e-01 5.519315000000000193e-01 4.815604999999999691e+00 1.301664999999999850e+02 1.497654999999999973e+03
1.549999999999999989e-01 5.519300000000000317e-01 4.784905000000000186e+00 1.301659999999999968e+02 1.497659999999999854e+03
1.559999999999999998e-01 5.519235000000000113e-01 4.744360000000000355e+00 1.301444999999999936e+02 1.497659999999999854e+03
1.570000000000000007e-01 5.519140000000000157e-01 4.695064999999999600e+00 1.301039999999999850e+02 1.497654999999999973e+03
1.580000000000000016e-01 5.519009999999999749e-01 4.638395000000000046e+00 1.300475000000000136e+02 1.497639999999999873e+03
1.590000000000000024e-01 5.518859999999999877e-01 4.575845000000000162e+00 1.299795000000000016e+02 1.497630000000000109e+03
