# t [s], A [cm^2], U [cm/s], P [cPa], c [cm/s]
1.000000000000000021e-03 1.196215000000000056e-01 1.596233499999999972e-01 9.997915000000000418e+01 1.950125000000000000e+03
2.000000000000000042e-03 1.196059999999999901e-01 1.467331500000000011e+00 9.732714999999998895e+01 1.949875000000000000e+03
3.000000000000000062e-03 1.195390000000000064e-01 3.145172500000000149e+00 9.373919999999999675e+01 1.948910000000000082e+03
4.000000000000000083e-03 1.194369999999999876e-01 5.040263500000000008e+00 8.952100000000000080e+01 1.947449999999999818e+03
5.000000000000000104e-03 1.193160000000000054e-01 7.101550000000000473e+00 8.532094999999999629e+01 1.945750000000000000e+03
6.000000000000000125e-03 1.191899999999999904e-01 9.247215000000000629e+00 8.157309999999999661e+01 1.943994999999999891e+03
7.000000000000000146e-03 1.190670000000000062e-01 1.133955499999999894e+01 7.835909999999999798e+01 1.942305000000000064e+03
8.000000000000000167e-03 1.189500000000000002e-01 1.324441500000000005e+01 7.552260000000001128e+01 1.940715000000000146e+03
9.000000000000001055e-03 1.188410000000000022e-01 1.491012999999999877e+01 7.294335000000000946e+01 1.939255000000000109e+03
1.000000000000000194e-02 1.187414999999999998e-01 1.635210000000000008e+01 7.064175000000000182e+01 1.937950000000000045e+03
1.099999999999999936e-02 1.186540000000000095e-01 1.759360000000000213e+01 6.866835000000000377e+01 1.936809999999999945e+03
1.200000000000000025e-02 1.185790000000000038e-01 1.864809999999999945e+01 6.702895000000000891e+01 1.935845000000000027e+03
1.300000000000000114e-02 1.185159999999999964e-01 1.952434999999999832e+01 6.569320000000000448e+01 1.935035000000000082e+03
1.400000000000000203e-02 1.184634999999999994e-01 2.022479999999999833e+01 6.460200000000000387e+01 1.934375000000000000e+03
1.499999999999999944e-02 1.184199999999999975e-01 2.074934999999999974e+01 6.367260000000000275e+01 1.933824999999999818e+03
1.600000000000000033e-02 1.183820000000000150e-01 2.111489999999999867e+01 6.284284999999999854e+01 1.933365000000000009e+03
1.700000000000000122e-02 1.183504999999999974e-01 2.137489999999999668e+01 6.213810000000000144e+01 1.932990000000000009e+03
1.800000000000000211e-02 1.183270000000000016e-01 2.161509999999999820e+01 6.169310000000000116e+01 1.932704999999999927e+03
1.900000000000000300e-02 1.183150000000000035e-01 2.192494999999999905e+01 6.169904999999999973e+01 1.932574999999999818e+03
2.000000000000000042e-02 1.183179999999999926e-01 2.236144999999999783e+01 6.230499999999999261e+01 1.932615000000000009e+03
2.100000000000000130e-02 1.183365000000000111e-01 2.292705000000000126e+01 6.353244999999999720e+01 1.932865000000000009e+03
2.200000000000000219e-02 1.183694999999999886e-01 2.357075000000000031e+01 6.524750000000000227e+01 1.933300000000000182e+03
2.299999999999999961e-02 1.184125000000000039e-01 2.420805000000000007e+01 6.719544999999999391e+01 1.933865000000000009e+03
2.400000000000000050e-02 1.184594999999999954e-01 2.475014999999999787e+01 6.907654999999999745e+01 1.934485000000000127e+03
2.500000000000000139e-02 1.185039999999999982e-01 2.512969999999999970e+01 7.062975000000000136e+01 1.935079999999999927e+03
2.600000000000000228e-02 1.185410000000000075e-01 2.531640000000000157e+01 7.169480000000000075e+01 1.935590000000000146e+03
2.700000000000000316e-02 1.185684999999999933e-01 2.531944999999999979e+01 7.223714999999999975e+01 1.935974999999999909e+03
2.800000000000000058e-02 1.185859999999999970e-01 2.517790000000000106e+01 7.233455000000000723e+01 1.936215000000000146e+03
2.900000000000000147e-02 1.185940000000000050e-01 2.494415000000000049e+01 7.213429999999999609e+01 1.936349999999999909e+03
3.000000000000000236e-02 1.185964999999999936e-01 2.466700000000000159e+01 7.179884999999998740e+01 1.936400000000000091e+03
3.099999999999999978e-02 1.185960000000000070e-01 2.437825000000000131e+01 7.145664999999999623e+01 1.936394999999999982e+03
3.200000000000000067e-02 1.185939999999999911e-01 2.408695000000000164e+01 7.117160000000001219e+01 1.936369999999999891e+03
3.300000000000000155e-02 1.185910000000000020e-01 2.378150000000000119e+01 7.093735000000000923e+01 1.936340000000000146e+03
3.400000000000000244e-02 1.185869999999999980e-01 2.343755000000000166e+01 7.069294999999999618e+01 1.936295000000000073e+03
3.500000000000000333e-02 1.185809999999999920e-01 2.302925000000000111e+01 7.035335000000000605e+01 1.936215000000000146e+03
3.600000000000000422e-02 1.185714999999999963e-01 2.254019999999999868e+01 6.984459999999999980e+01 1.936089999999999918e+03
3.700000000000000511e-02 1.185565000000000091e-01 2.197169999999999845e+01 6.913384999999999536e+01 1.935909999999999854e+03
3.799999999999999906e-02 1.185370000000000035e-01 2.134584999999999866e+01 6.824694999999999823e+01 1.935664999999999964e+03
3.899999999999999994e-02 1.185144999999999949e-01 2.070309999999999917e+01 6.726910000000000878e+01 1.935375000000000000e+03
4.000000000000000083e-02 1.184904999999999986e-01 2.009479999999999933e+01 6.632890000000000441e+01 1.935065000000000055e+03
4.100000000000000172e-02 1.184685000000000044e-01 1.957269999999999754e+01 6.557059999999999889e+01 1.934775000000000091e+03
4.200000000000000261e-02 1.184515000000000012e-01 1.917879999999999896e+01 6.512209999999998900e+01 1.934549999999999955e+03
4.300000000000000350e-02 1.184425000000000061e-01 1.893684999999999974e+01 6.506709999999999638e+01 1.934420000000000073e+03
4.400000000000000439e-02 1.184424999999999922e-01 1.884895000000000209e+01 6.542799999999999727e+01 1.934404999999999973e+03
4.499999999999999833e-02 1.184520000000000017e-01 1.889569999999999794e+01 6.616255000000001019e+01 1.934514999999999873e+03
4.599999999999999922e-02 1.184694999999999915e-01 1.904095000000000226e+01 6.717345000000000255e+01 1.934735000000000127e+03
4.700000000000000011e-02 1.184935000000000016e-01 1.923839999999999861e+01 6.832725000000000648e+01 1.935039999999999964e+03
4.800000000000000100e-02 1.185200000000000142e-01 1.943945000000000078e+01 6.947759999999999536e+01 1.935384999999999991e+03
4.900000000000000189e-02 1.185464999999999991e-01 1.959955000000000069e+01 7.048754999999999882e+01 1.935730000000000018e+03
5.000000000000000278e-02 1.185704999999999953e-01 1.968335000000000079e+01 7.124715000000000487e+01 1.936034999999999854e+03
5.100000000000000366e-02 1.185879999999999990e-01 1.966704999999999970e+01 7.168370000000000175e+01 1.936275000000000091e+03
5.200000000000000455e-02 1.185984999999999956e-01 1.953875000000000028e+01 7.176460000000000150e+01 1.936414999999999964e+03
5.300000000000000544e-02 1.186010000000000120e-01 1.929695000000000249e+01 7.149320000000000164e+01 1.936449999999999818e+03
5.399999999999999939e-02 1.185950000000000060e-01 1.894780000000000086e+01 7.090039999999999054e+01 1.936384999999999991e+03
5.500000000000000028e-02 1.185809999999999920e-01 1.850240000000000151e+01 7.003399999999999181e+01 1.936210000000000036e+03
5.600000000000000117e-02 1.185599999999999987e-01 1.797404999999999831e+01 6.894859999999999900e+01 1.935940000000000055e+03
5.700000000000000205e-02 1.185335000000000139e-01 1.737669999999999959e+01 6.769830000000000325e+01 1.935595000000000027e+03
5.800000000000000294e-02 1.185009999999999952e-01 1.672405000000000186e+01 6.633209999999999695e+01 1.935184999999999945e+03
5.900000000000000383e-02 1.184660000000000019e-01 1.602984999999999971e+01 6.489289999999999736e+01 1.934724999999999909e+03
6.000000000000000472e-02 1.184280000000000055e-01 1.530855000000000032e+01 6.341944999999999766e+01 1.934230000000000018e+03
6.099999999999999867e-02 1.183884999999999937e-01 1.457615000000000016e+01 6.194910000000000139e+01 1.933715000000000146e+03
6.199999999999999956e-02 1.183480000000000087e-01 1.385135000000000005e+01 6.052169999999999561e+01 1.933184999999999945e+03
6.300000000000000044e-02 1.183089999999999975e-01 1.315559999999999974e+01 5.918245000000000289e+01 1.932675000000000182e+03
6.400000000000000133e-02 1.182719999999999883e-01 1.251344999999999885e+01 5.798319999999999652e+01 1.932190000000000055e+03
6.500000000000000222e-02 1.182384999999999964e-01 1.195201499999999939e+01 5.698234999999999673e+01 1.931744999999999891e+03
6.600000000000000311e-02 1.182099999999999956e-01 1.149958499999999972e+01 5.624264999999999759e+01 1.931369999999999891e+03
6.700000000000000400e-02 1.181890000000000024e-01 1.118432499999999941e+01 5.582809999999999917e+01 1.931085000000000036e+03
6.800000000000000488e-02 1.181764999999999899e-01 1.103279999999999994e+01 5.579980000000000473e+01 1.930909999999999854e+03
6.900000000000000577e-02 1.181740000000000013e-01 1.106809999999999938e+01 5.621150000000000091e+01 1.930869999999999891e+03
7.000000000000000666e-02 1.181840000000000113e-01 1.130879999999999974e+01 5.710609999999999786e+01 1.930980000000000018e+03
7.100000000000000755e-02 1.182064999999999921e-01 1.176780000000000115e+01 5.851224999999999454e+01 1.931259999999999991e+03
7.200000000000000844e-02 1.182435000000000014e-01 1.245165000000000077e+01 6.044319999999999737e+01 1.931720000000000027e+03
7.300000000000000933e-02 1.182934999999999959e-01 1.336050000000000004e+01 6.289574999999999960e+01 1.932365000000000009e+03
7.399999999999999634e-02 1.183585000000000054e-01 1.448815000000000097e+01 6.585120000000000573e+01 1.933194999999999936e+03
7.499999999999999722e-02 1.184370000000000006e-01 1.582300000000000040e+01 6.927719999999999345e+01 1.934210000000000036e+03
7.599999999999999811e-02 1.185295000000000099e-01 1.734860000000000113e+01 7.313009999999999877e+01 1.935394999999999982e+03
7.699999999999999900e-02 1.186330000000000023e-01 1.904469999999999885e+01 7.735810000000000741e+01 1.936744999999999891e+03
7.799999999999999989e-02 1.187475000000000058e-01 2.088870000000000005e+01 8.190455000000000041e+01 1.938239999999999782e+03
7.900000000000000078e-02 1.188714999999999911e-01 2.285650000000000048e+01 8.671135000000001014e+01 1.939865000000000009e+03
8.000000000000000167e-02 1.190039999999999987e-01 2.492385000000000161e+01 9.172200000000000841e+01 1.941605000000000018e+03
8.100000000000000255e-02 1.191424999999999845e-01 2.706739999999999924e+01 9.688349999999999795e+01 1.943430000000000064e+03
8.200000000000000344e-02 1.192864999999999898e-01 2.926509999999999678e+01 1.021499000000000024e+02 1.945335000000000036e+03
8.300000000000000433e-02 1.194344999999999990e-01 3.149745000000000061e+01 1.074828499999999991e+02 1.947295000000000073e+03
8.400000000000000522e-02 1.195844999999999964e-01 3.374725000000000108e+01 1.128504999999999967e+02 1.949299999999999955e+03
8.500000000000000611e-02 1.197369999999999962e-01 3.600000000000000000e+01 1.182305000000000064e+02 1.951339999999999918e+03
8.600000000000000699e-02 1.198909999999999976e-01 3.824365000000000236e+01 1.236065000000000111e+02 1.953400000000000091e+03
8.700000000000000788e-02 1.200454999999999994e-01 4.046815000000000140e+01 1.289685000000000059e+02 1.955474999999999909e+03
8.800000000000000877e-02 1.202005000000000018e-01 4.266519999999999868e+01 1.343084999999999809e+02 1.957565000000000055e+03
8.899999999999999578e-02 1.203555000000000041e-01 4.482760000000000389e+01 1.396210000000000093e+02 1.959655000000000200e+03
8.999999999999999667e-02 1.205100000000000060e-01 4.694885000000000019e+01 1.449014999999999986e+02 1.961750000000000000e+03
9.099999999999999756e-02 1.206639999999999935e-01 4.902259999999999707e+01 1.501440000000000055e+02 1.963840000000000146e+03
9.199999999999999845e-02 1.208170000000000077e-01 5.104264999999999475e+01 1.553394999999999868e+02 1.965924999999999955e+03
9.299999999999999933e-02 1.209695000000000076e-01 5.300260000000000105e+01 1.604764999999999873e+02 1.968000000000000000e+03
9.400000000000000022e-02 1.211199999999999916e-01 5.489560000000000173e+01 1.655420000000000016e+02 1.970065000000000055e+03
9.500000000000000111e-02 1.212685000000000013e-01 5.671484999999999843e+01 1.705190000000000055e+02 1.972105000000000018e+03
9.600000000000000200e-02 1.214149999999999952e-01 5.845329999999999870e+01 1.753894999999999982e+02 1.974115000000000009e+03
9.700000000000000289e-02 1.215590000000000004e-01 6.010410000000000252e+01 1.801349999999999909e+02 1.976089999999999918e+03
9.800000000000000377e-02 1.216990000000000016e-01 6.166044999999999732e+01 1.847355000000000018e+02 1.978025000000000091e+03
9.900000000000000466e-02 1.218355000000000132e-01 6.311599999999999966e+01 1.891719999999999970e+02 1.979914999999999964e+03
1.000000000000000056e-01 1.219669999999999921e-01 6.446484999999999843e+01 1.934264999999999759e+02 1.981740000000000009e+03
1.010000000000000064e-01 1.220934999999999937e-01 6.570154999999999745e+01 1.974814999999999827e+02 1.983505000000000109e+03
1.020000000000000073e-01 1.222145000000000037e-01 6.682124999999999204e+01 2.013199999999999932e+02 1.985194999999999936e+03
1.030000000000000082e-01 1.223304999999999948e-01 6.781969999999999743e+01 2.049295000000000186e+02 1.986805000000000064e+03
1.040000000000000091e-01 1.224390000000000062e-01 6.869325000000000614e+01 2.082955000000000041e+02 1.988329999999999927e+03
1.050000000000000100e-01 1.225414999999999976e-01 6.943919999999999959e+01 2.114074999999999989e+02 1.989764999999999873e+03
1.059999999999999970e-01 1.226365000000000094e-01 7.005559999999999832e+01 2.142564999999999884e+02 1.991099999999999909e+03
1.069999999999999979e-01 1.227239999999999998e-01 7.054139999999999588e+01 2.168350000000000080e+02 1.992340000000000146e+03
1.079999999999999988e-01 1.228039999999999965e-01 7.089689999999998804e+01 2.191390000000000100e+02 1.993474999999999909e+03
1.089999999999999997e-01 1.228769999999999862e-01 7.112345000000000539e+01 2.211675000000000182e+02 1.994505000000000109e+03
1.100000000000000006e-01 1.229414999999999952e-01 7.122405000000000541e+01 2.229230000000000018e+02 1.995424999999999955e+03
1.110000000000000014e-01 1.229979999999999962e-01 7.120300000000000296e+01 2.244100000000000250e+02 1.996230000000000018e+03
1.120000000000000023e-01 1.230479999999999907e-01 7.106629999999999825e+01 2.256394999999999982e+02 1.996940000000000055e+03
1.130000000000000032e-01 1.230900000000000050e-01 7.082114999999998872e+01 2.266229999999999905e+02 1.997539999999999964e+03
1.140000000000000041e-01 1.231244999999999978e-01 7.047634999999999650e+01 2.273789999999999907e+02 1.998045000000000073e+03
1.150000000000000050e-01 1.231530000000000125e-01 7.004165000000000418e+01 2.279259999999999877e+02 1.998454999999999927e+03
1.160000000000000059e-01 1.231754999999999933e-01 6.952760000000000673e+01 2.282849999999999966e+02 1.998784999999999854e+03
1.170000000000000068e-01 1.231919999999999960e-01 6.894540000000000646e+01 2.284800000000000182e+02 1.999025000000000091e+03
1.180000000000000077e-01 1.232034999999999936e-01 6.830625000000000568e+01 2.285335000000000036e+02 1.999204999999999927e+03
1.190000000000000085e-01 1.232105000000000006e-01 6.762139999999999418e+01 2.284685000000000059e+02 1.999320000000000164e+03
1.200000000000000094e-01 1.232145000000000046e-01 6.690135000000000787e+01 2.283079999999999927e+02 1.999375000000000000e+03
1.209999999999999964e-01 1.232145000000000046e-01 6.615594999999999004e+01 2.280699999999999932e+02 1.999384999999999991e+03
1.219999999999999973e-01 1.232120000000000160e-01 6.539395000000000380e+01 2.277725000000000080e+02 1.999360000000000127e+03
1.229999999999999982e-01 1.232080000000000120e-01 6.462300000000000466e+01 2.274300000000000068e+02 1.999299999999999955e+03
1.239999999999999991e-01 1.232014999999999916e-01 6.384924999999999784e+01 2.270534999999999854e+02 1.999210000000000036e+03
1.250000000000000000e-01 1.231935000000000113e-01 6.307744999999999891e+01 2.266504999999999939e+02 1.999109999999999900e+03
1.260000000000000009e-01 1.231850000000000028e-01 6.231109999999999616e+01 2.262270000000000039e+02 1.998980000000000018e+03
1.270000000000000018e-01 1.231744999999999923e-01 6.155225000000000080e+01 2.257844999999999800e+02 1.998839999999999918e+03
1.280000000000000027e-01 1.231639999999999957e-01 6.080154999999999887e+01 2.253220000000000027e+02 1.998684999999999945e+03
1.290000000000000036e-01 1.231519999999999976e-01 6.005875000000000341e+01 2.248365000000000009e+02 1.998525000000000091e+03
1.300000000000000044e-01 1.231389999999999985e-01 5.932235000000000014e+01 2.243240000000000123e+02 1.998339999999999918e+03
1.310000000000000053e-01 1.231249999999999983e-01 5.859024999999999750e+01 2.237775000000000034e+02 1.998150000000000091e+03
1.320000000000000062e-01 1.231099999999999972e-01 5.785960000000000036e+01 2.231899999999999977e+02 1.997934999999999945e+03
1.330000000000000071e-01 1.230939999999999951e-01 5.712715000000000032e+01 2.225550000000000068e+02 1.997704999999999927e+03
1.340000000000000080e-01 1.230765000000000053e-01 5.638954999999999984e+01 2.218629999999999995e+02 1.997460000000000036e+03
1.350000000000000089e-01 1.230575000000000141e-01 5.564334999999999809e+01 2.211080000000000041e+02 1.997190000000000055e+03
1.360000000000000098e-01 1.230359999999999926e-01 5.488535000000000252e+01 2.202830000000000155e+02 1.996889999999999873e+03
1.370000000000000107e-01 1.230124999999999968e-01 5.411265000000000214e+01 2.193834999999999980e+02 1.996570000000000164e+03
1.380000000000000115e-01 1.229874999999999996e-01 5.332304999999999495e+01 2.184055000000000177e+02 1.996214999999999918e+03
1.390000000000000124e-01 1.229599999999999860e-01 5.251489999999999725e+01 2.173470000000000084e+02 1.995835000000000036e+03
1.400000000000000133e-01 1.229304999999999981e-01 5.168724999999999881e+01 2.162085000000000150e+02 1.995420000000000073e+03
1.410000000000000142e-01 1.228990000000000082e-01 5.084009999999999962e+01 2.149909999999999854e+02 1.994974999999999909e+03
1.420000000000000151e-01 1.228644999999999876e-01 4.997435000000000116e+01 2.136995000000000005e+02 1.994500000000000000e+03
1.430000000000000160e-01 1.228285000000000071e-01 4.909184999999999377e+01 2.123404999999999916e+02 1.994000000000000000e+03
1.440000000000000169e-01 1.227904999999999969e-01 4.819514999999999816e+01 2.109209999999999923e+02 1.993470000000000027e+03
1.450000000000000178e-01 1.227509999999999990e-01 4.728785000000000593e+01 2.094519999999999982e+02 1.992914999999999964e+03
1.459999999999999909e-01 1.227094999999999991e-01 4.637400000000000233e+01 2.079449999999999932e+02 1.992344999999999800e+03
1.469999999999999918e-01 1.226669999999999983e-01 4.545855000000000246e+01 2.064114999999999895e+02 1.991759999999999991e+03
1.479999999999999927e-01 1.226240000000000108e-01 4.454654999999999632e+01 2.048659999999999854e+02 1.991160000000000082e+03
1.489999999999999936e-01 1.225799999999999945e-01 4.364355000000000473e+01 2.033220000000000027e+02 1.990549999999999955e+03
1.499999999999999944e-01 1.225364999999999926e-01 4.275509999999999877e+01 2.017930000000000064e+02 1.989945000000000164e+03
1.509999999999999953e-01 1.224930000000000047e-01 4.188660000000000139e+01 2.002920000000000016e+02 1.989335000000000036e+03
1.519999999999999962e-01 1.224504999999999899e-01 4.104309999999999548e+01 1.988315000000000055e+02 1.988740000000000009e+03
1.529999999999999971e-01 1.224085000000000034e-01 4.022925000000000040e+01 1.974230000000000018e+02 1.988154999999999973e+03
1.539999999999999980e-01 1.223674999999999902e-01 3.944904999999999973e+01 1.960745000000000005e+02 1.987585000000000036e+03
1.549999999999999989e-01 1.223285000000000067e-01 3.870575000000000188e+01 1.947934999999999945e+02 1.987039999999999964e+03
1.559999999999999998e-01 1.222904999999999964e-01 3.800175000000000125e+01 1.935844999999999914e+02 1.986519999999999982e+03
1.570000000000000007e-01 1.222550000000000026e-01 3.733859999999999957e+01 1.924519999999999982e+02 1.986019999999999982e+03
1.580000000000000016e-01 1.222214999999999968e-01 3.671705000000000041e+01 1.913965000000000032e+02 1.985545000000000073e+03
1.590000000000000024e-01 1.221899999999999931e-01 3.613705000000000211e+01 1.904169999999999732e+02 1.985099999999999909e+03
