# t [s], A [cm^2], U [cm/s], P [cPa], c [cm/s]
1.000000000000000021e-03 1.365675000000000083e-01 4.087779999999999747e-01 1.042939999999999969e+02 1.990440000000000055e+03
2.000000000000000042e-03 1.365274999999999961e-01 2.165733999999999604e+00 1.006211500000000001e+02 1.989944999999999936e+03
3.000000000000000062e-03 1.364150000000000085e-01 4.296692499999999804e+00 9.567869999999999209e+01 1.988609999999999900e+03
4.000000000000000083e-03 1.362605000000000066e-01 6.667892000000000152e+00 9.041159999999999286e+01 1.986799999999999955e+03
5.000000000000000104e-03 1.360929999999999918e-01 9.193559999999999732e+00 8.576120000000000232e+01 1.984860000000000127e+03
6.000000000000000125e-03 1.359310000000000240e-01 1.167714499999999944e+01 8.199084999999999468e+01 1.983000000000000000e+03
7.000000000000000146e-03 1.357794999999999974e-01 1.389332500000000081e+01 7.880895000000001005e+01 1.981295000000000073e+03
8.000000000000000167e-03 1.356399999999999828e-01 1.576075000000000159e+01 7.596120000000000516e+01 1.979755000000000109e+03
9.000000000000001055e-03 1.355169999999999986e-01 1.732305000000000206e+01 7.349569999999999936e+01 1.978414999999999964e+03
1.000000000000000194e-02 1.354124999999999912e-01 1.861950000000000216e+01 7.148550000000000182e+01 1.977289999999999964e+03
1.099999999999999936e-02 1.353270000000000028e-01 1.966819999999999879e+01 6.990024999999999977e+01 1.976365000000000009e+03
1.200000000000000025e-02 1.352579999999999893e-01 2.048949999999999960e+01 6.868115000000000236e+01 1.975639999999999873e+03
1.300000000000000114e-02 1.352035000000000042e-01 2.109454999999999814e+01 6.774384999999999479e+01 1.975074999999999818e+03
1.400000000000000203e-02 1.351594999999999880e-01 2.149215000000000231e+01 6.697294999999999732e+01 1.974634999999999991e+03
1.499999999999999944e-02 1.351245000000000085e-01 2.173505000000000109e+01 6.633499999999999375e+01 1.974289999999999964e+03
1.600000000000000033e-02 1.350994999999999835e-01 2.194620000000000104e+01 6.600235000000000696e+01 1.974055000000000064e+03
1.700000000000000122e-02 1.350925000000000042e-01 2.227984999999999971e+01 6.631184999999999263e+01 1.973990000000000009e+03
1.800000000000000211e-02 1.351085000000000202e-01 2.284065000000000012e+01 6.755649999999999977e+01 1.974175000000000182e+03
1.900000000000000300e-02 1.351514999999999800e-01 2.362294999999999945e+01 6.976670000000000016e+01 1.974644999999999982e+03
2.000000000000000042e-02 1.352169999999999761e-01 2.450645000000000095e+01 7.262749999999999773e+01 1.975355000000000018e+03
2.100000000000000130e-02 1.352949999999999986e-01 2.530474999999999852e+01 7.557155000000000200e+01 1.976204999999999927e+03
2.200000000000000219e-02 1.353705000000000047e-01 2.583780000000000143e+01 7.798210000000000264e+01 1.977039999999999964e+03
2.299999999999999961e-02 1.354299999999999948e-01 2.599409999999999954e+01 7.940545000000000186e+01 1.977714999999999918e+03
2.400000000000000050e-02 1.354655000000000165e-01 2.576144999999999996e+01 7.968720000000000425e+01 1.978134999999999991e+03
2.500000000000000139e-02 1.354754999999999987e-01 2.521884999999999977e+01 7.898920000000001096e+01 1.978280000000000200e+03
2.600000000000000228e-02 1.354650000000000021e-01 2.449794999999999945e+01 7.769504999999999484e+01 1.978190000000000055e+03
2.700000000000000316e-02 1.354420000000000068e-01 2.373225000000000051e+01 7.625215000000000032e+01 1.977954999999999927e+03
2.800000000000000058e-02 1.354154999999999942e-01 2.301510000000000034e+01 7.501800000000000068e+01 1.977674999999999955e+03
2.900000000000000147e-02 1.353924999999999990e-01 2.237904999999999944e+01 7.416394999999999982e+01 1.977420000000000073e+03
3.000000000000000236e-02 1.353749999999999953e-01 2.179984999999999928e+01 7.365874999999999773e+01 1.977224999999999909e+03
3.099999999999999978e-02 1.353610000000000091e-01 2.121890000000000143e+01 7.332335000000000491e+01 1.977075000000000045e+03
3.200000000000000067e-02 1.353475000000000095e-01 2.057370000000000232e+01 7.292490000000000805e+01 1.976929999999999836e+03
3.300000000000000155e-02 1.353304999999999925e-01 1.982675000000000054e+01 7.227639999999999532e+01 1.976750000000000000e+03
3.400000000000000244e-02 1.353064999999999962e-01 1.898329999999999984e+01 7.131125000000000114e+01 1.976500000000000000e+03
3.500000000000000333e-02 1.352764999999999940e-01 1.809564999999999912e+01 7.011379999999999768e+01 1.976180000000000064e+03
3.600000000000000422e-02 1.352430000000000021e-01 1.725130000000000052e+01 6.889939999999999998e+01 1.975815000000000055e+03
3.700000000000000511e-02 1.352119999999999989e-01 1.655024999999999835e+01 6.795240000000001146e+01 1.975480000000000018e+03
3.799999999999999906e-02 1.351904999999999912e-01 1.607799999999999940e+01 6.754290000000000305e+01 1.975235000000000127e+03
3.899999999999999994e-02 1.351839999999999986e-01 1.588275000000000148e+01 6.784805000000000064e+01 1.975154999999999973e+03
4.000000000000000083e-02 1.351959999999999829e-01 1.596259999999999835e+01 6.890084999999999127e+01 1.975269999999999982e+03
4.100000000000000172e-02 1.352269999999999861e-01 1.626539999999999964e+01 7.057819999999999538e+01 1.975579999999999927e+03
4.200000000000000261e-02 1.352725000000000177e-01 1.669975000000000165e+01 7.262704999999999700e+01 1.976054999999999836e+03
4.300000000000000350e-02 1.353254999999999875e-01 1.715289999999999893e+01 7.471715000000000373e+01 1.976625000000000000e+03
4.400000000000000439e-02 1.353785000000000127e-01 1.751050000000000040e+01 7.650540000000000873e+01 1.977195000000000164e+03
4.499999999999999833e-02 1.354230000000000156e-01 1.767415000000000092e+01 7.769474999999999909e+01 1.977679999999999836e+03
4.599999999999999922e-02 1.354509999999999881e-01 1.757370000000000232e+01 7.807744999999999891e+01 1.978000000000000000e+03
4.700000000000000011e-02 1.354584999999999817e-01 1.717260000000000275e+01 7.755580000000000496e+01 1.978095000000000027e+03
4.800000000000000100e-02 1.354425000000000212e-01 1.646715000000000018e+01 7.614079999999999870e+01 1.977934999999999945e+03
4.900000000000000189e-02 1.354035000000000100e-01 1.548114999999999952e+01 7.393289999999998940e+01 1.977515000000000100e+03
5.000000000000000278e-02 1.353419999999999901e-01 1.425785000000000124e+01 7.109250000000000114e+01 1.976869999999999891e+03
5.100000000000000366e-02 1.352629999999999943e-01 1.285157000000000060e+01 6.780844999999999345e+01 1.976025000000000091e+03
5.200000000000000455e-02 1.351715000000000000e-01 1.132100999999999935e+01 6.427139999999999986e+01 1.975030000000000200e+03
5.300000000000000544e-02 1.350704999999999822e-01 9.724375000000000213e+00 6.065594999999999715e+01 1.973940000000000055e+03
5.399999999999999939e-02 1.349660000000000026e-01 8.117430000000000589e+00 5.711254999999999882e+01 1.972804999999999836e+03
5.500000000000000028e-02 1.348614999999999953e-01 6.553099999999999703e+00 5.376794999999999902e+01 1.971674999999999955e+03
5.600000000000000117e-02 1.347614999999999785e-01 5.082160000000000011e+00 5.073015000000000185e+01 1.970590000000000146e+03
5.700000000000000205e-02 1.346690000000000109e-01 3.753832000000000058e+00 4.809539999999999793e+01 1.969579999999999927e+03
5.800000000000000294e-02 1.345874999999999988e-01 2.616181000000000090e+00 4.595374999999999943e+01 1.968684999999999945e+03
5.900000000000000383e-02 1.345200000000000007e-01 1.715300000000000047e+00 4.439095000000000368e+01 1.967934999999999945e+03
6.000000000000000472e-02 1.344684999999999908e-01 1.093600000000000128e+00 4.348725000000000307e+01 1.967365000000000009e+03
6.099999999999999867e-02 1.344370000000000009e-01 7.874242000000000186e-01 4.331279999999999575e+01 1.967005000000000109e+03
6.199999999999999956e-02 1.344265000000000043e-01 8.243700000000000472e-01 4.392095000000000482e+01 1.966869999999999891e+03
6.300000000000000044e-02 1.344394999999999896e-01 1.220889499999999961e+00 4.534145000000000181e+01 1.966985000000000127e+03
6.400000000000000133e-02 1.344764999999999988e-01 1.980601500000000126e+00 4.757535000000000025e+01 1.967365000000000009e+03
6.500000000000000222e-02 1.345379999999999909e-01 3.093614999999999782e+00 5.059239999999999782e+01 1.968000000000000000e+03
6.600000000000000311e-02 1.346225000000000060e-01 4.536990000000000300e+00 5.433145000000000380e+01 1.968894999999999982e+03
6.700000000000000400e-02 1.347295000000000020e-01 6.276220000000000354e+00 5.870430000000000348e+01 1.970025000000000091e+03
6.800000000000000488e-02 1.348554999999999893e-01 8.267469999999999430e+00 6.360170000000000101e+01 1.971380000000000109e+03
6.900000000000000577e-02 1.349980000000000069e-01 1.046028499999999894e+01 6.890090000000000714e+01 1.972910000000000082e+03
7.000000000000000666e-02 1.351539999999999964e-01 1.280033500000000046e+01 7.447315000000000396e+01 1.974595000000000027e+03
7.100000000000000755e-02 1.353194999999999815e-01 1.523230000000000040e+01 8.019159999999999400e+01 1.976389999999999873e+03
7.200000000000000844e-02 1.354905000000000137e-01 1.770219999999999771e+01 8.593725000000000591e+01 1.978255000000000109e+03
7.300000000000000933e-02 1.356649999999999801e-01 2.015974999999999895e+01 9.160415000000000418e+01 1.980164999999999964e+03
7.399999999999999634e-02 1.358374999999999999e-01 2.256020000000000181e+01 9.710429999999999495e+01 1.982065000000000055e+03
7.499999999999999722e-02 1.360079999999999900e-01 2.486585000000000178e+01 1.023679999999999950e+02 1.983940000000000055e+03
7.599999999999999811e-02 1.361725000000000019e-01 2.704745000000000132e+01 1.073503000000000043e+02 1.985764999999999873e+03
7.699999999999999900e-02 1.363304999999999934e-01 2.908464999999999989e+01 1.120260000000000105e+02 1.987514999999999873e+03
7.799999999999999989e-02 1.364799999999999902e-01 3.096624999999999872e+01 1.163935000000000031e+02 1.989190000000000055e+03
7.900000000000000078e-02 1.366215000000000068e-01 3.268995000000000317e+01 1.204694999999999965e+02 1.990780000000000200e+03
8.000000000000000167e-02 1.367559999999999887e-01 3.426129999999999853e+01 1.242890000000000157e+02 1.992284999999999854e+03
8.100000000000000255e-02 1.368830000000000047e-01 3.569234999999999758e+01 1.278975000000000080e+02 1.993715000000000146e+03
8.200000000000000344e-02 1.370045000000000013e-01 3.699974999999999881e+01 1.313489999999999895e+02 1.995079999999999927e+03
8.300000000000000433e-02 1.371209999999999929e-01 3.820279999999999632e+01 1.346980000000000075e+02 1.996394999999999982e+03
8.400000000000000522e-02 1.372339999999999949e-01 3.932150000000000034e+01 1.379959999999999809e+02 1.997674999999999955e+03
8.500000000000000611e-02 1.373455000000000092e-01 4.037454999999999927e+01 1.412870000000000061e+02 1.998934999999999945e+03
8.600000000000000699e-02 1.374559999999999949e-01 4.137789999999999679e+01 1.446030000000000086e+02 2.000184999999999945e+03
8.700000000000000788e-02 1.375675000000000092e-01 4.234315000000000140e+01 1.479619999999999891e+02 2.001440000000000055e+03
8.800000000000000877e-02 1.376789999999999958e-01 4.327734999999999843e+01 1.513670000000000186e+02 2.002704999999999927e+03
8.899999999999999578e-02 1.377909999999999968e-01 4.418224999999999625e+01 1.548054999999999950e+02 2.003974999999999909e+03
8.999999999999999667e-02 1.379035000000000122e-01 4.505460000000000065e+01 1.582549999999999955e+02 2.005244999999999891e+03
9.099999999999999756e-02 1.380159999999999998e-01 4.588660000000000139e+01 1.616779999999999973e+02 2.006515000000000100e+03
9.199999999999999845e-02 1.381275000000000142e-01 4.666665000000000418e+01 1.650310000000000059e+02 2.007775000000000091e+03
9.299999999999999933e-02 1.382359999999999978e-01 4.738054999999999950e+01 1.682644999999999982e+02 2.009009999999999991e+03
9.400000000000000022e-02 1.383409999999999918e-01 4.801225000000000165e+01 1.713280000000000030e+02 2.010199999999999818e+03
9.500000000000000111e-02 1.384405000000000219e-01 4.854534999999999911e+01 1.741715000000000089e+02 2.011329999999999927e+03
9.600000000000000200e-02 1.385335000000000039e-01 4.896370000000000289e+01 1.767500000000000000e+02 2.012394999999999982e+03
9.700000000000000289e-02 1.386185000000000056e-01 4.925300000000000011e+01 1.790225000000000080e+02 2.013369999999999891e+03
9.800000000000000377e-02 1.386939999999999840e-01 4.940094999999999459e+01 1.809594999999999914e+02 2.014244999999999891e+03
9.900000000000000466e-02 1.387599999999999945e-01 4.939849999999999852e+01 1.825360000000000014e+02 2.015000000000000000e+03
1.000000000000000056e-01 1.388149999999999940e-01 4.924014999999999986e+01 1.837400000000000091e+02 2.015639999999999873e+03
1.010000000000000064e-01 1.388594999999999968e-01 4.892414999999999736e+01 1.845690000000000168e+02 2.016154999999999973e+03
1.020000000000000073e-01 1.388920000000000154e-01 4.845289999999999964e+01 1.850304999999999893e+02 2.016539999999999964e+03
1.030000000000000082e-01 1.389134999999999953e-01 4.783279999999999887e+01 1.851405000000000030e+02 2.016795000000000073e+03
1.040000000000000091e-01 1.389245000000000063e-01 4.707404999999999973e+01 1.849250000000000114e+02 2.016929999999999836e+03
1.050000000000000100e-01 1.389245000000000063e-01 4.619035000000000224e+01 1.844159999999999968e+02 2.016954999999999927e+03
1.059999999999999970e-01 1.389164999999999983e-01 4.519814999999999827e+01 1.836530000000000200e+02 2.016869999999999891e+03
1.069999999999999979e-01 1.388999999999999957e-01 4.411615000000000464e+01 1.826790000000000020e+02 2.016690000000000055e+03
1.079999999999999988e-01 1.388759999999999994e-01 4.296470000000000056e+01 1.815394999999999754e+02 2.016434999999999945e+03
1.089999999999999997e-01 1.388464999999999838e-01 4.176460000000000150e+01 1.802800000000000011e+02 2.016110000000000127e+03
1.100000000000000006e-01 1.388129999999999920e-01 4.053665000000000163e+01 1.789455000000000098e+02 2.015740000000000009e+03
1.110000000000000014e-01 1.387769999999999837e-01 3.930080000000000240e+01 1.775780000000000030e+02 2.015329999999999927e+03
1.120000000000000023e-01 1.387384999999999868e-01 3.807545000000000357e+01 1.762149999999999750e+02 2.014900000000000091e+03
1.130000000000000032e-01 1.386995000000000033e-01 3.687675000000000125e+01 1.748890000000000100e+02 2.014460000000000036e+03
1.140000000000000041e-01 1.386605000000000198e-01 3.571829999999999927e+01 1.736245000000000118e+02 2.014019999999999982e+03
1.150000000000000050e-01 1.386235000000000106e-01 3.461070000000000135e+01 1.724410000000000025e+02 2.013590000000000146e+03
1.160000000000000059e-01 1.385869999999999880e-01 3.356114999999999782e+01 1.713485000000000014e+02 2.013184999999999945e+03
1.170000000000000068e-01 1.385534999999999961e-01 3.257359999999999900e+01 1.703514999999999873e+02 2.012795000000000073e+03
1.180000000000000077e-01 1.385220000000000062e-01 3.164869999999999806e+01 1.694454999999999814e+02 2.012434999999999945e+03
1.190000000000000085e-01 1.384929999999999772e-01 3.078385000000000105e+01 1.686214999999999975e+02 2.012099999999999909e+03
1.200000000000000094e-01 1.384654999999999914e-01 2.997390000000000043e+01 1.678629999999999995e+02 2.011784999999999854e+03
1.209999999999999964e-01 1.384404999999999941e-01 2.921085000000000065e+01 1.671490000000000009e+02 2.011490000000000009e+03
1.219999999999999973e-01 1.384159999999999835e-01 2.848519999999999897e+01 1.664560000000000173e+02 2.011210000000000036e+03
1.229999999999999982e-01 1.383920000000000150e-01 2.778584999999999994e+01 1.657574999999999932e+02 2.010934999999999945e+03
1.239999999999999991e-01 1.383685000000000054e-01 2.710089999999999932e+01 1.650264999999999986e+02 2.010654999999999973e+03
1.250000000000000000e-01 1.383429999999999938e-01 2.641850000000000165e+01 1.642369999999999948e+02 2.010375000000000000e+03
1.260000000000000009e-01 1.383169999999999955e-01 2.572735000000000127e+01 1.633640000000000043e+02 2.010065000000000055e+03
1.270000000000000018e-01 1.382880000000000220e-01 2.501699999999999946e+01 1.623874999999999886e+02 2.009740000000000009e+03
1.280000000000000027e-01 1.382559999999999900e-01 2.427890000000000015e+01 1.612909999999999968e+02 2.009375000000000000e+03
1.290000000000000036e-01 1.382204999999999961e-01 2.350645000000000095e+01 1.600629999999999882e+02 2.008980000000000018e+03
1.300000000000000044e-01 1.381815000000000127e-01 2.269559999999999889e+01 1.586995000000000005e+02 2.008539999999999964e+03
1.310000000000000053e-01 1.381384999999999974e-01 2.184499999999999886e+01 1.572019999999999982e+02 2.008055000000000064e+03
1.320000000000000062e-01 1.380915000000000059e-01 2.095595000000000141e+01 1.555780000000000030e+02 2.007530000000000200e+03
1.330000000000000071e-01 1.380415000000000114e-01 2.003255000000000052e+01 1.538429999999999893e+02 2.006964999999999918e+03
1.340000000000000080e-01 1.379874999999999852e-01 1.908174999999999955e+01 1.520174999999999841e+02 2.006360000000000127e+03
1.350000000000000089e-01 1.379309999999999981e-01 1.811234999999999928e+01 1.501260000000000048e+02 2.005724999999999909e+03
1.360000000000000098e-01 1.378725000000000089e-01 1.713544999999999874e+01 1.481970000000000027e+02 2.005065000000000055e+03
1.370000000000000107e-01 1.378125000000000044e-01 1.616315000000000168e+01 1.462624999999999886e+02 2.004394999999999982e+03
1.380000000000000115e-01 1.377524999999999999e-01 1.520850000000000080e+01 1.443549999999999898e+02 2.003720000000000027e+03
1.390000000000000124e-01 1.376934999999999965e-01 1.428465000000000096e+01 1.425049999999999955e+02 2.003049999999999955e+03
1.400000000000000133e-01 1.376350000000000073e-01 1.340440000000000076e+01 1.407429999999999950e+02 2.002394999999999982e+03
1.410000000000000142e-01 1.375795000000000212e-01 1.257939499999999988e+01 1.390960000000000036e+02 2.001769999999999982e+03
1.420000000000000151e-01 1.375270000000000103e-01 1.181998499999999908e+01 1.375860000000000127e+02 2.001179999999999836e+03
1.430000000000000160e-01 1.374779999999999891e-01 1.113443999999999967e+01 1.362305000000000064e+02 2.000625000000000000e+03
1.440000000000000169e-01 1.374340000000000006e-01 1.052885999999999989e+01 1.350414999999999850e+02 2.000125000000000000e+03
1.450000000000000178e-01 1.373945000000000027e-01 1.000694000000000017e+01 1.340240000000000009e+02 1.999674999999999955e+03
1.459999999999999909e-01 1.373599999999999821e-01 9.570009999999999906e+00 1.331794999999999902e+02 1.999279999999999973e+03
1.469999999999999918e-01 1.373305000000000220e-01 9.216915000000000191e+00 1.325015000000000214e+02 1.998940000000000055e+03
1.479999999999999927e-01 1.373060000000000114e-01 8.944250000000000256e+00 1.319805000000000064e+02 1.998659999999999854e+03
1.489999999999999936e-01 1.372865000000000058e-01 8.746735000000001037e+00 1.316025000000000205e+02 1.998430000000000064e+03
1.499999999999999944e-01 1.372705000000000175e-01 8.617329999999999046e+00 1.313489999999999895e+02 1.998250000000000000e+03
1.509999999999999953e-01 1.372589999999999921e-01 8.547750000000000625e+00 1.312019999999999982e+02 1.998110000000000127e+03
1.519999999999999962e-01 1.372510000000000119e-01 8.528819999999999624e+00 1.311385000000000218e+02 1.998014999999999873e+03
1.529999999999999971e-01 1.372450000000000059e-01 8.550850000000000506e+00 1.311390000000000100e+02 1.997944999999999936e+03
1.539999999999999980e-01 1.372420000000000029e-01 8.604044999999999277e+00 1.311820000000000164e+02 1.997904999999999973e+03
1.549999999999999989e-01 1.372404999999999875e-01 8.678815000000000168e+00 1.312475000000000023e+02 1.997880000000000109e+03
1.559999999999999998e-01 1.372400000000000009e-01 8.766140000000000043e+00 1.313190000000000168e+02 1.997869999999999891e+03
1.570000000000000007e-01 1.372400000000000009e-01 8.857775000000000176e+00 1.313804999999999836e+02 1.997860000000000127e+03
1.580000000000000016e-01 1.372395000000000143e-01 8.946500000000000341e+00 1.314189999999999827e+02 1.997860000000000127e+03
1.590000000000000024e-01 1.372395000000000143e-01 9.026270000000000238e+00 1.314250000000000114e+02 1.997855000000000018e+03
