# t [s], A [cm^2], U [cm/s], P [cPa], c [cm/s]
1.000000000000000021e-03 5.141189999999999927e-01 5.139449999999996799e-03 1.096064999999999969e+02 1.580934999999999945e+03
2.000000000000000042e-03 5.141115000000000546e-01 8.848100000000001970e-04 1.095805000000000007e+02 1.580924999999999955e+03
3.000000000000000062e-03 5.141609999999999792e-01 1.054617499999999930e-01 1.096915000000000049e+02 1.580954999999999927e+03
4.000000000000000083e-03 5.141999999999999904e-01 1.969753850000000028e-01 1.098050000000000068e+02 1.580985000000000127e+03
5.000000000000000104e-03 5.141729999999999912e-01 1.587761500000000048e-01 1.097289999999999992e+02 1.580974999999999909e+03
6.000000000000000125e-03 5.141154999999999475e-01 5.005999999999999339e-02 1.094879999999999995e+02 1.580920000000000073e+03
7.000000000000000146e-03 5.140614999999999490e-01 -6.049299999999996347e-02 1.091705000000000041e+02 1.580835000000000036e+03
8.000000000000000167e-03 5.139730000000000132e-01 -2.554300000000000459e-01 1.086924999999999955e+02 1.580724999999999909e+03
9.000000000000001055e-03 5.138289999999999802e-01 -5.832600000000000007e-01 1.079650000000000034e+02 1.580539999999999964e+03
1.000000000000000194e-02 5.136290000000000022e-01 -1.038519999999999888e+00 1.069495000000000005e+02 1.580284999999999854e+03
1.099999999999999936e-02 5.133564999999999934e-01 -1.638914999999999900e+00 1.055819999999999936e+02 1.579940000000000055e+03
1.200000000000000025e-02 5.130010000000000403e-01 -2.387245000000000061e+00 1.038118499999999926e+02 1.579480000000000018e+03
1.300000000000000114e-02 5.125880000000000436e-01 -3.199739999999999807e+00 1.016960499999999996e+02 1.578914999999999964e+03
1.400000000000000203e-02 5.121765000000000345e-01 -3.913795000000000357e+00 9.942820000000000391e+01 1.578295000000000073e+03
1.499999999999999944e-02 5.118245000000000156e-01 -4.366780999999999580e+00 9.725090000000000146e+01 1.577664999999999964e+03
1.600000000000000033e-02 5.115574999999999983e-01 -4.468744199999999722e+00 9.534794999999999732e+01 1.577079999999999927e+03
1.700000000000000122e-02 5.113665000000000571e-01 -4.225738500000000286e+00 9.378395000000000437e+01 1.576565000000000055e+03
1.800000000000000211e-02 5.112155000000000449e-01 -3.719812499999999744e+00 9.250165000000001214e+01 1.576109999999999900e+03
1.900000000000000300e-02 5.110604999999999176e-01 -3.067752000000000034e+00 9.136310000000000286e+01 1.575690000000000055e+03
2.000000000000000042e-02 5.108654999999999724e-01 -2.377177499999999721e+00 9.020969999999999800e+01 1.575269999999999982e+03
2.100000000000000130e-02 5.106129999999999836e-01 -1.713334999999999830e+00 8.892019999999999413e+01 1.574820000000000164e+03
2.200000000000000219e-02 5.103090000000000126e-01 -1.086839999999999806e+00 8.744710000000000605e+01 1.574329999999999927e+03
2.299999999999999961e-02 5.099740000000000384e-01 -4.655000000000000249e-01 8.581850000000000023e+01 1.573799999999999955e+03
2.400000000000000050e-02 5.096334999999999615e-01 1.974649999999997796e-01 8.410974999999999113e+01 1.573250000000000000e+03
2.500000000000000139e-02 5.093050000000000077e-01 9.333099999999996399e-01 8.240094999999999459e+01 1.572690000000000055e+03
2.600000000000000228e-02 5.089930000000000287e-01 1.737700000000000022e+00 8.073924999999999841e+01 1.572134999999999991e+03
2.700000000000000316e-02 5.086859999999999715e-01 2.565549999999999553e+00 7.911785000000000423e+01 1.571589999999999918e+03
2.800000000000000058e-02 5.083625000000000504e-01 3.339425000000000310e+00 7.747499999999999432e+01 1.571045000000000073e+03
2.900000000000000147e-02 5.079949999999999743e-01 3.967050000000000409e+00 7.570975000000001387e+01 1.570465000000000146e+03
3.000000000000000236e-02 5.075589999999999824e-01 4.363095000000000390e+00 7.370980000000000132e+01 1.569835000000000036e+03
3.099999999999999978e-02 5.070414999999999228e-01 4.470069999999999766e+00 7.138439999999999941e+01 1.569130000000000109e+03
3.200000000000000067e-02 5.064429999999999765e-01 4.272639999999999105e+00 6.869320000000000448e+01 1.568329999999999927e+03
3.300000000000000155e-02 5.057795000000000485e-01 3.802255000000000162e+00 6.566330000000000666e+01 1.567450000000000045e+03
3.400000000000000244e-02 5.050810000000000022e-01 3.130060000000000286e+00 6.238970000000000482e+01 1.566500000000000000e+03
3.500000000000000333e-02 5.043845000000000134e-01 2.351545000000000663e+00 5.902074999999999960e+01 1.565514999999999873e+03
3.600000000000000422e-02 5.037274999999999947e-01 1.569039999999999324e+00 5.573329999999999984e+01 1.564539999999999964e+03
3.700000000000000511e-02 5.031444999999999945e-01 8.755399999999999849e-01 5.270645000000000380e+01 1.563619999999999891e+03
3.799999999999999906e-02 5.026595000000000368e-01 3.446150000000001157e-01 5.009874999999999545e+01 1.562799999999999955e+03
3.899999999999999994e-02 5.022904999999999731e-01 2.587999999999990308e-02 4.803320000000000078e+01 1.562115000000000009e+03
4.000000000000000083e-02 5.020454999999999224e-01 -5.406999999999984041e-02 4.658990000000000009e+01 1.561599999999999909e+03
4.100000000000000172e-02 5.019249999999999545e-01 1.127949999999999786e-01 4.580710000000000548e+01 1.561269999999999982e+03
4.200000000000000261e-02 5.019255000000000244e-01 5.222944600000000159e-01 4.568729999999999336e+01 1.561119999999999891e+03
4.300000000000000350e-02 5.020405000000000006e-01 1.164316499999999976e+00 4.620730000000000359e+01 1.561159999999999854e+03
4.400000000000000439e-02 5.022630000000000150e-01 2.027595000000000258e+00 4.732829999999999870e+01 1.561380000000000109e+03
4.499999999999999833e-02 5.025850000000000595e-01 3.102059999999999818e+00 4.900464999999999804e+01 1.561775000000000091e+03
4.599999999999999922e-02 5.029985000000000150e-01 4.378689999999999749e+00 5.118850000000000477e+01 1.562329999999999927e+03
4.700000000000000011e-02 5.034974999999999312e-01 5.847464999999999691e+00 5.383174999999999955e+01 1.563025000000000091e+03
4.800000000000000100e-02 5.040724999999999234e-01 7.494492499999999779e+00 5.688454999999999728e+01 1.563855000000000018e+03
4.900000000000000189e-02 5.047144999999999548e-01 9.299641499999999894e+00 6.029309999999999548e+01 1.564800000000000182e+03
5.000000000000000278e-02 5.054100000000000259e-01 1.123540999999999990e+01 6.399760000000000559e+01 1.565849999999999909e+03
5.100000000000000366e-02 5.061465000000000547e-01 1.326728999999999914e+01 6.793179999999999552e+01 1.566974999999999909e+03
5.200000000000000455e-02 5.069095000000000129e-01 1.535551999999999850e+01 7.202394999999999925e+01 1.568164999999999964e+03
5.300000000000000544e-02 5.076840000000000241e-01 1.745819000000000187e+01 7.619995000000000118e+01 1.569394999999999982e+03
5.399999999999999939e-02 5.084554999999999492e-01 1.953405000000000058e+01 8.038734999999999786e+01 1.570644999999999982e+03
5.500000000000000028e-02 5.092129999999999157e-01 2.154575000000000173e+01 8.451974999999998772e+01 1.571900000000000091e+03
5.600000000000000117e-02 5.099465000000000803e-01 2.346209999999999951e+01 8.854075000000000273e+01 1.573134999999999991e+03
5.700000000000000205e-02 5.106494999999999784e-01 2.525934999999999775e+01 9.240665000000001328e+01 1.574335000000000036e+03
5.800000000000000294e-02 5.113190000000000790e-01 2.692200000000000060e+01 9.608894999999999698e+01 1.575505000000000109e+03
5.900000000000000383e-02 5.119529999999999914e-01 2.844219999999999970e+01 9.957365000000000066e+01 1.576615000000000009e+03
6.000000000000000472e-02 5.125524999999999665e-01 2.981900000000000261e+01 1.028595499999999987e+02 1.577675000000000182e+03
6.099999999999999867e-02 5.131215000000000082e-01 3.105700000000000216e+01 1.059585999999999899e+02 1.578690000000000055e+03
6.199999999999999956e-02 5.136650000000000382e-01 3.216490000000000293e+01 1.088905000000000030e+02 1.579654999999999973e+03
6.300000000000000044e-02 5.141864999999999908e-01 3.315460000000000207e+01 1.116820000000000022e+02 1.580579999999999927e+03
6.400000000000000133e-02 5.146930000000000671e-01 3.403985000000000127e+01 1.143629999999999995e+02 1.581469999999999800e+03
6.500000000000000222e-02 5.151890000000000081e-01 3.483525000000000205e+01 1.169645000000000010e+02 1.582335000000000036e+03
6.600000000000000311e-02 5.156799999999999162e-01 3.555530000000000257e+01 1.195165000000000077e+02 1.583184999999999945e+03
6.700000000000000400e-02 5.161704999999999766e-01 3.621354999999999791e+01 1.220459999999999923e+02 1.584014999999999873e+03
6.800000000000000488e-02 5.166629999999999834e-01 3.682175000000000153e+01 1.245730000000000075e+02 1.584845000000000027e+03
6.900000000000000577e-02 5.171605000000000230e-01 3.738880000000000337e+01 1.271125000000000114e+02 1.585670000000000073e+03
7.000000000000000666e-02 5.176629999999999843e-01 3.792069999999999652e+01 1.296709999999999923e+02 1.586505000000000109e+03
7.100000000000000755e-02 5.181679999999999620e-01 3.841920000000000357e+01 1.322460000000000093e+02 1.587340000000000146e+03
7.200000000000000844e-02 5.186744999999999273e-01 3.888259999999999650e+01 1.348255000000000052e+02 1.588174999999999955e+03
7.300000000000000933e-02 5.191769999999999996e-01 3.930545000000000044e+01 1.373915000000000077e+02 1.589009999999999991e+03
7.399999999999999634e-02 5.196699999999999653e-01 3.967945000000000277e+01 1.399170000000000016e+02 1.589829999999999927e+03
7.499999999999999722e-02 5.201474999999999849e-01 3.999394999999999811e+01 1.423714999999999975e+02 1.590630000000000109e+03
7.599999999999999811e-02 5.206025000000000791e-01 4.023714999999999975e+01 1.447194999999999823e+02 1.591400000000000091e+03
7.699999999999999900e-02 5.210289999999999644e-01 4.039714999999999634e+01 1.469270000000000209e+02 1.592134999999999991e+03
7.799999999999999989e-02 5.214205000000000645e-01 4.046285000000000309e+01 1.489604999999999961e+02 1.592815000000000055e+03
7.900000000000000078e-02 5.217715000000000547e-01 4.042470000000000141e+01 1.507895000000000039e+02 1.593434999999999945e+03
8.000000000000000167e-02 5.220789999999999598e-01 4.027549999999999386e+01 1.523909999999999911e+02 1.594000000000000000e+03
8.100000000000000255e-02 5.223389999999999977e-01 4.001085000000000491e+01 1.537459999999999809e+02 1.594485000000000127e+03
8.200000000000000344e-02 5.225509999999999877e-01 3.962950000000000017e+01 1.548444999999999823e+02 1.594889999999999873e+03
8.300000000000000433e-02 5.227140000000000120e-01 3.913315000000000055e+01 1.556829999999999927e+02 1.595220000000000027e+03
8.400000000000000522e-02 5.228295000000000581e-01 3.852689999999999770e+01 1.562659999999999911e+02 1.595470000000000027e+03
8.500000000000000611e-02 5.229004999999999903e-01 3.781855000000000189e+01 1.566039999999999850e+02 1.595644999999999982e+03
8.600000000000000699e-02 5.229300000000000059e-01 3.701839999999999975e+01 1.567160000000000082e+02 1.595750000000000000e+03
8.700000000000000788e-02 5.229224999999999568e-01 3.613925000000000409e+01 1.566234999999999786e+02 1.595784999999999854e+03
8.800000000000000877e-02 5.228829999999999867e-01 3.519529999999999603e+01 1.563550000000000182e+02 1.595759999999999991e+03
8.899999999999999578e-02 5.228180000000000049e-01 3.420215000000000316e+01 1.559379999999999882e+02 1.595679999999999836e+03
8.999999999999999667e-02 5.227315000000000156e-01 3.317580000000000240e+01 1.554064999999999941e+02 1.595559999999999945e+03
9.099999999999999756e-02 5.226309999999999567e-01 3.213255000000000194e+01 1.547895000000000039e+02 1.595409999999999854e+03
9.199999999999999845e-02 5.225204999999999433e-01 3.108789999999999765e+01 1.541204999999999927e+02 1.595235000000000127e+03
9.299999999999999933e-02 5.224069999999999547e-01 3.005640000000000356e+01 1.534265000000000043e+02 1.595039999999999964e+03
9.400000000000000022e-02 5.222934999999999661e-01 2.905064999999999742e+01 1.527334999999999923e+02 1.594839999999999918e+03
9.500000000000000111e-02 5.221844999999999404e-01 2.808140000000000214e+01 1.520640000000000214e+02 1.594639999999999873e+03
9.600000000000000200e-02 5.220825000000000049e-01 2.715680000000000049e+01 1.514354999999999905e+02 1.594445000000000164e+03
9.700000000000000289e-02 5.219894999999999952e-01 2.628225000000000122e+01 1.508584999999999923e+02 1.594264999999999873e+03
9.800000000000000377e-02 5.219065000000000509e-01 2.546025000000000205e+01 1.503414999999999964e+02 1.594095000000000027e+03
9.900000000000000466e-02 5.218329999999999913e-01 2.469075000000000131e+01 1.498845000000000027e+02 1.593940000000000055e+03
1.000000000000000056e-01 5.217684999999999684e-01 2.397074999999999889e+01 1.494840000000000089e+02 1.593800000000000182e+03
1.010000000000000064e-01 5.217104999999999659e-01 2.329514999999999958e+01 1.491324999999999932e+02 1.593679999999999836e+03
1.020000000000000073e-01 5.216579999999999551e-01 2.265695000000000192e+01 1.488174999999999955e+02 1.593565000000000055e+03
1.030000000000000082e-01 5.216069999999999318e-01 2.204749999999999943e+01 1.485244999999999891e+02 1.593454999999999927e+03
1.040000000000000091e-01 5.215545000000000320e-01 2.145739999999999981e+01 1.482369999999999948e+02 1.593349999999999909e+03
1.050000000000000100e-01 5.214974999999999472e-01 2.087659999999999982e+01 1.479375000000000000e+02 1.593244999999999891e+03
1.059999999999999970e-01 5.214330000000000354e-01 2.029529999999999745e+01 1.476075000000000159e+02 1.593140000000000100e+03
1.069999999999999979e-01 5.213579999999999881e-01 1.970415000000000205e+01 1.472319999999999993e+02 1.593014999999999873e+03
1.079999999999999988e-01 5.212700000000000111e-01 1.909489999999999910e+01 1.467964999999999804e+02 1.592875000000000000e+03
1.089999999999999997e-01 5.211670000000000469e-01 1.846079999999999899e+01 1.462880000000000109e+02 1.592724999999999909e+03
1.100000000000000006e-01 5.210485000000000255e-01 1.779664999999999964e+01 1.456985000000000241e+02 1.592545000000000073e+03
1.110000000000000014e-01 5.209129999999999594e-01 1.709960000000000235e+01 1.450244999999999891e+02 1.592344999999999800e+03
1.120000000000000023e-01 5.207619999999999472e-01 1.636864999999999881e+01 1.442644999999999982e+02 1.592115000000000009e+03
1.130000000000000032e-01 5.205954999999999888e-01 1.560539999999999949e+01 1.434219999999999970e+02 1.591869999999999891e+03
1.140000000000000041e-01 5.204154999999999198e-01 1.481332499999999897e+01 1.425054999999999836e+02 1.591590000000000146e+03
1.150000000000000050e-01 5.202249999999999375e-01 1.399816500000000019e+01 1.415255000000000223e+02 1.591300000000000182e+03
1.160000000000000059e-01 5.200270000000000170e-01 1.316739000000000104e+01 1.404970000000000141e+02 1.590990000000000009e+03
1.170000000000000068e-01 5.198239999999999528e-01 1.232996499999999962e+01 1.394379999999999882e+02 1.590670000000000073e+03
1.180000000000000077e-01 5.196209999999999996e-01 1.149607999999999919e+01 1.383675000000000068e+02 1.590340000000000146e+03
1.190000000000000085e-01 5.194204999999999517e-01 1.067642999999999986e+01 1.373059999999999832e+02 1.590014999999999873e+03
1.200000000000000094e-01 5.192280000000000229e-01 9.881964999999999222e+00 1.362744999999999891e+02 1.589695000000000164e+03
1.209999999999999964e-01 5.190464999999999662e-01 9.123374999999999346e+00 1.352924999999999898e+02 1.589380000000000109e+03
1.219999999999999973e-01 5.188789999999999791e-01 8.410519999999999996e+00 1.343785000000000025e+02 1.589090000000000146e+03
1.229999999999999982e-01 5.187279999999999669e-01 7.752139999999999809e+00 1.335490000000000066e+02 1.588819999999999936e+03
1.239999999999999991e-01 5.185969999999999747e-01 7.155364999999999753e+00 1.328160000000000025e+02 1.588569999999999936e+03
1.250000000000000000e-01 5.184855000000000436e-01 6.625524999999999665e+00 1.321899999999999977e+02 1.588355000000000018e+03
1.260000000000000009e-01 5.183959999999999679e-01 6.165929999999999467e+00 1.316754999999999995e+02 1.588174999999999955e+03
1.270000000000000018e-01 5.183274999999999411e-01 5.777770000000000294e+00 1.312749999999999773e+02 1.588025000000000091e+03
1.280000000000000027e-01 5.182795000000000041e-01 5.460155000000000314e+00 1.309855000000000018e+02 1.587905000000000200e+03
1.290000000000000036e-01 5.182504999999999473e-01 5.210250000000000270e+00 1.308009999999999877e+02 1.587820000000000164e+03
1.300000000000000044e-01 5.182385000000000463e-01 5.023480000000000167e+00 1.307124999999999773e+02 1.587764999999999873e+03
1.310000000000000053e-01 5.182415000000000216e-01 4.893815000000000026e+00 1.307069999999999936e+02 1.587735000000000127e+03
1.320000000000000062e-01 5.182554999999999801e-01 4.814085000000000392e+00 1.307710000000000150e+02 1.587724999999999909e+03
1.330000000000000071e-01 5.182789999999999342e-01 4.776349999999999874e+00 1.308890000000000100e+02 1.587744999999999891e+03
1.340000000000000080e-01 5.183079999999999909e-01 4.772264999999999979e+00 1.310459999999999923e+02 1.587769999999999982e+03
1.350000000000000089e-01 5.183404999999999818e-01 4.793415000000000425e+00 1.312259999999999991e+02 1.587804999999999836e+03
1.360000000000000098e-01 5.183729999999999727e-01 4.831620000000000026e+00 1.314134999999999991e+02 1.587849999999999909e+03
1.370000000000000107e-01 5.184039999999999759e-01 4.879229999999999734e+00 1.315964999999999918e+02 1.587889999999999873e+03
1.380000000000000115e-01 5.184315000000000451e-01 4.929339999999999833e+00 1.317630000000000052e+02 1.587934999999999945e+03
1.390000000000000124e-01 5.184529999999999417e-01 4.975954999999999906e+00 1.319030000000000200e+02 1.587974999999999909e+03
1.400000000000000133e-01 5.184684999999999988e-01 5.014104999999999812e+00 1.320099999999999909e+02 1.588005000000000109e+03
1.410000000000000142e-01 5.184759999999999369e-01 5.039899999999999380e+00 1.320790000000000077e+02 1.588025000000000091e+03
1.420000000000000151e-01 5.184765000000000068e-01 5.050549999999999429e+00 1.321064999999999827e+02 1.588034999999999854e+03
1.430000000000000160e-01 5.184695000000000276e-01 5.044335000000000235e+00 1.320925000000000011e+02 1.588030000000000200e+03
1.440000000000000169e-01 5.184545000000000403e-01 5.020545000000000258e+00 1.320380000000000109e+02 1.588019999999999982e+03
1.450000000000000178e-01 5.184340000000000614e-01 4.979375000000000107e+00 1.319455000000000098e+02 1.588000000000000000e+03
1.459999999999999909e-01 5.184070000000000622e-01 4.921794999999999476e+00 1.318195000000000050e+02 1.587970000000000027e+03
1.469999999999999918e-01 5.183754999999999891e-01 4.849470000000000169e+00 1.316645000000000039e+02 1.587924999999999955e+03
1.479999999999999927e-01 5.183404999999999818e-01 4.764545000000000030e+00 1.314864999999999782e+02 1.587875000000000000e+03
1.489999999999999936e-01 5.183024999999999993e-01 4.669545000000000279e+00 1.312914999999999850e+02 1.587820000000000164e+03
1.499999999999999944e-01 5.182630000000000292e-01 4.567204999999999515e+00 1.310844999999999914e+02 1.587764999999999873e+03
1.509999999999999953e-01 5.182229999999999892e-01 4.460325000000000095e+00 1.308704999999999927e+02 1.587704999999999927e+03
1.519999999999999962e-01 5.181835000000000191e-01 4.351650000000000240e+00 1.306564999999999941e+02 1.587639999999999873e+03
1.529999999999999971e-01 5.181445000000000078e-01 4.243714999999999904e+00 1.304459999999999980e+02 1.587574999999999818e+03
1.539999999999999980e-01 5.181074999999999431e-01 4.138785000000000380e+00 1.302420000000000186e+02 1.587514999999999873e+03
1.549999999999999989e-01 5.180724999999999358e-01 4.038744999999999585e+00 1.300470000000000255e+02 1.587454999999999927e+03
1.559999999999999998e-01 5.180394999999999861e-01 3.945084999999999731e+00 1.298634999999999877e+02 1.587394999999999982e+03
1.570000000000000007e-01 5.180090000000000527e-01 3.858855000000000146e+00 1.296910000000000025e+02 1.587340000000000146e+03
1.580000000000000016e-01 5.179804999999999549e-01 3.780694999999999695e+00 1.295305000000000177e+02 1.587295000000000073e+03
1.590000000000000024e-01 5.179540000000000255e-01 3.710835000000000328e+00 1.293804999999999836e+02 1.587240000000000009e+03
