# t [s], A [cm^2], U [cm/s], P [cPa], c [cm/s]
1.000000000000000021e-03 6.701675000000000271e-01 6.447600000000004716e-03 9.547785000000000366e+01 1.701954999999999927e+03
2.000000000000000042e-03 6.701544999999999863e-01 -5.402744999999999596e-03 9.544350000000000023e+01 1.701950000000000045e+03
3.000000000000000062e-03 6.702064999999999273e-01 8.616614999999999691e-02 9.554595000000000482e+01 1.701974999999999909e+03
4.000000000000000083e-03 6.702574999999999505e-01 1.901080500000000006e-01 9.567754999999999654e+01 1.702000000000000000e+03
5.000000000000000104e-03 6.702295000000000336e-01 1.684559999999999946e-01 9.561684999999999945e+01 1.701990000000000009e+03
6.000000000000000125e-03 6.701565000000000438e-01 6.570299999999998364e-02 9.537704999999999700e+01 1.701940000000000055e+03
7.000000000000000146e-03 6.700999999999999179e-01 -1.672000000000001263e-02 9.509909999999999286e+01 1.701880000000000109e+03
8.000000000000000167e-03 6.700129999999999697e-01 -1.661464999999999748e-01 9.469689999999999941e+01 1.701799999999999955e+03
9.000000000000001055e-03 6.698655000000000026e-01 -4.431199999999999584e-01 9.407094999999999629e+01 1.701670000000000073e+03
1.000000000000000194e-02 6.696554999999999591e-01 -8.474050000000000749e-01 9.318354999999999677e+01 1.701480000000000018e+03
1.099999999999999936e-02 6.693629999999999303e-01 -1.406930000000000014e+00 9.195920000000000982e+01 1.701224999999999909e+03
1.200000000000000025e-02 6.689749999999999863e-01 -2.126774999999999860e+00 9.034104999999999563e+01 1.700880000000000109e+03
1.300000000000000114e-02 6.685345000000000315e-01 -2.911799999999999944e+00 8.841039999999999566e+01 1.700464999999999918e+03
1.400000000000000203e-02 6.681159999999999322e-01 -3.592993499999999507e+00 8.638429999999999609e+01 1.700009999999999991e+03
1.499999999999999944e-02 6.677809999999999580e-01 -4.021752999999999467e+00 8.449875000000000114e+01 1.699565000000000055e+03
1.600000000000000033e-02 6.675454999999999028e-01 -4.137031499999999973e+00 8.289529999999999177e+01 1.699159999999999854e+03
1.700000000000000122e-02 6.673804999999999321e-01 -3.971459999999999546e+00 8.158084999999999809e+01 1.698809999999999945e+03
1.800000000000000211e-02 6.672344999999999526e-01 -3.616514999999999702e+00 8.045404999999999518e+01 1.698494999999999891e+03
1.900000000000000300e-02 6.670590000000000686e-01 -3.175444999999999851e+00 7.936639999999999873e+01 1.698184999999999945e+03
2.000000000000000042e-02 6.668250000000000011e-01 -2.723621000000000070e+00 7.818715000000000259e+01 1.697855000000000018e+03
2.100000000000000130e-02 6.665300000000000669e-01 -2.287171499999999913e+00 7.684985000000000355e+01 1.697494999999999891e+03
2.200000000000000219e-02 6.661945000000000228e-01 -1.844819999999999904e+00 7.536730000000000018e+01 1.697110000000000127e+03
2.299999999999999961e-02 6.658509999999999707e-01 -1.349865000000000093e+00 7.381145000000000778e+01 1.696710000000000036e+03
2.400000000000000050e-02 6.655260000000000620e-01 -7.608200000000000518e-01 7.227154999999999063e+01 1.696300000000000182e+03
2.500000000000000139e-02 6.652299999999999880e-01 -6.699499999999991573e-02 7.081020000000000891e+01 1.695909999999999854e+03
2.600000000000000228e-02 6.649549999999999628e-01 6.998099999999998211e-01 6.943375000000000341e+01 1.695529999999999973e+03
2.700000000000000316e-02 6.646720000000000406e-01 1.468814999999999760e+00 6.808485000000000298e+01 1.695159999999999854e+03
2.800000000000000058e-02 6.643474999999999797e-01 2.145704999999999973e+00 6.665545000000000186e+01 1.694779999999999973e+03
2.900000000000000147e-02 6.639459999999999251e-01 2.635184999999999889e+00 6.501619999999999777e+01 1.694355000000000018e+03
3.000000000000000236e-02 6.634434999999999638e-01 2.864899999999999558e+00 6.305344999999999800e+01 1.693869999999999891e+03
3.099999999999999978e-02 6.628384999999999971e-01 2.804344999999999644e+00 6.070479999999999876e+01 1.693309999999999945e+03
3.200000000000000067e-02 6.621475000000000000e-01 2.472380000000000244e+00 5.798154999999999859e+01 1.692670000000000073e+03
3.300000000000000155e-02 6.614054999999999795e-01 1.931075000000000319e+00 5.497050000000000125e+01 1.691969999999999800e+03
3.400000000000000244e-02 6.606574999999998976e-01 1.268489999999999451e+00 5.181569999999999965e+01 1.691220000000000027e+03
3.500000000000000333e-02 6.599470000000000613e-01 5.780099999999999127e-01 4.868880000000000052e+01 1.690474999999999909e+03
3.600000000000000422e-02 6.593089999999999229e-01 -5.907999999999979934e-02 4.575820000000000221e+01 1.689764999999999873e+03
3.700000000000000511e-02 6.587689999999999380e-01 -5.835950000000003079e-01 4.316530000000000200e+01 1.689115000000000009e+03
3.799999999999999906e-02 6.583379999999999788e-01 -9.611600000000000144e-01 4.101090000000000657e+01 1.688559999999999945e+03
3.899999999999999994e-02 6.580200000000000493e-01 -1.178834999999999855e+00 3.935240000000000293e+01 1.688115000000000009e+03
4.000000000000000083e-02 6.578105000000000757e-01 -1.238259999999999916e+00 3.820904999999999774e+01 1.687779999999999973e+03
4.100000000000000172e-02 6.577029999999999266e-01 -1.147607000000000044e+00 3.757229999999999848e+01 1.687559999999999945e+03
4.200000000000000261e-02 6.576899999999999968e-01 -9.144840000000000746e-01 3.741859999999999786e+01 1.687460000000000036e+03
4.300000000000000350e-02 6.577680000000000193e-01 -5.413544999999999607e-01 3.772050000000000125e+01 1.687480000000000018e+03
4.400000000000000439e-02 6.579340000000000188e-01 -2.437499999999981348e-02 3.845400000000000063e+01 1.687595000000000027e+03
4.499999999999999833e-02 6.581870000000000775e-01 6.445250000000000146e-01 3.960075000000000500e+01 1.687819999999999936e+03
4.599999999999999922e-02 6.585270000000000845e-01 1.473440000000000083e+00 4.114565000000000339e+01 1.688144999999999982e+03
4.700000000000000011e-02 6.589504999999999946e-01 2.465829999999999966e+00 4.307189999999999941e+01 1.688559999999999945e+03
4.800000000000000100e-02 6.594524999999999970e-01 3.616780000000000328e+00 4.535529999999999973e+01 1.689065000000000055e+03
4.900000000000000189e-02 6.600224999999999564e-01 4.911265000000000214e+00 4.796045000000000158e+01 1.689654999999999973e+03
5.000000000000000278e-02 6.606484999999999719e-01 6.324429499999999926e+00 5.083925000000000693e+01 1.690315000000000055e+03
5.100000000000000366e-02 6.613145000000000273e-01 7.823919499999999694e+00 5.393195000000000050e+01 1.691035000000000082e+03
5.200000000000000455e-02 6.620045000000001068e-01 9.372944999999999638e+00 5.717145000000000010e+01 1.691795000000000073e+03
5.300000000000000544e-02 6.627024999999999721e-01 1.093429500000000054e+01 6.048805000000000121e+01 1.692590000000000146e+03
5.399999999999999939e-02 6.633949999999999569e-01 1.247344499999999989e+01 6.381524999999999892e+01 1.693389999999999873e+03
5.500000000000000028e-02 6.640705000000000080e-01 1.396140499999999918e+01 6.709470000000000312e+01 1.694190000000000055e+03
5.600000000000000117e-02 6.647214999999999652e-01 1.537612500000000004e+01 7.028010000000000446e+01 1.694980000000000018e+03
5.700000000000000205e-02 6.653435000000000876e-01 1.670285000000000153e+01 7.333915000000000362e+01 1.695750000000000000e+03
5.800000000000000294e-02 6.659349999999999437e-01 1.793374999999999986e+01 7.625370000000000914e+01 1.696484999999999900e+03
5.900000000000000383e-02 6.664974999999999650e-01 1.906719999999999970e+01 7.901895000000000380e+01 1.697200000000000045e+03
6.000000000000000472e-02 6.670335000000000569e-01 2.010580000000000211e+01 8.164124999999999943e+01 1.697875000000000000e+03
6.099999999999999867e-02 6.675470000000000015e-01 2.105555000000000021e+01 8.413519999999999754e+01 1.698525000000000091e+03
6.199999999999999956e-02 6.680435000000000123e-01 2.192454999999999998e+01 8.652139999999999986e+01 1.699144999999999982e+03
6.300000000000000044e-02 6.685280000000000111e-01 2.272165000000000035e+01 8.882290000000000418e+01 1.699744999999999891e+03
6.400000000000000133e-02 6.690045000000000019e-01 2.345579999999999998e+01 9.106319999999999482e+01 1.700335000000000036e+03
6.500000000000000222e-02 6.694765000000000299e-01 2.413499999999999801e+01 9.326345000000000596e+01 1.700904999999999973e+03
6.600000000000000311e-02 6.699475000000000291e-01 2.476559999999999917e+01 9.544044999999999845e+01 1.701470000000000027e+03
6.700000000000000400e-02 6.704179999999999584e-01 2.535159999999999769e+01 9.760495000000000232e+01 1.702039999999999964e+03
6.800000000000000488e-02 6.708879999999999288e-01 2.589460000000000051e+01 9.976015000000001010e+01 1.702595000000000027e+03
6.900000000000000577e-02 6.713554999999999939e-01 2.639339999999999975e+01 1.019034000000000049e+02 1.703150000000000091e+03
7.000000000000000666e-02 6.718174999999999564e-01 2.684459999999999980e+01 1.040234999999999985e+02 1.703694999999999936e+03
7.100000000000000755e-02 6.722695000000000753e-01 2.724280000000000257e+01 1.061039999999999992e+02 1.704240000000000009e+03
7.200000000000000844e-02 6.727069999999999439e-01 2.758169999999999789e+01 1.081250000000000000e+02 1.704764999999999873e+03
7.300000000000000933e-02 6.731245000000000145e-01 2.785455000000000325e+01 1.100629999999999882e+02 1.705275000000000091e+03
7.399999999999999634e-02 6.735174999999999912e-01 2.805495000000000161e+01 1.118944999999999936e+02 1.705755000000000109e+03
7.499999999999999722e-02 6.738815000000000222e-01 2.817745000000000033e+01 1.135979999999999990e+02 1.706204999999999927e+03
7.599999999999999811e-02 6.742120000000000335e-01 2.821795000000000186e+01 1.151534999999999940e+02 1.706625000000000000e+03
7.699999999999999900e-02 6.745069999999999677e-01 2.817374999999999829e+01 1.165455000000000041e+02 1.707010000000000218e+03
7.799999999999999989e-02 6.747650000000000592e-01 2.804379999999999740e+01 1.177609999999999957e+02 1.707345000000000027e+03
7.900000000000000078e-02 6.749834999999999585e-01 2.782854999999999990e+01 1.187934999999999945e+02 1.707634999999999991e+03
8.000000000000000167e-02 6.751629999999999576e-01 2.753004999999999924e+01 1.196394999999999982e+02 1.707884999999999991e+03
8.100000000000000255e-02 6.753035000000000565e-01 2.715174999999999983e+01 1.203004999999999995e+02 1.708085000000000036e+03
8.200000000000000344e-02 6.754074999999999385e-01 2.669879999999999853e+01 1.207804999999999893e+02 1.708239999999999782e+03
8.300000000000000433e-02 6.754750000000000476e-01 2.617759999999999820e+01 1.210889999999999986e+02 1.708355000000000018e+03
8.400000000000000522e-02 6.755109999999999726e-01 2.559615000000000151e+01 1.212385000000000019e+02 1.708424999999999955e+03
8.500000000000000611e-02 6.755174999999999930e-01 2.496365000000000123e+01 1.212439999999999998e+02 1.708460000000000036e+03
8.600000000000000699e-02 6.754990000000000716e-01 2.429054999999999964e+01 1.211250000000000000e+02 1.708460000000000036e+03
8.700000000000000788e-02 6.754599999999999493e-01 2.358794999999999931e+01 1.209000000000000057e+02 1.708425000000000182e+03
8.800000000000000877e-02 6.754050000000000331e-01 2.286744999999999806e+01 1.205925000000000011e+02 1.708375000000000000e+03
8.899999999999999578e-02 6.753384999999999527e-01 2.214054999999999751e+01 1.202229999999999990e+02 1.708299999999999955e+03
8.999999999999999667e-02 6.752650000000000041e-01 2.141805000000000092e+01 1.198139999999999930e+02 1.708215000000000146e+03
9.099999999999999756e-02 6.751884999999999692e-01 2.070989999999999753e+01 1.193850000000000051e+02 1.708119999999999891e+03
9.199999999999999845e-02 6.751125000000000043e-01 2.002414999999999878e+01 1.189534999999999911e+02 1.708014999999999873e+03
9.299999999999999933e-02 6.750389999999999446e-01 1.936700000000000088e+01 1.185339999999999918e+02 1.707914999999999964e+03
9.400000000000000022e-02 6.749700000000000699e-01 1.874269999999999925e+01 1.181355000000000075e+02 1.707815000000000055e+03
9.500000000000000111e-02 6.749065000000000758e-01 1.815285000000000082e+01 1.177655000000000030e+02 1.707720000000000027e+03
9.600000000000000200e-02 6.748475000000000446e-01 1.759730000000000061e+01 1.174254999999999995e+02 1.707630000000000109e+03
9.700000000000000289e-02 6.747929999999999762e-01 1.707359999999999900e+01 1.171140000000000043e+02 1.707549999999999955e+03
9.800000000000000377e-02 6.747410000000000352e-01 1.657774999999999821e+01 1.168250000000000028e+02 1.707469999999999800e+03
9.900000000000000466e-02 6.746900000000000119e-01 1.610435000000000016e+01 1.165504999999999995e+02 1.707394999999999982e+03
1.000000000000000056e-01 6.746375000000000011e-01 1.564714999999999989e+01 1.162810000000000059e+02 1.707324999999999818e+03
1.010000000000000064e-01 6.745805000000000273e-01 1.519930000000000092e+01 1.160039999999999907e+02 1.707250000000000000e+03
1.020000000000000073e-01 6.745174999999999921e-01 1.475384999999999991e+01 1.157090000000000032e+02 1.707164999999999964e+03
1.030000000000000082e-01 6.744455000000000311e-01 1.430399999999999849e+01 1.153830000000000098e+02 1.707085000000000036e+03
1.040000000000000091e-01 6.743624999999999758e-01 1.384355000000000047e+01 1.150169999999999959e+02 1.706994999999999891e+03
1.050000000000000100e-01 6.742679999999999785e-01 1.336734999999999829e+01 1.146009999999999991e+02 1.706889999999999873e+03
1.059999999999999970e-01 6.741599999999999815e-01 1.287134999999999962e+01 1.141299999999999955e+02 1.706775000000000091e+03
1.069999999999999979e-01 6.740384999999999849e-01 1.235292499999999905e+01 1.135989999999999895e+02 1.706644999999999982e+03
1.079999999999999988e-01 6.739040000000000585e-01 1.181121500000000069e+01 1.130090000000000003e+02 1.706500000000000000e+03
1.089999999999999997e-01 6.737575000000000092e-01 1.124706499999999920e+01 1.123619999999999948e+02 1.706345000000000027e+03
1.100000000000000006e-01 6.736005000000000464e-01 1.066291999999999973e+01 1.116645000000000039e+02 1.706180000000000064e+03
1.110000000000000014e-01 6.734359999999999236e-01 1.006304000000000087e+01 1.109254999999999995e+02 1.705994999999999891e+03
1.120000000000000023e-01 6.732670000000000599e-01 9.453079999999999927e+00 1.101570000000000107e+02 1.705809999999999945e+03
1.130000000000000032e-01 6.730964999999999865e-01 8.839870000000001227e+00 1.093745000000000118e+02 1.705619999999999891e+03
1.140000000000000041e-01 6.729275000000000118e-01 8.231139999999999901e+00 1.085919999999999987e+02 1.705424999999999955e+03
1.150000000000000050e-01 6.727639999999999176e-01 7.635099999999999554e+00 1.078280000000000030e+02 1.705234999999999900e+03
1.160000000000000059e-01 6.726110000000000699e-01 7.060094999999999565e+00 1.070985000000000014e+02 1.705055000000000064e+03
1.170000000000000068e-01 6.724700000000000122e-01 6.514110000000000511e+00 1.064200000000000017e+02 1.704880000000000109e+03
1.180000000000000077e-01 6.723455000000000403e-01 6.004490000000000549e+00 1.058075000000000045e+02 1.704720000000000027e+03
1.190000000000000085e-01 6.722384999999999611e-01 5.537575000000000358e+00 1.052740000000000009e+02 1.704579999999999927e+03
1.200000000000000094e-01 6.721515000000000128e-01 5.118400000000000283e+00 1.048284999999999911e+02 1.704454999999999927e+03
1.209999999999999964e-01 6.720859999999999612e-01 4.750484999999999403e+00 1.044779999999999944e+02 1.704355000000000018e+03
1.219999999999999973e-01 6.720409999999999995e-01 4.435729999999999507e+00 1.042259999999999991e+02 1.704279999999999973e+03
1.229999999999999982e-01 6.720170000000000865e-01 4.174375000000000391e+00 1.040720000000000027e+02 1.704230000000000018e+03
1.239999999999999991e-01 6.720135000000000414e-01 3.965069999999999872e+00 1.040134999999999934e+02 1.704195000000000164e+03
1.250000000000000000e-01 6.720269999999999300e-01 3.804999999999999716e+00 1.040424999999999898e+02 1.704184999999999945e+03
1.260000000000000009e-01 6.720565000000000566e-01 3.690104999999999968e+00 1.041514999999999986e+02 1.704195000000000164e+03
1.270000000000000018e-01 6.720999999999999197e-01 3.615334999999999965e+00 1.043290000000000077e+02 1.704230000000000018e+03
1.280000000000000027e-01 6.721534999999999593e-01 3.574939999999999785e+00 1.045619999999999976e+02 1.704269999999999982e+03
1.290000000000000036e-01 6.722144999999999371e-01 3.562769999999999992e+00 1.048379999999999939e+02 1.704329999999999927e+03
1.300000000000000044e-01 6.722799999999999887e-01 3.572540000000000049e+00 1.051435000000000031e+02 1.704394999999999982e+03
1.310000000000000053e-01 6.723485000000000156e-01 3.598094999999999821e+00 1.054654999999999916e+02 1.704460000000000036e+03
1.320000000000000062e-01 6.724164999999999726e-01 3.633600000000000385e+00 1.057930000000000064e+02 1.704539999999999964e+03
1.330000000000000071e-01 6.724824999999999831e-01 3.673715000000000064e+00 1.061144999999999925e+02 1.704615000000000009e+03
1.340000000000000080e-01 6.725449999999999484e-01 3.713700000000000223e+00 1.064224999999999994e+02 1.704690000000000055e+03
1.350000000000000089e-01 6.726024999999999920e-01 3.749519999999999964e+00 1.067085000000000008e+02 1.704760000000000218e+03
1.360000000000000098e-01 6.726535000000000153e-01 3.777865000000000251e+00 1.069675000000000011e+02 1.704820000000000164e+03
1.370000000000000107e-01 6.726980000000000182e-01 3.796164999999999790e+00 1.071955000000000098e+02 1.704884999999999991e+03
1.380000000000000115e-01 6.727360000000000007e-01 3.802599999999999980e+00 1.073905000000000030e+02 1.704934999999999945e+03
1.390000000000000124e-01 6.727665000000000450e-01 3.796059999999999768e+00 1.075515000000000043e+02 1.704974999999999909e+03
1.400000000000000133e-01 6.727909999999999169e-01 3.776124999999999954e+00 1.076800000000000068e+02 1.705014999999999873e+03
1.410000000000000142e-01 6.728089999999999904e-01 3.742970000000000130e+00 1.077764999999999986e+02 1.705039999999999964e+03
1.420000000000000151e-01 6.728210000000000024e-01 3.697334999999999816e+00 1.078439999999999941e+02 1.705065000000000055e+03
1.430000000000000160e-01 6.728285000000000515e-01 3.640425000000000022e+00 1.078859999999999957e+02 1.705079999999999927e+03
1.440000000000000169e-01 6.728324999999999445e-01 3.573799999999999866e+00 1.079070000000000107e+02 1.705090000000000146e+03
1.450000000000000178e-01 6.728324999999999445e-01 3.499299999999999855e+00 1.079094999999999942e+02 1.705094999999999800e+03
1.459999999999999909e-01 6.728309999999999569e-01 3.418879999999999697e+00 1.078984999999999985e+02 1.705094999999999800e+03
1.469999999999999918e-01 6.728275000000000228e-01 3.334569999999999812e+00 1.078780000000000001e+02 1.705094999999999800e+03
1.479999999999999927e-01 6.728229999999999489e-01 3.248275000000000023e+00 1.078509999999999991e+02 1.705094999999999800e+03
1.489999999999999936e-01 6.728190000000000559e-01 3.161755000000000315e+00 1.078209999999999980e+02 1.705085000000000036e+03
1.499999999999999944e-01 6.728149999999999409e-01 3.076509999999999856e+00 1.077904999999999944e+02 1.705079999999999927e+03
1.509999999999999953e-01 6.728115000000000068e-01 2.993710000000000093e+00 1.077609999999999957e+02 1.705074999999999818e+03
1.519999999999999962e-01 6.728080000000000727e-01 2.914190000000000058e+00 1.077334999999999923e+02 1.705069999999999936e+03
1.529999999999999971e-01 6.728049999999999864e-01 2.838415000000000354e+00 1.077069999999999936e+02 1.705065000000000055e+03
1.539999999999999980e-01 6.728024999999999700e-01 2.766519999999999868e+00 1.076814999999999998e+02 1.705059999999999945e+03
1.549999999999999989e-01 6.727994999999999948e-01 2.698350000000000026e+00 1.076560000000000059e+02 1.705054999999999836e+03
1.559999999999999998e-01 6.727959999999999496e-01 2.633510000000000240e+00 1.076285000000000025e+02 1.705045000000000073e+03
1.570000000000000007e-01 6.727904999999999580e-01 2.571464999999999890e+00 1.075960000000000036e+02 1.705034999999999854e+03
1.580000000000000016e-01 6.727845000000000075e-01 2.511594999999999800e+00 1.075575000000000045e+02 1.705025000000000091e+03
1.590000000000000024e-01 6.727754999999999708e-01 2.453314999999999912e+00 1.075099999999999909e+02 1.705019999999999982e+03
