# t [s], A [cm^2], U [cm/s], P [cPa], c [cm/s]
1.000000000000000021e-03 7.635030000000000427e-01 3.812700000000002198e-03 9.958664999999999168e+01 1.610159999999999854e+03
2.000000000000000042e-03 7.634944999999999649e-01 4.389794999999999288e-03 9.956374999999999886e+01 1.610150000000000091e+03
3.000000000000000062e-03 7.635745000000000449e-01 1.233816500000000094e-01 9.969110000000000582e+01 1.610184999999999945e+03
4.000000000000000083e-03 7.636224999999999818e-01 2.066060000000000119e-01 9.979375000000000284e+01 1.610204999999999927e+03
5.000000000000000104e-03 7.635715000000000696e-01 1.516534999999999966e-01 9.968635000000000446e+01 1.610184999999999945e+03
6.000000000000000125e-03 7.634879999999999445e-01 4.180599999999995431e-02 9.942480000000000473e+01 1.610135000000000218e+03
7.000000000000000146e-03 7.634020000000000250e-01 -8.201299999999994705e-02 9.907339999999999236e+01 1.610065000000000055e+03
8.000000000000000167e-03 7.632520000000000415e-01 -3.152899999999999592e-01 9.852190000000000225e+01 1.609954999999999927e+03
9.000000000000001055e-03 7.630120000000000235e-01 -6.960699999999999665e-01 9.768379999999999086e+01 1.609784999999999854e+03
1.000000000000000194e-02 7.626764999999999795e-01 -1.225065000000000293e+00 9.651154999999999973e+01 1.609545000000000073e+03
1.099999999999999936e-02 7.622214999999999963e-01 -1.920545000000000169e+00 9.493684999999999263e+01 1.609220000000000027e+03
1.200000000000000025e-02 7.616484999999999506e-01 -2.758195000000000174e+00 9.294034999999999513e+01 1.608795000000000073e+03
1.300000000000000114e-02 7.610170000000000545e-01 -3.618644999999999889e+00 9.063915000000000077e+01 1.608295000000000073e+03
1.400000000000000203e-02 7.604189999999999561e-01 -4.326539499999999983e+00 8.826810000000000400e+01 1.607759999999999991e+03
1.499999999999999944e-02 7.599279999999999369e-01 -4.736425999999999803e+00 8.607330000000000325e+01 1.607235000000000127e+03
1.600000000000000033e-02 7.595644999999999758e-01 -4.790284999999999904e+00 8.421110000000000184e+01 1.606764999999999873e+03
1.700000000000000122e-02 7.593010000000000037e-01 -4.522864999999999469e+00 8.270680000000000121e+01 1.606360000000000127e+03
1.800000000000000211e-02 7.590810000000000057e-01 -4.030965000000000131e+00 8.147155000000000769e+01 1.605994999999999891e+03
1.900000000000000300e-02 7.588429999999999342e-01 -3.429090500000000041e+00 8.035405000000000086e+01 1.605659999999999854e+03
2.000000000000000042e-02 7.585469999999999713e-01 -2.808390500000000234e+00 7.920449999999999591e+01 1.605324999999999818e+03
2.100000000000000130e-02 7.581799999999999651e-01 -2.211618500000000154e+00 7.792624999999999602e+01 1.604965000000000146e+03
2.200000000000000219e-02 7.577585000000000015e-01 -1.632110000000000172e+00 7.649809999999999377e+01 1.604579999999999927e+03
2.299999999999999961e-02 7.573134999999999728e-01 -1.034929999999999906e+00 7.496100000000001273e+01 1.604174999999999955e+03
2.400000000000000050e-02 7.568699999999999317e-01 -3.875700000000001921e-01 7.337975000000000136e+01 1.603755000000000109e+03
2.500000000000000139e-02 7.564389999999999725e-01 3.145350000000002311e-01 7.180140000000000100e+01 1.603335000000000036e+03
2.600000000000000228e-02 7.560099999999999598e-01 1.036700000000000177e+00 7.022629999999999484e+01 1.602909999999999854e+03
2.700000000000000316e-02 7.555525000000000713e-01 1.709039999999999893e+00 6.859995000000000687e+01 1.602474999999999909e+03
2.800000000000000058e-02 7.550289999999999502e-01 2.242085000000000328e+00 6.682439999999999714e+01 1.602009999999999991e+03
2.900000000000000147e-02 7.544024999999999759e-01 2.548414999999999875e+00 6.478485000000000582e+01 1.601490000000000009e+03
3.000000000000000236e-02 7.536490000000000133e-01 2.564675000000000260e+00 6.238299999999999557e+01 1.600904999999999973e+03
3.099999999999999978e-02 7.527654999999999763e-01 2.268054999999999932e+00 5.956835000000000235e+01 1.600230000000000018e+03
3.200000000000000067e-02 7.517730000000000246e-01 1.682794999999999597e+00 5.635899999999999466e+01 1.599474999999999909e+03
3.300000000000000155e-02 7.507120000000000459e-01 8.753700000000002035e-01 5.284510000000000218e+01 1.598650000000000091e+03
3.400000000000000244e-02 7.496369999999999978e-01 -5.995000000000061391e-02 4.917605000000000359e+01 1.597785000000000082e+03
3.500000000000000333e-02 7.486040000000000472e-01 -1.019129999999999647e+00 4.553584999999999638e+01 1.596914999999999964e+03
3.600000000000000422e-02 7.476639999999999953e-01 -1.904900000000000038e+00 4.211520000000000152e+01 1.596079999999999927e+03
3.700000000000000511e-02 7.468585000000000917e-01 -2.638380000000000170e+00 3.908644999999999925e+01 1.595319999999999936e+03
3.799999999999999906e-02 7.462145000000000028e-01 -3.164355000000000029e+00 3.658619999999999806e+01 1.594664999999999964e+03
3.899999999999999994e-02 7.457469999999999377e-01 -3.451020000000000199e+00 3.470689999999999742e+01 1.594139999999999873e+03
4.000000000000000083e-02 7.454609999999999292e-01 -3.485618999999999801e+00 3.349680000000000035e+01 1.593769999999999982e+03
4.100000000000000172e-02 7.453514999999999446e-01 -3.268309999999999604e+00 3.296604999999999563e+01 1.593550000000000182e+03
4.200000000000000261e-02 7.454119999999999635e-01 -2.806054999999999744e+00 3.309675000000000011e+01 1.593485000000000127e+03
4.300000000000000350e-02 7.456320000000000725e-01 -2.108047000000000004e+00 3.385340000000000060e+01 1.593570000000000164e+03
4.400000000000000439e-02 7.460005000000000663e-01 -1.183564999999999978e+00 3.519100000000000250e+01 1.593805000000000064e+03
4.499999999999999833e-02 7.465074999999999905e-01 -4.227500000000006253e-02 3.706040000000000134e+01 1.594164999999999964e+03
4.599999999999999922e-02 7.471399999999999153e-01 1.303824999999999790e+00 3.940964999999999918e+01 1.594654999999999973e+03
4.700000000000000011e-02 7.478854999999999809e-01 2.837839999999999918e+00 4.218354999999999677e+01 1.595250000000000000e+03
4.800000000000000100e-02 7.487260000000000026e-01 4.536075000000000301e+00 4.532144999999999868e+01 1.595944999999999936e+03
4.900000000000000189e-02 7.496439999999999770e-01 6.367175000000000473e+00 4.875600000000000023e+01 1.596719999999999800e+03
5.000000000000000278e-02 7.506169999999999787e-01 8.293252499999999472e+00 5.241369999999999862e+01 1.597559999999999945e+03
5.100000000000000366e-02 7.516229999999999301e-01 1.027184249999999999e+01 5.621625000000000227e+01 1.598450000000000045e+03
5.200000000000000455e-02 7.526409999999998934e-01 1.225895500000000027e+01 6.008444999999999681e+01 1.599365000000000009e+03
5.300000000000000544e-02 7.536495000000000832e-01 1.421251499999999979e+01 6.394254999999999711e+01 1.600295000000000073e+03
5.399999999999999939e-02 7.546315000000000106e-01 1.609500999999999848e+01 6.772254999999999825e+01 1.601214999999999918e+03
5.500000000000000028e-02 7.555749999999999966e-01 1.787584999999999980e+01 7.136860000000000070e+01 1.602119999999999891e+03
5.600000000000000117e-02 7.564694999999999059e-01 1.953269999999999840e+01 7.483934999999999604e+01 1.602994999999999891e+03
5.700000000000000205e-02 7.573119999999999852e-01 2.105165000000000219e+01 7.810954999999999870e+01 1.603829999999999927e+03
5.800000000000000294e-02 7.581020000000000536e-01 2.242705000000000126e+01 8.116989999999999839e+01 1.604625000000000000e+03
5.900000000000000383e-02 7.588424999999999754e-01 2.366029999999999944e+01 8.402565000000001305e+01 1.605375000000000000e+03
6.000000000000000472e-02 7.595404999999999518e-01 2.475874999999999915e+01 8.669450000000000500e+01 1.606085000000000036e+03
6.099999999999999867e-02 7.602035000000000320e-01 2.573434999999999917e+01 8.920365000000001032e+01 1.606755000000000109e+03
6.199999999999999956e-02 7.608405000000000307e-01 2.660210000000000008e+01 9.158664999999999168e+01 1.607394999999999982e+03
6.300000000000000044e-02 7.614615000000000133e-01 2.737904999999999944e+01 9.388085000000000946e+01 1.608014999999999873e+03
6.400000000000000133e-02 7.620765000000000455e-01 2.808279999999999887e+01 9.612389999999999191e+01 1.608615000000000009e+03
6.500000000000000222e-02 7.626935000000000242e-01 2.873044999999999760e+01 9.835099999999999909e+01 1.609210000000000036e+03
6.600000000000000311e-02 7.633194999999999286e-01 2.933760000000000190e+01 1.005927499999999952e+02 1.609805000000000064e+03
6.700000000000000400e-02 7.639605000000000423e-01 2.991709999999999781e+01 1.028729500000000030e+02 1.610404999999999973e+03
6.800000000000000488e-02 7.646185000000000898e-01 3.047804999999999964e+01 1.052065000000000055e+02 1.611014999999999873e+03
6.900000000000000577e-02 7.652939999999999188e-01 3.102564999999999884e+01 1.075985000000000014e+02 1.611634999999999991e+03
7.000000000000000666e-02 7.659834999999999283e-01 3.156054999999999922e+01 1.100440000000000111e+02 1.612264999999999873e+03
7.100000000000000755e-02 7.666824999999999335e-01 3.207905000000000229e+01 1.125275000000000034e+02 1.612904999999999973e+03
7.200000000000000844e-02 7.673829999999999263e-01 3.257375000000000398e+01 1.150250000000000057e+02 1.613545000000000073e+03
7.300000000000000933e-02 7.680759999999999810e-01 3.303385000000000105e+01 1.175049999999999955e+02 1.614190000000000055e+03
7.399999999999999634e-02 7.687509999999999621e-01 3.344684999999999775e+01 1.199319999999999879e+02 1.614820000000000164e+03
7.499999999999999722e-02 7.693980000000000263e-01 3.379894999999999783e+01 1.222674999999999983e+02 1.615429999999999836e+03
7.599999999999999811e-02 7.700065000000000381e-01 3.407654999999999745e+01 1.244720000000000084e+02 1.616009999999999991e+03
7.699999999999999900e-02 7.705670000000000019e-01 3.426685000000000514e+01 1.265105000000000075e+02 1.616559999999999945e+03
7.799999999999999989e-02 7.710719999999999796e-01 3.435909999999999798e+01 1.283505000000000109e+02 1.617055000000000064e+03
7.900000000000000078e-02 7.715144999999999920e-01 3.434505000000000052e+01 1.299669999999999845e+02 1.617505000000000109e+03
8.000000000000000167e-02 7.718914999999999527e-01 3.421920000000000073e+01 1.313405000000000200e+02 1.617900000000000091e+03
8.100000000000000255e-02 7.721999999999999975e-01 3.397939999999999827e+01 1.324604999999999961e+02 1.618230000000000018e+03
8.200000000000000344e-02 7.724394999999999456e-01 3.362684999999999746e+01 1.333249999999999886e+02 1.618494999999999891e+03
8.300000000000000433e-02 7.726120000000000765e-01 3.316610000000000014e+01 1.339375000000000000e+02 1.618710000000000036e+03
8.400000000000000522e-02 7.727230000000000487e-01 3.260464999999999947e+01 1.343120000000000118e+02 1.618855000000000018e+03
8.500000000000000611e-02 7.727755000000000596e-01 3.195299999999999940e+01 1.344664999999999964e+02 1.618945000000000164e+03
8.600000000000000699e-02 7.727785000000000348e-01 3.122379999999999711e+01 1.344254999999999995e+02 1.618985000000000127e+03
8.700000000000000788e-02 7.727379999999999249e-01 3.043169999999999931e+01 1.342179999999999893e+02 1.618974999999999909e+03
8.800000000000000877e-02 7.726629999999999887e-01 2.959244999999999948e+01 1.338750000000000000e+02 1.618930000000000064e+03
8.899999999999999578e-02 7.725625000000000409e-01 2.872255000000000180e+01 1.334300000000000068e+02 1.618855000000000018e+03
8.999999999999999667e-02 7.724455000000000071e-01 2.783829999999999671e+01 1.329149999999999920e+02 1.618755000000000109e+03
9.099999999999999756e-02 7.723189999999999777e-01 2.695524999999999949e+01 1.323625000000000114e+02 1.618639999999999873e+03
9.199999999999999845e-02 7.721910000000000718e-01 2.608755000000000024e+01 1.318009999999999877e+02 1.618515000000000100e+03
9.299999999999999933e-02 7.720674999999999066e-01 2.524739999999999895e+01 1.312554999999999836e+02 1.618394999999999982e+03
9.400000000000000022e-02 7.719540000000000290e-01 2.444460000000000122e+01 1.307464999999999975e+02 1.618269999999999982e+03
9.500000000000000111e-02 7.718525000000000524e-01 2.368614999999999782e+01 1.302890000000000157e+02 1.618159999999999854e+03
9.600000000000000200e-02 7.717665000000000219e-01 2.297594999999999743e+01 1.298919999999999959e+02 1.618054999999999836e+03
9.700000000000000289e-02 7.716959999999999376e-01 2.231530000000000058e+01 1.295595000000000141e+02 1.617960000000000036e+03
9.800000000000000377e-02 7.716389999999999638e-01 2.170230000000000103e+01 1.292880000000000109e+02 1.617885000000000218e+03
9.900000000000000466e-02 7.715940000000000021e-01 2.113264999999999816e+01 1.290709999999999980e+02 1.617820000000000164e+03
1.000000000000000056e-01 7.715579999999999661e-01 2.059994999999999976e+01 1.288969999999999914e+02 1.617769999999999982e+03
1.010000000000000064e-01 7.715250000000000163e-01 2.009595000000000198e+01 1.287500000000000000e+02 1.617720000000000027e+03
1.020000000000000073e-01 7.714920000000000666e-01 1.961124999999999829e+01 1.286129999999999995e+02 1.617674999999999955e+03
1.030000000000000082e-01 7.714529999999999443e-01 1.913595000000000113e+01 1.284675000000000011e+02 1.617630000000000109e+03
1.040000000000000091e-01 7.714039999999999786e-01 1.865995000000000203e+01 1.282944999999999993e+02 1.617579999999999927e+03
1.050000000000000100e-01 7.713404999999999845e-01 1.817379999999999995e+01 1.280759999999999934e+02 1.617525000000000091e+03
1.059999999999999970e-01 7.712574999999999292e-01 1.766904999999999859e+01 1.277975000000000136e+02 1.617450000000000045e+03
1.069999999999999979e-01 7.711540000000000061e-01 1.713864999999999839e+01 1.274445000000000050e+02 1.617369999999999891e+03
1.079999999999999988e-01 7.710259999999999891e-01 1.657740000000000080e+01 1.270095000000000027e+02 1.617264999999999873e+03
1.089999999999999997e-01 7.708745000000000180e-01 1.598230000000000040e+01 1.264865000000000066e+02 1.617140000000000100e+03
1.100000000000000006e-01 7.706990000000000229e-01 1.535254999999999903e+01 1.258755000000000024e+02 1.616994999999999891e+03
1.110000000000000014e-01 7.705014999999999503e-01 1.468975000000000009e+01 1.251800000000000068e+02 1.616829999999999927e+03
1.120000000000000023e-01 7.702839999999999687e-01 1.399765000000000015e+01 1.244089999999999918e+02 1.616644999999999982e+03
1.130000000000000032e-01 7.700514999999999999e-01 1.328221000000000096e+01 1.235750000000000028e+02 1.616449999999999818e+03
1.140000000000000041e-01 7.698085000000000067e-01 1.255123999999999995e+01 1.226935000000000002e+02 1.616234999999999900e+03
1.150000000000000050e-01 7.695589999999999931e-01 1.181400499999999987e+01 1.217829999999999870e+02 1.616014999999999873e+03
1.160000000000000059e-01 7.693099999999999383e-01 1.108064500000000052e+01 1.208644999999999925e+02 1.615789999999999964e+03
1.170000000000000068e-01 7.690669999999999451e-01 1.036211499999999930e+01 1.199600000000000080e+02 1.615565000000000055e+03
1.180000000000000077e-01 7.688349999999999351e-01 9.669259999999999522e+00 1.190895000000000010e+02 1.615349999999999909e+03
1.190000000000000085e-01 7.686205000000000398e-01 9.012484999999999857e+00 1.182744999999999891e+02 1.615139999999999873e+03
1.200000000000000094e-01 7.684269999999999712e-01 8.401385000000001213e+00 1.175324999999999989e+02 1.614950000000000045e+03
1.209999999999999964e-01 7.682594999999999841e-01 7.844059999999999810e+00 1.168804999999999978e+02 1.614775000000000091e+03
1.219999999999999973e-01 7.681195000000000661e-01 7.346999999999999531e+00 1.163290000000000077e+02 1.614625000000000000e+03
1.229999999999999982e-01 7.680104999999999293e-01 6.914740000000000109e+00 1.158875000000000028e+02 1.614494999999999891e+03
1.239999999999999991e-01 7.679314999999999891e-01 6.549674999999999692e+00 1.155604999999999905e+02 1.614390000000000100e+03
1.250000000000000000e-01 7.678830000000000933e-01 6.252114999999999867e+00 1.153464999999999918e+02 1.614320000000000164e+03
1.260000000000000009e-01 7.678625000000000034e-01 6.020270000000000010e+00 1.152415000000000020e+02 1.614269999999999982e+03
1.270000000000000018e-01 7.678690000000000238e-01 5.850464999999999804e+00 1.152390000000000043e+02 1.614250000000000000e+03
1.280000000000000027e-01 7.678979999999999695e-01 5.737370000000000303e+00 1.153265000000000100e+02 1.614250000000000000e+03
1.290000000000000036e-01 7.679460000000000175e-01 5.674294999999999867e+00 1.154904999999999973e+02 1.614269999999999982e+03
1.300000000000000044e-01 7.680089999999999417e-01 5.653570000000000206e+00 1.157160000000000082e+02 1.614304999999999836e+03
1.310000000000000053e-01 7.680825000000000014e-01 5.666869999999999408e+00 1.159875000000000114e+02 1.614360000000000127e+03
1.320000000000000062e-01 7.681620000000000115e-01 5.705610000000000070e+00 1.162870000000000061e+02 1.614420000000000073e+03
1.330000000000000071e-01 7.682430000000000092e-01 5.761269999999999669e+00 1.165995000000000061e+02 1.614485000000000127e+03
1.340000000000000080e-01 7.683225000000000193e-01 5.825720000000000454e+00 1.169095000000000084e+02 1.614549999999999955e+03
1.350000000000000089e-01 7.683964999999999268e-01 5.891455000000000553e+00 1.172040000000000077e+02 1.614619999999999891e+03
1.360000000000000098e-01 7.684630000000000072e-01 5.951830000000000176e+00 1.174714999999999918e+02 1.614684999999999945e+03
1.370000000000000107e-01 7.685184999999999933e-01 6.001240000000000130e+00 1.177034999999999911e+02 1.614740000000000009e+03
1.380000000000000115e-01 7.685629999999999962e-01 6.035175000000000622e+00 1.178925000000000125e+02 1.614789999999999964e+03
1.390000000000000124e-01 7.685950000000000282e-01 6.050329999999999764e+00 1.180345000000000084e+02 1.614825000000000045e+03
1.400000000000000133e-01 7.686135000000000606e-01 6.044579999999999842e+00 1.181280000000000001e+02 1.614855000000000018e+03
1.410000000000000142e-01 7.686204999999999288e-01 6.016930000000000334e+00 1.181730000000000018e+02 1.614869999999999891e+03
1.420000000000000151e-01 7.686150000000000482e-01 5.967489999999999739e+00 1.181715000000000089e+02 1.614875000000000000e+03
1.430000000000000160e-01 7.685994999999999910e-01 5.897320000000000562e+00 1.181280000000000001e+02 1.614869999999999891e+03
1.440000000000000169e-01 7.685744999999999383e-01 5.808324999999999960e+00 1.180469999999999970e+02 1.614860000000000127e+03
1.450000000000000178e-01 7.685425000000000173e-01 5.703110000000000568e+00 1.179354999999999905e+02 1.614840000000000146e+03
1.459999999999999909e-01 7.685054999999999525e-01 5.584775000000000489e+00 1.177999999999999972e+02 1.614809999999999945e+03
1.469999999999999918e-01 7.684640000000000359e-01 5.456794999999999618e+00 1.176475000000000080e+02 1.614779999999999973e+03
1.479999999999999927e-01 7.684219999999999384e-01 5.322810000000000485e+00 1.174860000000000042e+02 1.614750000000000000e+03
1.489999999999999936e-01 7.683790000000000342e-01 5.186444999999999972e+00 1.173204999999999956e+02 1.614710000000000036e+03
1.499999999999999944e-01 7.683379999999999654e-01 5.051169999999999938e+00 1.171585000000000036e+02 1.614675000000000182e+03
1.509999999999999953e-01 7.682994999999999131e-01 4.920130000000000337e+00 1.170045000000000073e+02 1.614635000000000218e+03
1.519999999999999962e-01 7.682649999999999757e-01 4.796020000000000394e+00 1.168634999999999877e+02 1.614599999999999909e+03
1.529999999999999971e-01 7.682355000000000711e-01 4.681000000000000050e+00 1.167369999999999948e+02 1.614569999999999936e+03
1.539999999999999980e-01 7.682100000000000595e-01 4.576605000000000700e+00 1.166285000000000025e+02 1.614539999999999964e+03
1.549999999999999989e-01 7.681895000000000806e-01 4.483729999999999549e+00 1.165370000000000061e+02 1.614519999999999982e+03
1.559999999999999998e-01 7.681735000000000646e-01 4.402614999999999945e+00 1.164619999999999891e+02 1.614500000000000000e+03
1.570000000000000007e-01 7.681609999999999827e-01 4.332910000000000039e+00 1.164009999999999962e+02 1.614480000000000018e+03
1.580000000000000016e-01 7.681504999999999583e-01 4.273730000000000473e+00 1.163524999999999920e+02 1.614465000000000146e+03
1.590000000000000024e-01 7.681424999999999503e-01 4.223745000000000083e+00 1.163114999999999952e+02 1.614454999999999927e+03
