# t [s], A [cm^2], U [cm/s], P [cPa], c [cm/s]
1.000000000000000021e-03 2.028050000000000130e-01 4.028195999999999999e-01 9.462765000000000271e+01 2.027075000000000045e+03
2.000000000000000042e-03 2.027470000000000105e-01 2.018577500000000136e+00 9.112385000000000446e+01 2.026690000000000055e+03
3.000000000000000062e-03 2.025925000000000087e-01 3.966176500000000438e+00 8.643184999999999718e+01 2.025684999999999945e+03
4.000000000000000083e-03 2.023834999999999940e-01 6.138230499999999701e+00 8.153379999999999939e+01 2.024349999999999909e+03
5.000000000000000104e-03 2.021614999999999940e-01 8.450540000000000163e+00 7.732070000000000221e+01 2.022944999999999936e+03
6.000000000000000125e-03 2.019485000000000030e-01 1.069684500000000149e+01 7.395159999999999911e+01 2.021615000000000009e+03
7.000000000000000146e-03 2.017499999999999849e-01 1.266594500000000068e+01 7.107744999999999891e+01 2.020389999999999873e+03
8.000000000000000167e-03 2.015684999999999838e-01 1.431028999999999840e+01 6.849609999999999843e+01 2.019295000000000073e+03
9.000000000000001055e-03 2.014100000000000057e-01 1.568154999999999966e+01 6.629415000000000191e+01 2.018349999999999909e+03
1.000000000000000194e-02 2.012769999999999837e-01 1.680890000000000128e+01 6.452185000000000059e+01 2.017559999999999945e+03
1.099999999999999936e-02 2.011680000000000135e-01 1.770420000000000016e+01 6.312510000000000332e+01 2.016924999999999955e+03
1.200000000000000025e-02 2.010799999999999810e-01 1.838145000000000095e+01 6.202925000000000466e+01 2.016425000000000182e+03
1.300000000000000114e-02 2.010100000000000220e-01 1.884830000000000183e+01 6.113524999999999920e+01 2.016025000000000091e+03
1.400000000000000203e-02 2.009519999999999917e-01 1.912904999999999944e+01 6.035670000000000357e+01 2.015704999999999927e+03
1.499999999999999944e-02 2.009060000000000012e-01 1.930865000000000009e+01 5.975544999999999618e+01 2.015450000000000045e+03
1.600000000000000033e-02 2.008774999999999866e-01 1.953345000000000198e+01 5.960900000000000176e+01 2.015304999999999836e+03
1.700000000000000122e-02 2.008794999999999886e-01 1.994634999999999891e+01 6.027949999999999875e+01 2.015325000000000045e+03
1.800000000000000211e-02 2.009179999999999855e-01 2.060660000000000025e+01 6.196849999999999881e+01 2.015559999999999945e+03
1.900000000000000300e-02 2.009954999999999936e-01 2.145145000000000124e+01 6.454019999999999868e+01 2.016019999999999982e+03
2.000000000000000042e-02 2.010990000000000000e-01 2.231964999999999932e+01 6.752450000000000330e+01 2.016634999999999991e+03
2.100000000000000130e-02 2.012110000000000010e-01 2.301655000000000229e+01 7.028239999999999554e+01 2.017304999999999836e+03
2.200000000000000219e-02 2.013090000000000157e-01 2.338680000000000092e+01 7.223650000000000659e+01 2.017909999999999854e+03
2.299999999999999961e-02 2.013774999999999871e-01 2.336339999999999861e+01 7.306084999999998786e+01 2.018340000000000146e+03
2.400000000000000050e-02 2.014080000000000037e-01 2.297910000000000252e+01 7.276144999999999641e+01 2.018550000000000182e+03
2.500000000000000139e-02 2.014039999999999997e-01 2.233990000000000009e+01 7.162760000000000105e+01 2.018545000000000073e+03
2.600000000000000228e-02 2.013745000000000118e-01 2.157730000000000103e+01 7.009090000000000487e+01 2.018384999999999991e+03
2.700000000000000316e-02 2.013320000000000110e-01 2.080080000000000240e+01 6.855719999999999459e+01 2.018139999999999873e+03
2.800000000000000058e-02 2.012875000000000081e-01 2.006739999999999924e+01 6.727994999999999948e+01 2.017880000000000109e+03
2.900000000000000147e-02 2.012470000000000092e-01 1.937715000000000032e+01 6.631250000000000000e+01 2.017634999999999991e+03
3.000000000000000236e-02 2.012110000000000010e-01 1.869024999999999892e+01 6.554124999999999091e+01 2.017420000000000073e+03
3.099999999999999978e-02 2.011760000000000215e-01 1.795550000000000068e+01 6.477205000000000723e+01 2.017210000000000036e+03
3.200000000000000067e-02 2.011370000000000102e-01 1.713980000000000103e+01 6.383245000000000147e+01 2.016985000000000127e+03
3.300000000000000155e-02 2.010915000000000064e-01 1.624849999999999994e+01 6.265354999999999563e+01 2.016714999999999918e+03
3.400000000000000244e-02 2.010385000000000089e-01 1.533115000000000094e+01 6.130929999999999325e+01 2.016400000000000091e+03
3.500000000000000333e-02 2.009834999999999816e-01 1.447179999999999822e+01 6.000265000000000271e+01 2.016074999999999818e+03
3.600000000000000422e-02 2.009340000000000015e-01 1.376709999999999923e+01 5.900690000000000168e+01 2.015779999999999973e+03
3.700000000000000511e-02 2.008995000000000086e-01 1.329950000000000010e+01 5.858214999999999861e+01 2.015565000000000055e+03
3.799999999999999906e-02 2.008884999999999976e-01 1.311424999999999841e+01 5.889494999999999436e+01 2.015490000000000009e+03
3.899999999999999994e-02 2.009050000000000002e-01 1.320595000000000141e+01 5.996519999999999584e+01 2.015575000000000045e+03
4.000000000000000083e-02 2.009480000000000155e-01 1.351859999999999928e+01 6.165385000000000559e+01 2.015815000000000055e+03
4.100000000000000172e-02 2.010119999999999962e-01 1.395674999999999955e+01 6.369004999999999939e+01 2.016184999999999945e+03
4.200000000000000261e-02 2.010865000000000014e-01 1.440404999999999980e+01 6.572749999999999204e+01 2.016619999999999891e+03
4.300000000000000350e-02 2.011590000000000045e-01 1.474339999999999939e+01 6.741105000000000302e+01 2.017049999999999955e+03
4.400000000000000439e-02 2.012174999999999936e-01 1.487514999999999965e+01 6.843834999999999980e+01 2.017404999999999973e+03
4.499999999999999833e-02 2.012510000000000132e-01 1.472879999999999967e+01 6.860214999999999463e+01 2.017609999999999900e+03
4.599999999999999922e-02 2.012525000000000008e-01 1.426810000000000045e+01 6.781045000000000300e+01 2.017625000000000000e+03
4.700000000000000011e-02 2.012180000000000080e-01 1.348995000000000033e+01 6.608190000000000452e+01 2.017430000000000064e+03
4.800000000000000100e-02 2.011479999999999935e-01 1.241886000000000045e+01 6.352469999999999573e+01 2.017025000000000091e+03
4.900000000000000189e-02 2.010454999999999881e-01 1.109853999999999985e+01 6.030594999999999573e+01 2.016425000000000182e+03
5.000000000000000278e-02 2.009159999999999835e-01 9.584244999999999237e+00 5.661984999999999957e+01 2.015659999999999854e+03
5.100000000000000366e-02 2.007665000000000144e-01 7.935979999999999812e+00 5.266185000000000116e+01 2.014780000000000200e+03
5.200000000000000455e-02 2.006045000000000189e-01 6.214290000000000092e+00 4.861230000000000473e+01 2.013815000000000055e+03
5.300000000000000544e-02 2.004360000000000031e-01 4.478254500000000249e+00 4.462944999999999851e+01 2.012809999999999945e+03
5.399999999999999939e-02 2.002669999999999728e-01 2.785009999999999764e+00 4.084985000000000355e+01 2.011804999999999836e+03
5.500000000000000028e-02 2.001050000000000051e-01 1.189915000000000056e+00 3.739329999999999643e+01 2.010835000000000036e+03
5.600000000000000117e-02 1.999545000000000072e-01 -2.531900000000000261e-01 3.436834999999999951e+01 2.009930000000000064e+03
5.700000000000000205e-02 1.998205000000000120e-01 -1.492415000000000269e+00 3.187590000000000146e+01 2.009125000000000000e+03
5.800000000000000294e-02 1.997079999999999966e-01 -2.479139500000000051e+00 3.000979999999999848e+01 2.008444999999999936e+03
5.900000000000000383e-02 1.996215000000000073e-01 -3.170094999999999885e+00 2.885415000000000063e+01 2.007914999999999964e+03
6.000000000000000472e-02 1.995639999999999914e-01 -3.529939999999999856e+00 2.847735000000000127e+01 2.007554999999999836e+03
6.099999999999999867e-02 1.995395000000000085e-01 -3.533825000000000216e+00 2.892589999999999861e+01 2.007389999999999873e+03
6.199999999999999956e-02 1.995494999999999908e-01 -3.169470000000000010e+00 3.021829999999999927e+01 2.007429999999999836e+03
6.300000000000000044e-02 1.995949999999999946e-01 -2.438426999999999900e+00 3.234085000000000321e+01 2.007684999999999945e+03
6.400000000000000133e-02 1.996764999999999790e-01 -1.356205000000000105e+00 3.524705000000000155e+01 2.008144999999999982e+03
6.500000000000000222e-02 1.997909999999999964e-01 4.862999999999995104e-02 3.885939999999999372e+01 2.008805000000000064e+03
6.600000000000000311e-02 1.999364999999999892e-01 1.736304999999999765e+00 4.307425000000000637e+01 2.009654999999999973e+03
6.700000000000000400e-02 2.001084999999999947e-01 3.658378499999999978e+00 4.776930000000000121e+01 2.010659999999999854e+03
6.800000000000000488e-02 2.003019999999999801e-01 5.760559999999999903e+00 5.281094999999999828e+01 2.011809999999999945e+03
6.900000000000000577e-02 2.005125000000000102e-01 7.985719999999999708e+00 5.806300000000000239e+01 2.013055000000000064e+03
7.000000000000000666e-02 2.007344999999999824e-01 1.027676500000000104e+01 6.339404999999999291e+01 2.014375000000000000e+03
7.100000000000000755e-02 2.009624999999999884e-01 1.257924999999999827e+01 6.868389999999999418e+01 2.015735000000000127e+03
7.200000000000000844e-02 2.011904999999999943e-01 1.484375000000000000e+01 7.382939999999999259e+01 2.017105000000000018e+03
7.300000000000000933e-02 2.014154999999999973e-01 1.702799999999999869e+01 7.874819999999999709e+01 2.018454999999999927e+03
7.399999999999999634e-02 2.016334999999999933e-01 1.909815000000000040e+01 8.338195000000000334e+01 2.019769999999999982e+03
7.499999999999999722e-02 2.018415000000000070e-01 2.102994999999999948e+01 8.769735000000000014e+01 2.021029999999999973e+03
7.599999999999999811e-02 2.020379999999999954e-01 2.280935000000000201e+01 9.168590000000000373e+01 2.022224999999999909e+03
7.699999999999999900e-02 2.022224999999999995e-01 2.443195000000000050e+01 9.536260000000000048e+01 2.023349999999999909e+03
7.799999999999999989e-02 2.023955000000000060e-01 2.590240000000000009e+01 9.876205000000000211e+01 2.024405000000000200e+03
7.900000000000000078e-02 2.025575000000000014e-01 2.723284999999999911e+01 1.019338999999999942e+02 2.025400000000000091e+03
8.000000000000000167e-02 2.027109999999999745e-01 2.844109999999999872e+01 1.049386000000000081e+02 2.026335000000000036e+03
8.100000000000000255e-02 2.028575000000000239e-01 2.954860000000000042e+01 1.078389999999999986e+02 2.027235000000000127e+03
8.200000000000000344e-02 2.029989999999999850e-01 3.057829999999999870e+01 1.106970000000000027e+02 2.028110000000000127e+03
8.300000000000000433e-02 2.031384999999999996e-01 3.155225000000000080e+01 1.135670000000000073e+02 2.028964999999999918e+03
8.400000000000000522e-02 2.032785000000000009e-01 3.249005000000000365e+01 1.164925000000000068e+02 2.029824999999999818e+03
8.500000000000000611e-02 2.034194999999999753e-01 3.340739999999999554e+01 1.195019999999999953e+02 2.030690000000000055e+03
8.600000000000000699e-02 2.035629999999999939e-01 3.431499999999999773e+01 1.226094999999999970e+02 2.031565000000000055e+03
8.700000000000000788e-02 2.037105000000000166e-01 3.521790000000000020e+01 1.258104999999999905e+02 2.032465000000000146e+03
8.800000000000000877e-02 2.038605000000000000e-01 3.611565000000000225e+01 1.290889999999999986e+02 2.033384999999999991e+03
8.899999999999999578e-02 2.040135000000000143e-01 3.700234999999999985e+01 1.324110000000000014e+02 2.034325000000000045e+03
8.999999999999999667e-02 2.041669999999999874e-01 3.786755000000000138e+01 1.357359999999999900e+02 2.035265000000000100e+03
9.099999999999999756e-02 2.043205000000000160e-01 3.869695000000000107e+01 1.390135000000000218e+02 2.036204999999999927e+03
9.199999999999999845e-02 2.044714999999999727e-01 3.947360000000000468e+01 1.421895000000000095e+02 2.037130000000000109e+03
9.299999999999999933e-02 2.046184999999999810e-01 4.017914999999999992e+01 1.452090000000000032e+02 2.038029999999999973e+03
9.400000000000000022e-02 2.047585000000000099e-01 4.079469999999999885e+01 1.480185000000000173e+02 2.038889999999999873e+03
9.500000000000000111e-02 2.048895000000000022e-01 4.130239999999999867e+01 1.505704999999999814e+02 2.039699999999999818e+03
9.600000000000000200e-02 2.050095000000000112e-01 4.168609999999999616e+01 1.528224999999999909e+02 2.040440000000000055e+03
9.700000000000000289e-02 2.051169999999999938e-01 4.193250000000000455e+01 1.547429999999999950e+02 2.041105000000000018e+03
9.800000000000000377e-02 2.052105000000000179e-01 4.203170000000000073e+01 1.563079999999999927e+02 2.041684999999999945e+03
9.900000000000000466e-02 2.052884999999999849e-01 4.197799999999999443e+01 1.575074999999999932e+02 2.042174999999999955e+03
1.000000000000000056e-01 2.053510000000000058e-01 4.176980000000000359e+01 1.583400000000000034e+02 2.042569999999999936e+03
1.010000000000000064e-01 2.053980000000000250e-01 4.141015000000000157e+01 1.588154999999999859e+02 2.042865000000000009e+03
1.020000000000000073e-01 2.054290000000000005e-01 4.090650000000000119e+01 1.589549999999999841e+02 2.043065000000000055e+03
1.030000000000000082e-01 2.054455000000000031e-01 4.027009999999999934e+01 1.587880000000000109e+02 2.043174999999999955e+03
1.040000000000000091e-01 2.054485000000000061e-01 3.951595000000000368e+01 1.583520000000000039e+02 2.043204999999999927e+03
1.050000000000000100e-01 2.054389999999999827e-01 3.866179999999999950e+01 1.576885000000000048e+02 2.043159999999999854e+03
1.059999999999999970e-01 2.054194999999999771e-01 3.772735000000000127e+01 1.568439999999999941e+02 2.043044999999999845e+03
1.069999999999999979e-01 2.053905000000000036e-01 3.673364999999999725e+01 1.558675000000000068e+02 2.042880000000000109e+03
1.079999999999999988e-01 2.053554999999999964e-01 3.570189999999999486e+01 1.548050000000000068e+02 2.042670000000000073e+03
1.089999999999999997e-01 2.053154999999999841e-01 3.465290000000000248e+01 1.537004999999999768e+02 2.042430000000000064e+03
1.100000000000000006e-01 2.052729999999999833e-01 3.360594999999999999e+01 1.525964999999999918e+02 2.042170000000000073e+03
1.110000000000000014e-01 2.052289999999999948e-01 3.257824999999999704e+01 1.515260000000000105e+02 2.041904999999999973e+03
1.120000000000000023e-01 2.051854999999999929e-01 3.158445000000000036e+01 1.505169999999999959e+02 2.041640000000000100e+03
1.130000000000000032e-01 2.051435000000000064e-01 3.063589999999999947e+01 1.495894999999999868e+02 2.041379999999999882e+03
1.140000000000000041e-01 2.051040000000000085e-01 2.974060000000000059e+01 1.487565000000000168e+02 2.041134999999999991e+03
1.150000000000000050e-01 2.050675000000000137e-01 2.890294999999999703e+01 1.480210000000000150e+02 2.040910000000000082e+03
1.160000000000000059e-01 2.050339999999999940e-01 2.812389999999999901e+01 1.473784999999999741e+02 2.040704999999999927e+03
1.170000000000000068e-01 2.050044999999999784e-01 2.740084999999999837e+01 1.468179999999999836e+02 2.040514999999999873e+03
1.180000000000000077e-01 2.049774999999999792e-01 2.672849999999999682e+01 1.463230000000000075e+02 2.040349999999999909e+03
1.190000000000000085e-01 2.049535000000000107e-01 2.609854999999999947e+01 1.458700000000000045e+02 2.040195000000000164e+03
1.200000000000000094e-01 2.049309999999999743e-01 2.550110000000000099e+01 1.454329999999999927e+02 2.040054999999999836e+03
1.209999999999999964e-01 2.049079999999999790e-01 2.492470000000000141e+01 1.449834999999999923e+02 2.039914999999999964e+03
1.219999999999999973e-01 2.048854999999999982e-01 2.435729999999999862e+01 1.444939999999999998e+02 2.039764999999999873e+03
1.229999999999999982e-01 2.048609999999999876e-01 2.378679999999999950e+01 1.439354999999999905e+02 2.039615000000000009e+03
1.239999999999999991e-01 2.048335000000000017e-01 2.320190000000000197e+01 1.432855000000000132e+02 2.039445000000000164e+03
1.250000000000000000e-01 2.048024999999999984e-01 2.259264999999999901e+01 1.425224999999999795e+02 2.039255000000000109e+03
1.260000000000000009e-01 2.047665000000000179e-01 2.195094999999999885e+01 1.416310000000000002e+02 2.039039999999999964e+03
1.270000000000000018e-01 2.047255000000000047e-01 2.127109999999999701e+01 1.406025000000000205e+02 2.038784999999999854e+03
1.280000000000000027e-01 2.046795000000000142e-01 2.055015000000000214e+01 1.394350000000000023e+02 2.038505000000000109e+03
1.290000000000000036e-01 2.046264999999999890e-01 1.978794999999999860e+01 1.381340000000000146e+02 2.038184999999999945e+03
1.300000000000000044e-01 2.045690000000000008e-01 1.898720000000000141e+01 1.367100000000000080e+02 2.037835000000000036e+03
1.310000000000000053e-01 2.045059999999999933e-01 1.815350000000000108e+01 1.351820000000000164e+02 2.037449999999999818e+03
1.320000000000000062e-01 2.044384999999999952e-01 1.729495000000000005e+01 1.335740000000000123e+02 2.037035000000000082e+03
1.330000000000000071e-01 2.043674999999999797e-01 1.642159999999999798e+01 1.319130000000000109e+02 2.036605000000000018e+03
1.340000000000000080e-01 2.042940000000000034e-01 1.554540000000000077e+01 1.302315000000000111e+02 2.036159999999999854e+03
1.350000000000000089e-01 2.042194999999999983e-01 1.467899999999999849e+01 1.285609999999999786e+02 2.035704999999999927e+03
1.360000000000000098e-01 2.041450000000000209e-01 1.383570000000000100e+01 1.269344999999999857e+02 2.035255000000000109e+03
1.370000000000000107e-01 2.040730000000000044e-01 1.302854999999999919e+01 1.253824999999999932e+02 2.034809999999999945e+03
1.380000000000000115e-01 2.040029999999999899e-01 1.226959499999999892e+01 1.239344999999999999e+02 2.034380000000000109e+03
1.390000000000000124e-01 2.039370000000000072e-01 1.156973999999999947e+01 1.226144999999999925e+02 2.033974999999999909e+03
1.400000000000000133e-01 2.038760000000000017e-01 1.093794499999999914e+01 1.214415000000000049e+02 2.033605000000000018e+03
1.410000000000000142e-01 2.038220000000000032e-01 1.038113000000000063e+01 1.204284999999999997e+02 2.033264999999999873e+03
1.420000000000000151e-01 2.037729999999999819e-01 9.903655000000000541e+00 1.195849999999999937e+02 2.032970000000000027e+03
1.430000000000000160e-01 2.037324999999999831e-01 9.507574999999999221e+00 1.189104999999999990e+02 2.032714999999999918e+03
1.440000000000000169e-01 2.036979999999999902e-01 9.192384999999999806e+00 1.184025000000000034e+02 2.032500000000000000e+03
1.450000000000000178e-01 2.036709999999999909e-01 8.955245000000001454e+00 1.180515000000000043e+02 2.032329999999999927e+03
1.459999999999999909e-01 2.036505000000000121e-01 8.791264999999999219e+00 1.178435000000000059e+02 2.032200000000000045e+03
1.469999999999999918e-01 2.036364999999999981e-01 8.693730000000000402e+00 1.177620000000000005e+02 2.032110000000000127e+03
1.479999999999999927e-01 2.036280000000000034e-01 8.654489999999999128e+00 1.177860000000000014e+02 2.032049999999999955e+03
1.489999999999999936e-01 2.036244999999999861e-01 8.664345000000000852e+00 1.178944999999999936e+02 2.032025000000000091e+03
1.499999999999999944e-01 2.036244999999999861e-01 8.713464999999999350e+00 1.180655000000000001e+02 2.032019999999999982e+03
1.509999999999999953e-01 2.036280000000000034e-01 8.791760000000000019e+00 1.182764999999999986e+02 2.032039999999999964e+03
1.519999999999999962e-01 2.036335000000000228e-01 8.889285000000000991e+00 1.185070000000000050e+02 2.032065000000000055e+03
1.529999999999999971e-01 2.036405000000000021e-01 8.996559999999998780e+00 1.187365000000000066e+02 2.032105000000000018e+03
1.539999999999999980e-01 2.036479999999999957e-01 9.104845000000000965e+00 1.189505000000000052e+02 2.032150000000000091e+03
1.549999999999999989e-01 2.036545000000000161e-01 9.206409999999999982e+00 1.191320000000000050e+02 2.032190000000000055e+03
1.559999999999999998e-01 2.036609999999999809e-01 9.294710000000000250e+00 1.192710000000000008e+02 2.032224999999999909e+03
1.570000000000000007e-01 2.036654999999999993e-01 9.364509999999999224e+00 1.193594999999999970e+02 2.032255000000000109e+03
1.580000000000000016e-01 2.036689999999999889e-01 9.411960000000000548e+00 1.193919999999999959e+02 2.032269999999999982e+03
1.590000000000000024e-01 2.036695000000000033e-01 9.434630000000000294e+00 1.193654999999999973e+02 2.032279999999999973e+03
