# t [s], A [cm^2], U [cm/s], P [cPa], c [cm/s]
1.000000000000000021e-03 1.750519999999999854e-01 2.075945000000000151e-01 8.796844999999999004e+01 2.245695000000000164e+03
2.000000000000000042e-03 1.750130000000000019e-01 1.448620000000000019e+00 8.506504999999999939e+01 2.245329999999999927e+03
3.000000000000000062e-03 1.749084999999999945e-01 3.025882999999999878e+00 8.090039999999999054e+01 2.244394999999999982e+03
4.000000000000000083e-03 1.747664999999999913e-01 4.827284999999999826e+00 7.628530000000000655e+01 2.243144999999999982e+03
5.000000000000000104e-03 1.746154999999999791e-01 6.789469999999999672e+00 7.212345000000000539e+01 2.241829999999999927e+03
6.000000000000000125e-03 1.744729999999999892e-01 8.738889999999999603e+00 6.873154999999999859e+01 2.240600000000000364e+03
7.000000000000000146e-03 1.743394999999999806e-01 1.044989999999999952e+01 6.582944999999999425e+01 2.239475000000000364e+03
8.000000000000000167e-03 1.742184999999999984e-01 1.184985999999999962e+01 6.319989999999999952e+01 2.238475000000000364e+03
9.000000000000001055e-03 1.741135000000000044e-01 1.298633000000000060e+01 6.094595000000000340e+01 2.237619999999999891e+03
1.000000000000000194e-02 1.740269999999999873e-01 1.389325000000000010e+01 5.915435000000000088e+01 2.236925000000000182e+03
1.099999999999999936e-02 1.739590000000000025e-01 1.458694999999999986e+01 5.779930000000000234e+01 2.236385000000000218e+03
1.200000000000000025e-02 1.739069999999999783e-01 1.507564999999999955e+01 5.679784999999999684e+01 2.235980000000000018e+03
1.300000000000000114e-02 1.738655000000000062e-01 1.535200000000000031e+01 5.599625000000000341e+01 2.235664999999999964e+03
1.400000000000000203e-02 1.738319999999999865e-01 1.543645000000000067e+01 5.526310000000000144e+01 2.235414999999999964e+03
1.499999999999999944e-02 1.738049999999999873e-01 1.543430000000000035e+01 5.469424999999999670e+01 2.235220000000000255e+03
1.600000000000000033e-02 1.737940000000000040e-01 1.552074999999999960e+01 5.466669999999999874e+01 2.235144999999999982e+03
1.700000000000000122e-02 1.738084999999999769e-01 1.584809999999999874e+01 5.561969999999999459e+01 2.235269999999999982e+03
1.800000000000000211e-02 1.738549999999999818e-01 1.645369999999999777e+01 5.773414999999999964e+01 2.235640000000000327e+03
1.900000000000000300e-02 1.739290000000000003e-01 1.723460000000000036e+01 6.075669999999999504e+01 2.236239999999999782e+03
2.000000000000000042e-02 1.740184999999999926e-01 1.799674999999999869e+01 6.407099999999999795e+01 2.236970000000000255e+03
2.100000000000000130e-02 1.741059999999999830e-01 1.854135000000000133e+01 6.694764999999999588e+01 2.237699999999999818e+03
2.200000000000000219e-02 1.741749999999999965e-01 1.874210000000000065e+01 6.882544999999998936e+01 2.238295000000000073e+03
2.299999999999999961e-02 1.742174999999999974e-01 1.858155000000000001e+01 6.949334999999999241e+01 2.238670000000000073e+03
2.400000000000000050e-02 1.742319999999999980e-01 1.813909999999999911e+01 6.911340000000001282e+01 2.238815000000000055e+03
2.500000000000000139e-02 1.742245000000000044e-01 1.754380000000000095e+01 6.809704999999999586e+01 2.238775000000000091e+03
2.600000000000000228e-02 1.742059999999999997e-01 1.691550000000000153e+01 6.690755000000000052e+01 2.238630000000000109e+03
2.700000000000000316e-02 1.741840000000000055e-01 1.632119999999999749e+01 6.587699999999999534e+01 2.238449999999999818e+03
2.800000000000000058e-02 1.741635000000000266e-01 1.575994999999999990e+01 6.510805000000000575e+01 2.238280000000000200e+03
2.900000000000000147e-02 1.741449999999999942e-01 1.517735000000000056e+01 6.448170000000000357e+01 2.238130000000000109e+03
3.000000000000000236e-02 1.741234999999999866e-01 1.450000000000000000e+01 6.375109999999999388e+01 2.237954999999999927e+03
3.099999999999999978e-02 1.740944999999999854e-01 1.367494999999999905e+01 6.267664999999999509e+01 2.237724999999999909e+03
3.200000000000000067e-02 1.740545000000000009e-01 1.270049999999999990e+01 6.115005000000000024e+01 2.237400000000000091e+03
3.300000000000000155e-02 1.740035000000000054e-01 1.163771500000000003e+01 5.926449999999999818e+01 2.236994999999999891e+03
3.400000000000000244e-02 1.739475000000000049e-01 1.059842499999999887e+01 5.730649999999999977e+01 2.236539999999999964e+03
3.500000000000000333e-02 1.738955000000000084e-01 9.714124999999999233e+00 5.567340000000000089e+01 2.236114999999999782e+03
3.600000000000000422e-02 1.738585000000000269e-01 9.097709999999999297e+00 5.474920000000000186e+01 2.235789999999999964e+03
3.700000000000000511e-02 1.738429999999999975e-01 8.811354999999998938e+00 5.478425000000000011e+01 2.235650000000000091e+03
3.799999999999999906e-02 1.738540000000000085e-01 8.850854999999999251e+00 5.582009999999999650e+01 2.235720000000000255e+03
3.899999999999999994e-02 1.738899999999999890e-01 9.148765000000000924e+00 5.767839999999999634e+01 2.235989999999999782e+03
4.000000000000000083e-02 1.739445000000000019e-01 9.593125000000000568e+00 6.000990000000000180e+01 2.236420000000000073e+03
4.100000000000000172e-02 1.740069999999999950e-01 1.005380500000000055e+01 6.238065000000000282e+01 2.236925000000000182e+03
4.200000000000000261e-02 1.740669999999999995e-01 1.040885499999999908e+01 6.436744999999999095e+01 2.237414999999999964e+03
4.300000000000000350e-02 1.741145000000000054e-01 1.056404999999999994e+01 6.563689999999999714e+01 2.237809999999999945e+03
4.400000000000000439e-02 1.741409999999999902e-01 1.046385000000000076e+01 6.599275000000000091e+01 2.238039999999999964e+03
4.499999999999999833e-02 1.741419999999999912e-01 1.009133500000000083e+01 6.538589999999999236e+01 2.238069999999999709e+03
4.599999999999999922e-02 1.741185000000000094e-01 9.461529999999999774e+00 6.389249999999999829e+01 2.237885000000000218e+03
4.700000000000000011e-02 1.740714999999999901e-01 8.610075000000000145e+00 6.167175000000000296e+01 2.237515000000000327e+03
4.800000000000000100e-02 1.740039999999999920e-01 7.581414999999999793e+00 5.891830000000000211e+01 2.236970000000000255e+03
4.900000000000000189e-02 1.739224999999999799e-01 6.420529999999999404e+00 5.582210000000000605e+01 2.236305000000000291e+03
5.000000000000000278e-02 1.738310000000000133e-01 5.167804999999999538e+00 5.254344999999999999e+01 2.235555000000000291e+03
5.100000000000000366e-02 1.737325000000000119e-01 3.858788999999999803e+00 4.920579999999999643e+01 2.234755000000000109e+03
5.200000000000000455e-02 1.736314999999999942e-01 2.526399000000000061e+00 4.590209999999999724e+01 2.233920000000000073e+03
5.300000000000000544e-02 1.735309999999999908e-01 1.204420000000000268e+00 4.270895000000000152e+01 2.233095000000000255e+03
5.399999999999999939e-02 1.734324999999999894e-01 -6.946499999999988795e-02 3.970260000000000389e+01 2.232284999999999854e+03
5.500000000000000028e-02 1.733405000000000085e-01 -1.252194999999999947e+00 3.696990000000000265e+01 2.231525000000000091e+03
5.600000000000000117e-02 1.732569999999999943e-01 -2.295953350000000004e+00 3.461285000000000167e+01 2.230829999999999927e+03
5.700000000000000205e-02 1.731854999999999922e-01 -3.150714999999999932e+00 3.274519999999999698e+01 2.230235000000000127e+03
5.800000000000000294e-02 1.731300000000000061e-01 -3.768159999999999954e+00 3.148280000000000101e+01 2.229760000000000218e+03
5.900000000000000383e-02 1.730939999999999979e-01 -4.106114999999999959e+00 3.093064999999999998e+01 2.229449999999999818e+03
6.000000000000000472e-02 1.730794999999999972e-01 -4.132545000000000357e+00 3.116964999999999719e+01 2.229305000000000291e+03
6.099999999999999867e-02 1.730895000000000072e-01 -3.828645000000000298e+00 3.224649999999999750e+01 2.229369999999999891e+03
6.199999999999999956e-02 1.731245000000000145e-01 -3.190354999999999830e+00 3.416734999999999900e+01 2.229635000000000218e+03
6.300000000000000044e-02 1.731849999999999778e-01 -2.228550100000000089e+00 3.689659999999999940e+01 2.230110000000000127e+03
6.400000000000000133e-02 1.732695000000000207e-01 -9.678449999999999553e-01 4.036064999999999969e+01 2.230779999999999745e+03
6.500000000000000222e-02 1.733760000000000023e-01 5.555499999999999883e-01 4.445470000000000255e+01 2.231630000000000109e+03
6.600000000000000311e-02 1.735010000000000163e-01 2.296689999999999898e+00 4.905169999999999675e+01 2.232644999999999982e+03
6.700000000000000400e-02 1.736415000000000042e-01 4.205083000000000126e+00 5.401304999999999978e+01 2.233784999999999854e+03
6.800000000000000488e-02 1.737930000000000030e-01 6.228149999999999409e+00 5.919884999999999309e+01 2.235019999999999982e+03
6.900000000000000577e-02 1.739510000000000223e-01 8.314569999999999794e+00 6.447795000000000698e+01 2.236320000000000164e+03
7.000000000000000666e-02 1.741130000000000178e-01 1.041718999999999973e+01 6.973654999999999404e+01 2.237654999999999745e+03
7.100000000000000755e-02 1.742750000000000132e-01 1.249569999999999936e+01 7.488505000000000678e+01 2.238994999999999891e+03
7.200000000000000844e-02 1.744344999999999923e-01 1.451839999999999975e+01 7.986185000000000400e+01 2.240324999999999818e+03
7.300000000000000933e-02 1.745904999999999818e-01 1.646259999999999835e+01 8.463464999999999350e+01 2.241619999999999891e+03
7.399999999999999634e-02 1.747414999999999941e-01 1.831494999999999962e+01 8.919830000000000325e+01 2.242880000000000109e+03
7.499999999999999722e-02 1.748870000000000147e-01 2.007000000000000028e+01 9.356995000000000573e+01 2.244105000000000018e+03
7.599999999999999811e-02 1.750280000000000169e-01 2.172869999999999990e+01 9.778249999999999886e+01 2.245289999999999964e+03
7.699999999999999900e-02 1.751655000000000018e-01 2.329609999999999914e+01 1.018761499999999955e+02 2.246440000000000055e+03
7.799999999999999989e-02 1.752994999999999970e-01 2.477969999999999828e+01 1.058929499999999990e+02 2.247570000000000164e+03
7.900000000000000078e-02 1.754315000000000180e-01 2.618710000000000093e+01 1.098679999999999950e+02 2.248685000000000400e+03
8.000000000000000167e-02 1.755625000000000102e-01 2.752499999999999858e+01 1.138269999999999982e+02 2.249789999999999964e+03
8.100000000000000255e-02 1.756929999999999881e-01 2.879810000000000159e+01 1.177835000000000036e+02 2.250889999999999873e+03
8.200000000000000344e-02 1.758239999999999803e-01 3.000870000000000104e+01 1.217384999999999877e+02 2.251989999999999782e+03
8.300000000000000433e-02 1.759534999999999849e-01 3.115675000000000239e+01 1.256830000000000069e+02 2.253090000000000146e+03
8.400000000000000522e-02 1.760825000000000029e-01 3.223975000000000080e+01 1.295960000000000036e+02 2.254180000000000291e+03
8.500000000000000611e-02 1.762104999999999921e-01 3.325330000000000297e+01 1.334515000000000100e+02 2.255260000000000218e+03
8.600000000000000699e-02 1.763365000000000071e-01 3.419120000000000203e+01 1.372185000000000059e+02 2.256329999999999927e+03
8.700000000000000788e-02 1.764590000000000047e-01 3.504609999999999559e+01 1.408634999999999877e+02 2.257364999999999782e+03
8.800000000000000877e-02 1.765780000000000127e-01 3.580944999999999823e+01 1.443499999999999943e+02 2.258375000000000000e+03
8.899999999999999578e-02 1.766909999999999870e-01 3.647209999999999752e+01 1.476440000000000055e+02 2.259335000000000036e+03
8.999999999999999667e-02 1.767984999999999973e-01 3.702490000000000236e+01 1.507094999999999914e+02 2.260250000000000000e+03
9.099999999999999756e-02 1.768979999999999997e-01 3.745870000000000033e+01 1.535149999999999864e+02 2.261105000000000018e+03
9.199999999999999845e-02 1.769900000000000084e-01 3.776539999999999964e+01 1.560324999999999989e+02 2.261885000000000218e+03
9.299999999999999933e-02 1.770720000000000072e-01 3.793840000000000146e+01 1.582370000000000232e+02 2.262595000000000255e+03
9.400000000000000022e-02 1.771449999999999969e-01 3.797325000000000017e+01 1.601129999999999995e+02 2.263215000000000146e+03
9.500000000000000111e-02 1.772075000000000178e-01 3.786854999999999905e+01 1.616494999999999891e+02 2.263760000000000218e+03
9.600000000000000200e-02 1.772589999999999999e-01 3.762584999999999980e+01 1.628485000000000014e+02 2.264204999999999927e+03
9.700000000000000289e-02 1.773004999999999998e-01 3.725034999999999741e+01 1.637189999999999941e+02 2.264570000000000164e+03
9.800000000000000377e-02 1.773315000000000030e-01 3.675069999999999482e+01 1.642814999999999941e+02 2.264845000000000255e+03
9.900000000000000466e-02 1.773534999999999973e-01 3.613889999999999958e+01 1.645640000000000214e+02 2.265039999999999964e+03
1.000000000000000056e-01 1.773664999999999825e-01 3.542934999999999945e+01 1.646009999999999991e+02 2.265159999999999854e+03
1.010000000000000064e-01 1.773720000000000019e-01 3.463880000000000337e+01 1.644345000000000141e+02 2.265215000000000146e+03
1.020000000000000073e-01 1.773710000000000009e-01 3.378504999999999825e+01 1.641064999999999827e+02 2.265215000000000146e+03
1.030000000000000082e-01 1.773649999999999949e-01 3.288635000000000019e+01 1.636605000000000132e+02 2.265170000000000073e+03
1.040000000000000091e-01 1.773549999999999849e-01 3.196054999999999779e+01 1.631380000000000052e+02 2.265094999999999800e+03
1.050000000000000100e-01 1.773419999999999996e-01 3.102465000000000117e+01 1.625774999999999864e+02 2.264989999999999782e+03
1.059999999999999970e-01 1.773285000000000000e-01 3.009365000000000023e+01 1.620109999999999957e+02 2.264875000000000000e+03
1.069999999999999979e-01 1.773129999999999984e-01 2.918039999999999878e+01 1.614639999999999986e+02 2.264750000000000000e+03
1.079999999999999988e-01 1.772985000000000255e-01 2.829534999999999911e+01 1.609565000000000055e+02 2.264625000000000000e+03
1.089999999999999997e-01 1.772845000000000115e-01 2.744575000000000031e+01 1.605004999999999882e+02 2.264505000000000109e+03
1.100000000000000006e-01 1.772719999999999851e-01 2.663600000000000279e+01 1.600989999999999895e+02 2.264394999999999982e+03
1.110000000000000014e-01 1.772604999999999875e-01 2.586744999999999806e+01 1.597489999999999952e+02 2.264295000000000073e+03
1.120000000000000023e-01 1.772500000000000187e-01 2.513854999999999862e+01 1.594410000000000025e+02 2.264204999999999927e+03
1.130000000000000032e-01 1.772404999999999953e-01 2.444519999999999982e+01 1.591589999999999918e+02 2.264119999999999891e+03
1.140000000000000041e-01 1.772309999999999997e-01 2.378115000000000023e+01 1.588829999999999814e+02 2.264034999999999854e+03
1.150000000000000050e-01 1.772219999999999906e-01 2.313850000000000051e+01 1.585894999999999868e+02 2.263954999999999927e+03
1.160000000000000059e-01 1.772115000000000218e-01 2.250829999999999842e+01 1.582535000000000025e+02 2.263864999999999782e+03
1.170000000000000068e-01 1.771999999999999964e-01 2.188119999999999976e+01 1.578505000000000109e+02 2.263765000000000327e+03
1.180000000000000077e-01 1.771854999999999958e-01 2.124815000000000254e+01 1.573580000000000041e+02 2.263644999999999982e+03
1.190000000000000085e-01 1.771689999999999932e-01 2.060089999999999932e+01 1.567570000000000050e+02 2.263500000000000000e+03
1.200000000000000094e-01 1.771490000000000009e-01 1.993274999999999864e+01 1.560314999999999941e+02 2.263329999999999927e+03
1.209999999999999964e-01 1.771245000000000180e-01 1.923879999999999768e+01 1.551739999999999782e+02 2.263125000000000000e+03
1.219999999999999973e-01 1.770964999999999900e-01 1.851655000000000229e+01 1.541820000000000164e+02 2.262889999999999873e+03
1.229999999999999982e-01 1.770645000000000135e-01 1.776610000000000156e+01 1.530610000000000070e+02 2.262619999999999891e+03
1.239999999999999991e-01 1.770285000000000053e-01 1.699005000000000010e+01 1.518220000000000027e+02 2.262319999999999709e+03
1.250000000000000000e-01 1.769890000000000074e-01 1.619365000000000165e+01 1.504850000000000136e+02 2.261989999999999782e+03
1.260000000000000009e-01 1.769469999999999932e-01 1.538429999999999964e+01 1.490724999999999909e+02 2.261635000000000218e+03
1.270000000000000018e-01 1.769030000000000047e-01 1.457155000000000022e+01 1.476150000000000091e+02 2.261260000000000218e+03
1.280000000000000027e-01 1.768569999999999864e-01 1.376600000000000001e+01 1.461435000000000173e+02 2.260880000000000109e+03
1.290000000000000036e-01 1.768109999999999959e-01 1.297920000000000051e+01 1.446904999999999859e+02 2.260484999999999673e+03
1.300000000000000044e-01 1.767654999999999921e-01 1.222269999999999968e+01 1.432889999999999873e+02 2.260105000000000018e+03
1.310000000000000053e-01 1.767215000000000036e-01 1.150753999999999877e+01 1.419675000000000011e+02 2.259735000000000127e+03
1.320000000000000062e-01 1.766810000000000047e-01 1.084358999999999895e+01 1.407529999999999859e+02 2.259380000000000109e+03
1.330000000000000071e-01 1.766424999999999801e-01 1.023906000000000027e+01 1.396659999999999968e+02 2.259059999999999945e+03
1.340000000000000080e-01 1.766079999999999872e-01 9.700140000000001095e+00 1.387189999999999941e+02 2.258764999999999873e+03
1.350000000000000089e-01 1.765780000000000127e-01 9.230904999999999916e+00 1.379219999999999970e+02 2.258510000000000218e+03
1.360000000000000098e-01 1.765525000000000011e-01 8.833069999999999311e+00 1.372764999999999986e+02 2.258284999999999854e+03
1.370000000000000107e-01 1.765315000000000079e-01 8.506095000000000184e+00 1.367789999999999964e+02 2.258100000000000364e+03
1.380000000000000115e-01 1.765145000000000186e-01 8.247514999999999930e+00 1.364194999999999993e+02 2.257949999999999818e+03
1.390000000000000124e-01 1.765019999999999922e-01 8.052979999999999805e+00 1.361859999999999786e+02 2.257840000000000146e+03
1.400000000000000133e-01 1.764930000000000110e-01 7.916714999999999947e+00 1.360620000000000118e+02 2.257760000000000218e+03
1.410000000000000142e-01 1.764875000000000194e-01 7.831775000000000375e+00 1.360300000000000011e+02 2.257710000000000036e+03
1.420000000000000151e-01 1.764850000000000030e-01 7.790445000000000064e+00 1.360705000000000098e+02 2.257680000000000291e+03
1.430000000000000160e-01 1.764844999999999886e-01 7.784565000000000623e+00 1.361639999999999873e+02 2.257670000000000073e+03
1.440000000000000169e-01 1.764854999999999896e-01 7.805825000000000458e+00 1.362920000000000016e+02 2.257675000000000182e+03
1.450000000000000178e-01 1.764880000000000060e-01 7.846095000000000041e+00 1.364364999999999952e+02 2.257690000000000055e+03
1.459999999999999909e-01 1.764910000000000090e-01 7.897674999999999557e+00 1.365819999999999936e+02 2.257715000000000146e+03
1.469999999999999918e-01 1.764939999999999842e-01 7.953515000000000335e+00 1.367149999999999750e+02 2.257739999999999782e+03
1.479999999999999927e-01 1.764970000000000150e-01 8.007445000000000590e+00 1.368224999999999909e+02 2.257765000000000327e+03
1.489999999999999936e-01 1.764995000000000036e-01 8.054285000000000139e+00 1.368974999999999795e+02 2.257784999999999854e+03
1.499999999999999944e-01 1.765010000000000190e-01 8.089999999999999858e+00 1.369329999999999927e+02 2.257795000000000073e+03
1.509999999999999953e-01 1.765010000000000190e-01 8.111720000000000041e+00 1.369259999999999877e+02 2.257800000000000182e+03
1.519999999999999962e-01 1.765005000000000046e-01 8.117770000000000152e+00 1.368759999999999764e+02 2.257789999999999964e+03
1.529999999999999971e-01 1.764979999999999882e-01 8.107594999999999885e+00 1.367849999999999966e+02 2.257775000000000091e+03
1.539999999999999980e-01 1.764950000000000130e-01 8.081649999999999778e+00 1.366564999999999941e+02 2.257750000000000000e+03
1.549999999999999989e-01 1.764910000000000090e-01 8.041225000000000733e+00 1.364970000000000141e+02 2.257720000000000255e+03
1.559999999999999998e-01 1.764864999999999906e-01 7.988259999999999472e+00 1.363134999999999764e+02 2.257675000000000182e+03
1.570000000000000007e-01 1.764804999999999846e-01 7.925085000000001045e+00 1.361119999999999948e+02 2.257630000000000109e+03
1.580000000000000016e-01 1.764745000000000064e-01 7.854189999999999117e+00 1.359000000000000057e+02 2.257579999999999927e+03
1.590000000000000024e-01 1.764674999999999994e-01 7.777989999999999959e+00 1.356839999999999975e+02 2.257525000000000091e+03
