# t [s], A [cm^2], U [cm/s], P [cPa], c [cm/s]
1.000000000000000021e-03 1.463980000000000004e-01 2.823869999999999991e-01 9.026404999999999745e+01 1.952545000000000073e+03
2.000000000000000042e-03 1.463645000000000085e-01 1.716752500000000126e+00 8.733209999999999695e+01 1.952175000000000182e+03
3.000000000000000062e-03 1.462645000000000195e-01 3.487544000000000199e+00 8.331784999999999286e+01 1.951130000000000109e+03
4.000000000000000083e-03 1.461230000000000029e-01 5.471631000000000355e+00 7.888129999999999598e+01 1.949670000000000073e+03
5.000000000000000104e-03 1.459659999999999846e-01 7.613159999999999705e+00 7.481664999999999566e+01 1.948075000000000045e+03
6.000000000000000125e-03 1.458125000000000115e-01 9.772875000000000867e+00 7.145685000000000286e+01 1.946519999999999982e+03
7.000000000000000146e-03 1.456680000000000197e-01 1.175400499999999937e+01 6.863939999999999486e+01 1.945085000000000036e+03
8.000000000000000167e-03 1.455334999999999823e-01 1.344656499999999966e+01 6.610519999999999641e+01 1.943769999999999982e+03
9.000000000000001055e-03 1.454125000000000001e-01 1.486980000000000146e+01 6.384229999999999450e+01 1.942610000000000127e+03
1.000000000000000194e-02 1.453074999999999783e-01 1.606514999999999915e+01 6.193910000000000338e+01 1.941610000000000127e+03
1.099999999999999936e-02 1.452200000000000157e-01 1.705000000000000071e+01 6.040274999999999750e+01 1.940784999999999854e+03
1.200000000000000025e-02 1.451479999999999992e-01 1.783910000000000196e+01 5.919190000000000396e+01 1.940119999999999891e+03
1.300000000000000114e-02 1.450909999999999977e-01 1.844405000000000072e+01 5.824864999999999782e+01 1.939590000000000146e+03
1.400000000000000203e-02 1.450450000000000073e-01 1.886625000000000085e+01 5.747885000000000133e+01 1.939175000000000182e+03
1.499999999999999944e-02 1.450065000000000104e-01 1.912525000000000119e+01 5.680214999999999748e+01 1.938835000000000036e+03
1.600000000000000033e-02 1.449749999999999928e-01 1.929619999999999891e+01 5.626905000000000001e+01 1.938570000000000164e+03
1.700000000000000122e-02 1.449564999999999881e-01 1.950585000000000235e+01 5.610719999999999885e+01 1.938414999999999964e+03
1.800000000000000211e-02 1.449564999999999881e-01 1.987924999999999898e+01 5.661674999999999613e+01 1.938425000000000182e+03
1.900000000000000300e-02 1.449819999999999998e-01 2.047404999999999831e+01 5.798264999999999958e+01 1.938670000000000073e+03
2.000000000000000042e-02 1.450325000000000086e-01 2.124750000000000227e+01 6.013230000000000075e+01 1.939150000000000091e+03
2.100000000000000130e-02 1.451020000000000088e-01 2.207049999999999912e+01 6.272160000000000224e+01 1.939809999999999945e+03
2.200000000000000219e-02 1.451790000000000025e-01 2.277689999999999770e+01 6.524375000000000568e+01 1.940549999999999955e+03
2.299999999999999961e-02 1.452499999999999902e-01 2.322214999999999918e+01 6.720064999999999600e+01 1.941244999999999891e+03
2.400000000000000050e-02 1.453029999999999877e-01 2.332840000000000202e+01 6.825995000000000346e+01 1.941780000000000200e+03
2.500000000000000139e-02 1.453329999999999900e-01 2.310215000000000174e+01 6.834299999999998931e+01 1.942085000000000036e+03
2.600000000000000228e-02 1.453375000000000083e-01 2.262120000000000175e+01 6.761969999999999459e+01 1.942164999999999964e+03
2.700000000000000316e-02 1.453234999999999943e-01 2.200045000000000073e+01 6.642230000000000700e+01 1.942050000000000182e+03
2.800000000000000058e-02 1.452984999999999971e-01 2.135089999999999932e+01 6.511934999999999718e+01 1.941824999999999818e+03
2.900000000000000147e-02 1.452704999999999969e-01 2.074654999999999916e+01 6.399694999999999823e+01 1.941559999999999945e+03
3.000000000000000236e-02 1.452454999999999996e-01 2.021014999999999873e+01 6.318710000000000093e+01 1.941325000000000045e+03
3.099999999999999978e-02 1.452255000000000074e-01 1.971689999999999898e+01 6.265789999999999793e+01 1.941125000000000000e+03
3.200000000000000067e-02 1.452094999999999914e-01 1.921389999999999887e+01 6.225724999999999909e+01 1.940969999999999800e+03
3.300000000000000155e-02 1.451925000000000021e-01 1.864564999999999984e+01 6.178799999999999670e+01 1.940809999999999945e+03
3.400000000000000244e-02 1.451715000000000089e-01 1.797769999999999868e+01 6.108870000000000289e+01 1.940610000000000127e+03
3.500000000000000333e-02 1.451434999999999809e-01 1.721280000000000143e+01 6.009614999999999441e+01 1.940349999999999909e+03
3.600000000000000422e-02 1.451075000000000004e-01 1.639519999999999911e+01 5.887409999999999854e+01 1.940019999999999982e+03
3.700000000000000511e-02 1.450684999999999891e-01 1.560190000000000055e+01 5.760179999999999723e+01 1.939650000000000091e+03
3.799999999999999906e-02 1.450309999999999933e-01 1.492394999999999960e+01 5.652660000000000196e+01 1.939289999999999964e+03
3.899999999999999994e-02 1.450019999999999920e-01 1.444345000000000034e+01 5.589634999999999820e+01 1.939000000000000000e+03
4.000000000000000083e-02 1.449874999999999914e-01 1.421310000000000073e+01 5.589189999999999969e+01 1.938849999999999909e+03
4.100000000000000172e-02 1.449914999999999954e-01 1.424324999999999974e+01 5.657869999999999777e+01 1.938875000000000000e+03
4.200000000000000261e-02 1.450150000000000050e-01 1.449939999999999962e+01 5.788884999999999792e+01 1.939079999999999927e+03
4.300000000000000350e-02 1.450549999999999895e-01 1.491009999999999991e+01 5.963495000000000346e+01 1.939444999999999936e+03
4.400000000000000439e-02 1.451060000000000128e-01 1.538020000000000032e+01 6.154885000000000161e+01 1.939920000000000073e+03
4.499999999999999833e-02 1.451605000000000256e-01 1.580794999999999817e+01 6.333265000000000100e+01 1.940430000000000064e+03
4.599999999999999922e-02 1.452100000000000057e-01 1.610105000000000075e+01 6.471049999999999613e+01 1.940905000000000200e+03
4.700000000000000011e-02 1.452470000000000150e-01 1.618799999999999883e+01 6.546920000000000073e+01 1.941269999999999982e+03
4.800000000000000100e-02 1.452665000000000206e-01 1.602485000000000070e+01 6.548275000000001000e+01 1.941460000000000036e+03
4.900000000000000189e-02 1.452645000000000186e-01 1.559659999999999869e+01 6.471850000000000591e+01 1.941454999999999927e+03
5.000000000000000278e-02 1.452390000000000070e-01 1.491365000000000052e+01 6.322659999999999769e+01 1.941230000000000018e+03
5.100000000000000366e-02 1.451925000000000021e-01 1.400554999999999950e+01 6.111884999999999479e+01 1.940799999999999955e+03
5.200000000000000455e-02 1.451274999999999926e-01 1.291396500000000103e+01 5.854279999999999973e+01 1.940184999999999945e+03
5.300000000000000544e-02 1.450469999999999815e-01 1.168598000000000070e+01 5.565695000000000192e+01 1.939425000000000182e+03
5.399999999999999939e-02 1.449555000000000149e-01 1.036956499999999970e+01 5.261239999999999384e+01 1.938565000000000055e+03
5.500000000000000028e-02 1.448585000000000012e-01 9.010820000000000718e+00 4.954260000000000019e+01 1.937634999999999991e+03
5.600000000000000117e-02 1.447589999999999988e-01 7.653499999999999304e+00 4.656009999999999849e+01 1.936690000000000055e+03
5.700000000000000205e-02 1.446604999999999974e-01 6.339370000000000616e+00 4.375990000000000180e+01 1.935744999999999891e+03
5.800000000000000294e-02 1.445664999999999867e-01 5.109329999999999927e+00 4.122534999999999883e+01 1.934844999999999800e+03
5.900000000000000383e-02 1.444799999999999973e-01 4.004364999999999952e+00 3.903435000000000343e+01 1.934019999999999982e+03
6.000000000000000472e-02 1.444044999999999912e-01 3.065587999999999980e+00 3.726324999999999932e+01 1.933284999999999854e+03
6.099999999999999867e-02 1.443424999999999847e-01 2.333500499999999978e+00 3.598855000000000359e+01 1.932684999999999945e+03
6.199999999999999956e-02 1.442964999999999942e-01 1.846376000000000017e+00 3.528464999999999918e+01 1.932230000000000018e+03
6.300000000000000044e-02 1.442694999999999950e-01 1.638001999999999958e+00 3.521900000000000119e+01 1.931954999999999927e+03
6.400000000000000133e-02 1.442634999999999890e-01 1.735289999999999999e+00 3.584640000000000271e+01 1.931875000000000000e+03
6.500000000000000222e-02 1.442799999999999916e-01 2.156095000000000095e+00 3.720270000000000010e+01 1.932014999999999873e+03
6.600000000000000311e-02 1.443220000000000058e-01 2.907610000000000028e+00 3.929999999999999716e+01 1.932389999999999873e+03
6.700000000000000400e-02 1.443875000000000020e-01 3.985650000000000137e+00 4.212385000000000446e+01 1.932990000000000009e+03
6.800000000000000488e-02 1.444775000000000087e-01 5.374760000000000204e+00 4.563354999999999961e+01 1.933829999999999927e+03
6.900000000000000577e-02 1.445909999999999973e-01 7.049239999999999284e+00 4.976385000000000502e+01 1.934889999999999873e+03
7.000000000000000666e-02 1.447255000000000069e-01 8.974615000000000009e+00 5.442964999999999520e+01 1.936159999999999854e+03
7.100000000000000755e-02 1.448784999999999934e-01 1.110997000000000057e+01 5.953144999999999953e+01 1.937599999999999909e+03
7.200000000000000844e-02 1.450464999999999949e-01 1.340967999999999982e+01 6.496129999999999427e+01 1.939200000000000045e+03
7.300000000000000933e-02 1.452269999999999950e-01 1.582610000000000028e+01 7.060899999999999466e+01 1.940924999999999955e+03
7.399999999999999634e-02 1.454159999999999897e-01 1.831150000000000233e+01 7.636754999999999427e+01 1.942735000000000127e+03
7.499999999999999722e-02 1.456104999999999761e-01 2.082000000000000028e+01 8.213820000000001187e+01 1.944610000000000127e+03
7.599999999999999811e-02 1.458069999999999922e-01 2.330975000000000108e+01 8.783435000000000059e+01 1.946505000000000109e+03
7.699999999999999900e-02 1.460025000000000073e-01 2.574410000000000309e+01 9.338514999999999588e+01 1.948400000000000091e+03
7.799999999999999989e-02 1.461950000000000194e-01 2.809319999999999951e+01 9.873769999999998959e+01 1.950269999999999982e+03
7.900000000000000078e-02 1.463824999999999987e-01 3.033474999999999966e+01 1.038592000000000013e+02 1.952105000000000018e+03
8.000000000000000167e-02 1.465635000000000132e-01 3.245425000000000182e+01 1.087348000000000070e+02 1.953875000000000000e+03
8.100000000000000255e-02 1.467380000000000073e-01 3.444505000000000194e+01 1.133695000000000022e+02 1.955589999999999918e+03
8.200000000000000344e-02 1.469055000000000222e-01 3.630745000000000289e+01 1.177824999999999989e+02 1.957240000000000009e+03
8.300000000000000433e-02 1.470660000000000023e-01 3.804784999999999684e+01 1.220070000000000050e+02 1.958825000000000045e+03
8.400000000000000522e-02 1.472209999999999908e-01 3.967695000000000505e+01 1.260819999999999936e+02 1.960359999999999900e+03
8.500000000000000611e-02 1.473720000000000030e-01 4.120844999999999914e+01 1.300509999999999877e+02 1.961855000000000018e+03
8.600000000000000699e-02 1.475184999999999969e-01 4.265684999999999860e+01 1.339550000000000125e+02 1.963309999999999945e+03
8.700000000000000788e-02 1.476635000000000031e-01 4.403629999999999711e+01 1.378294999999999959e+02 1.964750000000000000e+03
8.800000000000000877e-02 1.478069999999999939e-01 4.535895000000000010e+01 1.417024999999999864e+02 1.966174999999999955e+03
8.899999999999999578e-02 1.479495000000000116e-01 4.663394999999999868e+01 1.455889999999999986e+02 1.967594999999999800e+03
8.999999999999999667e-02 1.480925000000000158e-01 4.786684999999999945e+01 1.494934999999999832e+02 1.969014999999999873e+03
9.099999999999999756e-02 1.482355000000000200e-01 4.905915000000000248e+01 1.534085000000000036e+02 1.970440000000000055e+03
9.199999999999999845e-02 1.483780000000000099e-01 5.020839999999999748e+01 1.573139999999999930e+02 1.971855000000000018e+03
9.299999999999999933e-02 1.485195000000000265e-01 5.130859999999999843e+01 1.611825000000000045e+02 1.973269999999999982e+03
9.400000000000000022e-02 1.486595000000000000e-01 5.235054999999999836e+01 1.649769999999999754e+02 1.974670000000000073e+03
9.500000000000000111e-02 1.487964999999999982e-01 5.332285000000000252e+01 1.686589999999999918e+02 1.976039999999999964e+03
9.600000000000000200e-02 1.489300000000000068e-01 5.421245000000000402e+01 1.721854999999999905e+02 1.977369999999999891e+03
9.700000000000000289e-02 1.490575000000000094e-01 5.500560000000000116e+01 1.755144999999999982e+02 1.978654999999999973e+03
9.800000000000000377e-02 1.491780000000000050e-01 5.568885000000000218e+01 1.786055000000000064e+02 1.979865000000000009e+03
9.900000000000000466e-02 1.492910000000000070e-01 5.624960000000000093e+01 1.814234999999999900e+02 1.981005000000000109e+03
1.000000000000000056e-01 1.493944999999999856e-01 5.667690000000000339e+01 1.839379999999999882e+02 1.982049999999999955e+03
1.010000000000000064e-01 1.494880000000000098e-01 5.696209999999999951e+01 1.861265000000000214e+02 1.983000000000000000e+03
1.020000000000000073e-01 1.495704999999999951e-01 5.709924999999999784e+01 1.879735000000000014e+02 1.983835000000000036e+03
1.030000000000000082e-01 1.496415000000000106e-01 5.708545000000000158e+01 1.894720000000000084e+02 1.984565000000000055e+03
1.040000000000000091e-01 1.497010000000000007e-01 5.692119999999999891e+01 1.906229999999999905e+02 1.985174999999999955e+03
1.050000000000000100e-01 1.497485000000000066e-01 5.661034999999999684e+01 1.914354999999999905e+02 1.985664999999999964e+03
1.059999999999999970e-01 1.497844999999999871e-01 5.615994999999999493e+01 1.919259999999999877e+02 1.986034999999999854e+03
1.069999999999999979e-01 1.498090000000000255e-01 5.558034999999999570e+01 1.921200000000000045e+02 1.986300000000000182e+03
1.079999999999999988e-01 1.498234999999999983e-01 5.488439999999999941e+01 1.920455000000000041e+02 1.986460000000000036e+03
1.089999999999999997e-01 1.498289999999999900e-01 5.408740000000000236e+01 1.917375000000000114e+02 1.986529999999999973e+03
1.100000000000000006e-01 1.498260000000000147e-01 5.320615000000000094e+01 1.912339999999999804e+02 1.986505000000000109e+03
1.110000000000000014e-01 1.498154999999999903e-01 5.225849999999999795e+01 1.905735000000000241e+02 1.986414999999999964e+03
1.120000000000000023e-01 1.497994999999999743e-01 5.126269999999999527e+01 1.897955000000000041e+02 1.986259999999999991e+03
1.130000000000000032e-01 1.497789999999999955e-01 5.023659999999999570e+01 1.889375000000000000e+02 1.986059999999999945e+03
1.140000000000000041e-01 1.497545000000000126e-01 4.919709999999999894e+01 1.880344999999999800e+02 1.985824999999999818e+03
1.150000000000000050e-01 1.497280000000000000e-01 4.815975000000000250e+01 1.871179999999999950e+02 1.985559999999999945e+03
1.160000000000000059e-01 1.496999999999999997e-01 4.713800000000000523e+01 1.862135000000000105e+02 1.985284999999999854e+03
1.170000000000000068e-01 1.496719999999999995e-01 4.614310000000000400e+01 1.853430000000000177e+02 1.985005000000000109e+03
1.180000000000000077e-01 1.496439999999999992e-01 4.518379999999999797e+01 1.845204999999999984e+02 1.984724999999999909e+03
1.190000000000000085e-01 1.496175000000000144e-01 4.426595000000000368e+01 1.837555000000000121e+02 1.984454999999999927e+03
1.200000000000000094e-01 1.495920000000000027e-01 4.339294999999999902e+01 1.830509999999999877e+02 1.984195000000000164e+03
1.209999999999999964e-01 1.495680000000000065e-01 4.256539999999999679e+01 1.824049999999999727e+02 1.983950000000000045e+03
1.219999999999999973e-01 1.495454999999999979e-01 4.178140000000000498e+01 1.818089999999999975e+02 1.983719999999999800e+03
1.229999999999999982e-01 1.495245000000000046e-01 4.103674999999999784e+01 1.812514999999999930e+02 1.983500000000000000e+03
1.239999999999999991e-01 1.495035000000000114e-01 4.032540000000000191e+01 1.807170000000000130e+02 1.983289999999999964e+03
1.250000000000000000e-01 1.494834999999999914e-01 3.963985000000000269e+01 1.801875000000000000e+02 1.983089999999999918e+03
1.260000000000000009e-01 1.494639999999999858e-01 3.897145000000000437e+01 1.796415000000000077e+02 1.982884999999999991e+03
1.270000000000000018e-01 1.494435000000000069e-01 3.831099999999999994e+01 1.790595000000000141e+02 1.982679999999999836e+03
1.280000000000000027e-01 1.494214999999999849e-01 3.764905000000000257e+01 1.784209999999999923e+02 1.982454999999999927e+03
1.290000000000000036e-01 1.493980000000000030e-01 3.697670000000000101e+01 1.777069999999999936e+02 1.982220000000000027e+03
1.300000000000000044e-01 1.493720000000000048e-01 3.628575000000000017e+01 1.769010000000000105e+02 1.981954999999999927e+03
1.310000000000000053e-01 1.493430000000000035e-01 3.556915000000000049e+01 1.759904999999999973e+02 1.981664999999999964e+03
1.320000000000000062e-01 1.493105000000000127e-01 3.482150000000000034e+01 1.749655000000000200e+02 1.981340000000000146e+03
1.330000000000000071e-01 1.492745000000000044e-01 3.403914999999999935e+01 1.738220000000000027e+02 1.980980000000000018e+03
1.340000000000000080e-01 1.492344999999999922e-01 3.322060000000000457e+01 1.725584999999999809e+02 1.980579999999999927e+03
1.350000000000000089e-01 1.491905000000000037e-01 3.236629999999999541e+01 1.711814999999999998e+02 1.980144999999999982e+03
1.360000000000000098e-01 1.491429999999999978e-01 3.147879999999999967e+01 1.697005000000000052e+02 1.979674999999999955e+03
1.370000000000000107e-01 1.490920000000000023e-01 3.056289999999999907e+01 1.681290000000000191e+02 1.979170000000000073e+03
1.380000000000000115e-01 1.490380000000000038e-01 2.962500000000000000e+01 1.664850000000000136e+02 1.978630000000000109e+03
1.390000000000000124e-01 1.489810000000000023e-01 2.867330000000000112e+01 1.647895000000000039e+02 1.978069999999999936e+03
1.400000000000000133e-01 1.489229999999999998e-01 2.771705000000000041e+01 1.630665000000000191e+02 1.977485000000000127e+03
1.410000000000000142e-01 1.488639999999999963e-01 2.676655000000000229e+01 1.613414999999999964e+02 1.976894999999999982e+03
1.420000000000000151e-01 1.488039999999999918e-01 2.583239999999999981e+01 1.596394999999999982e+02 1.976304999999999836e+03
1.430000000000000160e-01 1.487445000000000017e-01 2.492499999999999716e+01 1.579850000000000136e+02 1.975715000000000146e+03
1.440000000000000169e-01 1.486870000000000136e-01 2.405465000000000231e+01 1.564014999999999986e+02 1.975139999999999873e+03
1.450000000000000178e-01 1.486314999999999997e-01 2.323045000000000115e+01 1.549089999999999918e+02 1.974585000000000036e+03
1.459999999999999909e-01 1.485785000000000022e-01 2.246045000000000158e+01 1.535255000000000223e+02 1.974055000000000064e+03
1.469999999999999918e-01 1.485289999999999944e-01 2.175100000000000122e+01 1.522640000000000100e+02 1.973559999999999945e+03
1.479999999999999927e-01 1.484840000000000049e-01 2.110679999999999978e+01 1.511335000000000264e+02 1.973105000000000018e+03
1.489999999999999936e-01 1.484425000000000050e-01 2.053079999999999927e+01 1.501390000000000100e+02 1.972690000000000055e+03
1.499999999999999944e-01 1.484054999999999958e-01 2.002390000000000114e+01 1.492805000000000177e+02 1.972320000000000164e+03
1.509999999999999953e-01 1.483730000000000049e-01 1.958525000000000205e+01 1.485544999999999902e+02 1.971985000000000127e+03
1.519999999999999962e-01 1.483450000000000046e-01 1.921229999999999905e+01 1.479534999999999911e+02 1.971700000000000045e+03
1.529999999999999971e-01 1.483209999999999806e-01 1.890105000000000146e+01 1.474669999999999845e+02 1.971454999999999927e+03
1.539999999999999980e-01 1.483005000000000018e-01 1.864625000000000199e+01 1.470829999999999984e+02 1.971250000000000000e+03
1.549999999999999989e-01 1.482839999999999991e-01 1.844174999999999898e+01 1.467860000000000014e+02 1.971079999999999927e+03
1.559999999999999998e-01 1.482704999999999995e-01 1.828054999999999808e+01 1.465609999999999786e+02 1.970934999999999945e+03
1.570000000000000007e-01 1.482594999999999885e-01 1.815549999999999997e+01 1.463924999999999841e+02 1.970824999999999818e+03
1.580000000000000016e-01 1.482505000000000073e-01 1.805930000000000035e+01 1.462649999999999864e+02 1.970730000000000018e+03
1.590000000000000024e-01 1.482435000000000003e-01 1.798474999999999824e+01 1.461644999999999754e+02 1.970650000000000091e+03
