# t [s], A [cm^2], U [cm/s], P [cPa], c [cm/s]
1.000000000000000021e-03 7.984879999999999756e-01 6.306799999999994355e-03 9.194214999999999804e+01 1.725284999999999854e+03
2.000000000000000042e-03 7.984725000000000295e-01 -6.155080000000000273e-03 9.190765000000000384e+01 1.725280000000000200e+03
3.000000000000000062e-03 7.985290000000000443e-01 7.907330000000001302e-02 9.200374999999999659e+01 1.725295000000000073e+03
4.000000000000000083e-03 7.985900000000000221e-01 1.832861999999999825e-01 9.213790000000000191e+01 1.725325000000000045e+03
5.000000000000000104e-03 7.985624999999999529e-01 1.698772000000000060e-01 9.209104999999999563e+01 1.725315000000000055e+03
6.000000000000000125e-03 7.984800000000000786e-01 7.327350000000001917e-02 9.186554999999999893e+01 1.725275000000000091e+03
7.000000000000000146e-03 7.984189999999999898e-01 -6.734999999999935483e-04 9.160779999999999745e+01 1.725220000000000027e+03
8.000000000000000167e-03 7.983284999999999965e-01 -1.292909999999999338e-01 9.124474999999999625e+01 1.725154999999999973e+03
9.000000000000001055e-03 7.981709999999999638e-01 -3.783849999999999714e-01 9.067425000000000068e+01 1.725049999999999955e+03
1.000000000000000194e-02 7.979435000000000278e-01 -7.531749999999999279e-01 8.985454999999998904e+01 1.724894999999999982e+03
1.099999999999999936e-02 7.976214999999999833e-01 -1.281124999999999847e+00 8.871199999999998909e+01 1.724679999999999836e+03
1.200000000000000025e-02 7.971939999999999582e-01 -1.968080000000000052e+00 8.719164999999999566e+01 1.724389999999999873e+03
1.300000000000000114e-02 7.967049999999999965e-01 -2.726160000000000139e+00 8.536825000000000330e+01 1.724029999999999973e+03
1.400000000000000203e-02 7.962385000000000712e-01 -3.398117500000000124e+00 8.344474999999999909e+01 1.723644999999999982e+03
1.499999999999999944e-02 7.958609999999999296e-01 -3.845191500000000318e+00 8.164114999999999611e+01 1.723269999999999982e+03
1.600000000000000033e-02 7.955909999999999371e-01 -4.009215000000000195e+00 8.008924999999999272e+01 1.722920000000000073e+03
1.700000000000000122e-02 7.953965000000000618e-01 -3.917475000000000041e+00 7.879704999999999870e+01 1.722615000000000009e+03
1.800000000000000211e-02 7.952239999999999309e-01 -3.649849999999999817e+00 7.767549999999999955e+01 1.722335000000000036e+03
1.900000000000000300e-02 7.950224999999999653e-01 -3.296025000000000205e+00 7.659510000000000218e+01 1.722065000000000055e+03
2.000000000000000042e-02 7.947619999999999685e-01 -2.920777000000000179e+00 7.544325000000000614e+01 1.721780000000000200e+03
2.100000000000000130e-02 7.944415000000000227e-01 -2.546266500000000210e+00 7.416474999999999795e+01 1.721474999999999909e+03
2.200000000000000219e-02 7.940825000000000244e-01 -2.154220000000000024e+00 7.277270000000000039e+01 1.721150000000000091e+03
2.299999999999999961e-02 7.937179999999999236e-01 -1.705075000000000118e+00 7.133095000000000141e+01 1.720805000000000064e+03
2.400000000000000050e-02 7.933749999999999414e-01 -1.164539999999999687e+00 6.991655000000000086e+01 1.720474999999999909e+03
2.500000000000000139e-02 7.930635000000000323e-01 -5.259800000000001141e-01 6.858150000000000546e+01 1.720144999999999982e+03
2.600000000000000228e-02 7.927724999999999911e-01 1.793000000000000149e-01 6.732644999999999413e+01 1.719835000000000036e+03
2.700000000000000316e-02 7.924735000000000529e-01 8.853599999999999248e-01 6.609479999999999222e+01 1.719534999999999854e+03
2.800000000000000058e-02 7.921259999999999968e-01 1.505865000000000009e+00 6.478544999999999732e+01 1.719220000000000027e+03
2.900000000000000147e-02 7.916954999999999965e-01 1.954574999999999951e+00 6.328019999999999357e+01 1.718869999999999891e+03
3.000000000000000236e-02 7.911574999999999580e-01 2.166929999999999801e+00 6.147744999999999749e+01 1.718474999999999909e+03
3.099999999999999978e-02 7.905100000000000460e-01 2.116624999999999979e+00 5.932404999999999973e+01 1.718009999999999991e+03
3.200000000000000067e-02 7.897734999999999062e-01 1.821869999999999656e+00 5.683435000000000059e+01 1.717480000000000018e+03
3.300000000000000155e-02 7.889859999999999651e-01 1.339054999999999662e+00 5.409069999999999823e+01 1.716904999999999973e+03
3.400000000000000244e-02 7.881944999999999091e-01 7.470749999999997115e-01 5.122579999999999956e+01 1.716299999999999955e+03
3.500000000000000333e-02 7.874459999999999793e-01 1.286300000000002441e-01 4.839515000000000100e+01 1.715695000000000164e+03
3.600000000000000422e-02 7.867764999999999898e-01 -4.451749999999998764e-01 4.574960000000000093e+01 1.715115000000000009e+03
3.700000000000000511e-02 7.862105000000000343e-01 -9.234749999999998238e-01 4.341389999999999816e+01 1.714589999999999918e+03
3.799999999999999906e-02 7.857600000000000140e-01 -1.277390000000000025e+00 4.147589999999999577e+01 1.714144999999999982e+03
3.899999999999999994e-02 7.854280000000000150e-01 -1.496375000000000011e+00 3.998510000000000275e+01 1.713780000000000200e+03
4.000000000000000083e-02 7.852084999999999759e-01 -1.581599999999999895e+00 3.895839999999999748e+01 1.713514999999999873e+03
4.100000000000000172e-02 7.850964999999999749e-01 -1.538477499999999942e+00 3.839045000000000130e+01 1.713345000000000027e+03
4.200000000000000261e-02 7.850869999999999793e-01 -1.370489999999999986e+00 3.826514999999999844e+01 1.713264999999999873e+03
4.300000000000000350e-02 7.851759999999999851e-01 -1.075527499999999970e+00 3.856504999999999939e+01 1.713284999999999854e+03
4.400000000000000439e-02 7.853645000000000209e-01 -6.454649999999999554e-01 3.927689999999999770e+01 1.713394999999999982e+03
4.499999999999999833e-02 7.856540000000000745e-01 -6.866499999999997605e-02 4.039244999999999663e+01 1.713595000000000027e+03
4.599999999999999922e-02 7.860445000000000348e-01 6.658349999999999547e-01 4.190534999999999854e+01 1.713884999999999991e+03
4.700000000000000011e-02 7.865345000000000253e-01 1.563819999999999766e+00 4.380575000000000330e+01 1.714250000000000000e+03
4.800000000000000100e-02 7.871179999999999843e-01 2.622550000000000381e+00 4.607500000000000284e+01 1.714704999999999927e+03
4.900000000000000189e-02 7.877855000000000274e-01 3.829189999999999650e+00 4.868210000000000548e+01 1.715240000000000009e+03
5.000000000000000278e-02 7.885225000000000151e-01 5.161254999999999704e+00 5.158240000000000691e+01 1.715835000000000036e+03
5.100000000000000366e-02 7.893114999999999437e-01 6.588775000000000048e+00 5.471930000000000405e+01 1.716485000000000127e+03
5.200000000000000455e-02 7.901344999999999619e-01 8.077365350000000888e+00 5.802785000000000082e+01 1.717184999999999945e+03
5.300000000000000544e-02 7.909729999999999261e-01 9.591779999999999973e+00 6.144015000000000271e+01 1.717914999999999964e+03
5.399999999999999939e-02 7.918115000000000014e-01 1.109907000000000110e+01 6.489025000000000887e+01 1.718659999999999854e+03
5.500000000000000028e-02 7.926360000000000072e-01 1.257089999999999996e+01 6.831955000000000666e+01 1.719409999999999854e+03
5.600000000000000117e-02 7.934384999999999355e-01 1.398529500000000070e+01 7.168025000000000091e+01 1.720154999999999973e+03
5.700000000000000205e-02 7.942120000000000291e-01 1.532692500000000102e+01 7.493725000000000591e+01 1.720884999999999991e+03
5.800000000000000294e-02 7.949545000000000083e-01 1.658660000000000068e+01 7.806874999999999432e+01 1.721589999999999918e+03
5.900000000000000383e-02 7.956655000000000255e-01 1.776069999999999993e+01 8.106544999999999845e+01 1.722275000000000091e+03
6.000000000000000472e-02 7.963474999999999859e-01 1.884955000000000069e+01 8.392834999999999468e+01 1.722930000000000064e+03
6.099999999999999867e-02 7.970040000000000457e-01 1.985679999999999978e+01 8.666689999999999827e+01 1.723569999999999936e+03
6.199999999999999956e-02 7.976395000000000568e-01 2.078764999999999930e+01 8.929574999999999818e+01 1.724180000000000064e+03
6.300000000000000044e-02 7.982579999999999121e-01 2.164824999999999733e+01 9.183269999999998845e+01 1.724769999999999982e+03
6.400000000000000133e-02 7.988640000000000185e-01 2.244470000000000098e+01 9.429564999999999486e+01 1.725345000000000027e+03
6.500000000000000222e-02 7.994609999999999772e-01 2.318224999999999980e+01 9.670130000000000337e+01 1.725904999999999973e+03
6.600000000000000311e-02 8.000500000000000389e-01 2.386475000000000080e+01 9.906149999999999523e+01 1.726454999999999927e+03
6.700000000000000400e-02 8.006325000000000802e-01 2.449419999999999931e+01 1.013842500000000086e+02 1.726994999999999891e+03
6.800000000000000488e-02 8.012075000000000724e-01 2.507049999999999912e+01 1.036701000000000050e+02 1.727525000000000091e+03
6.900000000000000577e-02 8.017719999999999292e-01 2.559170000000000300e+01 1.059149999999999920e+02 1.728045000000000073e+03
7.000000000000000666e-02 8.023234999999999673e-01 2.605434999999999945e+01 1.081085000000000065e+02 1.728559999999999945e+03
7.100000000000000755e-02 8.028570000000000428e-01 2.645400000000000063e+01 1.102365000000000066e+02 1.729059999999999945e+03
7.200000000000000844e-02 8.033689999999999998e-01 2.678584999999999994e+01 1.122824999999999989e+02 1.729539999999999964e+03
7.300000000000000933e-02 8.038534999999999986e-01 2.704540000000000077e+01 1.142284999999999968e+02 1.730000000000000000e+03
7.399999999999999634e-02 8.043074999999999530e-01 2.722885000000000133e+01 1.160554999999999950e+02 1.730429999999999836e+03
7.499999999999999722e-02 8.047269999999999701e-01 2.733375000000000199e+01 1.177489999999999952e+02 1.730840000000000146e+03
7.599999999999999811e-02 8.051095000000000335e-01 2.735844999999999771e+01 1.192940000000000111e+02 1.731215000000000146e+03
7.699999999999999900e-02 8.054520000000000568e-01 2.730295000000000272e+01 1.206800000000000068e+02 1.731555000000000064e+03
7.799999999999999989e-02 8.057539999999999702e-01 2.716799999999999926e+01 1.219004999999999939e+02 1.731860000000000127e+03
7.900000000000000078e-02 8.060145000000000781e-01 2.695560000000000045e+01 1.229500000000000028e+02 1.732119999999999891e+03
8.000000000000000167e-02 8.062335000000000473e-01 2.666854999999999976e+01 1.238280000000000030e+02 1.732355000000000018e+03
8.100000000000000255e-02 8.064109999999999889e-01 2.631060000000000088e+01 1.245349999999999966e+02 1.732545000000000073e+03
8.200000000000000344e-02 8.065485000000000015e-01 2.588664999999999949e+01 1.250760000000000076e+02 1.732695000000000164e+03
8.300000000000000433e-02 8.066474999999999618e-01 2.540265000000000128e+01 1.254579999999999984e+02 1.732809999999999945e+03
8.400000000000000522e-02 8.067109999999999559e-01 2.486565000000000225e+01 1.256910000000000025e+02 1.732889999999999873e+03
8.500000000000000611e-02 8.067429999999999879e-01 2.428399999999999892e+01 1.257889999999999873e+02 1.732934999999999945e+03
8.600000000000000699e-02 8.067465000000000330e-01 2.366705000000000325e+01 1.257665000000000077e+02 1.732960000000000036e+03
8.700000000000000788e-02 8.067265000000000130e-01 2.302490000000000236e+01 1.256419999999999959e+02 1.732950000000000045e+03
8.800000000000000877e-02 8.066880000000000717e-01 2.236809999999999832e+01 1.254350000000000023e+02 1.732925000000000182e+03
8.899999999999999578e-02 8.066355000000000608e-01 2.170714999999999861e+01 1.251655000000000086e+02 1.732880000000000109e+03
8.999999999999999667e-02 8.065744999999999720e-01 2.105205000000000126e+01 1.248530000000000086e+02 1.732819999999999936e+03
9.099999999999999756e-02 8.065089999999999204e-01 2.041174999999999784e+01 1.245165000000000077e+02 1.732755000000000109e+03
9.199999999999999845e-02 8.064424999999999510e-01 1.979349999999999810e+01 1.241744999999999948e+02 1.732684999999999945e+03
9.299999999999999933e-02 8.063780000000000392e-01 1.920289999999999964e+01 1.238384999999999962e+02 1.732615000000000009e+03
9.400000000000000022e-02 8.063175000000000203e-01 1.864335000000000164e+01 1.235210000000000008e+02 1.732539999999999964e+03
9.500000000000000111e-02 8.062620000000000342e-01 1.811629999999999896e+01 1.232274999999999920e+02 1.732474999999999909e+03
9.600000000000000200e-02 8.062119999999999287e-01 1.762109999999999843e+01 1.229620000000000033e+02 1.732409999999999854e+03
9.700000000000000289e-02 8.061654999999999793e-01 1.715524999999999878e+01 1.227235000000000014e+02 1.732349999999999909e+03
9.800000000000000377e-02 8.061229999999999229e-01 1.671474999999999866e+01 1.225084999999999980e+02 1.732300000000000182e+03
9.900000000000000466e-02 8.060815000000000063e-01 1.629455000000000098e+01 1.223104999999999905e+02 1.732250000000000000e+03
1.000000000000000056e-01 8.060395000000000199e-01 1.588860000000000028e+01 1.221219999999999999e+02 1.732200000000000045e+03
1.010000000000000064e-01 8.059950000000000170e-01 1.549054999999999893e+01 1.219344999999999999e+02 1.732150000000000091e+03
1.020000000000000073e-01 8.059450000000000225e-01 1.509394999999999953e+01 1.217374999999999972e+02 1.732099999999999909e+03
1.030000000000000082e-01 8.058879999999999377e-01 1.469249999999999901e+01 1.215225000000000080e+02 1.732049999999999955e+03
1.040000000000000091e-01 8.058214999999999684e-01 1.428064999999999962e+01 1.212810000000000059e+02 1.731994999999999891e+03
1.050000000000000100e-01 8.057455000000000034e-01 1.385350000000000037e+01 1.210064999999999884e+02 1.731934999999999945e+03
1.059999999999999970e-01 8.056585000000000552e-01 1.340734999999999921e+01 1.206935000000000002e+02 1.731865000000000009e+03
1.069999999999999979e-01 8.055600000000000538e-01 1.293976999999999933e+01 1.203404999999999916e+02 1.731789999999999964e+03
1.079999999999999988e-01 8.054514999999999869e-01 1.244986000000000104e+01 1.199470000000000027e+02 1.731699999999999818e+03
1.089999999999999997e-01 8.053335000000000354e-01 1.193816999999999950e+01 1.195165000000000077e+02 1.731610000000000127e+03
1.100000000000000006e-01 8.052090000000000636e-01 1.140663499999999964e+01 1.190545000000000044e+02 1.731505000000000109e+03
1.110000000000000014e-01 8.050789999999999891e-01 1.085887999999999920e+01 1.185685000000000002e+02 1.731400000000000091e+03
1.120000000000000023e-01 8.049479999999999968e-01 1.029959999999999987e+01 1.180699999999999932e+02 1.731295000000000073e+03
1.130000000000000032e-01 8.048184999999999922e-01 9.734624999999999417e+00 1.175699999999999932e+02 1.731184999999999945e+03
1.140000000000000041e-01 8.046944999999999792e-01 9.170445000000000846e+00 1.170835000000000008e+02 1.731079999999999927e+03
1.150000000000000050e-01 8.045789999999999331e-01 8.614184999999999093e+00 1.166229999999999905e+02 1.730974999999999909e+03
1.160000000000000059e-01 8.044755000000000100e-01 8.072890000000001010e+00 1.162035000000000053e+02 1.730875000000000000e+03
1.170000000000000068e-01 8.043879999999999919e-01 7.553470000000000795e+00 1.158385000000000105e+02 1.730795000000000073e+03
1.180000000000000077e-01 8.043190000000000062e-01 7.062295000000000655e+00 1.155395000000000039e+02 1.730720000000000027e+03
1.190000000000000085e-01 8.042709999999999582e-01 6.604829999999999757e+00 1.153164999999999907e+02 1.730664999999999964e+03
1.200000000000000094e-01 8.042445000000000288e-01 6.185454999999999259e+00 1.151774999999999949e+02 1.730625000000000000e+03
1.209999999999999964e-01 8.042409999999999837e-01 5.807235000000000369e+00 1.151270000000000095e+02 1.730605000000000018e+03
1.219999999999999973e-01 8.042605000000000448e-01 5.471854999999999691e+00 1.151659999999999968e+02 1.730609999999999900e+03
1.229999999999999982e-01 8.043019999999999614e-01 5.179534999999999556e+00 1.152934999999999945e+02 1.730625000000000000e+03
1.239999999999999991e-01 8.043640000000000789e-01 4.929109999999999658e+00 1.155055000000000121e+02 1.730659999999999854e+03
1.250000000000000000e-01 8.044439999999999369e-01 4.718154999999999433e+00 1.157934999999999945e+02 1.730715000000000146e+03
1.260000000000000009e-01 8.045400000000000329e-01 4.543160000000000309e+00 1.161490000000000009e+02 1.730785000000000082e+03
1.270000000000000018e-01 8.046480000000000299e-01 4.399774999999999991e+00 1.165604999999999905e+02 1.730865000000000009e+03
1.280000000000000027e-01 8.047659999999999814e-01 4.283064999999999678e+00 1.170150000000000006e+02 1.730960000000000036e+03
1.290000000000000036e-01 8.048900000000001054e-01 4.187770000000000437e+00 1.175010000000000048e+02 1.731059999999999945e+03
1.300000000000000044e-01 8.050174999999999415e-01 4.108559999999999768e+00 1.180039999999999907e+02 1.731164999999999964e+03
1.310000000000000053e-01 8.051440000000000818e-01 4.040239999999999831e+00 1.185120000000000005e+02 1.731275000000000091e+03
1.320000000000000062e-01 8.052684999999999427e-01 3.977945000000000064e+00 1.190134999999999934e+02 1.731384999999999991e+03
1.330000000000000071e-01 8.053879999999999928e-01 3.917254999999999932e+00 1.194975000000000023e+02 1.731494999999999891e+03
1.340000000000000080e-01 8.055004999999999526e-01 3.854314999999999714e+00 1.199565000000000055e+02 1.731599999999999909e+03
1.350000000000000089e-01 8.056045000000000567e-01 3.785874999999999879e+00 1.203830000000000098e+02 1.731694999999999936e+03
1.360000000000000098e-01 8.056984999999999841e-01 3.709340000000000082e+00 1.207704999999999984e+02 1.731779999999999973e+03
1.370000000000000107e-01 8.057825000000000681e-01 3.622755000000000170e+00 1.211159999999999997e+02 1.731865000000000009e+03
1.380000000000000115e-01 8.058559999999999057e-01 3.524815000000000254e+00 1.214174999999999898e+02 1.731940000000000055e+03
1.390000000000000124e-01 8.059180000000000232e-01 3.414820000000000189e+00 1.216734999999999900e+02 1.731994999999999891e+03
1.400000000000000133e-01 8.059695000000000054e-01 3.292650000000000077e+00 1.218845000000000027e+02 1.732050000000000182e+03
1.410000000000000142e-01 8.060110000000000330e-01 3.158694999999999808e+00 1.220519999999999925e+02 1.732095000000000027e+03
1.420000000000000151e-01 8.060424999999999951e-01 3.013785000000000380e+00 1.221779999999999973e+02 1.732130000000000109e+03
1.430000000000000160e-01 8.060654999999999903e-01 2.859129999999999949e+00 1.222660000000000053e+02 1.732154999999999973e+03
1.440000000000000169e-01 8.060804999999999776e-01 2.696189999999999642e+00 1.223185000000000002e+02 1.732174999999999955e+03
1.450000000000000178e-01 8.060879999999999157e-01 2.526625000000000121e+00 1.223395000000000010e+02 1.732184999999999945e+03
1.459999999999999909e-01 8.060894999999999033e-01 2.352145000000000152e+00 1.223329999999999984e+02 1.732190000000000055e+03
1.469999999999999918e-01 8.060855000000000103e-01 2.174459999999999837e+00 1.223019999999999925e+02 1.732190000000000055e+03
1.479999999999999927e-01 8.060764999999999736e-01 1.995159999999999823e+00 1.222489999999999952e+02 1.732180000000000064e+03
1.489999999999999936e-01 8.060629999999999740e-01 1.815634999999999888e+00 1.221779999999999973e+02 1.732164999999999964e+03
1.499999999999999944e-01 8.060460000000000402e-01 1.637065000000000214e+00 1.220894999999999868e+02 1.732150000000000091e+03
1.509999999999999953e-01 8.060249999999999915e-01 1.460336000000000078e+00 1.219855000000000018e+02 1.732130000000000109e+03
1.519999999999999962e-01 8.060000000000000497e-01 1.286051499999999903e+00 1.218665000000000020e+02 1.732105000000000018e+03
1.529999999999999971e-01 8.059709999999999930e-01 1.114552999999999905e+00 1.217330000000000041e+02 1.732079999999999927e+03
1.539999999999999980e-01 8.059385000000000021e-01 9.459370000000000278e-01 1.215835000000000008e+02 1.732049999999999955e+03
1.549999999999999989e-01 8.059015000000000484e-01 7.801139999999999741e-01 1.214180000000000064e+02 1.732014999999999873e+03
1.559999999999999998e-01 8.058600000000000207e-01 6.168860999999999928e-01 1.212344999999999970e+02 1.731974999999999909e+03
1.570000000000000007e-01 8.058130000000000015e-01 4.560130000000000017e-01 1.210330000000000013e+02 1.731929999999999836e+03
1.580000000000000016e-01 8.057609999999999495e-01 2.972954999999999903e-01 1.208110000000000070e+02 1.731884999999999991e+03
1.590000000000000024e-01 8.057030000000000580e-01 1.406584999999999641e-01 1.205685000000000002e+02 1.731829999999999927e+03
