# t [s], A [cm^2], U [cm/s], P [cPa], c [cm/s]
1.000000000000000021e-03 1.567240000000000022e-01 3.229329999999999701e-01 9.170945000000000391e+01 1.764750000000000000e+03
2.000000000000000042e-03 1.567009999999999792e-01 1.777728500000000045e+00 8.890645000000000664e+01 1.764525000000000091e+03
3.000000000000000062e-03 1.566069999999999962e-01 3.529875999999999792e+00 8.535165000000000646e+01 1.763674999999999955e+03
4.000000000000000083e-03 1.564634999999999776e-01 5.452391000000000432e+00 8.145680000000000121e+01 1.762394999999999982e+03
5.000000000000000104e-03 1.562959999999999905e-01 7.499905000000000044e+00 7.783350000000000080e+01 1.760914999999999964e+03
6.000000000000000125e-03 1.561234999999999984e-01 9.580759999999999721e+00 7.478835000000000832e+01 1.759400000000000091e+03
7.000000000000000146e-03 1.559555000000000247e-01 1.156021999999999927e+01 7.228029999999999688e+01 1.757945000000000164e+03
8.000000000000000167e-03 1.557955000000000034e-01 1.333358499999999935e+01 7.011995000000000289e+01 1.756579999999999927e+03
9.000000000000001055e-03 1.556474999999999942e-01 1.487603999999999971e+01 6.820360000000000866e+01 1.755329999999999927e+03
1.000000000000000194e-02 1.555139999999999856e-01 1.620960000000000178e+01 6.654604999999999393e+01 1.754214999999999918e+03
1.099999999999999936e-02 1.553964999999999930e-01 1.735245000000000104e+01 6.516694999999999993e+01 1.753244999999999891e+03
1.200000000000000025e-02 1.552955000000000030e-01 1.831174999999999997e+01 6.404044999999999277e+01 1.752414999999999964e+03
1.300000000000000114e-02 1.552100000000000146e-01 1.909345000000000070e+01 6.312100000000000222e+01 1.751724999999999909e+03
1.400000000000000203e-02 1.551374999999999837e-01 1.970425000000000182e+01 6.236005000000000109e+01 1.751144999999999982e+03
1.499999999999999944e-02 1.550770000000000204e-01 2.015259999999999962e+01 6.170810000000000173e+01 1.750670000000000073e+03
1.600000000000000033e-02 1.550254999999999828e-01 2.045980000000000132e+01 6.113734999999999786e+01 1.750275000000000091e+03
1.700000000000000122e-02 1.549824999999999953e-01 2.067330000000000112e+01 6.068169999999999931e+01 1.749950000000000045e+03
1.800000000000000211e-02 1.549504999999999910e-01 2.086430000000000007e+01 6.045130000000000337e+01 1.749710000000000036e+03
1.900000000000000300e-02 1.549329999999999874e-01 2.110810000000000031e+01 6.059770000000000323e+01 1.749585000000000036e+03
2.000000000000000042e-02 1.549345000000000028e-01 2.145694999999999908e+01 6.124370000000000402e+01 1.749615000000000009e+03
2.100000000000000130e-02 1.549564999999999970e-01 2.192009999999999792e+01 6.241779999999999973e+01 1.749804999999999836e+03
2.200000000000000219e-02 1.549995000000000123e-01 2.246130000000000138e+01 6.402549999999999386e+01 1.750164999999999964e+03
2.299999999999999961e-02 1.550580000000000014e-01 2.301044999999999874e+01 6.586744999999999095e+01 1.750654999999999973e+03
2.400000000000000050e-02 1.551259999999999861e-01 2.348574999999999946e+01 6.769209999999999638e+01 1.751224999999999909e+03
2.500000000000000139e-02 1.551945000000000130e-01 2.381569999999999965e+01 6.926009999999999422e+01 1.751799999999999955e+03
2.600000000000000228e-02 1.552560000000000051e-01 2.395584999999999809e+01 7.040010000000000900e+01 1.752320000000000164e+03
2.700000000000000316e-02 1.553054999999999852e-01 2.389549999999999841e+01 7.103960000000000719e+01 1.752750000000000000e+03
2.800000000000000058e-02 1.553400000000000059e-01 2.365514999999999901e+01 7.120689999999999031e+01 1.753054999999999836e+03
2.900000000000000147e-02 1.553599999999999981e-01 2.327595000000000169e+01 7.100685000000000002e+01 1.753240000000000009e+03
3.000000000000000236e-02 1.553674999999999917e-01 2.280624999999999858e+01 7.058185000000000286e+01 1.753319999999999936e+03
3.099999999999999978e-02 1.553664999999999907e-01 2.228869999999999862e+01 7.007025000000000148e+01 1.753320000000000164e+03
3.200000000000000067e-02 1.553599999999999981e-01 2.175184999999999746e+01 6.957420000000000471e+01 1.753275000000000091e+03
3.300000000000000155e-02 1.553515000000000035e-01 2.120734999999999815e+01 6.914374999999999716e+01 1.753214999999999918e+03
3.400000000000000244e-02 1.553415000000000212e-01 2.065245000000000175e+01 6.877785000000000082e+01 1.753134999999999991e+03
3.500000000000000333e-02 1.553315000000000112e-01 2.007600000000000051e+01 6.843954999999999700e+01 1.753059999999999945e+03
3.600000000000000422e-02 1.553200000000000136e-01 1.946634999999999849e+01 6.807810000000000628e+01 1.752970000000000027e+03
3.700000000000000511e-02 1.553065000000000140e-01 1.881835000000000235e+01 6.765189999999999770e+01 1.752860000000000127e+03
3.799999999999999906e-02 1.552894999999999970e-01 1.813759999999999906e+01 6.714615000000000578e+01 1.752724999999999909e+03
3.899999999999999994e-02 1.552700000000000191e-01 1.744265000000000043e+01 6.658180000000000121e+01 1.752565000000000055e+03
4.000000000000000083e-02 1.552479999999999971e-01 1.676255000000000095e+01 6.601435000000000741e+01 1.752394999999999982e+03
4.100000000000000172e-02 1.552270000000000039e-01 1.613240000000000052e+01 6.552330000000000609e+01 1.752219999999999800e+03
4.200000000000000261e-02 1.552089999999999859e-01 1.558699999999999974e+01 6.519535000000000480e+01 1.752070000000000164e+03
4.300000000000000350e-02 1.551970000000000016e-01 1.515419999999999945e+01 6.510545000000000471e+01 1.751974999999999909e+03
4.400000000000000439e-02 1.551934999999999842e-01 1.484965000000000046e+01 6.530019999999998959e+01 1.751934999999999945e+03
4.499999999999999833e-02 1.551994999999999902e-01 1.467370000000000019e+01 6.578675000000001205e+01 1.751985000000000127e+03
4.599999999999999922e-02 1.552169999999999939e-01 1.461084999999999923e+01 6.652984999999999616e+01 1.752115000000000009e+03
4.700000000000000011e-02 1.552430000000000199e-01 1.463234999999999886e+01 6.745605000000000473e+01 1.752324999999999818e+03
4.800000000000000100e-02 1.552764999999999840e-01 1.469955000000000034e+01 6.846430000000000859e+01 1.752590000000000146e+03
4.900000000000000189e-02 1.553134999999999932e-01 1.476954999999999885e+01 6.944010000000000105e+01 1.752890000000000100e+03
5.000000000000000278e-02 1.553499999999999881e-01 1.479994999999999905e+01 7.027060000000000173e+01 1.753184999999999945e+03
5.100000000000000366e-02 1.553820000000000201e-01 1.475319999999999965e+01 7.085759999999999081e+01 1.753449999999999818e+03
5.200000000000000455e-02 1.554065000000000030e-01 1.459989999999999988e+01 7.112739999999999441e+01 1.753650000000000091e+03
5.300000000000000544e-02 1.554200000000000026e-01 1.432035000000000124e+01 7.103594999999999970e+01 1.753765000000000100e+03
5.399999999999999939e-02 1.554204999999999892e-01 1.390510000000000090e+01 7.056929999999999836e+01 1.753775000000000091e+03
5.500000000000000028e-02 1.554069999999999896e-01 1.335405000000000086e+01 6.974094999999999800e+01 1.753664999999999964e+03
5.600000000000000117e-02 1.553795000000000037e-01 1.267504999999999882e+01 6.858629999999999427e+01 1.753444999999999936e+03
5.700000000000000205e-02 1.553390000000000049e-01 1.188209499999999963e+01 6.715620000000001255e+01 1.753115000000000009e+03
5.800000000000000294e-02 1.552864999999999940e-01 1.099377499999999941e+01 6.551059999999999661e+01 1.752684999999999945e+03
5.900000000000000383e-02 1.552235000000000142e-01 1.003150499999999923e+01 6.371309999999999718e+01 1.752174999999999955e+03
6.000000000000000472e-02 1.551534999999999997e-01 9.018805000000000405e+00 6.182750000000000057e+01 1.751599999999999909e+03
6.099999999999999867e-02 1.550775000000000070e-01 7.980459999999999887e+00 5.991514999999999702e+01 1.750974999999999909e+03
6.199999999999999956e-02 1.549984999999999835e-01 6.941969999999999530e+00 5.803475000000000250e+01 1.750324999999999818e+03
6.300000000000000044e-02 1.549185000000000145e-01 5.929655000000000342e+00 5.624184999999999945e+01 1.749670000000000073e+03
6.400000000000000133e-02 1.548404999999999920e-01 4.970209999999999795e+00 5.458979999999999677e+01 1.749025000000000091e+03
6.500000000000000222e-02 1.547665000000000013e-01 4.090539999999999843e+00 5.313009999999999877e+01 1.748414999999999964e+03
6.600000000000000311e-02 1.546989999999999754e-01 3.317285000000000039e+00 5.191240000000000521e+01 1.747855000000000018e+03
6.700000000000000400e-02 1.546405000000000141e-01 2.676278500000000005e+00 5.098385000000000389e+01 1.747365000000000009e+03
6.800000000000000488e-02 1.545924999999999938e-01 2.191700500000000051e+00 5.038850000000000051e+01 1.746970000000000027e+03
6.900000000000000577e-02 1.545580000000000009e-01 1.885243000000000002e+00 5.016519999999999868e+01 1.746674999999999955e+03
7.000000000000000666e-02 1.545380000000000087e-01 1.775174999999999947e+00 5.034609999999999985e+01 1.746505000000000109e+03
7.100000000000000755e-02 1.545345000000000191e-01 1.875504999999999978e+00 5.095484999999999332e+01 1.746460000000000036e+03
7.200000000000000844e-02 1.545484999999999776e-01 2.195249999999999702e+00 5.200485000000000468e+01 1.746565000000000055e+03
7.300000000000000933e-02 1.545814999999999828e-01 2.737944999999999851e+00 5.349810000000000088e+01 1.746819999999999936e+03
7.399999999999999634e-02 1.546325000000000061e-01 3.501409999999999911e+00 5.542504999999999882e+01 1.747224999999999909e+03
7.499999999999999722e-02 1.547029999999999794e-01 4.477795000000000414e+00 5.776420000000000243e+01 1.747789999999999964e+03
7.599999999999999811e-02 1.547914999999999985e-01 5.653925000000000090e+00 6.048344999999999771e+01 1.748505000000000109e+03
7.699999999999999900e-02 1.548975000000000213e-01 7.011849999999999028e+00 6.354144999999999754e+01 1.749360000000000127e+03
7.799999999999999989e-02 1.550185000000000035e-01 8.529685000000000628e+00 6.688939999999999486e+01 1.750345000000000027e+03
7.900000000000000078e-02 1.551540000000000141e-01 1.018251000000000062e+01 7.047360000000000468e+01 1.751450000000000045e+03
8.000000000000000167e-02 1.553014999999999812e-01 1.194332999999999956e+01 7.423765000000000214e+01 1.752659999999999854e+03
8.100000000000000255e-02 1.554584999999999995e-01 1.378425999999999974e+01 7.812524999999999409e+01 1.753954999999999927e+03
8.200000000000000344e-02 1.556234999999999979e-01 1.567735000000000056e+01 8.208220000000000027e+01 1.755315000000000055e+03
8.300000000000000433e-02 1.557935000000000014e-01 1.759584999999999866e+01 8.605854999999999677e+01 1.756724999999999909e+03
8.400000000000000522e-02 1.559670000000000223e-01 1.951474999999999937e+01 9.001035000000000252e+01 1.758159999999999854e+03
8.500000000000000611e-02 1.561414999999999886e-01 2.141149999999999665e+01 9.390104999999999791e+01 1.759615000000000009e+03
8.600000000000000699e-02 1.563160000000000105e-01 2.326679999999999993e+01 9.770189999999999486e+01 1.761069999999999936e+03
8.700000000000000788e-02 1.564885000000000026e-01 2.506470000000000198e+01 1.013924000000000092e+02 1.762509999999999991e+03
8.800000000000000877e-02 1.566580000000000195e-01 2.679285000000000139e+01 1.049603999999999928e+02 1.763940000000000055e+03
8.899999999999999578e-02 1.568235000000000046e-01 2.844229999999999947e+01 1.084014999999999986e+02 1.765335000000000036e+03
8.999999999999999667e-02 1.569849999999999857e-01 3.000754999999999839e+01 1.117175000000000011e+02 1.766699999999999818e+03
9.099999999999999756e-02 1.571425000000000183e-01 3.148600000000000065e+01 1.149159999999999968e+02 1.768029999999999973e+03
9.199999999999999845e-02 1.572954999999999770e-01 3.287765000000000271e+01 1.180080000000000098e+02 1.769329999999999927e+03
9.299999999999999933e-02 1.574440000000000006e-01 3.418434999999999491e+01 1.210074999999999932e+02 1.770595000000000027e+03
9.400000000000000022e-02 1.575890000000000069e-01 3.540935000000000343e+01 1.239279999999999973e+02 1.771829999999999927e+03
9.500000000000000111e-02 1.577304999999999957e-01 3.655680000000000263e+01 1.267840000000000060e+02 1.773039999999999964e+03
9.600000000000000200e-02 1.578694999999999959e-01 3.763105000000000189e+01 1.295875000000000057e+02 1.774230000000000018e+03
9.700000000000000289e-02 1.580054999999999932e-01 3.863625000000000398e+01 1.323474999999999966e+02 1.775394999999999982e+03
9.800000000000000377e-02 1.581400000000000028e-01 3.957594999999999885e+01 1.350710000000000264e+02 1.776545000000000073e+03
9.900000000000000466e-02 1.582719999999999960e-01 4.045284999999999798e+01 1.377584999999999980e+02 1.777679999999999836e+03
1.000000000000000056e-01 1.584025000000000016e-01 4.126834999999999809e+01 1.404094999999999800e+02 1.778799999999999955e+03
1.010000000000000064e-01 1.585310000000000052e-01 4.202280000000000371e+01 1.430180000000000007e+02 1.779904999999999973e+03
1.020000000000000073e-01 1.586575000000000069e-01 4.271544999999999703e+01 1.455749999999999886e+02 1.780994999999999891e+03
1.030000000000000082e-01 1.587814999999999921e-01 4.334409999999999741e+01 1.480690000000000168e+02 1.782065000000000055e+03
1.040000000000000091e-01 1.589025000000000021e-01 4.390590000000000259e+01 1.504850000000000136e+02 1.783110000000000127e+03
1.050000000000000100e-01 1.590205000000000091e-01 4.439710000000000178e+01 1.528075000000000045e+02 1.784130000000000109e+03
1.059999999999999970e-01 1.591345000000000121e-01 4.481334999999999980e+01 1.550204999999999984e+02 1.785115000000000009e+03
1.069999999999999979e-01 1.592439999999999967e-01 4.515014999999999645e+01 1.571080000000000041e+02 1.786059999999999945e+03
1.079999999999999988e-01 1.593475000000000030e-01 4.540305000000000035e+01 1.590525000000000091e+02 1.786965000000000146e+03
1.089999999999999997e-01 1.594459999999999766e-01 4.556784999999999997e+01 1.608410000000000082e+02 1.787815000000000055e+03
1.100000000000000006e-01 1.595369999999999844e-01 4.564074999999999704e+01 1.624604999999999961e+02 1.788610000000000127e+03
1.110000000000000014e-01 1.596215000000000273e-01 4.561884999999999479e+01 1.638999999999999773e+02 1.789345000000000027e+03
1.120000000000000023e-01 1.596974999999999922e-01 4.550019999999999953e+01 1.651524999999999750e+02 1.790009999999999991e+03
1.130000000000000032e-01 1.597655000000000047e-01 4.528390000000000271e+01 1.662125000000000057e+02 1.790610000000000127e+03
1.140000000000000041e-01 1.598255000000000092e-01 4.497019999999999840e+01 1.670780000000000030e+02 1.791134999999999991e+03
1.150000000000000050e-01 1.598775000000000057e-01 4.456085000000000207e+01 1.677504999999999882e+02 1.791590000000000146e+03
1.160000000000000059e-01 1.599200000000000066e-01 4.405870000000000175e+01 1.682345000000000255e+02 1.791974999999999909e+03
1.170000000000000068e-01 1.599539999999999851e-01 4.346819999999999595e+01 1.685364999999999895e+02 1.792275000000000091e+03
1.180000000000000077e-01 1.599804999999999977e-01 4.279484999999999673e+01 1.686659999999999968e+02 1.792509999999999991e+03
1.190000000000000085e-01 1.599984999999999880e-01 4.204549999999999699e+01 1.686354999999999791e+02 1.792674999999999955e+03
1.200000000000000094e-01 1.600090000000000123e-01 4.122799999999999443e+01 1.684604999999999961e+02 1.792775000000000091e+03
1.209999999999999964e-01 1.600119999999999876e-01 4.035105000000000075e+01 1.681554999999999893e+02 1.792815000000000055e+03
1.219999999999999973e-01 1.600094999999999990e-01 3.942390000000000327e+01 1.677379999999999995e+02 1.792800000000000182e+03
1.229999999999999982e-01 1.600004999999999900e-01 3.845635000000000048e+01 1.672264999999999873e+02 1.792730000000000018e+03
1.239999999999999991e-01 1.599869999999999903e-01 3.745824999999999960e+01 1.666384999999999934e+02 1.792619999999999891e+03
1.250000000000000000e-01 1.599690000000000001e-01 3.643935000000000457e+01 1.659904999999999973e+02 1.792469999999999800e+03
1.260000000000000009e-01 1.599480000000000068e-01 3.540899999999999892e+01 1.653004999999999995e+02 1.792289999999999964e+03
1.270000000000000018e-01 1.599230000000000096e-01 3.437604999999999933e+01 1.645819999999999936e+02 1.792085000000000036e+03
1.280000000000000027e-01 1.598964999999999970e-01 3.334844999999999970e+01 1.638489999999999895e+02 1.791855000000000018e+03
1.290000000000000036e-01 1.598689999999999833e-01 3.233319999999999794e+01 1.631119999999999948e+02 1.791615000000000009e+03
1.300000000000000044e-01 1.598394999999999955e-01 3.133624999999999972e+01 1.623799999999999955e+02 1.791360000000000127e+03
1.310000000000000053e-01 1.598100000000000076e-01 3.036214999999999975e+01 1.616594999999999800e+02 1.791105000000000018e+03
1.320000000000000062e-01 1.597794999999999910e-01 2.941449999999999676e+01 1.609540000000000077e+02 1.790844999999999800e+03
1.330000000000000071e-01 1.597494999999999887e-01 2.849524999999999864e+01 1.602644999999999982e+02 1.790585000000000036e+03
1.340000000000000080e-01 1.597195000000000142e-01 2.760560000000000258e+01 1.595905000000000200e+02 1.790319999999999936e+03
1.350000000000000089e-01 1.596895000000000120e-01 2.674524999999999864e+01 1.589289999999999736e+02 1.790059999999999945e+03
1.360000000000000098e-01 1.596595000000000097e-01 2.591290000000000049e+01 1.582755000000000223e+02 1.789800000000000182e+03
1.370000000000000107e-01 1.596299999999999941e-01 2.510640000000000072e+01 1.576234999999999786e+02 1.789545000000000073e+03
1.380000000000000115e-01 1.596005000000000063e-01 2.432300000000000040e+01 1.569660000000000082e+02 1.789279999999999973e+03
1.390000000000000124e-01 1.595695000000000030e-01 2.355904999999999916e+01 1.562950000000000159e+02 1.789019999999999982e+03
1.400000000000000133e-01 1.595384999999999998e-01 2.281060000000000088e+01 1.556020000000000039e+02 1.788744999999999891e+03
1.410000000000000142e-01 1.595070000000000099e-01 2.207359999999999900e+01 1.548789999999999907e+02 1.788469999999999800e+03
1.420000000000000151e-01 1.594734999999999903e-01 2.134389999999999787e+01 1.541175000000000068e+02 1.788174999999999955e+03
1.430000000000000160e-01 1.594389999999999974e-01 2.061735000000000184e+01 1.533110000000000070e+02 1.787875000000000000e+03
1.440000000000000169e-01 1.594019999999999881e-01 1.989025000000000176e+01 1.524530000000000030e+02 1.787559999999999945e+03
1.450000000000000178e-01 1.593634999999999913e-01 1.915925000000000011e+01 1.515374999999999943e+02 1.787224999999999909e+03
1.459999999999999909e-01 1.593225000000000058e-01 1.842164999999999964e+01 1.505614999999999952e+02 1.786869999999999891e+03
1.469999999999999918e-01 1.592784999999999895e-01 1.767545000000000144e+01 1.495244999999999891e+02 1.786490000000000009e+03
1.479999999999999927e-01 1.592319999999999847e-01 1.691944999999999766e+01 1.484240000000000066e+02 1.786090000000000146e+03
1.489999999999999936e-01 1.591834999999999778e-01 1.615334999999999965e+01 1.472634999999999934e+02 1.785664999999999964e+03
1.499999999999999944e-01 1.591314999999999813e-01 1.537770000000000081e+01 1.460455000000000041e+02 1.785224999999999909e+03
1.509999999999999953e-01 1.590774999999999828e-01 1.459404999999999930e+01 1.447764999999999986e+02 1.784760000000000218e+03
1.519999999999999962e-01 1.590209999999999957e-01 1.380470000000000041e+01 1.434629999999999939e+02 1.784275000000000091e+03
1.529999999999999971e-01 1.589619999999999922e-01 1.301299999999999990e+01 1.421150000000000091e+02 1.783769999999999982e+03
1.539999999999999980e-01 1.589015000000000011e-01 1.222270499999999949e+01 1.407419999999999902e+02 1.783255000000000109e+03
1.549999999999999989e-01 1.588394999999999946e-01 1.143851499999999888e+01 1.393539999999999850e+02 1.782724999999999909e+03
1.559999999999999998e-01 1.587770000000000015e-01 1.066536999999999935e+01 1.379650000000000034e+02 1.782184999999999945e+03
1.570000000000000007e-01 1.587139999999999940e-01 9.908519999999999328e+00 1.365854999999999961e+02 1.781644999999999982e+03
1.580000000000000016e-01 1.586509999999999865e-01 9.173329999999999984e+00 1.352289999999999850e+02 1.781105000000000018e+03
1.590000000000000024e-01 1.585885000000000211e-01 8.465135000000000076e+00 1.339055000000000177e+02 1.780565000000000055e+03
