# t [s], A [cm^2], U [cm/s], P [cPa], c [cm/s]
1.000000000000000021e-03 5.173384999999999234e-01 1.997749999999999526e-03 9.433095000000000141e+01 1.581579999999999927e+03
2.000000000000000042e-03 5.173364999999999769e-01 1.221880000000000188e-02 9.431360000000000809e+01 1.581575000000000045e+03
3.000000000000000062e-03 5.173995000000000122e-01 1.519737000000000171e-01 9.445844999999999914e+01 1.581615000000000009e+03
4.000000000000000083e-03 5.174239999999999950e-01 2.207520000000000038e-01 9.453924999999999557e+01 1.581640000000000100e+03
5.000000000000000104e-03 5.173769999999999758e-01 1.366219999999999657e-01 9.438114999999999100e+01 1.581605000000000018e+03
6.000000000000000125e-03 5.173134999999999817e-01 4.238500000000033907e-03 9.406385000000000218e+01 1.581525000000000091e+03
7.000000000000000146e-03 5.172345000000000415e-01 -1.711749999999999661e-01 9.361070000000000846e+01 1.581409999999999854e+03
8.000000000000000167e-03 5.170949999999999713e-01 -4.923500000000000654e-01 9.288894999999999413e+01 1.581224999999999909e+03
9.000000000000001055e-03 5.168865000000000265e-01 -9.738499999999999934e-01 9.182785000000001219e+01 1.580949999999999818e+03
1.000000000000000194e-02 5.166029999999999234e-01 -1.612449999999999939e+00 9.038374999999999204e+01 1.580575000000000045e+03
1.099999999999999936e-02 5.162259999999999627e-01 -2.428560000000000052e+00 8.848689999999999145e+01 1.580059999999999945e+03
1.200000000000000025e-02 5.157620000000000537e-01 -3.379399999999999959e+00 8.614150000000000773e+01 1.579414999999999964e+03
1.300000000000000114e-02 5.152689999999999770e-01 -4.305785000000000196e+00 8.352410000000000423e+01 1.578670000000000073e+03
1.400000000000000203e-02 5.148255000000000470e-01 -4.995104999999999684e+00 8.094124999999999659e+01 1.577904999999999973e+03
1.499999999999999944e-02 5.144874999999999865e-01 -5.290237000000000300e+00 7.868784999999999741e+01 1.577195000000000164e+03
1.600000000000000033e-02 5.142640000000000544e-01 -5.152815000000000367e+00 7.692539999999999623e+01 1.576594999999999800e+03
1.700000000000000122e-02 5.141225000000000378e-01 -4.660124999999999851e+00 7.564045000000000130e+01 1.576094999999999800e+03
1.800000000000000211e-02 5.140084999999999793e-01 -3.959029999999999827e+00 7.467584999999999695e+01 1.575684999999999945e+03
1.900000000000000300e-02 5.138675000000000326e-01 -3.205029999999999824e+00 7.380615000000000236e+01 1.575309999999999945e+03
2.000000000000000042e-02 5.136650000000000382e-01 -2.508716250000000425e+00 7.282595000000000596e+01 1.574920000000000073e+03
2.100000000000000130e-02 5.133965000000000334e-01 -1.908150000000000235e+00 7.161664999999999281e+01 1.574480000000000018e+03
2.200000000000000219e-02 5.130779999999999230e-01 -1.376170000000000115e+00 7.016724999999999568e+01 1.573990000000000009e+03
2.299999999999999961e-02 5.127380000000000271e-01 -8.548749999999998295e-01 6.854650000000000887e+01 1.573450000000000045e+03
2.400000000000000050e-02 5.123999999999999666e-01 -2.971200000000000507e-01 6.684780000000000655e+01 1.572884999999999991e+03
2.500000000000000139e-02 5.120710000000000539e-01 3.039800000000001390e-01 6.513559999999999661e+01 1.572309999999999945e+03
2.600000000000000228e-02 5.117404999999999315e-01 9.056299999999999351e-01 6.341285000000000593e+01 1.571720000000000027e+03
2.700000000000000316e-02 5.113840000000000607e-01 1.424684999999999757e+00 6.161499999999999488e+01 1.571115000000000009e+03
2.800000000000000058e-02 5.109725000000000517e-01 1.759605000000000086e+00 5.962864999999999327e+01 1.570449999999999818e+03
2.900000000000000147e-02 5.104775000000000285e-01 1.817725000000000257e+00 5.732595000000000596e+01 1.569715000000000146e+03
3.000000000000000236e-02 5.098840000000000039e-01 1.540654999999999664e+00 5.460585000000000377e+01 1.568869999999999891e+03
3.099999999999999978e-02 5.091935000000000766e-01 9.213599999999999568e-01 5.143025000000000091e+01 1.567910000000000082e+03
3.200000000000000067e-02 5.084279999999999911e-01 8.250000000000312639e-03 4.784465000000000146e+01 1.566835000000000036e+03
3.300000000000000155e-02 5.076235000000000053e-01 -1.103830000000000311e+00 4.397825000000000273e+01 1.565674999999999955e+03
3.400000000000000244e-02 5.068245000000000111e-01 -2.291879999999999917e+00 4.002590000000000003e+01 1.564480000000000018e+03
3.500000000000000333e-02 5.060790000000000566e-01 -3.426150000000000251e+00 3.621719999999999828e+01 1.563300000000000182e+03
3.600000000000000422e-02 5.054285000000000583e-01 -4.389015000000000555e+00 3.278385000000000105e+01 1.562210000000000036e+03
3.700000000000000511e-02 5.049069999999999947e-01 -5.087215000000000487e+00 2.993055000000000021e+01 1.561255000000000109e+03
3.799999999999999906e-02 5.045359999999999845e-01 -5.457791999999999533e+00 2.781510000000000105e+01 1.560500000000000000e+03
3.899999999999999994e-02 5.043279999999999985e-01 -5.467274999999999885e+00 2.653849999999999909e+01 1.559970000000000027e+03
4.000000000000000083e-02 5.042854999999999421e-01 -5.106794999999999973e+00 2.614515000000000100e+01 1.559694999999999936e+03
4.100000000000000172e-02 5.044020000000000170e-01 -4.384924999999999962e+00 2.663040000000000163e+01 1.559679999999999836e+03
4.200000000000000261e-02 5.046684999999999643e-01 -3.320733999999999853e+00 2.795250000000000057e+01 1.559920000000000073e+03
4.300000000000000350e-02 5.050719999999999654e-01 -1.938565000000000094e+00 3.004514999999999958e+01 1.560404999999999973e+03
4.400000000000000439e-02 5.056000000000000494e-01 -2.655100000000003568e-01 3.282835000000000036e+01 1.561109999999999900e+03
4.499999999999999833e-02 5.062360000000000193e-01 1.668630000000000280e+00 3.621459999999999724e+01 1.562019999999999982e+03
4.599999999999999922e-02 5.069649999999999990e-01 3.829849999999999977e+00 4.011214999999999975e+01 1.563110000000000127e+03
4.700000000000000011e-02 5.077694999999999848e-01 6.178090000000000082e+00 4.442549999999999955e+01 1.564345000000000027e+03
4.800000000000000100e-02 5.086300000000000265e-01 8.666405000000001024e+00 4.905480000000000018e+01 1.565694999999999936e+03
4.900000000000000189e-02 5.095275000000000221e-01 1.124169950000000107e+01 5.389669999999999561e+01 1.567139999999999873e+03
5.000000000000000278e-02 5.104414999999999925e-01 1.384674499999999853e+01 5.884624999999999773e+01 1.568639999999999873e+03
5.100000000000000366e-02 5.113524999999999876e-01 1.642383999999999844e+01 6.380074999999999363e+01 1.570170000000000073e+03
5.200000000000000455e-02 5.122425000000000450e-01 1.891852499999999893e+01 6.866485000000000127e+01 1.571690000000000055e+03
5.300000000000000544e-02 5.130980000000000540e-01 2.128330000000000055e+01 7.335575000000000045e+01 1.573184999999999945e+03
5.399999999999999939e-02 5.139070000000000027e-01 2.348045000000000115e+01 7.780819999999999936e+01 1.574630000000000109e+03
5.500000000000000028e-02 5.146635000000000515e-01 2.548404999999999987e+01 8.197775000000000034e+01 1.576010000000000218e+03
5.600000000000000117e-02 5.153655000000000319e-01 2.728014999999999901e+01 8.584209999999998786e+01 1.577309999999999945e+03
5.700000000000000205e-02 5.160139999999999727e-01 2.886619999999999919e+01 8.940090000000000714e+01 1.578529999999999973e+03
5.800000000000000294e-02 5.166155000000000053e-01 3.024984999999999857e+01 9.267334999999999923e+01 1.579664999999999964e+03
5.900000000000000383e-02 5.171765000000000390e-01 3.144664999999999822e+01 9.569440000000000168e+01 1.580730000000000018e+03
6.000000000000000472e-02 5.177055000000000407e-01 3.247820000000000107e+01 9.851054999999999495e+01 1.581730000000000018e+03
6.099999999999999867e-02 5.182134999999999936e-01 3.337014999999999532e+01 1.011772500000000008e+02 1.582680000000000064e+03
6.199999999999999956e-02 5.187100000000000044e-01 3.415030000000000143e+01 1.037501499999999908e+02 1.583595000000000027e+03
6.300000000000000044e-02 5.192054999999999865e-01 3.484705000000000297e+01 1.062864999999999895e+02 1.584490000000000009e+03
6.400000000000000133e-02 5.197089999999999765e-01 3.548810000000000286e+01 1.088389999999999986e+02 1.585384999999999991e+03
6.500000000000000222e-02 5.202280000000000237e-01 3.609895000000000209e+01 1.114530000000000030e+02 1.586279999999999973e+03
6.600000000000000311e-02 5.207684999999999675e-01 3.670179999999999865e+01 1.141645000000000039e+02 1.587210000000000036e+03
6.700000000000000400e-02 5.213335000000000052e-01 3.731369999999999720e+01 1.169979999999999905e+02 1.588164999999999964e+03
6.800000000000000488e-02 5.219249999999999723e-01 3.794599999999999795e+01 1.199660000000000082e+02 1.589154999999999973e+03
6.900000000000000577e-02 5.225414999999999921e-01 3.860314999999999941e+01 1.230645000000000095e+02 1.590180000000000064e+03
7.000000000000000666e-02 5.231780000000000319e-01 3.928229999999999933e+01 1.262770000000000010e+02 1.591239999999999782e+03
7.100000000000000755e-02 5.238289999999999891e-01 3.997355000000000302e+01 1.295709999999999980e+02 1.592329999999999927e+03
7.200000000000000844e-02 5.244834999999999914e-01 4.066084999999999638e+01 1.329035000000000082e+02 1.593430000000000064e+03
7.300000000000000933e-02 5.251320000000000432e-01 4.132300000000000040e+01 1.362205000000000155e+02 1.594534999999999854e+03
7.399999999999999634e-02 5.257629999999999804e-01 4.193564999999999543e+01 1.394615000000000009e+02 1.595615000000000009e+03
7.499999999999999722e-02 5.263634999999999842e-01 4.247270000000000323e+01 1.425639999999999930e+02 1.596664999999999964e+03
7.599999999999999811e-02 5.269239999999999480e-01 4.290874999999999773e+01 1.454669999999999845e+02 1.597654999999999973e+03
7.699999999999999900e-02 5.274334999999999996e-01 4.322060000000000457e+01 1.481140000000000043e+02 1.598579999999999927e+03
7.799999999999999989e-02 5.278829999999999911e-01 4.338859999999999673e+01 1.504569999999999936e+02 1.599414999999999964e+03
7.900000000000000078e-02 5.282675000000000010e-01 4.339825000000000443e+01 1.524594999999999914e+02 1.600144999999999982e+03
8.000000000000000167e-02 5.285825000000000662e-01 4.324054999999999893e+01 1.540980000000000132e+02 1.600769999999999982e+03
8.100000000000000255e-02 5.288275000000000059e-01 4.291254999999999598e+01 1.553620000000000232e+02 1.601279999999999973e+03
8.200000000000000344e-02 5.290034999999999599e-01 4.241745000000000232e+01 1.562549999999999955e+02 1.601670000000000073e+03
8.300000000000000433e-02 5.291139999999999732e-01 4.176420000000000243e+01 1.567934999999999945e+02 1.601950000000000045e+03
8.400000000000000522e-02 5.291649999999999965e-01 4.096694999999999709e+01 1.570049999999999955e+02 1.602119999999999891e+03
8.500000000000000611e-02 5.291635000000000089e-01 4.004415000000000191e+01 1.569279999999999973e+02 1.602190000000000055e+03
8.600000000000000699e-02 5.291185000000000471e-01 3.901805000000000234e+01 1.566064999999999827e+02 1.602175000000000182e+03
8.700000000000000788e-02 5.290384999999999671e-01 3.791310000000000002e+01 1.560910000000000082e+02 1.602089999999999918e+03
8.800000000000000877e-02 5.289329999999999865e-01 3.675515000000000043e+01 1.554329999999999927e+02 1.601940000000000055e+03
8.899999999999999578e-02 5.288125000000000187e-01 3.557049999999999557e+01 1.546870000000000118e+02 1.601755000000000109e+03
8.999999999999999667e-02 5.286859999999999893e-01 3.438410000000000366e+01 1.539010000000000105e+02 1.601550000000000182e+03
9.099999999999999756e-02 5.285609999999999475e-01 3.321945000000000192e+01 1.531225000000000023e+02 1.601329999999999927e+03
9.199999999999999845e-02 5.284444999999999837e-01 3.209694999999999965e+01 1.523915000000000077e+02 1.601110000000000127e+03
9.299999999999999933e-02 5.283430000000000071e-01 3.103324999999999889e+01 1.517390000000000043e+02 1.600904999999999973e+03
9.400000000000000022e-02 5.282600000000000628e-01 3.004094999999999871e+01 1.511899999999999977e+02 1.600724999999999909e+03
9.500000000000000111e-02 5.281974999999999865e-01 2.912805000000000177e+01 1.507584999999999980e+02 1.600575000000000045e+03
9.600000000000000200e-02 5.281564999999999177e-01 2.829769999999999897e+01 1.504495000000000005e+02 1.600460000000000036e+03
9.700000000000000289e-02 5.281354999999999800e-01 2.754879999999999995e+01 1.502605000000000075e+02 1.600375000000000000e+03
9.800000000000000377e-02 5.281325000000000047e-01 2.687570000000000192e+01 1.501795000000000186e+02 1.600320000000000164e+03
9.900000000000000466e-02 5.281439999999999468e-01 2.626940000000000097e+01 1.501870000000000118e+02 1.600295000000000073e+03
1.000000000000000056e-01 5.281649999999999956e-01 2.571770000000000067e+01 1.502604999999999791e+02 1.600295000000000073e+03
1.010000000000000064e-01 5.281894999999999785e-01 2.520615000000000094e+01 1.503720000000000141e+02 1.600305000000000064e+03
1.020000000000000073e-01 5.282129999999999326e-01 2.471924999999999883e+01 1.504900000000000091e+02 1.600324999999999818e+03
1.030000000000000082e-01 5.282299999999999773e-01 2.424065000000000225e+01 1.505844999999999914e+02 1.600340000000000146e+03
1.040000000000000091e-01 5.282339999999999813e-01 2.375475000000000136e+01 1.506260000000000048e+02 1.600345000000000027e+03
1.050000000000000100e-01 5.282219999999999693e-01 2.324684999999999846e+01 1.505869999999999891e+02 1.600329999999999927e+03
1.059999999999999970e-01 5.281884999999999497e-01 2.270450000000000301e+01 1.504454999999999814e+02 1.600289999999999964e+03
1.069999999999999979e-01 5.281320000000000459e-01 2.211744999999999806e+01 1.501839999999999975e+02 1.600210000000000036e+03
1.079999999999999988e-01 5.280494999999999495e-01 2.147860000000000014e+01 1.497899999999999920e+02 1.600099999999999909e+03
1.089999999999999997e-01 5.279420000000000224e-01 2.078415000000000035e+01 1.492599999999999909e+02 1.599945000000000164e+03
1.100000000000000006e-01 5.278085000000000138e-01 2.003354999999999819e+01 1.485935000000000059e+02 1.599744999999999891e+03
1.110000000000000014e-01 5.276520000000000099e-01 1.922990000000000066e+01 1.477990000000000066e+02 1.599514999999999873e+03
1.120000000000000023e-01 5.274754999999999860e-01 1.837935000000000230e+01 1.468915000000000077e+02 1.599244999999999891e+03
1.130000000000000032e-01 5.272824999999999873e-01 1.749099999999999966e+01 1.458894999999999982e+02 1.598940000000000055e+03
1.140000000000000041e-01 5.270774999999999766e-01 1.657639999999999958e+01 1.448154999999999859e+02 1.598615000000000009e+03
1.150000000000000050e-01 5.268660000000000565e-01 1.564900000000000091e+01 1.436974999999999909e+02 1.598269999999999982e+03
1.160000000000000059e-01 5.266530000000000378e-01 1.472351500000000080e+01 1.425634999999999764e+02 1.597914999999999964e+03
1.170000000000000068e-01 5.264444999999999819e-01 1.381511000000000067e+01 1.414435000000000002e+02 1.597559999999999945e+03
1.180000000000000077e-01 5.262450000000000738e-01 1.293895499999999998e+01 1.403650000000000091e+02 1.597210000000000036e+03
1.190000000000000085e-01 5.260599999999999721e-01 1.210925500000000099e+01 1.393550000000000182e+02 1.596869999999999891e+03
1.200000000000000094e-01 5.258930000000000549e-01 1.133877000000000024e+01 1.384359999999999786e+02 1.596565000000000055e+03
1.209999999999999964e-01 5.257479999999999931e-01 1.063822500000000026e+01 1.376285000000000025e+02 1.596284999999999854e+03
1.219999999999999973e-01 5.256269999999999554e-01 1.001589000000000063e+01 1.369454999999999814e+02 1.596039999999999964e+03
1.229999999999999982e-01 5.255309999999999704e-01 9.477145000000000152e+00 1.363960000000000150e+02 1.595835000000000036e+03
1.239999999999999991e-01 5.254604999999999970e-01 9.024604999999999322e+00 1.359825000000000159e+02 1.595664999999999964e+03
1.250000000000000000e-01 5.254145000000000065e-01 8.657764999999999489e+00 1.357030000000000030e+02 1.595539999999999964e+03
1.260000000000000009e-01 5.253915000000000113e-01 8.373525000000000773e+00 1.355509999999999877e+02 1.595460000000000036e+03
1.270000000000000018e-01 5.253889999999999949e-01 8.166209999999999525e+00 1.355115000000000123e+02 1.595410000000000082e+03
1.280000000000000027e-01 5.254035000000000233e-01 8.027984999999999260e+00 1.355715000000000146e+02 1.595394999999999982e+03
1.290000000000000036e-01 5.254315000000000513e-01 7.949335000000000484e+00 1.357100000000000080e+02 1.595404999999999973e+03
1.300000000000000044e-01 5.254685000000000050e-01 7.919525000000000148e+00 1.359080000000000155e+02 1.595440000000000055e+03
1.310000000000000053e-01 5.255119999999999791e-01 7.927080000000000126e+00 1.361430000000000007e+02 1.595490000000000009e+03
1.320000000000000062e-01 5.255570000000000519e-01 7.960304999999999964e+00 1.363940000000000055e+02 1.595545000000000073e+03
1.330000000000000071e-01 5.256000000000000671e-01 8.007704999999999629e+00 1.366409999999999911e+02 1.595610000000000127e+03
1.340000000000000080e-01 5.256374999999999797e-01 8.058464999999999989e+00 1.368659999999999854e+02 1.595670000000000073e+03
1.350000000000000089e-01 5.256680000000000241e-01 8.102750000000000341e+00 1.370515000000000043e+02 1.595724999999999909e+03
1.360000000000000098e-01 5.256874999999999742e-01 8.132020000000000692e+00 1.371854999999999905e+02 1.595759999999999991e+03
1.370000000000000107e-01 5.256954999999999822e-01 8.139260000000000161e+00 1.372579999999999814e+02 1.595784999999999854e+03
1.380000000000000115e-01 5.256899999999999906e-01 8.119109999999999161e+00 1.372615000000000123e+02 1.595795000000000073e+03
1.390000000000000124e-01 5.256715000000000693e-01 8.067964999999999165e+00 1.371935000000000002e+02 1.595779999999999973e+03
1.400000000000000133e-01 5.256395000000000373e-01 7.983954999999999913e+00 1.370529999999999973e+02 1.595744999999999891e+03
1.410000000000000142e-01 5.255954999999999933e-01 7.866895000000000415e+00 1.368444999999999823e+02 1.595684999999999945e+03
1.420000000000000151e-01 5.255400000000000071e-01 7.718170000000000641e+00 1.365709999999999980e+02 1.595610000000000127e+03
1.430000000000000160e-01 5.254745000000000665e-01 7.540569999999999773e+00 1.362419999999999902e+02 1.595519999999999982e+03
1.440000000000000169e-01 5.254010000000000069e-01 7.338065000000000282e+00 1.358654999999999973e+02 1.595409999999999854e+03
1.450000000000000178e-01 5.253220000000000667e-01 7.115569999999999951e+00 1.354529999999999745e+02 1.595284999999999854e+03
1.459999999999999909e-01 5.252390000000000114e-01 6.878674999999999429e+00 1.350149999999999864e+02 1.595155000000000200e+03
1.469999999999999918e-01 5.251535000000000508e-01 6.633339999999999570e+00 1.345629999999999882e+02 1.595019999999999982e+03
1.479999999999999927e-01 5.250690000000000079e-01 6.385609999999999786e+00 1.341089999999999804e+02 1.594880000000000109e+03
1.489999999999999936e-01 5.249859999999999527e-01 6.141365000000000407e+00 1.336620000000000061e+02 1.594735000000000127e+03
1.499999999999999944e-01 5.249074999999999713e-01 5.906024999999999636e+00 1.332319999999999993e+02 1.594599999999999909e+03
1.509999999999999953e-01 5.248329999999999940e-01 5.684339999999999726e+00 1.328255000000000052e+02 1.594470000000000027e+03
1.519999999999999962e-01 5.247649999999999260e-01 5.480235000000000412e+00 1.324484999999999957e+02 1.594345000000000027e+03
1.529999999999999971e-01 5.247034999999999894e-01 5.296635000000000204e+00 1.321050000000000182e+02 1.594224999999999909e+03
1.539999999999999980e-01 5.246474999999999334e-01 5.135460000000000136e+00 1.317965000000000089e+02 1.594125000000000000e+03
1.549999999999999989e-01 5.245990000000000375e-01 4.997560000000000002e+00 1.315229999999999961e+02 1.594025000000000091e+03
1.559999999999999998e-01 5.245554999999999524e-01 4.882794999999999774e+00 1.312830000000000155e+02 1.593940000000000055e+03
1.570000000000000007e-01 5.245180000000000398e-01 4.790124999999999744e+00 1.310715000000000146e+02 1.593860000000000127e+03
1.580000000000000016e-01 5.244839999999999502e-01 4.717710000000000292e+00 1.308849999999999909e+02 1.593789999999999964e+03
1.590000000000000024e-01 5.244529999999999470e-01 4.663120000000000154e+00 1.307169999999999845e+02 1.593730000000000018e+03
