# t [s], A [cm^2], U [cm/s], P [cPa], c [cm/s]
1.000000000000000021e-03 4.817660000000000275e-01 2.522800000000005594e-03 9.652045000000001096e+01 1.475994999999999891e+03
2.000000000000000042e-03 4.817600000000000215e-01 8.494700000000001729e-04 9.650390000000000157e+01 1.475994999999999891e+03
3.000000000000000062e-03 4.817949999999999733e-01 7.325914999999999511e-02 9.657134999999999536e+01 1.476014999999999873e+03
4.000000000000000083e-03 4.818354999999999722e-01 1.586374999999999869e-01 9.667400000000000659e+01 1.476045000000000073e+03
5.000000000000000104e-03 4.818330000000000113e-01 1.589365000000000083e-01 9.667395000000000493e+01 1.476049999999999955e+03
6.000000000000000125e-03 4.817989999999999773e-01 9.007149999999999879e-02 9.655010000000000048e+01 1.476025000000000091e+03
7.000000000000000146e-03 4.817620000000000235e-01 1.188949999999999729e-02 9.635829999999999984e+01 1.475980000000000018e+03
8.000000000000000167e-03 4.817155000000000187e-01 -9.318799999999999306e-02 9.608905000000000030e+01 1.475914999999999964e+03
9.000000000000001055e-03 4.816349999999999798e-01 -2.791799999999999837e-01 9.567525000000000546e+01 1.475809999999999945e+03
1.000000000000000194e-02 4.815104999999999524e-01 -5.634149999999999991e-01 9.507044999999999391e+01 1.475664999999999964e+03
1.099999999999999936e-02 4.813374999999999737e-01 -9.513799999999998924e-01 9.423924999999999841e+01 1.475450000000000045e+03
1.200000000000000025e-02 4.811050000000000049e-01 -1.453214999999999701e+00 9.314064999999999372e+01 1.475164999999999964e+03
1.300000000000000114e-02 4.808145000000000335e-01 -2.054305000000000270e+00 9.176044999999999163e+01 1.474800000000000182e+03
1.400000000000000203e-02 4.804840000000000222e-01 -2.691419999999999924e+00 9.014820000000000277e+01 1.474359999999999900e+03
1.499999999999999944e-02 4.801499999999999657e-01 -3.266544999999999810e+00 8.841560000000001196e+01 1.473869999999999891e+03
1.600000000000000033e-02 4.798439999999999928e-01 -3.684674999999999923e+00 8.669735000000000014e+01 1.473375000000000000e+03
1.700000000000000122e-02 4.795860000000000123e-01 -3.886294500000000429e+00 8.510454999999998904e+01 1.472884999999999991e+03
1.800000000000000211e-02 4.793754999999999544e-01 -3.859688000000000230e+00 8.369614999999998872e+01 1.472420000000000073e+03
1.900000000000000300e-02 4.791995000000000005e-01 -3.634556499999999968e+00 8.247270000000000323e+01 1.472000000000000000e+03
2.000000000000000042e-02 4.790370000000000461e-01 -3.265206599999999959e+00 8.138859999999999673e+01 1.471605000000000018e+03
2.100000000000000130e-02 4.788675000000000015e-01 -2.810948500000000294e+00 8.037450000000001182e+01 1.471230000000000018e+03
2.200000000000000219e-02 4.786779999999999369e-01 -2.319476000000000315e+00 7.936144999999999072e+01 1.470849999999999909e+03
2.299999999999999961e-02 4.784620000000000539e-01 -1.817004999999999981e+00 7.830065000000000452e+01 1.470464999999999918e+03
2.400000000000000050e-02 4.782229999999999537e-01 -1.307379999999999987e+00 7.717289999999999850e+01 1.470065000000000055e+03
2.500000000000000139e-02 4.779700000000000060e-01 -7.792550000000000310e-01 7.598650000000000659e+01 1.469650000000000091e+03
2.600000000000000228e-02 4.777124999999999844e-01 -2.177750000000000519e-01 7.476550000000000296e+01 1.469224999999999909e+03
2.700000000000000316e-02 4.774570000000000203e-01 3.839900000000002755e-01 7.353495000000000914e+01 1.468800000000000182e+03
2.800000000000000058e-02 4.772029999999999883e-01 1.017639999999999878e+00 7.230710000000000548e+01 1.468369999999999891e+03
2.900000000000000147e-02 4.769455000000000222e-01 1.657629999999999937e+00 7.107429999999999382e+01 1.467940000000000055e+03
3.000000000000000236e-02 4.766739999999999866e-01 2.264635000000000176e+00 6.980790000000000362e+01 1.467494999999999891e+03
3.099999999999999978e-02 4.763755000000000073e-01 2.792720000000000091e+00 6.846414999999998940e+01 1.467029999999999973e+03
3.200000000000000067e-02 4.760389999999999899e-01 3.198274999999999757e+00 6.699434999999999718e+01 1.466534999999999854e+03
3.300000000000000155e-02 4.756575000000000664e-01 3.448714999999999975e+00 6.535689999999999600e+01 1.466005000000000109e+03
3.400000000000000244e-02 4.752284999999999426e-01 3.529199999999999893e+00 6.352894999999999470e+01 1.465420000000000073e+03
3.500000000000000333e-02 4.747590000000000421e-01 3.445739999999999803e+00 6.151460000000000150e+01 1.464789999999999964e+03
3.600000000000000422e-02 4.742605000000000293e-01 3.224575000000000191e+00 5.934790000000000276e+01 1.464125000000000000e+03
3.700000000000000511e-02 4.737509999999999777e-01 2.907534999999999759e+00 5.709044999999999703e+01 1.463430000000000064e+03
3.799999999999999906e-02 4.732505000000000184e-01 2.545575000000000365e+00 5.482404999999999973e+01 1.462724999999999909e+03
3.899999999999999994e-02 4.727799999999999780e-01 2.191705000000000236e+00 5.264155000000000229e+01 1.462039999999999964e+03
4.000000000000000083e-02 4.723574999999999857e-01 1.894950000000000134e+00 5.063609999999999900e+01 1.461390000000000100e+03
4.100000000000000172e-02 4.719974999999999588e-01 1.696030000000000371e+00 4.889284999999999570e+01 1.460809999999999945e+03
4.200000000000000261e-02 4.717130000000000489e-01 1.625630000000000130e+00 4.748270000000000124e+01 1.460320000000000164e+03
4.300000000000000350e-02 4.715104999999999991e-01 1.704340000000000188e+00 4.645870000000000033e+01 1.459930000000000064e+03
4.400000000000000439e-02 4.713945000000000496e-01 1.944118500000000083e+00 4.585580000000000211e+01 1.459664999999999964e+03
4.499999999999999833e-02 4.713660000000000072e-01 2.350530000000000008e+00 4.569225000000000136e+01 1.459525000000000091e+03
4.599999999999999922e-02 4.714254999999999973e-01 2.925005000000000077e+00 4.597245000000000203e+01 1.459519999999999982e+03
4.700000000000000011e-02 4.715705000000000036e-01 3.666695000000000260e+00 4.669044999999999845e+01 1.459639999999999873e+03
4.800000000000000100e-02 4.717989999999999684e-01 4.573560000000000514e+00 4.783315000000000339e+01 1.459900000000000091e+03
4.900000000000000189e-02 4.721080000000000276e-01 5.642520000000000202e+00 4.938209999999999411e+01 1.460285000000000082e+03
5.000000000000000278e-02 4.724935000000000107e-01 6.869114999999999860e+00 5.131510000000000105e+01 1.460795000000000073e+03
5.100000000000000366e-02 4.729499999999999815e-01 8.246290000000000120e+00 5.360634999999999195e+01 1.461424999999999955e+03
5.200000000000000455e-02 4.734730000000000327e-01 9.763835000000000264e+00 5.622620000000000573e+01 1.462159999999999854e+03
5.300000000000000544e-02 4.740544999999999898e-01 1.140746500000000019e+01 5.914054999999999751e+01 1.462994999999999891e+03
5.399999999999999939e-02 4.746875000000000400e-01 1.315887500000000188e+01 6.231104999999999450e+01 1.463920000000000073e+03
5.500000000000000028e-02 4.753619999999999512e-01 1.499598499999999923e+01 6.569509999999999650e+01 1.464920000000000073e+03
5.600000000000000117e-02 4.760685000000000056e-01 1.689378500000000116e+01 6.924694999999999823e+01 1.465985000000000127e+03
5.700000000000000205e-02 4.767974999999999852e-01 1.882578499999999977e+01 7.291889999999999361e+01 1.467099999999999909e+03
5.800000000000000294e-02 4.775385000000000324e-01 2.076525000000000176e+01 7.666334999999999411e+01 1.468250000000000000e+03
5.900000000000000383e-02 4.782830000000000137e-01 2.268665000000000020e+01 8.043475000000000819e+01 1.469425000000000182e+03
6.000000000000000472e-02 4.790240000000000054e-01 2.456665000000000276e+01 8.419139999999998736e+01 1.470605000000000018e+03
6.099999999999999867e-02 4.797540000000000138e-01 2.638535000000000252e+01 8.789750000000000796e+01 1.471789999999999964e+03
6.199999999999999956e-02 4.804674999999999918e-01 2.812655000000000172e+01 9.152355000000000018e+01 1.472960000000000036e+03
6.300000000000000044e-02 4.811619999999999786e-01 2.977805000000000035e+01 9.504789999999999850e+01 1.474110000000000127e+03
6.400000000000000133e-02 4.818344999999999989e-01 3.133185000000000286e+01 9.845529999999999404e+01 1.475240000000000009e+03
6.500000000000000222e-02 4.824850000000000527e-01 3.278334999999999866e+01 1.017394999999999925e+02 1.476329999999999927e+03
6.600000000000000311e-02 4.831135000000000290e-01 3.413139999999999930e+01 1.048990500000000026e+02 1.477394999999999982e+03
6.700000000000000400e-02 4.837215000000000265e-01 3.537734999999999985e+01 1.079393000000000029e+02 1.478425000000000182e+03
6.800000000000000488e-02 4.843115000000000059e-01 3.652485000000000070e+01 1.108679999999999950e+02 1.479424999999999955e+03
6.900000000000000577e-02 4.848845000000000516e-01 3.757860000000000156e+01 1.136980000000000075e+02 1.480400000000000091e+03
7.000000000000000666e-02 4.854445000000000010e-01 3.854460000000000264e+01 1.164424999999999955e+02 1.481344999999999800e+03
7.100000000000000755e-02 4.859924999999999384e-01 3.942889999999999873e+01 1.191135000000000019e+02 1.482264999999999873e+03
7.200000000000000844e-02 4.865310000000000468e-01 4.023735000000000639e+01 1.217245000000000061e+02 1.483170000000000073e+03
7.300000000000000933e-02 4.870625000000000093e-01 4.097540000000000049e+01 1.242860000000000014e+02 1.484054999999999836e+03
7.399999999999999634e-02 4.875869999999999926e-01 4.164735000000000298e+01 1.268040000000000020e+02 1.484930000000000064e+03
7.499999999999999722e-02 4.881050000000000111e-01 4.225629999999999598e+01 1.292839999999999918e+02 1.485785000000000082e+03
7.599999999999999811e-02 4.886165000000000092e-01 4.280405000000000371e+01 1.317264999999999873e+02 1.486630000000000109e+03
7.699999999999999900e-02 4.891199999999999992e-01 4.329090000000000060e+01 1.341265000000000214e+02 1.487460000000000036e+03
7.799999999999999989e-02 4.896129999999999649e-01 4.371600000000000108e+01 1.364780000000000086e+02 1.488275000000000091e+03
7.900000000000000078e-02 4.900944999999999885e-01 4.407710000000000150e+01 1.387699999999999818e+02 1.489079999999999927e+03
8.000000000000000167e-02 4.905605000000000659e-01 4.437134999999999962e+01 1.409900000000000091e+02 1.489849999999999909e+03
8.100000000000000255e-02 4.910084999999999589e-01 4.459519999999999840e+01 1.431239999999999952e+02 1.490595000000000027e+03
8.200000000000000344e-02 4.914355000000000251e-01 4.474500000000000455e+01 1.451550000000000011e+02 1.491320000000000164e+03
8.300000000000000433e-02 4.918385000000000118e-01 4.481714999999999804e+01 1.470695000000000050e+02 1.491994999999999891e+03
8.400000000000000522e-02 4.922134999999999705e-01 4.480854999999999677e+01 1.488509999999999991e+02 1.492639999999999873e+03
8.500000000000000611e-02 4.925589999999999691e-01 4.471665000000000134e+01 1.504870000000000232e+02 1.493235000000000127e+03
8.600000000000000699e-02 4.928725000000000467e-01 4.454009999999999536e+01 1.519669999999999845e+02 1.493784999999999854e+03
8.700000000000000788e-02 4.931530000000000080e-01 4.427839999999999776e+01 1.532814999999999941e+02 1.494279999999999973e+03
8.800000000000000877e-02 4.933990000000000320e-01 4.393234999999999957e+01 1.544259999999999877e+02 1.494720000000000027e+03
8.899999999999999578e-02 4.936105000000000076e-01 4.350400000000000489e+01 1.553975000000000080e+02 1.495109999999999900e+03
8.999999999999999667e-02 4.937874999999999903e-01 4.299670000000000414e+01 1.561970000000000027e+02 1.495434999999999945e+03
9.099999999999999756e-02 4.939304999999999946e-01 4.241505000000000081e+01 1.568294999999999959e+02 1.495710000000000036e+03
9.199999999999999845e-02 4.940424999999999400e-01 4.176489999999999725e+01 1.573004999999999995e+02 1.495934999999999945e+03
9.299999999999999933e-02 4.941235000000000488e-01 4.105299999999999727e+01 1.576200000000000045e+02 1.496099999999999909e+03
9.400000000000000022e-02 4.941769999999999774e-01 4.028714999999999691e+01 1.578000000000000114e+02 1.496220000000000027e+03
9.500000000000000111e-02 4.942055000000000198e-01 3.947590000000000288e+01 1.578545000000000016e+02 1.496295000000000073e+03
9.600000000000000200e-02 4.942119999999999846e-01 3.862834999999999752e+01 1.577984999999999900e+02 1.496329999999999927e+03
9.700000000000000289e-02 4.942000000000000282e-01 3.775384999999999991e+01 1.576490000000000009e+02 1.496325000000000045e+03
9.800000000000000377e-02 4.941719999999999446e-01 3.686180000000000234e+01 1.574225000000000136e+02 1.496299999999999955e+03
9.900000000000000466e-02 4.941325000000000300e-01 3.596144999999999925e+01 1.571354999999999791e+02 1.496240000000000009e+03
1.000000000000000056e-01 4.940835000000000088e-01 3.506139999999999901e+01 1.568050000000000068e+02 1.496164999999999964e+03
1.010000000000000064e-01 4.940289999999999404e-01 3.416960000000000264e+01 1.564459999999999980e+02 1.496074999999999818e+03
1.020000000000000073e-01 4.939700000000000202e-01 3.329294999999999760e+01 1.560724999999999909e+02 1.495974999999999909e+03
1.030000000000000082e-01 4.939105000000000301e-01 3.243719999999999715e+01 1.556949999999999932e+02 1.495865000000000009e+03
1.040000000000000091e-01 4.938510000000000399e-01 3.160644999999999882e+01 1.553240000000000123e+02 1.495750000000000000e+03
1.050000000000000100e-01 4.937930000000000375e-01 3.080355000000000132e+01 1.549664999999999964e+02 1.495639999999999873e+03
1.059999999999999970e-01 4.937370000000000370e-01 3.002970000000000184e+01 1.546254999999999882e+02 1.495535000000000082e+03
1.069999999999999979e-01 4.936834999999999973e-01 2.928459999999999752e+01 1.543034999999999854e+02 1.495425000000000182e+03
1.079999999999999988e-01 4.936315000000000008e-01 2.856649999999999778e+01 1.539984999999999786e+02 1.495320000000000164e+03
1.089999999999999997e-01 4.935809999999999920e-01 2.787239999999999895e+01 1.537069999999999936e+02 1.495215000000000146e+03
1.100000000000000006e-01 4.935300000000000242e-01 2.719839999999999947e+01 1.534250000000000114e+02 1.495119999999999891e+03
1.110000000000000014e-01 4.934775000000000134e-01 2.653954999999999842e+01 1.531435000000000173e+02 1.495019999999999982e+03
1.120000000000000023e-01 4.934224999999999861e-01 2.589055000000000106e+01 1.528545000000000016e+02 1.494920000000000073e+03
1.130000000000000032e-01 4.933624999999999816e-01 2.524584999999999724e+01 1.525504999999999995e+02 1.494815000000000055e+03
1.140000000000000041e-01 4.932954999999999979e-01 2.459994999999999976e+01 1.522225000000000250e+02 1.494704999999999927e+03
1.150000000000000050e-01 4.932210000000000205e-01 2.394760000000000133e+01 1.518605000000000018e+02 1.494585000000000036e+03
1.160000000000000059e-01 4.931370000000000475e-01 2.328405000000000058e+01 1.514590000000000032e+02 1.494454999999999927e+03
1.170000000000000068e-01 4.930430000000000090e-01 2.260539999999999949e+01 1.510109999999999957e+02 1.494309999999999945e+03
1.180000000000000077e-01 4.929379999999999873e-01 2.190854999999999819e+01 1.505115000000000123e+02 1.494150000000000091e+03
1.190000000000000085e-01 4.928215000000000234e-01 2.119144999999999968e+01 1.499574999999999818e+02 1.493974999999999909e+03
1.200000000000000094e-01 4.926935000000000064e-01 2.045315000000000083e+01 1.493489999999999895e+02 1.493784999999999854e+03
1.209999999999999964e-01 4.925545000000000062e-01 1.969389999999999930e+01 1.486859999999999786e+02 1.493579999999999927e+03
1.219999999999999973e-01 4.924060000000000104e-01 1.891489999999999938e+01 1.479724999999999966e+02 1.493349999999999909e+03
1.229999999999999982e-01 4.922485000000000332e-01 1.811860000000000070e+01 1.472130000000000223e+02 1.493115000000000009e+03
1.239999999999999991e-01 4.920835000000000070e-01 1.730825000000000102e+01 1.464134999999999991e+02 1.492865000000000009e+03
1.250000000000000000e-01 4.919124999999999748e-01 1.648799999999999955e+01 1.455825000000000102e+02 1.492599999999999909e+03
1.260000000000000009e-01 4.917374999999999940e-01 1.566290000000000049e+01 1.447289999999999850e+02 1.492329999999999927e+03
1.270000000000000018e-01 4.915614999999999846e-01 1.483820500000000031e+01 1.438629999999999995e+02 1.492054999999999836e+03
1.280000000000000027e-01 4.913855000000000306e-01 1.401981500000000125e+01 1.429939999999999998e+02 1.491775000000000091e+03
1.290000000000000036e-01 4.912119999999999820e-01 1.321348000000000056e+01 1.421335000000000264e+02 1.491494999999999891e+03
1.300000000000000044e-01 4.910425000000000484e-01 1.242522999999999911e+01 1.412914999999999850e+02 1.491220000000000027e+03
1.310000000000000053e-01 4.908799999999999830e-01 1.166056999999999988e+01 1.404774999999999920e+02 1.490950000000000045e+03
1.320000000000000062e-01 4.907250000000000223e-01 1.092477000000000054e+01 1.396995000000000005e+02 1.490690000000000055e+03
1.330000000000000071e-01 4.905789999999999873e-01 1.022239499999999879e+01 1.389660000000000082e+02 1.490444999999999936e+03
1.340000000000000080e-01 4.904445000000000054e-01 9.557494999999999408e+00 1.382824999999999989e+02 1.490210000000000036e+03
1.350000000000000089e-01 4.903204999999999925e-01 8.933044999999999902e+00 1.376545000000000130e+02 1.489989999999999782e+03
1.360000000000000098e-01 4.902085000000000470e-01 8.351375000000000881e+00 1.370835000000000150e+02 1.489789999999999964e+03
1.370000000000000107e-01 4.901084999999999470e-01 7.813700000000000756e+00 1.365729999999999791e+02 1.489605000000000018e+03
1.380000000000000115e-01 4.900204999999999700e-01 7.320495000000000196e+00 1.361204999999999927e+02 1.489440000000000055e+03
1.390000000000000124e-01 4.899430000000000174e-01 6.871109999999999829e+00 1.357244999999999777e+02 1.489289999999999964e+03
1.400000000000000133e-01 4.898759999999999781e-01 6.464290000000000092e+00 1.353824999999999932e+02 1.489155000000000200e+03
1.410000000000000142e-01 4.898190000000000044e-01 6.097929999999999851e+00 1.350889999999999986e+02 1.489039999999999964e+03
1.420000000000000151e-01 4.897694999999999688e-01 5.769339999999999691e+00 1.348389999999999986e+02 1.488934999999999945e+03
1.430000000000000160e-01 4.897270000000000234e-01 5.475319999999999965e+00 1.346260000000000048e+02 1.488849999999999909e+03
1.440000000000000169e-01 4.896905000000000285e-01 5.212334999999999496e+00 1.344429999999999836e+02 1.488769999999999982e+03
1.450000000000000178e-01 4.896580000000000377e-01 4.976614999999999789e+00 1.342829999999999870e+02 1.488700000000000045e+03
1.459999999999999909e-01 4.896274999999999933e-01 4.764314999999999856e+00 1.341390000000000100e+02 1.488634999999999991e+03
1.469999999999999918e-01 4.895990000000000064e-01 4.571625000000000050e+00 1.340049999999999955e+02 1.488579999999999927e+03
1.479999999999999927e-01 4.895709999999999784e-01 4.394880000000000564e+00 1.338735000000000070e+02 1.488525000000000091e+03
1.489999999999999936e-01 4.895414999999999628e-01 4.230660000000000309e+00 1.337404999999999973e+02 1.488465000000000146e+03
1.499999999999999944e-01 4.895109999999999739e-01 4.075854999999999784e+00 1.336000000000000227e+02 1.488414999999999964e+03
1.509999999999999953e-01 4.894779999999999687e-01 3.927735000000000198e+00 1.334490000000000123e+02 1.488355000000000018e+03
1.519999999999999962e-01 4.894425000000000026e-01 3.783990000000000187e+00 1.332844999999999800e+02 1.488300000000000182e+03
1.529999999999999971e-01 4.894029999999999769e-01 3.642710000000000115e+00 1.331039999999999850e+02 1.488234999999999900e+03
1.539999999999999980e-01 4.893610000000000460e-01 3.502474999999999561e+00 1.329064999999999941e+02 1.488164999999999964e+03
1.549999999999999989e-01 4.893149999999999999e-01 3.362264999999999837e+00 1.326924999999999955e+02 1.488095000000000027e+03
1.559999999999999998e-01 4.892665000000000486e-01 3.221490000000000187e+00 1.324615000000000009e+02 1.488019999999999982e+03
1.570000000000000007e-01 4.892149999999999554e-01 3.079939999999999678e+00 1.322154999999999916e+02 1.487940000000000055e+03
1.580000000000000016e-01 4.891600000000000392e-01 2.937769999999999992e+00 1.319549999999999841e+02 1.487855000000000018e+03
1.590000000000000024e-01 4.891039999999999832e-01 2.795424999999999827e+00 1.316829999999999927e+02 1.487764999999999873e+03
