# t [s], A [cm^2], U [cm/s], P [cPa], c [cm/s]
1.000000000000000021e-03 7.844484999999999930e-01 5.510000000000001008e-03 1.009424999999999955e+02 1.645894999999999982e+03
2.000000000000000042e-03 7.844370000000000509e-01 1.723405000000000770e-03 1.009115000000000038e+02 1.645889999999999873e+03
3.000000000000000062e-03 7.845230000000000814e-01 1.319141000000000064e-01 1.010525000000000091e+02 1.645924999999999955e+03
4.000000000000000083e-03 7.845699999999999896e-01 2.226053500000000074e-01 1.011570499999999981e+02 1.645945000000000164e+03
5.000000000000000104e-03 7.844995000000000163e-01 1.496435000000000126e-01 1.010030000000000001e+02 1.645914999999999964e+03
6.000000000000000125e-03 7.843970000000000109e-01 2.244000000000001549e-02 1.006819999999999879e+02 1.645845000000000027e+03
7.000000000000000146e-03 7.842940000000000467e-01 -1.194549999999999779e-01 1.002691499999999962e+02 1.645750000000000000e+03
8.000000000000000167e-03 7.841085000000000971e-01 -4.017949999999999022e-01 9.961310000000000286e+01 1.645605000000000018e+03
9.000000000000001055e-03 7.838279999999999692e-01 -8.450849999999999751e-01 9.863964999999998895e+01 1.645389999999999873e+03
1.000000000000000194e-02 7.834479999999999222e-01 -1.442264999999999908e+00 9.730805000000000859e+01 1.645095000000000027e+03
1.099999999999999936e-02 7.829340000000000188e-01 -2.225014999999999965e+00 9.552790000000000248e+01 1.644690000000000055e+03
1.200000000000000025e-02 7.822910000000000696e-01 -3.159394999999999953e+00 9.328279999999999461e+01 1.644164999999999964e+03
1.300000000000000114e-02 7.816084999999999283e-01 -4.077160000000000117e+00 9.075425000000001319e+01 1.643570000000000164e+03
1.400000000000000203e-02 7.810090000000000643e-01 -4.750416500000000042e+00 8.826505000000000223e+01 1.642950000000000045e+03
1.499999999999999944e-02 7.805720000000000436e-01 -5.017507500000000675e+00 8.611105000000000587e+01 1.642380000000000109e+03
1.600000000000000033e-02 7.802979999999999361e-01 -4.848869999999999791e+00 8.442990000000000350e+01 1.641900000000000091e+03
1.700000000000000122e-02 7.801234999999999697e-01 -4.335729999999999862e+00 8.317109999999999559e+01 1.641505000000000109e+03
1.800000000000000211e-02 7.799570000000000114e-01 -3.635005000000000042e+00 8.214580000000000837e+01 1.641159999999999854e+03
1.900000000000000300e-02 7.797199999999999687e-01 -2.902352000000000043e+00 8.111785000000000423e+01 1.640820000000000164e+03
2.000000000000000042e-02 7.793710000000000360e-01 -2.236264000000000252e+00 7.989995000000000402e+01 1.640450000000000045e+03
2.100000000000000130e-02 7.789185000000000692e-01 -1.652855000000000185e+00 7.841839999999999122e+01 1.640025000000000091e+03
2.200000000000000219e-02 7.784094999999999764e-01 -1.101299999999999724e+00 7.671969999999998890e+01 1.639555000000000064e+03
2.299999999999999961e-02 7.778975000000000195e-01 -5.085049999999999848e-01 7.492310000000000514e+01 1.639059999999999945e+03
2.400000000000000050e-02 7.774204999999999588e-01 1.728000000000000647e-01 7.314855000000000018e+01 1.638559999999999945e+03
2.500000000000000139e-02 7.769814999999999916e-01 9.341049999999997411e-01 7.145664999999999623e+01 1.638074999999999818e+03
2.600000000000000228e-02 7.765504999999999214e-01 1.706075000000000008e+00 6.981964999999999577e+01 1.637599999999999909e+03
2.700000000000000316e-02 7.760765000000000580e-01 2.374649999999999483e+00 6.812529999999999575e+01 1.637115000000000009e+03
2.800000000000000058e-02 7.754995000000000083e-01 2.810475000000000279e+00 6.620910000000000650e+01 1.636585000000000036e+03
2.900000000000000147e-02 7.747735000000000039e-01 2.903535000000000199e+00 6.390354999999999563e+01 1.635974999999999909e+03
3.000000000000000236e-02 7.738769999999999261e-01 2.594080000000000386e+00 6.109185000000000088e+01 1.635259999999999991e+03
3.099999999999999978e-02 7.728264999999999718e-01 1.890660000000000007e+00 5.775019999999999953e+01 1.634420000000000073e+03
3.200000000000000067e-02 7.716695000000000082e-01 8.690449999999998454e-01 5.396434999999999604e+01 1.633480000000000018e+03
3.300000000000000155e-02 7.704774999999999263e-01 -3.466999999999993420e-01 4.991625000000000512e+01 1.632470000000000027e+03
3.400000000000000244e-02 7.693275000000000530e-01 -1.612074999999999925e+00 4.584825000000000017e+01 1.631440000000000055e+03
3.500000000000000333e-02 7.682925000000000448e-01 -2.790120000000000378e+00 4.201905000000000001e+01 1.630449999999999818e+03
3.600000000000000422e-02 7.674270000000000813e-01 -3.770244999999999624e+00 3.866394999999999982e+01 1.629555000000000064e+03
3.700000000000000511e-02 7.667654999999999887e-01 -4.477639999999999176e+00 3.596625000000000227e+01 1.628800000000000182e+03
3.799999999999999906e-02 7.663254999999999928e-01 -4.873488499999999668e+00 3.404410000000000025e+01 1.628224999999999909e+03
3.899999999999999994e-02 7.661059999999999537e-01 -4.948260000000000325e+00 3.294984999999999786e+01 1.627845000000000027e+03
4.000000000000000083e-02 7.660970000000000280e-01 -4.711850000000000094e+00 3.268035000000000423e+01 1.627664999999999964e+03
4.100000000000000172e-02 7.662820000000000187e-01 -4.183265000000000455e+00 3.319339999999999691e+01 1.627690000000000055e+03
4.200000000000000261e-02 7.666439999999999921e-01 -3.382546499999999678e+00 3.442524999999999835e+01 1.627904999999999973e+03
4.300000000000000350e-02 7.671660000000000146e-01 -2.326744999999999841e+00 3.630465000000000231e+01 1.628289999999999964e+03
4.400000000000000439e-02 7.678335000000000576e-01 -1.030259999999999732e+00 3.876115000000000066e+01 1.628840000000000146e+03
4.499999999999999833e-02 7.686319999999999819e-01 4.916450000000001097e-01 4.172650000000000148e+01 1.629525000000000091e+03
4.599999999999999922e-02 7.695445000000000757e-01 2.218155000000000321e+00 4.513159999999999883e+01 1.630335000000000036e+03
4.700000000000000011e-02 7.705515000000000558e-01 4.119159999999999933e+00 4.890204999999999558e+01 1.631250000000000000e+03
4.800000000000000100e-02 7.716290000000000093e-01 6.154059999999999420e+00 5.295499999999999829e+01 1.632255000000000109e+03
4.900000000000000189e-02 7.727500000000000480e-01 8.272790000000000532e+00 5.719835000000000491e+01 1.633319999999999936e+03
5.000000000000000278e-02 7.738860000000000738e-01 1.041975949999999962e+01 6.153385000000000105e+01 1.634420000000000073e+03
5.100000000000000366e-02 7.750099999999999767e-01 1.253837500000000027e+01 6.586279999999999291e+01 1.635539999999999964e+03
5.200000000000000455e-02 7.760979999999999546e-01 1.457626499999999936e+01 7.009279999999999688e+01 1.636650000000000091e+03
5.300000000000000544e-02 7.771299999999999875e-01 1.648931999999999931e+01 7.414449999999999363e+01 1.637730000000000018e+03
5.399999999999999939e-02 7.780945000000000222e-01 1.824439999999999884e+01 7.795709999999999695e+01 1.638764999999999873e+03
5.500000000000000028e-02 7.789844999999999686e-01 1.982079999999999842e+01 8.149184999999999945e+01 1.639735000000000127e+03
5.600000000000000117e-02 7.797985000000000610e-01 2.120935000000000059e+01 8.473195000000001187e+01 1.640644999999999982e+03
5.700000000000000205e-02 7.805414999999999992e-01 2.241130000000000067e+01 8.768160000000000309e+01 1.641485000000000127e+03
5.800000000000000294e-02 7.812219999999999720e-01 2.343645000000000067e+01 9.036230000000000473e+01 1.642255000000000109e+03
5.900000000000000383e-02 7.818495000000000861e-01 2.430064999999999742e+01 9.280920000000000414e+01 1.642970000000000027e+03
6.000000000000000472e-02 7.824375000000000080e-01 2.502420000000000044e+01 9.506659999999999400e+01 1.643630000000000109e+03
6.099999999999999867e-02 7.829979999999999718e-01 2.563009999999999877e+01 9.718389999999999418e+01 1.644255000000000109e+03
6.199999999999999956e-02 7.835440000000000182e-01 2.614310000000000045e+01 9.921299999999999386e+01 1.644849999999999909e+03
6.300000000000000044e-02 7.840884999999999661e-01 2.658800000000000097e+01 1.012031499999999937e+02 1.645424999999999955e+03
6.400000000000000133e-02 7.846414999999999917e-01 2.698845000000000027e+01 1.032005000000000052e+02 1.646005000000000109e+03
6.500000000000000222e-02 7.852129999999999388e-01 2.736570000000000036e+01 1.052419999999999902e+02 1.646579999999999927e+03
6.600000000000000311e-02 7.858080000000000620e-01 2.773665000000000092e+01 1.073565000000000111e+02 1.647175000000000182e+03
6.700000000000000400e-02 7.864299999999999624e-01 2.811299999999999955e+01 1.095594999999999999e+02 1.647784999999999854e+03
6.800000000000000488e-02 7.870764999999999567e-01 2.849990000000000023e+01 1.118524999999999920e+02 1.648420000000000073e+03
6.900000000000000577e-02 7.877419999999999423e-01 2.889580000000000126e+01 1.142229999999999990e+02 1.649065000000000055e+03
7.000000000000000666e-02 7.884184999999999111e-01 2.929269999999999996e+01 1.166440000000000055e+02 1.649730000000000018e+03
7.100000000000000755e-02 7.890945000000000320e-01 2.967715000000000103e+01 1.190775000000000006e+02 1.650394999999999982e+03
7.200000000000000844e-02 7.897545000000000259e-01 3.003175000000000239e+01 1.214759999999999991e+02 1.651054999999999836e+03
7.300000000000000933e-02 7.903864999999999919e-01 3.033659999999999712e+01 1.237879999999999967e+02 1.651694999999999936e+03
7.399999999999999634e-02 7.909749999999999837e-01 3.057160000000000011e+01 1.259590000000000032e+02 1.652304999999999836e+03
7.499999999999999722e-02 7.915075000000000305e-01 3.071760000000000090e+01 1.279389999999999930e+02 1.652869999999999891e+03
7.599999999999999811e-02 7.919720000000000093e-01 3.075815000000000055e+01 1.296834999999999809e+02 1.653369999999999891e+03
7.699999999999999900e-02 7.923610000000000930e-01 3.068045000000000044e+01 1.311544999999999845e+02 1.653809999999999945e+03
7.799999999999999989e-02 7.926690000000000680e-01 3.047625000000000028e+01 1.323284999999999911e+02 1.654174999999999955e+03
7.900000000000000078e-02 7.928939999999999877e-01 3.014199999999999946e+01 1.331899999999999977e+02 1.654460000000000036e+03
8.000000000000000167e-02 7.930355000000000043e-01 2.967924999999999969e+01 1.337389999999999759e+02 1.654664999999999964e+03
8.100000000000000255e-02 7.930980000000000807e-01 2.909404999999999930e+01 1.339839999999999804e+02 1.654784999999999854e+03
8.200000000000000344e-02 7.930880000000000152e-01 2.839685000000000059e+01 1.339445000000000050e+02 1.654825000000000045e+03
8.300000000000000433e-02 7.930135000000000378e-01 2.760204999999999842e+01 1.336510000000000105e+02 1.654800000000000182e+03
8.400000000000000522e-02 7.928835000000000743e-01 2.672690000000000055e+01 1.331390000000000100e+02 1.654710000000000036e+03
8.500000000000000611e-02 7.927109999999999435e-01 2.579090000000000060e+01 1.324509999999999934e+02 1.654569999999999936e+03
8.600000000000000699e-02 7.925065000000000026e-01 2.481484999999999985e+01 1.316305000000000121e+02 1.654389999999999873e+03
8.700000000000000788e-02 7.922819999999999308e-01 2.381994999999999862e+01 1.307239999999999895e+02 1.654174999999999955e+03
8.800000000000000877e-02 7.920490000000000030e-01 2.282685000000000031e+01 1.297754999999999939e+02 1.653944999999999936e+03
8.899999999999999578e-02 7.918180000000000218e-01 2.185474999999999923e+01 1.288269999999999982e+02 1.653704999999999927e+03
8.999999999999999667e-02 7.915989999999999416e-01 2.092045000000000243e+01 1.279155000000000086e+02 1.653470000000000027e+03
9.099999999999999756e-02 7.913980000000000459e-01 2.003784999999999883e+01 1.270720000000000027e+02 1.653244999999999891e+03
9.199999999999999845e-02 7.912215000000000220e-01 1.921724999999999994e+01 1.263194999999999908e+02 1.653034999999999854e+03
9.299999999999999933e-02 7.910719999999999974e-01 1.846519999999999939e+01 1.256749999999999972e+02 1.652849999999999909e+03
9.400000000000000022e-02 7.909515000000000295e-01 1.778415000000000035e+01 1.251449999999999960e+02 1.652694999999999936e+03
9.500000000000000111e-02 7.908589999999999787e-01 1.717300000000000182e+01 1.247300000000000040e+02 1.652559999999999945e+03
9.600000000000000200e-02 7.907914999999999806e-01 1.662675000000000125e+01 1.244235000000000042e+02 1.652460000000000036e+03
9.700000000000000289e-02 7.907455000000001011e-01 1.613755000000000095e+01 1.242109999999999985e+02 1.652380000000000109e+03
9.800000000000000377e-02 7.907159999999999744e-01 1.569480000000000075e+01 1.240734999999999957e+02 1.652325000000000045e+03
9.900000000000000466e-02 7.906964999999999133e-01 1.528600000000000136e+01 1.239884999999999877e+02 1.652279999999999973e+03
1.000000000000000056e-01 7.906794999999999796e-01 1.489760000000000062e+01 1.239309999999999974e+02 1.652255000000000109e+03
1.010000000000000064e-01 7.906584999999999308e-01 1.451529999999999987e+01 1.238729999999999905e+02 1.652224999999999909e+03
1.020000000000000073e-01 7.906279999999999974e-01 1.412529999999999930e+01 1.237899999999999920e+02 1.652190000000000055e+03
1.030000000000000082e-01 7.905805000000000193e-01 1.371475000000000044e+01 1.236569999999999965e+02 1.652154999999999973e+03
1.040000000000000091e-01 7.905120000000001035e-01 1.327244999999999919e+01 1.234534999999999911e+02 1.652094999999999800e+03
1.050000000000000100e-01 7.904189999999999827e-01 1.278956999999999944e+01 1.231630000000000109e+02 1.652025000000000091e+03
1.059999999999999970e-01 7.902979999999999450e-01 1.226008999999999993e+01 1.227740000000000009e+02 1.651925000000000182e+03
1.069999999999999979e-01 7.901495000000000601e-01 1.168103999999999942e+01 1.222810000000000059e+02 1.651800000000000182e+03
1.079999999999999988e-01 7.899749999999999828e-01 1.105292000000000030e+01 1.216860000000000070e+02 1.651655000000000200e+03
1.089999999999999997e-01 7.897760000000000336e-01 1.037934500000000071e+01 1.209964999999999975e+02 1.651484999999999900e+03
1.100000000000000006e-01 7.895579999999999821e-01 9.667204999999999160e+00 1.202245000000000061e+02 1.651284999999999854e+03
1.110000000000000014e-01 7.893265000000000420e-01 8.926059999999999661e+00 1.193899999999999864e+02 1.651075000000000045e+03
1.120000000000000023e-01 7.890865000000000240e-01 8.167775000000000674e+00 1.185155000000000030e+02 1.650849999999999909e+03
1.130000000000000032e-01 7.888475000000000348e-01 7.405905000000000626e+00 1.176274999999999977e+02 1.650619999999999891e+03
1.140000000000000041e-01 7.886155000000000248e-01 6.654945000000000555e+00 1.167535000000000025e+02 1.650394999999999982e+03
1.150000000000000050e-01 7.883989999999999609e-01 5.929594999999999949e+00 1.159219999999999970e+02 1.650174999999999955e+03
1.160000000000000059e-01 7.882035000000000569e-01 5.244064999999999976e+00 1.151599999999999966e+02 1.649964999999999918e+03
1.170000000000000068e-01 7.880359999999999587e-01 4.611234999999999751e+00 1.144909999999999997e+02 1.649775000000000091e+03
1.180000000000000077e-01 7.879015000000000324e-01 4.042114999999999903e+00 1.139360000000000070e+02 1.649619999999999891e+03
1.190000000000000085e-01 7.878030000000000310e-01 3.545269999999999921e+00 1.135105000000000075e+02 1.649490000000000009e+03
1.200000000000000094e-01 7.877425000000000122e-01 3.126469999999999860e+00 1.132235000000000014e+02 1.649389999999999873e+03
1.209999999999999964e-01 7.877195000000000169e-01 2.788495000000000168e+00 1.130790000000000077e+02 1.649329999999999927e+03
1.219999999999999973e-01 7.877339999999999343e-01 2.531060000000000088e+00 1.130749999999999886e+02 1.649305000000000064e+03
1.229999999999999982e-01 7.877819999999999823e-01 2.350999999999999979e+00 1.132019999999999982e+02 1.649319999999999936e+03
1.239999999999999991e-01 7.878594999999999349e-01 2.242519999999999847e+00 1.134484999999999957e+02 1.649365000000000009e+03
1.250000000000000000e-01 7.879624999999998991e-01 2.197575000000000056e+00 1.137959999999999923e+02 1.649429999999999836e+03
1.260000000000000009e-01 7.880829999999999780e-01 2.206380000000000230e+00 1.142229999999999990e+02 1.649525000000000091e+03
1.270000000000000018e-01 7.882169999999999455e-01 2.257890000000000175e+00 1.147079999999999984e+02 1.649634999999999991e+03
1.280000000000000027e-01 7.883569999999999744e-01 2.340365000000000251e+00 1.152255000000000109e+02 1.649759999999999991e+03
1.290000000000000036e-01 7.884970000000000034e-01 2.441889999999999894e+00 1.157519999999999953e+02 1.649889999999999873e+03
1.300000000000000044e-01 7.886309999999999709e-01 2.550864999999999938e+00 1.162659999999999911e+02 1.650014999999999873e+03
1.310000000000000053e-01 7.887539999999999552e-01 2.656414999999999971e+00 1.167450000000000045e+02 1.650139999999999873e+03
1.320000000000000062e-01 7.888614999999999933e-01 2.748800000000000132e+00 1.171730000000000018e+02 1.650255000000000109e+03
1.330000000000000071e-01 7.889504999999999990e-01 2.819659999999999833e+00 1.175344999999999942e+02 1.650355000000000018e+03
1.340000000000000080e-01 7.890179999999999971e-01 2.862274999999999903e+00 1.178185000000000002e+02 1.650440000000000055e+03
1.350000000000000089e-01 7.890630000000000699e-01 2.871649999999999814e+00 1.180165000000000077e+02 1.650494999999999891e+03
1.360000000000000098e-01 7.890844999999999665e-01 2.844599999999999795e+00 1.181264999999999930e+02 1.650539999999999964e+03
1.370000000000000107e-01 7.890820000000000611e-01 2.779754999999999754e+00 1.181475000000000080e+02 1.650555000000000064e+03
1.380000000000000115e-01 7.890584999999999960e-01 2.677424999999999944e+00 1.180815000000000055e+02 1.650549999999999955e+03
1.390000000000000124e-01 7.890144999999999520e-01 2.539505000000000123e+00 1.179360000000000070e+02 1.650525000000000091e+03
1.400000000000000133e-01 7.889530000000000154e-01 2.369264999999999954e+00 1.177185000000000059e+02 1.650480000000000018e+03
1.410000000000000142e-01 7.888754999999999518e-01 2.171120000000000161e+00 1.174380000000000024e+02 1.650414999999999964e+03
1.420000000000000151e-01 7.887865000000000570e-01 1.950374999999999970e+00 1.171069999999999993e+02 1.650345000000000027e+03
1.430000000000000160e-01 7.886889999999999734e-01 1.712928000000000006e+00 1.167365000000000066e+02 1.650255000000000109e+03
1.440000000000000169e-01 7.885849999999999804e-01 1.464965500000000143e+00 1.163395000000000010e+02 1.650154999999999973e+03
1.450000000000000178e-01 7.884789999999999299e-01 1.212695799999999879e+00 1.159259999999999877e+02 1.650055000000000064e+03
1.459999999999999909e-01 7.883720000000000727e-01 9.620170000000001220e-01 1.155074999999999932e+02 1.649944999999999936e+03
1.469999999999999918e-01 7.882675000000000098e-01 7.183124999999999094e-01 1.150935000000000059e+02 1.649840000000000146e+03
1.479999999999999927e-01 7.881670000000000620e-01 4.862020000000000786e-01 1.146910000000000025e+02 1.649735000000000127e+03
1.489999999999999936e-01 7.880709999999999660e-01 2.693945000000000367e-01 1.143050000000000068e+02 1.649630000000000109e+03
1.499999999999999944e-01 7.879810000000000425e-01 7.058299999999995133e-02 1.139405000000000001e+02 1.649529999999999973e+03
1.509999999999999953e-01 7.878970000000000695e-01 -1.085869999999999891e-01 1.135980000000000132e+02 1.649434999999999945e+03
1.519999999999999962e-01 7.878180000000000183e-01 -2.674909999999999788e-01 1.132759999999999962e+02 1.649349999999999909e+03
1.529999999999999971e-01 7.877434999999999299e-01 -4.064400000000000235e-01 1.129735000000000014e+02 1.649259999999999991e+03
1.539999999999999980e-01 7.876714999999999689e-01 -5.265461000000000169e-01 1.126864999999999952e+02 1.649180000000000064e+03
1.549999999999999989e-01 7.876019999999999133e-01 -6.295466499999999854e-01 1.124095000000000084e+02 1.649099999999999909e+03
1.559999999999999998e-01 7.875330000000000386e-01 -7.176215000000000233e-01 1.121380000000000052e+02 1.649025000000000091e+03
1.570000000000000007e-01 7.874624999999999542e-01 -7.931749999999999634e-01 1.118669999999999902e+02 1.648949999999999818e+03
1.580000000000000016e-01 7.873904999999999932e-01 -8.586985000000000312e-01 1.115905000000000058e+02 1.648869999999999891e+03
1.590000000000000024e-01 7.873140000000000693e-01 -9.165445000000000952e-01 1.113040000000000020e+02 1.648789999999999964e+03
