# t [s], A [cm^2], U [cm/s], P [cPa], c [cm/s]
1.000000000000000021e-03 1.907094999999999763e-01 3.287665999999999644e-01 9.343080000000000496e+01 2.218875000000000000e+03
2.000000000000000042e-03 1.906565000000000065e-01 1.801836499999999841e+00 8.995930000000001314e+01 2.218425000000000182e+03
3.000000000000000062e-03 1.905219999999999969e-01 3.618826499999999946e+00 8.514920000000000755e+01 2.217345000000000255e+03
4.000000000000000083e-03 1.903455000000000008e-01 5.674713500000000188e+00 8.008455000000000723e+01 2.215939999999999600e+03
5.000000000000000104e-03 1.901625000000000121e-01 7.877819999999999823e+00 7.573965000000001169e+01 2.214494999999999891e+03
6.000000000000000125e-03 1.899905000000000066e-01 9.995274999999999466e+00 7.225870000000000459e+01 2.213149999999999636e+03
7.000000000000000146e-03 1.898305000000000131e-01 1.180210999999999899e+01 6.923015000000000896e+01 2.211934999999999945e+03
8.000000000000000167e-03 1.896869999999999945e-01 1.327571499999999993e+01 6.651120000000000232e+01 2.210859999999999673e+03
9.000000000000001055e-03 1.895644999999999969e-01 1.447664999999999935e+01 6.424734999999999729e+01 2.209954999999999927e+03
1.000000000000000194e-02 1.894644999999999802e-01 1.543094999999999928e+01 6.247660000000000480e+01 2.209224999999999909e+03
1.099999999999999936e-02 1.893859999999999988e-01 1.615350000000000108e+01 6.113394999999999868e+01 2.208659999999999854e+03
1.200000000000000025e-02 1.893250000000000210e-01 1.665005000000000024e+01 6.010529999999999973e+01 2.208230000000000018e+03
1.300000000000000114e-02 1.892754999999999854e-01 1.692125000000000057e+01 5.922525000000000261e+01 2.207889999999999873e+03
1.400000000000000203e-02 1.892349999999999866e-01 1.702554999999999907e+01 5.844089999999999918e+01 2.207609999999999673e+03
1.499999999999999944e-02 1.892064999999999997e-01 1.712020000000000053e+01 5.801009999999999422e+01 2.207425000000000182e+03
1.600000000000000033e-02 1.892030000000000101e-01 1.740084999999999837e+01 5.842764999999999986e+01 2.207409999999999854e+03
1.700000000000000122e-02 1.892349999999999866e-01 1.798355000000000103e+01 6.008275000000000432e+01 2.207649999999999636e+03
1.800000000000000211e-02 1.893054999999999877e-01 1.882724999999999937e+01 6.293330000000000268e+01 2.208170000000000073e+03
1.900000000000000300e-02 1.894035000000000024e-01 1.974794999999999945e+01 6.643840000000000146e+01 2.208890000000000327e+03
2.000000000000000042e-02 1.895094999999999974e-01 2.050430000000000064e+01 6.976869999999999550e+01 2.209684999999999945e+03
2.100000000000000130e-02 1.896010000000000195e-01 2.090129999999999910e+01 7.214740000000000464e+01 2.210385000000000218e+03
2.200000000000000219e-02 1.896614999999999829e-01 2.085989999999999966e+01 7.314175000000000182e+01 2.210859999999999673e+03
2.299999999999999961e-02 1.896849999999999925e-01 2.043084999999999951e+01 7.278170000000000073e+01 2.211070000000000164e+03
2.400000000000000050e-02 1.896754999999999969e-01 1.975319999999999965e+01 7.147829999999999018e+01 2.211024999999999636e+03
2.500000000000000139e-02 1.896455000000000224e-01 1.898550000000000182e+01 6.980379999999999541e+01 2.210815000000000055e+03
2.600000000000000228e-02 1.896079999999999988e-01 1.824170000000000158e+01 6.824635000000000673e+01 2.210545000000000073e+03
2.700000000000000316e-02 1.895719999999999905e-01 1.755839999999999890e+01 6.704540000000000077e+01 2.210275000000000091e+03
2.800000000000000058e-02 1.895410000000000150e-01 1.689965000000000117e+01 6.615675000000000239e+01 2.210039999999999964e+03
2.900000000000000147e-02 1.895114999999999994e-01 1.619089999999999918e+01 6.533795000000000641e+01 2.209819999999999709e+03
3.000000000000000236e-02 1.894774999999999932e-01 1.536434999999999995e+01 6.429984999999999218e+01 2.209574999999999818e+03
3.099999999999999978e-02 1.894339999999999913e-01 1.439839999999999876e+01 6.286105000000000587e+01 2.209255000000000109e+03
3.200000000000000067e-02 1.893799999999999928e-01 1.333765000000000001e+01 6.104829999999999757e+01 2.208855000000000018e+03
3.300000000000000155e-02 1.893185000000000007e-01 1.228715000000000046e+01 5.911185000000000400e+01 2.208404999999999745e+03
3.400000000000000244e-02 1.892599999999999838e-01 1.138299500000000108e+01 5.745194999999999652e+01 2.207965000000000146e+03
3.500000000000000333e-02 1.892149999999999943e-01 1.075104499999999952e+01 5.648695000000000022e+01 2.207630000000000109e+03
3.600000000000000422e-02 1.891960000000000031e-01 1.046834499999999935e+01 5.651375000000000171e+01 2.207465000000000146e+03
3.700000000000000511e-02 1.892064999999999997e-01 1.054084999999999894e+01 5.760975000000000534e+01 2.207525000000000091e+03
3.799999999999999906e-02 1.892475000000000129e-01 1.090159999999999840e+01 5.960514999999999475e+01 2.207804999999999836e+03
3.899999999999999994e-02 1.893110000000000070e-01 1.142839999999999989e+01 6.212604999999999933e+01 2.208260000000000218e+03
4.000000000000000083e-02 1.893855000000000122e-01 1.197255000000000003e+01 6.468684999999999263e+01 2.208804999999999836e+03
4.100000000000000172e-02 1.894569999999999865e-01 1.238875000000000171e+01 6.679855000000000587e+01 2.209335000000000036e+03
4.200000000000000261e-02 1.895129999999999870e-01 1.256054999999999922e+01 6.806405000000000882e+01 2.209755000000000109e+03
4.300000000000000350e-02 1.895415000000000016e-01 1.241440000000000055e+01 6.823905000000000598e+01 2.209980000000000018e+03
4.400000000000000439e-02 1.895374999999999976e-01 1.192320000000000135e+01 6.725020000000000664e+01 2.209960000000000036e+03
4.499999999999999833e-02 1.894985000000000142e-01 1.110041999999999973e+01 6.517644999999998845e+01 2.209695000000000164e+03
4.599999999999999922e-02 1.894274999999999987e-01 9.988520000000001176e+00 6.220385000000000275e+01 2.209180000000000291e+03
4.700000000000000011e-02 1.893295000000000117e-01 8.645884999999999820e+00 5.857245000000000346e+01 2.208460000000000036e+03
4.800000000000000100e-02 1.892109999999999903e-01 7.136169999999999902e+00 5.452875000000000227e+01 2.207585000000000036e+03
4.900000000000000189e-02 1.890784999999999827e-01 5.521410000000000373e+00 5.029439999999999600e+01 2.206600000000000364e+03
5.000000000000000278e-02 1.889385000000000092e-01 3.859524200000000071e+00 4.605290000000000106e+01 2.205564999999999600e+03
5.100000000000000366e-02 1.887969999999999926e-01 2.205109999999999904e+00 4.195229999999999393e+01 2.204510000000000218e+03
5.200000000000000455e-02 1.886585000000000067e-01 6.115049999999997432e-01 3.811684999999999945e+01 2.203474999999999909e+03
5.300000000000000544e-02 1.885280000000000011e-01 -8.671549999999998981e-01 3.466060000000000230e+01 2.202505000000000109e+03
5.399999999999999939e-02 1.884100000000000219e-01 -2.175266999999999840e+00 3.169735000000000014e+01 2.201614999999999782e+03
5.500000000000000028e-02 1.883084999999999898e-01 -3.256985000000000241e+00 2.934404999999999930e+01 2.200849999999999909e+03
5.600000000000000117e-02 1.882280000000000064e-01 -4.059110000000000440e+00 2.771620000000000061e+01 2.200235000000000127e+03
5.700000000000000205e-02 1.881725000000000203e-01 -4.535135000000000360e+00 2.691860000000000142e+01 2.199804999999999836e+03
5.800000000000000294e-02 1.881444999999999923e-01 -4.649485000000000312e+00 2.703260000000000218e+01 2.199574999999999818e+03
5.900000000000000383e-02 1.881484999999999963e-01 -4.381079999999999863e+00 2.810470000000000113e+01 2.199574999999999818e+03
6.000000000000000472e-02 1.881835000000000035e-01 -3.725559999999999761e+00 3.013834999999999908e+01 2.199814999999999600e+03
6.099999999999999867e-02 1.882514999999999883e-01 -2.695908499999999819e+00 3.309120000000000061e+01 2.200295000000000073e+03
6.199999999999999956e-02 1.883500000000000174e-01 -1.321420000000000039e+00 3.687715000000000032e+01 2.201005000000000109e+03
6.300000000000000044e-02 1.884759999999999769e-01 3.546199999999999353e-01 4.137359999999999616e+01 2.201920000000000073e+03
6.400000000000000133e-02 1.886260000000000159e-01 2.278180000000000316e+00 4.643104999999999905e+01 2.203019999999999982e+03
6.500000000000000222e-02 1.887949999999999906e-01 4.388212650000000714e+00 5.188519999999999754e+01 2.204260000000000218e+03
6.600000000000000311e-02 1.889784999999999937e-01 6.620595000000000674e+00 5.756834999999999525e+01 2.205619999999999891e+03
6.700000000000000400e-02 1.891700000000000048e-01 8.911944999999999339e+00 6.332080000000000553e+01 2.207045000000000073e+03
6.800000000000000488e-02 1.893650000000000055e-01 1.120339500000000044e+01 6.900079999999999814e+01 2.208505000000000109e+03
6.900000000000000577e-02 1.895594999999999919e-01 1.344355999999999973e+01 7.449299999999999500e+01 2.209960000000000036e+03
7.000000000000000666e-02 1.897484999999999866e-01 1.559114999999999895e+01 7.971359999999999957e+01 2.211380000000000109e+03
7.100000000000000755e-02 1.899305000000000021e-01 1.761659999999999826e+01 8.461439999999998918e+01 2.212755000000000109e+03
7.200000000000000844e-02 1.901030000000000220e-01 1.950264999999999915e+01 8.918205000000000382e+01 2.214065000000000055e+03
7.300000000000000933e-02 1.902659999999999907e-01 2.124374999999999858e+01 9.343500000000000227e+01 2.215304999999999836e+03
7.399999999999999634e-02 1.904204999999999925e-01 2.284474999999999767e+01 9.741835000000000377e+01 2.216484999999999673e+03
7.499999999999999722e-02 1.905669999999999864e-01 2.431850000000000023e+01 1.011940000000000026e+02 2.217599999999999909e+03
7.599999999999999811e-02 1.907070000000000154e-01 2.568314999999999770e+01 1.048332000000000050e+02 2.218675000000000182e+03
7.699999999999999900e-02 1.908434999999999993e-01 2.695925000000000082e+01 1.084064999999999941e+02 2.219720000000000255e+03
7.799999999999999989e-02 1.909775000000000222e-01 2.816725000000000279e+01 1.119755000000000109e+02 2.220750000000000000e+03
7.900000000000000078e-02 1.911120000000000041e-01 2.932509999999999906e+01 1.155904999999999916e+02 2.221774999999999636e+03
8.000000000000000167e-02 1.912475000000000147e-01 3.044664999999999822e+01 1.192795000000000130e+02 2.222809999999999945e+03
8.100000000000000255e-02 1.913845000000000129e-01 3.154044999999999987e+01 1.230534999999999997e+02 2.223855000000000018e+03
8.200000000000000344e-02 1.915239999999999998e-01 3.260954999999999870e+01 1.269039999999999964e+02 2.224920000000000073e+03
8.300000000000000433e-02 1.916654999999999887e-01 3.365144999999999698e+01 1.308040000000000020e+02 2.226005000000000109e+03
8.400000000000000522e-02 1.918080000000000063e-01 3.465840000000000032e+01 1.347129999999999939e+02 2.227095000000000255e+03
8.500000000000000611e-02 1.919500000000000095e-01 3.561880000000000024e+01 1.385810000000000173e+02 2.228180000000000291e+03
8.600000000000000699e-02 1.920899999999999830e-01 3.651739999999999498e+01 1.423489999999999895e+02 2.229255000000000109e+03
8.700000000000000788e-02 1.922260000000000080e-01 3.733720000000000283e+01 1.459574999999999818e+02 2.230300000000000182e+03
8.800000000000000877e-02 1.923564999999999858e-01 3.805995000000000061e+01 1.493464999999999918e+02 2.231295000000000073e+03
8.899999999999999578e-02 1.924790000000000112e-01 3.866805000000000092e+01 1.524600000000000080e+02 2.232239999999999782e+03
8.999999999999999667e-02 1.925914999999999988e-01 3.914504999999999768e+01 1.552489999999999952e+02 2.233114999999999782e+03
9.099999999999999756e-02 1.926934999999999898e-01 3.947715000000000174e+01 1.576730000000000018e+02 2.233899999999999636e+03
9.199999999999999845e-02 1.927829999999999822e-01 3.965394999999999470e+01 1.597044999999999959e+02 2.234595000000000255e+03
9.299999999999999933e-02 1.928584999999999883e-01 3.966910000000000025e+01 1.613255000000000052e+02 2.235184999999999945e+03
9.400000000000000022e-02 1.929200000000000081e-01 3.952114999999999867e+01 1.625345000000000084e+02 2.235664999999999964e+03
9.500000000000000111e-02 1.929675000000000140e-01 3.921354999999999791e+01 1.633404999999999916e+02 2.236045000000000073e+03
9.600000000000000200e-02 1.930014999999999925e-01 3.875475000000000136e+01 1.637669999999999959e+02 2.236319999999999709e+03
9.700000000000000289e-02 1.930224999999999858e-01 3.815775000000000006e+01 1.638495000000000061e+02 2.236489999999999782e+03
9.800000000000000377e-02 1.930314999999999948e-01 3.743949999999999534e+01 1.636324999999999932e+02 2.236569999999999709e+03
9.900000000000000466e-02 1.930300000000000071e-01 3.661999999999999744e+01 1.631670000000000016e+02 2.236569999999999709e+03
1.000000000000000056e-01 1.930195000000000105e-01 3.572135000000000105e+01 1.625084999999999980e+02 2.236505000000000109e+03
1.010000000000000064e-01 1.930029999999999801e-01 3.476675000000000182e+01 1.617135000000000105e+02 2.236380000000000109e+03
1.020000000000000073e-01 1.929804999999999993e-01 3.377904999999999802e+01 1.608375000000000057e+02 2.236215000000000146e+03
1.030000000000000082e-01 1.929549999999999876e-01 3.278024999999999523e+01 1.599290000000000020e+02 2.236025000000000091e+03
1.040000000000000091e-01 1.929279999999999884e-01 3.178999999999999915e+01 1.590335000000000036e+02 2.235820000000000164e+03
1.050000000000000100e-01 1.929000000000000159e-01 3.082539999999999836e+01 1.581860000000000070e+02 2.235610000000000127e+03
1.059999999999999970e-01 1.928735000000000033e-01 2.989989999999999881e+01 1.574130000000000109e+02 2.235404999999999745e+03
1.069999999999999979e-01 1.928495000000000070e-01 2.902320000000000277e+01 1.567305000000000064e+02 2.235220000000000255e+03
1.079999999999999988e-01 1.928265000000000118e-01 2.820090000000000074e+01 1.561450000000000102e+02 2.235045000000000073e+03
1.089999999999999997e-01 1.928070000000000062e-01 2.743455000000000155e+01 1.556519999999999868e+02 2.234890000000000327e+03
1.100000000000000006e-01 1.927899999999999892e-01 2.672175000000000011e+01 1.552379999999999995e+02 2.234755000000000109e+03
1.110000000000000014e-01 1.927745000000000153e-01 2.605649999999999977e+01 1.548834999999999980e+02 2.234635000000000218e+03
1.120000000000000023e-01 1.927615000000000023e-01 2.543005000000000138e+01 1.545600000000000023e+02 2.234525000000000091e+03
1.130000000000000032e-01 1.927484999999999893e-01 2.483120000000000260e+01 1.542355000000000018e+02 2.234425000000000182e+03
1.140000000000000041e-01 1.927355000000000040e-01 2.424729999999999919e+01 1.538760000000000048e+02 2.234319999999999709e+03
1.150000000000000050e-01 1.927210000000000034e-01 2.366535000000000011e+01 1.534480000000000075e+02 2.234204999999999927e+03
1.160000000000000059e-01 1.927039999999999864e-01 2.307249999999999801e+01 1.529194999999999993e+02 2.234069999999999709e+03
1.170000000000000068e-01 1.926829999999999932e-01 2.245714999999999861e+01 1.522629999999999768e+02 2.233914999999999964e+03
1.180000000000000077e-01 1.926579999999999959e-01 2.180955000000000155e+01 1.514575000000000102e+02 2.233725000000000364e+03
1.190000000000000085e-01 1.926284999999999803e-01 2.112284999999999968e+01 1.504900000000000091e+02 2.233494999999999891e+03
1.200000000000000094e-01 1.925930000000000142e-01 2.039310000000000045e+01 1.493564999999999827e+02 2.233230000000000018e+03
1.209999999999999964e-01 1.925525000000000153e-01 1.961984999999999957e+01 1.480615000000000236e+02 2.232920000000000073e+03
1.219999999999999973e-01 1.925065000000000248e-01 1.880615000000000236e+01 1.466184999999999832e+02 2.232569999999999709e+03
1.229999999999999982e-01 1.924555000000000016e-01 1.795850000000000080e+01 1.450509999999999877e+02 2.232184999999999945e+03
1.239999999999999991e-01 1.924005000000000021e-01 1.708624999999999972e+01 1.433894999999999982e+02 2.231765000000000327e+03
1.250000000000000000e-01 1.923429999999999862e-01 1.620159999999999911e+01 1.416694999999999993e+02 2.231324999999999818e+03
1.260000000000000009e-01 1.922825000000000228e-01 1.531810000000000116e+01 1.399304999999999950e+02 2.230869999999999891e+03
1.270000000000000018e-01 1.922225000000000183e-01 1.445074999999999932e+01 1.382139999999999986e+02 2.230409999999999854e+03
1.280000000000000027e-01 1.921630000000000005e-01 1.361459999999999937e+01 1.365604999999999905e+02 2.229954999999999927e+03
1.290000000000000036e-01 1.921049999999999980e-01 1.282385000000000019e+01 1.350070000000000050e+02 2.229515000000000327e+03
1.300000000000000044e-01 1.920505000000000129e-01 1.209165000000000134e+01 1.335875000000000057e+02 2.229095000000000255e+03
1.310000000000000053e-01 1.920010000000000050e-01 1.142882499999999979e+01 1.323269999999999982e+02 2.228710000000000036e+03
1.320000000000000062e-01 1.919560000000000155e-01 1.084389499999999984e+01 1.312450000000000045e+02 2.228364999999999782e+03
1.330000000000000071e-01 1.919175000000000186e-01 1.034243500000000004e+01 1.303534999999999968e+02 2.228065000000000055e+03
1.340000000000000080e-01 1.918845000000000134e-01 9.927035000000000053e+00 1.296539999999999964e+02 2.227810000000000400e+03
1.350000000000000089e-01 1.918580000000000008e-01 9.597384999999999167e+00 1.291430000000000007e+02 2.227604999999999563e+03
1.360000000000000098e-01 1.918380000000000085e-01 9.350495000000000445e+00 1.288100000000000023e+02 2.227439999999999600e+03
1.370000000000000107e-01 1.918239999999999945e-01 9.180765000000000953e+00 1.286374999999999886e+02 2.227329999999999927e+03
1.380000000000000115e-01 1.918154999999999999e-01 9.080640000000000711e+00 1.286050000000000182e+02 2.227255000000000109e+03
1.390000000000000124e-01 1.918114999999999959e-01 9.041050000000000253e+00 1.286875000000000000e+02 2.227220000000000255e+03
1.400000000000000133e-01 1.918119999999999825e-01 9.051739999999998787e+00 1.288605000000000018e+02 2.227215000000000146e+03
1.410000000000000142e-01 1.918150000000000133e-01 9.101880000000001303e+00 1.290980000000000132e+02 2.227234999999999673e+03
1.420000000000000151e-01 1.918209999999999915e-01 9.180489999999998929e+00 1.293734999999999786e+02 2.227275000000000091e+03
1.430000000000000160e-01 1.918279999999999985e-01 9.276869999999998839e+00 1.296634999999999991e+02 2.227324999999999818e+03
1.440000000000000169e-01 1.918360000000000065e-01 9.380980000000000985e+00 1.299470000000000027e+02 2.227385000000000218e+03
1.450000000000000178e-01 1.918440000000000145e-01 9.483755000000000379e+00 1.302049999999999841e+02 2.227440000000000055e+03
1.459999999999999909e-01 1.918515000000000081e-01 9.577390000000001180e+00 1.304225000000000136e+02 2.227494999999999891e+03
1.469999999999999918e-01 1.918575000000000141e-01 9.655485000000000539e+00 1.305889999999999986e+02 2.227539999999999964e+03
1.479999999999999927e-01 1.918620000000000048e-01 9.713284999999999059e+00 1.306954999999999814e+02 2.227579999999999927e+03
1.489999999999999936e-01 1.918650000000000078e-01 9.747554999999998415e+00 1.307400000000000091e+02 2.227605000000000018e+03
1.499999999999999944e-01 1.918664999999999954e-01 9.756755000000000067e+00 1.307225000000000250e+02 2.227609999999999673e+03
1.509999999999999953e-01 1.918654999999999944e-01 9.740835000000000576e+00 1.306450000000000102e+02 2.227609999999999673e+03
1.519999999999999962e-01 1.918630000000000058e-01 9.701060000000000016e+00 1.305160000000000196e+02 2.227590000000000146e+03
1.529999999999999971e-01 1.918590000000000018e-01 9.639984999999999360e+00 1.303419999999999845e+02 2.227559999999999945e+03
1.539999999999999980e-01 1.918529999999999958e-01 9.560870000000001312e+00 1.301334999999999980e+02 2.227519999999999982e+03
1.549999999999999989e-01 1.918459999999999888e-01 9.467655000000000598e+00 1.299025000000000034e+02 2.227470000000000255e+03
1.559999999999999998e-01 1.918385000000000229e-01 9.364720000000000155e+00 1.296589999999999918e+02 2.227414999999999964e+03
1.570000000000000007e-01 1.918310000000000015e-01 9.256129999999998859e+00 1.294144999999999754e+02 2.227349999999999909e+03
1.580000000000000016e-01 1.918225000000000069e-01 9.145935000000001480e+00 1.291759999999999877e+02 2.227295000000000073e+03
1.590000000000000024e-01 1.918150000000000133e-01 9.037530000000000285e+00 1.289515000000000100e+02 2.227230000000000018e+03
