# t [s], A [cm^2], U [cm/s], P [cPa], c [cm/s]
1.000000000000000021e-03 1.709769999999999901e-01 4.666799500000000100e-01 1.008289499999999919e+02 2.182135000000000218e+03
2.000000000000000042e-03 1.709169999999999856e-01 2.216399500000000078e+00 9.671065000000000111e+01 2.181619999999999891e+03
3.000000000000000062e-03 1.707750000000000101e-01 4.325883499999999771e+00 9.119370000000000687e+01 2.180434999999999945e+03
4.000000000000000083e-03 1.705919999999999936e-01 6.688849999999999518e+00 8.564879999999999427e+01 2.178929999999999836e+03
5.000000000000000104e-03 1.704060000000000019e-01 9.172769999999999868e+00 8.108520000000000039e+01 2.177420000000000073e+03
6.000000000000000125e-03 1.702325000000000088e-01 1.148964000000000141e+01 7.746290000000000475e+01 2.176025000000000091e+03
7.000000000000000146e-03 1.700725000000000153e-01 1.342670999999999992e+01 7.428374999999999773e+01 2.174764999999999873e+03
8.000000000000000167e-03 1.699304999999999843e-01 1.500359999999999872e+01 7.148414999999999964e+01 2.173670000000000073e+03
9.000000000000001055e-03 1.698109999999999897e-01 1.628495000000000203e+01 6.921859999999999502e+01 2.172764999999999873e+03
1.000000000000000194e-02 1.697150000000000047e-01 1.729175000000000040e+01 6.747060000000000457e+01 2.172034999999999854e+03
1.099999999999999936e-02 1.696394999999999986e-01 1.804410000000000025e+01 6.615139999999999532e+01 2.171480000000000018e+03
1.200000000000000025e-02 1.695814999999999961e-01 1.855290000000000106e+01 6.513769999999999527e+01 2.171050000000000182e+03
1.300000000000000114e-02 1.695345000000000046e-01 1.883330000000000126e+01 6.427629999999999200e+01 2.170715000000000146e+03
1.400000000000000203e-02 1.694974999999999954e-01 1.897814999999999941e+01 6.359350000000000591e+01 2.170465000000000146e+03
1.499999999999999944e-02 1.694769999999999888e-01 1.917885000000000062e+01 6.346174999999999500e+01 2.170324999999999818e+03
1.600000000000000033e-02 1.694844999999999824e-01 1.963210000000000122e+01 6.441724999999999568e+01 2.170389999999999873e+03
1.700000000000000122e-02 1.695289999999999853e-01 2.040975000000000250e+01 6.674254999999999427e+01 2.170735000000000127e+03
1.800000000000000211e-02 1.696094999999999964e-01 2.140070000000000050e+01 7.017189999999999372e+01 2.171349999999999909e+03
1.900000000000000300e-02 1.697110000000000007e-01 2.235925000000000296e+01 7.393209999999999127e+01 2.172130000000000109e+03
2.000000000000000042e-02 1.698104999999999754e-01 2.301814999999999856e+01 7.706354999999999222e+01 2.172909999999999854e+03
2.100000000000000130e-02 1.698874999999999968e-01 2.320054999999999978e+01 7.881850000000000023e+01 2.173519999999999982e+03
2.200000000000000219e-02 1.699275000000000091e-01 2.288080000000000069e+01 7.893715000000000259e+01 2.173860000000000127e+03
2.299999999999999961e-02 1.699289999999999967e-01 2.217369999999999663e+01 7.769055000000000177e+01 2.173899999999999636e+03
2.400000000000000050e-02 1.699014999999999831e-01 2.126754999999999995e+01 7.569960000000000377e+01 2.173710000000000036e+03
2.500000000000000139e-02 1.698594999999999966e-01 2.033885000000000076e+01 7.363745000000000118e+01 2.173394999999999982e+03
2.600000000000000228e-02 1.698155000000000081e-01 1.948864999999999981e+01 7.196484999999999843e+01 2.173059999999999945e+03
2.700000000000000316e-02 1.697774999999999979e-01 1.872299999999999898e+01 7.080299999999999727e+01 2.172769999999999982e+03
2.800000000000000058e-02 1.697470000000000090e-01 1.797724999999999795e+01 6.996854999999999336e+01 2.172529999999999745e+03
2.900000000000000147e-02 1.697180000000000077e-01 1.716440000000000055e+01 6.912610000000000809e+01 2.172304999999999836e+03
3.000000000000000236e-02 1.696834999999999871e-01 1.622724999999999795e+01 6.797794999999999277e+01 2.172045000000000073e+03
3.099999999999999978e-02 1.696404999999999996e-01 1.517384999999999806e+01 6.641710000000000491e+01 2.171720000000000255e+03
3.200000000000000067e-02 1.695884999999999754e-01 1.408605000000000018e+01 6.459364999999999668e+01 2.171324999999999818e+03
3.300000000000000155e-02 1.695349999999999913e-01 1.309799999999999898e+01 6.287464999999999549e+01 2.170914999999999964e+03
3.400000000000000244e-02 1.694904999999999884e-01 1.235425000000000040e+01 6.171784999999999854e+01 2.170565000000000055e+03
3.500000000000000333e-02 1.694654999999999911e-01 1.196265000000000001e+01 6.150959999999999894e+01 2.170364999999999782e+03
3.600000000000000422e-02 1.694684999999999941e-01 1.195925000000000082e+01 6.242770000000000152e+01 2.170369999999999891e+03
3.700000000000000511e-02 1.695014999999999994e-01 1.229589999999999961e+01 6.437510000000000332e+01 2.170595000000000255e+03
3.799999999999999906e-02 1.695590000000000153e-01 1.285194999999999865e+01 6.699904999999999688e+01 2.171025000000000091e+03
3.899999999999999994e-02 1.696309999999999762e-01 1.346300000000000097e+01 6.977949999999999875e+01 2.171565000000000055e+03
4.000000000000000083e-02 1.697035000000000071e-01 1.395635000000000048e+01 7.215189999999999770e+01 2.172119999999999891e+03
4.100000000000000172e-02 1.697619999999999962e-01 1.418335000000000079e+01 7.362524999999999409e+01 2.172574999999999818e+03
4.200000000000000261e-02 1.697940000000000005e-01 1.404115000000000002e+01 7.386795000000000755e+01 2.172829999999999927e+03
4.300000000000000350e-02 1.697919999999999985e-01 1.348189999999999955e+01 7.274545000000000528e+01 2.172829999999999927e+03
4.400000000000000439e-02 1.697520000000000140e-01 1.250985000000000014e+01 7.031165000000000020e+01 2.172534999999999854e+03
4.499999999999999833e-02 1.696765000000000079e-01 1.116994000000000042e+01 6.676470000000000482e+01 2.171975000000000364e+03
4.599999999999999922e-02 1.695694999999999841e-01 9.533200000000000784e+00 6.238705000000000211e+01 2.171164999999999964e+03
4.700000000000000011e-02 1.694390000000000063e-01 7.682595000000000063e+00 5.748689999999999856e+01 2.170164999999999964e+03
4.800000000000000100e-02 1.692914999999999837e-01 5.703049999999999287e+00 5.235450000000000159e+01 2.169039999999999964e+03
4.900000000000000189e-02 1.691360000000000086e-01 3.675937999999999484e+00 4.723969999999999914e+01 2.167849999999999909e+03
5.000000000000000278e-02 1.689789999999999903e-01 1.677765000000000173e+00 4.234805000000000064e+01 2.166639999999999873e+03
5.100000000000000366e-02 1.688275000000000192e-01 -2.188800000000001855e-01 3.784969999999999857e+01 2.165469999999999800e+03
5.200000000000000455e-02 1.686860000000000026e-01 -1.943804999999999783e+00 3.389294999999999902e+01 2.164375000000000000e+03
5.300000000000000544e-02 1.685605000000000020e-01 -3.428774000000000211e+00 3.061495000000000033e+01 2.163399999999999636e+03
5.399999999999999939e-02 1.684554999999999803e-01 -4.608774999999999622e+00 2.814594999999999914e+01 2.162579999999999927e+03
5.500000000000000028e-02 1.683749999999999969e-01 -5.425135000000000041e+00 2.660609999999999786e+01 2.161949999999999818e+03
5.600000000000000117e-02 1.683235000000000148e-01 -5.829729999999999634e+00 2.609570000000000078e+01 2.161534999999999854e+03
5.700000000000000205e-02 1.683040000000000092e-01 -5.789419999999999789e+00 2.668260000000000076e+01 2.161359999999999673e+03
5.800000000000000294e-02 1.683184999999999820e-01 -5.289630000000000720e+00 2.839069999999999894e+01 2.161444999999999709e+03
5.900000000000000383e-02 1.683679999999999899e-01 -4.336285000000000167e+00 3.119290000000000163e+01 2.161795000000000073e+03
6.000000000000000472e-02 1.684509999999999896e-01 -2.955749500000000030e+00 3.500974999999999682e+01 2.162409999999999854e+03
6.099999999999999867e-02 1.685654999999999792e-01 -1.192830000000000279e+00 3.971444999999999936e+01 2.163265000000000327e+03
6.199999999999999956e-02 1.687075000000000102e-01 8.926750000000001073e-01 4.514315000000000566e+01 2.164335000000000036e+03
6.300000000000000044e-02 1.688724999999999810e-01 3.230300000000000171e+00 5.110795000000000243e+01 2.165590000000000146e+03
6.400000000000000133e-02 1.690555000000000252e-01 5.743535500000000127e+00 5.741100000000000136e+01 2.166979999999999563e+03
6.500000000000000222e-02 1.692500000000000115e-01 8.354430000000000689e+00 6.385745000000000005e+01 2.168469999999999800e+03
6.600000000000000311e-02 1.694505000000000039e-01 1.098748499999999950e+01 7.026704999999999757e+01 2.170014999999999873e+03
6.700000000000000400e-02 1.696519999999999972e-01 1.357389500000000027e+01 7.648349999999999227e+01 2.171574999999999818e+03
6.800000000000000488e-02 1.698490000000000000e-01 1.605429999999999779e+01 8.238190000000000168e+01 2.173100000000000364e+03
6.900000000000000577e-02 1.700375000000000081e-01 1.838179999999999836e+01 8.787379999999998859e+01 2.174569999999999709e+03
7.000000000000000666e-02 1.702160000000000062e-01 2.052355000000000018e+01 9.291030000000000655e+01 2.175970000000000255e+03
7.100000000000000755e-02 1.703824999999999923e-01 2.246184999999999832e+01 9.748359999999999559e+01 2.177269999999999982e+03
7.200000000000000844e-02 1.705355000000000065e-01 2.419375000000000142e+01 1.016209000000000060e+02 2.178475000000000364e+03
7.300000000000000933e-02 1.706770000000000231e-01 2.572970000000000113e+01 1.053826999999999998e+02 2.179595000000000255e+03
7.399999999999999634e-02 1.708075000000000010e-01 2.709074999999999989e+01 1.088530000000000086e+02 2.180625000000000000e+03
7.499999999999999722e-02 1.709300000000000264e-01 2.830590000000000117e+01 1.121274999999999977e+02 2.181599999999999909e+03
7.599999999999999811e-02 1.710470000000000046e-01 2.940820000000000078e+01 1.153059999999999974e+02 2.182525000000000091e+03
7.699999999999999900e-02 1.711610000000000076e-01 3.043104999999999905e+01 1.184814999999999969e+02 2.183430000000000291e+03
7.799999999999999989e-02 1.712744999999999962e-01 3.140525000000000233e+01 1.217284999999999968e+02 2.184329999999999927e+03
7.900000000000000078e-02 1.713890000000000136e-01 3.235589999999999833e+01 1.251025000000000063e+02 2.185239999999999782e+03
8.000000000000000167e-02 1.715074999999999794e-01 3.330105000000000359e+01 1.286320000000000050e+02 2.186175000000000182e+03
8.100000000000000255e-02 1.716300000000000048e-01 3.425000000000000000e+01 1.323174999999999955e+02 2.187139999999999873e+03
8.200000000000000344e-02 1.717560000000000198e-01 3.520374999999999943e+01 1.361365000000000123e+02 2.188135000000000218e+03
8.300000000000000433e-02 1.718854999999999966e-01 3.615474999999999994e+01 1.400430000000000064e+02 2.189155000000000200e+03
8.400000000000000522e-02 1.720170000000000032e-01 3.708865000000000123e+01 1.439744999999999777e+02 2.190190000000000055e+03
8.500000000000000611e-02 1.721484999999999821e-01 3.798525000000000063e+01 1.478555000000000064e+02 2.191225000000000364e+03
8.600000000000000699e-02 1.722779999999999867e-01 3.882059999999999889e+01 1.516050000000000182e+02 2.192250000000000000e+03
8.700000000000000788e-02 1.724030000000000007e-01 3.956874999999999432e+01 1.551419999999999959e+02 2.193235000000000127e+03
8.800000000000000877e-02 1.725209999999999799e-01 4.020385000000000275e+01 1.583885000000000218e+02 2.194170000000000073e+03
8.899999999999999578e-02 1.726300000000000057e-01 4.070154999999999745e+01 1.612764999999999986e+02 2.195034999999999854e+03
8.999999999999999667e-02 1.727274999999999783e-01 4.104090000000000060e+01 1.637504999999999882e+02 2.195809999999999945e+03
9.099999999999999756e-02 1.728120000000000211e-01 4.120570000000000022e+01 1.657690000000000055e+02 2.196489999999999782e+03
9.199999999999999845e-02 1.728824999999999945e-01 4.118524999999999636e+01 1.673079999999999927e+02 2.197054999999999836e+03
9.299999999999999933e-02 1.729374999999999940e-01 4.097535000000000593e+01 1.683625000000000114e+02 2.197505000000000109e+03
9.400000000000000022e-02 1.729779999999999929e-01 4.057845000000000368e+01 1.689424999999999955e+02 2.197835000000000036e+03
9.500000000000000111e-02 1.730035000000000045e-01 4.000334999999999752e+01 1.690765000000000100e+02 2.198045000000000073e+03
9.600000000000000200e-02 1.730145000000000155e-01 3.926489999999999725e+01 1.688064999999999998e+02 2.198150000000000091e+03
9.700000000000000289e-02 1.730130000000000001e-01 3.838335000000000008e+01 1.681865000000000236e+02 2.198145000000000437e+03
9.800000000000000377e-02 1.729999999999999871e-01 3.738275000000000148e+01 1.672789999999999964e+02 2.198055000000000291e+03
9.900000000000000466e-02 1.729779999999999929e-01 3.629030000000000200e+01 1.661519999999999868e+02 2.197890000000000327e+03
1.000000000000000056e-01 1.729475000000000040e-01 3.513454999999999728e+01 1.648750000000000000e+02 2.197664999999999964e+03
1.010000000000000064e-01 1.729124999999999968e-01 3.394420000000000215e+01 1.635144999999999982e+02 2.197390000000000327e+03
1.020000000000000073e-01 1.728735000000000133e-01 3.274680000000000035e+01 1.621349999999999909e+02 2.197090000000000146e+03
1.030000000000000082e-01 1.728339999999999876e-01 3.156745000000000090e+01 1.607905000000000086e+02 2.196775000000000091e+03
1.040000000000000091e-01 1.727940000000000031e-01 3.042799999999999727e+01 1.595264999999999986e+02 2.196470000000000255e+03
1.050000000000000100e-01 1.727559999999999929e-01 2.934584999999999866e+01 1.583785000000000025e+02 2.196170000000000073e+03
1.059999999999999970e-01 1.727210000000000134e-01 2.833370000000000033e+01 1.573670000000000186e+02 2.195885000000000218e+03
1.069999999999999979e-01 1.726894999999999958e-01 2.739910000000000068e+01 1.565020000000000095e+02 2.195635000000000218e+03
1.079999999999999988e-01 1.726615000000000233e-01 2.654424999999999812e+01 1.557805000000000177e+02 2.195404999999999745e+03
1.089999999999999997e-01 1.726369999999999849e-01 2.576630000000000109e+01 1.551870000000000118e+02 2.195210000000000036e+03
1.100000000000000006e-01 1.726165000000000060e-01 2.505780000000000030e+01 1.546954999999999814e+02 2.195045000000000073e+03
1.110000000000000014e-01 1.725984999999999880e-01 2.440724999999999767e+01 1.542719999999999914e+02 2.194900000000000091e+03
1.120000000000000023e-01 1.725824999999999998e-01 2.380035000000000167e+01 1.538774999999999977e+02 2.194765000000000327e+03
1.130000000000000032e-01 1.725669999999999982e-01 2.322050000000000125e+01 1.534685000000000059e+02 2.194635000000000218e+03
1.140000000000000041e-01 1.725514999999999965e-01 2.265019999999999811e+01 1.530000000000000000e+02 2.194510000000000218e+03
1.150000000000000050e-01 1.725335000000000063e-01 2.207240000000000180e+01 1.524314999999999998e+02 2.194359999999999673e+03
1.160000000000000059e-01 1.725119999999999987e-01 2.147115000000000151e+01 1.517255000000000109e+02 2.194194999999999709e+03
1.170000000000000068e-01 1.724870000000000014e-01 2.083310000000000173e+01 1.508545000000000016e+02 2.194000000000000000e+03
1.180000000000000077e-01 1.724569999999999992e-01 2.014799999999999969e+01 1.497975000000000136e+02 2.193760000000000218e+03
1.190000000000000085e-01 1.724209999999999909e-01 1.940944999999999965e+01 1.485469999999999970e+02 2.193480000000000018e+03
1.200000000000000094e-01 1.723800000000000054e-01 1.861565000000000225e+01 1.471045000000000016e+02 2.193150000000000091e+03
1.209999999999999964e-01 1.723324999999999996e-01 1.776914999999999978e+01 1.454855000000000018e+02 2.192779999999999745e+03
1.219999999999999973e-01 1.722799999999999887e-01 1.687685000000000102e+01 1.437150000000000034e+02 2.192369999999999891e+03
1.229999999999999982e-01 1.722225000000000006e-01 1.594965000000000011e+01 1.418280000000000030e+02 2.191925000000000182e+03
1.239999999999999991e-01 1.721615000000000228e-01 1.500174999999999947e+01 1.398659999999999854e+02 2.191449999999999818e+03
1.250000000000000000e-01 1.720984999999999876e-01 1.404994999999999905e+01 1.378774999999999977e+02 2.190949999999999818e+03
1.260000000000000009e-01 1.720345000000000069e-01 1.311230000000000118e+01 1.359114999999999895e+02 2.190449999999999818e+03
1.270000000000000018e-01 1.719709999999999850e-01 1.220758999999999972e+01 1.340165000000000077e+02 2.189949999999999818e+03
1.280000000000000027e-01 1.719100000000000072e-01 1.135371500000000111e+01 1.322389999999999759e+02 2.189470000000000255e+03
1.290000000000000036e-01 1.718525000000000191e-01 1.056712500000000077e+01 1.306200000000000045e+02 2.189010000000000218e+03
1.300000000000000044e-01 1.717989999999999795e-01 9.861819999999999808e+00 1.291910000000000025e+02 2.188595000000000255e+03
1.310000000000000053e-01 1.717520000000000158e-01 9.248630000000000351e+00 1.279774999999999920e+02 2.188215000000000146e+03
1.320000000000000062e-01 1.717104999999999881e-01 8.734849999999999781e+00 1.269924999999999926e+02 2.187889999999999873e+03
1.330000000000000071e-01 1.716769999999999963e-01 8.324014999999999276e+00 1.262404999999999973e+02 2.187614999999999782e+03
1.340000000000000080e-01 1.716499999999999970e-01 8.015765000000000029e+00 1.257154999999999916e+02 2.187400000000000091e+03
1.350000000000000089e-01 1.716300000000000048e-01 7.806200000000000472e+00 1.254044999999999987e+02 2.187239999999999782e+03
1.360000000000000098e-01 1.716165000000000052e-01 7.688150000000000261e+00 1.252854999999999990e+02 2.187125000000000000e+03
1.370000000000000107e-01 1.716094999999999982e-01 7.651730000000000587e+00 1.253315000000000055e+02 2.187059999999999945e+03
1.380000000000000115e-01 1.716074999999999962e-01 7.684929999999999595e+00 1.255105000000000075e+02 2.187034999999999854e+03
1.390000000000000124e-01 1.716099999999999848e-01 7.774305000000000021e+00 1.257895000000000039e+02 2.187050000000000182e+03
1.400000000000000133e-01 1.716150000000000175e-01 7.905640000000000001e+00 1.261345000000000027e+02 2.187090000000000146e+03
1.410000000000000142e-01 1.716234999999999844e-01 8.064595000000000624e+00 1.265120000000000005e+02 2.187144999999999982e+03
1.420000000000000151e-01 1.716330000000000078e-01 8.237334999999999852e+00 1.268909999999999911e+02 2.187215000000000146e+03
1.430000000000000160e-01 1.716424999999999756e-01 8.411059999999999093e+00 1.272444999999999879e+02 2.187289999999999964e+03
1.440000000000000169e-01 1.716519999999999990e-01 8.574419999999999931e+00 1.275499999999999972e+02 2.187359999999999673e+03
1.450000000000000178e-01 1.716600000000000070e-01 8.717919999999999447e+00 1.277889999999999873e+02 2.187429999999999836e+03
1.459999999999999909e-01 1.716664999999999996e-01 8.834099999999999397e+00 1.279500000000000028e+02 2.187474999999999909e+03
1.469999999999999918e-01 1.716705000000000036e-01 8.917709999999999582e+00 1.280250000000000057e+02 2.187510000000000218e+03
1.479999999999999927e-01 1.716725000000000056e-01 8.965714999999999435e+00 1.280120000000000005e+02 2.187529999999999745e+03
1.489999999999999936e-01 1.716719999999999913e-01 8.977249999999999730e+00 1.279139999999999873e+02 2.187524999999999636e+03
1.499999999999999944e-01 1.716690000000000160e-01 8.953414999999999679e+00 1.277374999999999972e+02 2.187500000000000000e+03
1.509999999999999953e-01 1.716634999999999966e-01 8.897045000000000314e+00 1.274934999999999974e+02 2.187465000000000146e+03
1.519999999999999962e-01 1.716564999999999896e-01 8.812374999999999403e+00 1.271945000000000050e+02 2.187404999999999745e+03
1.529999999999999971e-01 1.716475000000000084e-01 8.704679999999999751e+00 1.268555000000000064e+02 2.187340000000000146e+03
1.539999999999999980e-01 1.716369999999999840e-01 8.579844999999998834e+00 1.264909999999999997e+02 2.187260000000000218e+03
1.549999999999999989e-01 1.716265000000000152e-01 8.443979999999999819e+00 1.261165000000000020e+02 2.187179999999999836e+03
1.559999999999999998e-01 1.716145000000000032e-01 8.303029999999999688e+00 1.257454999999999927e+02 2.187090000000000146e+03
1.570000000000000007e-01 1.716035000000000199e-01 8.162425000000000708e+00 1.253884999999999934e+02 2.187000000000000000e+03
1.580000000000000016e-01 1.715924999999999812e-01 8.026824999999998766e+00 1.250564999999999998e+02 2.186914999999999964e+03
1.590000000000000024e-01 1.715820000000000123e-01 7.899890000000000079e+00 1.247539999999999907e+02 2.186829999999999927e+03
