# t [s], A [cm^2], U [cm/s], P [cPa], c [cm/s]
1.000000000000000021e-03 6.436964999999998938e-01 5.129950000000001176e-03 1.061320000000000050e+02 1.733349999999999909e+03
2.000000000000000042e-03 6.436925000000000008e-01 1.157844999999999881e-02 1.061089999999999947e+02 1.733349999999999909e+03
3.000000000000000062e-03 6.437684999999999658e-01 1.591112000000000082e-01 1.062829999999999870e+02 1.733384999999999991e+03
4.000000000000000083e-03 6.437914999999999610e-01 2.252460000000000018e-01 1.063610000000000042e+02 1.733400000000000091e+03
5.000000000000000104e-03 6.437235000000000040e-01 1.236634999999999818e-01 1.061435000000000031e+02 1.733360000000000127e+03
6.000000000000000125e-03 6.436474999999999280e-01 -5.057000000000033690e-03 1.057764999999999986e+02 1.733295000000000073e+03
7.000000000000000146e-03 6.435494999999999965e-01 -1.898000000000000798e-01 1.052549999999999955e+02 1.733190000000000055e+03
8.000000000000000167e-03 6.433714999999999851e-01 -5.458849999999999536e-01 1.044079999999999870e+02 1.733030000000000200e+03
9.000000000000001055e-03 6.431099999999999595e-01 -1.078054999999999986e+00 1.031649999999999920e+02 1.732795000000000073e+03
1.000000000000000194e-02 6.427454999999999696e-01 -1.803944999999999910e+00 1.014428000000000054e+02 1.732465000000000146e+03
1.099999999999999936e-02 6.422615000000000407e-01 -2.730220000000000091e+00 9.916630000000000678e+01 1.732014999999999873e+03
1.200000000000000025e-02 6.417040000000000521e-01 -3.736050000000000537e+00 9.644145000000000323e+01 1.731465000000000146e+03
1.300000000000000114e-02 6.411694999999999478e-01 -4.589255500000000154e+00 9.358574999999999022e+01 1.730869999999999891e+03
1.400000000000000203e-02 6.407429999999999515e-01 -5.079208500000000015e+00 9.096850000000000591e+01 1.730289999999999964e+03
1.499999999999999944e-02 6.404490000000000460e-01 -5.121529999999999916e+00 8.882195000000000107e+01 1.729784999999999854e+03
1.600000000000000033e-02 6.402525000000000022e-01 -4.771889999999999965e+00 8.716675000000000750e+01 1.729355000000000018e+03
1.700000000000000122e-02 6.400874999999999204e-01 -4.174999999999999822e+00 8.584344999999999004e+01 1.728985000000000127e+03
1.800000000000000211e-02 6.398874999999999424e-01 -3.491115000000000190e+00 8.461009999999998854e+01 1.728639999999999873e+03
1.900000000000000300e-02 6.396150000000000446e-01 -2.831418650000000259e+00 8.325354999999998995e+01 1.728275000000000091e+03
2.000000000000000042e-02 6.392705000000000748e-01 -2.225550000000000139e+00 8.167144999999999300e+01 1.727875000000000000e+03
2.100000000000000130e-02 6.388845000000000773e-01 -1.633599999999999941e+00 7.988849999999999341e+01 1.727434999999999945e+03
2.200000000000000219e-02 6.384935000000000471e-01 -9.919099999999998474e-01 7.800870000000000459e+01 1.726985000000000127e+03
2.299999999999999961e-02 6.381229999999999958e-01 -2.642150000000000887e-01 7.613685000000000969e+01 1.726525000000000091e+03
2.400000000000000050e-02 6.377684999999999604e-01 5.269749999999997492e-01 7.431180000000000518e+01 1.726065000000000055e+03
2.500000000000000139e-02 6.374035000000000117e-01 1.297425000000000050e+00 7.247679999999999723e+01 1.725610000000000127e+03
2.600000000000000228e-02 6.369819999999999371e-01 1.922215000000000229e+00 7.048985000000000412e+01 1.725119999999999891e+03
2.700000000000000316e-02 6.364609999999999435e-01 2.270835000000000381e+00 6.816740000000000066e+01 1.724579999999999927e+03
2.800000000000000058e-02 6.358084999999999987e-01 2.245389999999999997e+00 6.534405000000000996e+01 1.723940000000000055e+03
2.900000000000000147e-02 6.350210000000000576e-01 1.810440000000000271e+00 6.193254999999999910e+01 1.723195000000000164e+03
3.000000000000000236e-02 6.341215000000000046e-01 1.004999999999999893e+00 5.796189999999999998e+01 1.722335000000000036e+03
3.099999999999999978e-02 6.331599999999999451e-01 -6.760000000000054854e-02 5.358209999999999695e+01 1.721389999999999873e+03
3.200000000000000067e-02 6.321974999999999678e-01 -1.265935000000000699e+00 4.903529999999999944e+01 1.720400000000000091e+03
3.300000000000000155e-02 6.312964999999999272e-01 -2.442504999999999704e+00 4.460769999999999413e+01 1.719414999999999964e+03
3.400000000000000244e-02 6.305095000000000560e-01 -3.469615000000000560e+00 4.057849999999999824e+01 1.718494999999999891e+03
3.500000000000000333e-02 6.298719999999999875e-01 -4.254580000000000695e+00 3.717995000000000516e+01 1.717695000000000164e+03
3.600000000000000422e-02 6.294039999999999635e-01 -4.743205999999999811e+00 3.457415000000000305e+01 1.717039999999999964e+03
3.700000000000000511e-02 6.291109999999999758e-01 -4.914609999999999701e+00 3.284810000000000230e+01 1.716565000000000055e+03
3.799999999999999906e-02 6.289894999999999792e-01 -4.770559999999999690e+00 3.202230000000000132e+01 1.716275000000000091e+03
3.899999999999999994e-02 6.290295000000000192e-01 -4.324315000000000353e+00 3.206859999999999644e+01 1.716179999999999836e+03
4.000000000000000083e-02 6.292184999999999029e-01 -3.591486999999999874e+00 3.293034999999999712e+01 1.716269999999999982e+03
4.100000000000000172e-02 6.295465000000000089e-01 -2.585519999999999818e+00 3.453884999999999650e+01 1.716529999999999973e+03
4.200000000000000261e-02 6.300010000000000332e-01 -1.317989999999999995e+00 3.682309999999999661e+01 1.716945000000000164e+03
4.300000000000000350e-02 6.305709999999999926e-01 1.975699999999998013e-01 3.971174999999999500e+01 1.717509999999999991e+03
4.400000000000000439e-02 6.312435000000000684e-01 1.940624999999999822e+00 4.313034999999999997e+01 1.718200000000000045e+03
4.499999999999999833e-02 6.320025000000000226e-01 3.879959999999999631e+00 4.699620000000000175e+01 1.718994999999999891e+03
4.599999999999999922e-02 6.328270000000000284e-01 5.972315000000000040e+00 5.121555000000000035e+01 1.719884999999999991e+03
4.700000000000000011e-02 6.336945000000000494e-01 8.164435000000000997e+00 5.568330000000000268e+01 1.720845000000000027e+03
4.800000000000000100e-02 6.345825000000000493e-01 1.039717599999999997e+01 6.028759999999999764e+01 1.721849999999999909e+03
4.900000000000000189e-02 6.354674999999999629e-01 1.261093499999999956e+01 6.491624999999999091e+01 1.722875000000000000e+03
5.000000000000000278e-02 6.363299999999999512e-01 1.475096999999999881e+01 6.946524999999999750e+01 1.723900000000000091e+03
5.100000000000000366e-02 6.371539999999999981e-01 1.677179500000000090e+01 7.384675000000000011e+01 1.724904999999999973e+03
5.200000000000000455e-02 6.379304999999999559e-01 1.863994999999999891e+01 7.799459999999999127e+01 1.725875000000000000e+03
5.300000000000000544e-02 6.386530000000000262e-01 2.033469999999999800e+01 8.186764999999999759e+01 1.726795000000000073e+03
5.399999999999999939e-02 6.393219999999999459e-01 2.184759999999999991e+01 8.545045000000000357e+01 1.727654999999999973e+03
5.500000000000000028e-02 6.399414999999999409e-01 2.318110000000000070e+01 8.875045000000000073e+01 1.728460000000000036e+03
5.600000000000000117e-02 6.405179999999999207e-01 2.434595000000000198e+01 9.179449999999999932e+01 1.729215000000000146e+03
5.700000000000000205e-02 6.410599999999999632e-01 2.535945000000000249e+01 9.462460000000000093e+01 1.729920000000000073e+03
5.800000000000000294e-02 6.415779999999999816e-01 2.624329999999999785e+01 9.729104999999999848e+01 1.730589999999999918e+03
5.900000000000000383e-02 6.420829999999999593e-01 2.702165000000000106e+01 9.985030000000000427e+01 1.731230000000000018e+03
6.000000000000000472e-02 6.425855000000000317e-01 2.771920000000000073e+01 1.023573499999999967e+02 1.731855000000000018e+03
6.099999999999999867e-02 6.430934999999999846e-01 2.835974999999999824e+01 1.048640000000000043e+02 1.732474999999999909e+03
6.199999999999999956e-02 6.436150000000000482e-01 2.896405000000000030e+01 1.074114999999999895e+02 1.733094999999999800e+03
6.300000000000000044e-02 6.441540000000000044e-01 2.954834999999999923e+01 1.100314999999999941e+02 1.733735000000000127e+03
6.400000000000000133e-02 6.447125000000000217e-01 3.012294999999999945e+01 1.127394999999999925e+02 1.734380000000000109e+03
6.500000000000000222e-02 6.452884999999999316e-01 3.069160000000000110e+01 1.155344999999999942e+02 1.735049999999999955e+03
6.600000000000000311e-02 6.458774999999999933e-01 3.125110000000000099e+01 1.183995000000000033e+02 1.735730000000000018e+03
6.700000000000000400e-02 6.464719999999999356e-01 3.179220000000000113e+01 1.213025000000000091e+02 1.736414999999999964e+03
6.800000000000000488e-02 6.470614999999999561e-01 3.230075000000000074e+01 1.241989999999999981e+02 1.737109999999999900e+03
6.900000000000000577e-02 6.476364999999999483e-01 3.275900000000000034e+01 1.270374999999999943e+02 1.737784999999999854e+03
7.000000000000000666e-02 6.481840000000000934e-01 3.314804999999999779e+01 1.297605000000000075e+02 1.738444999999999936e+03
7.100000000000000755e-02 6.486950000000000216e-01 3.344875000000000398e+01 1.323120000000000118e+02 1.739065000000000055e+03
7.200000000000000844e-02 6.491584999999999717e-01 3.364390000000000214e+01 1.346399999999999864e+02 1.739640000000000100e+03
7.300000000000000933e-02 6.495670000000000055e-01 3.371934999999999860e+01 1.366999999999999886e+02 1.740159999999999854e+03
7.399999999999999634e-02 6.499144999999999506e-01 3.366474999999999795e+01 1.384585000000000150e+02 1.740615000000000009e+03
7.499999999999999722e-02 6.501980000000000537e-01 3.347414999999999452e+01 1.398919999999999959e+02 1.741000000000000000e+03
7.599999999999999811e-02 6.504159999999999942e-01 3.314654999999999774e+01 1.409914999999999736e+02 1.741309999999999945e+03
7.699999999999999900e-02 6.505695000000000228e-01 3.268574999999999875e+01 1.417590000000000146e+02 1.741539999999999964e+03
7.799999999999999989e-02 6.506620000000000736e-01 3.210009999999999764e+01 1.422085000000000150e+02 1.741704999999999927e+03
7.900000000000000078e-02 6.506989999999999164e-01 3.140220000000000056e+01 1.423650000000000091e+02 1.741795000000000073e+03
8.000000000000000167e-02 6.506870000000000154e-01 3.060824999999999818e+01 1.422620000000000005e+02 1.741824999999999818e+03
8.100000000000000255e-02 6.506349999999999634e-01 2.973714999999999975e+01 1.419399999999999977e+02 1.741795000000000073e+03
8.200000000000000344e-02 6.505505000000000315e-01 2.881004999999999683e+01 1.414449999999999932e+02 1.741724999999999909e+03
8.300000000000000433e-02 6.504440000000000222e-01 2.784875000000000256e+01 1.408240000000000123e+02 1.741615000000000009e+03
8.400000000000000522e-02 6.503235000000000543e-01 2.687489999999999668e+01 1.401245000000000118e+02 1.741485000000000127e+03
8.500000000000000611e-02 6.501984999999999015e-01 2.590905000000000058e+01 1.393915000000000077e+02 1.741335000000000036e+03
8.600000000000000699e-02 6.500755000000000283e-01 2.496955000000000169e+01 1.386659999999999968e+02 1.741179999999999836e+03
8.700000000000000788e-02 6.499614999999999698e-01 2.407169999999999987e+01 1.379814999999999827e+02 1.741029999999999973e+03
8.800000000000000877e-02 6.498604999999999521e-01 2.322704999999999842e+01 1.373659999999999854e+02 1.740889999999999873e+03
8.899999999999999578e-02 6.497755000000000614e-01 2.244310000000000116e+01 1.368360000000000127e+02 1.740759999999999991e+03
8.999999999999999667e-02 6.497070000000000345e-01 2.172305000000000064e+01 1.364010000000000105e+02 1.740654999999999973e+03
9.099999999999999756e-02 6.496560000000000112e-01 2.106579999999999941e+01 1.360609999999999786e+02 1.740565000000000055e+03
9.199999999999999845e-02 6.496185000000000986e-01 2.046670000000000300e+01 1.358070000000000164e+02 1.740490000000000009e+03
9.299999999999999933e-02 6.495914999999999884e-01 1.991729999999999734e+01 1.356240000000000236e+02 1.740430000000000064e+03
9.400000000000000022e-02 6.495720000000000383e-01 1.940694999999999837e+01 1.354909999999999854e+02 1.740389999999999873e+03
9.500000000000000111e-02 6.495539999999999647e-01 1.892289999999999850e+01 1.353829999999999814e+02 1.740355000000000018e+03
9.600000000000000200e-02 6.495319999999999983e-01 1.845145000000000124e+01 1.352715000000000032e+02 1.740315000000000055e+03
9.700000000000000289e-02 6.495009999999999950e-01 1.797860000000000014e+01 1.351304999999999836e+02 1.740275000000000091e+03
9.800000000000000377e-02 6.494564999999999921e-01 1.749130000000000251e+01 1.349325000000000045e+02 1.740224999999999909e+03
9.900000000000000466e-02 6.493934999999999569e-01 1.697785000000000011e+01 1.346550000000000011e+02 1.740160000000000082e+03
1.000000000000000056e-01 6.493105000000000127e-01 1.642879999999999896e+01 1.342794999999999845e+02 1.740075000000000045e+03
1.010000000000000064e-01 6.492044999999999622e-01 1.583750000000000036e+01 1.337934999999999945e+02 1.739969999999999800e+03
1.020000000000000073e-01 6.490750000000000686e-01 1.520059999999999967e+01 1.331910000000000025e+02 1.739839999999999918e+03
1.030000000000000082e-01 6.489234999999999864e-01 1.451814999999999856e+01 1.324730000000000132e+02 1.739684999999999945e+03
1.040000000000000091e-01 6.487514999999999254e-01 1.379367000000000054e+01 1.316490000000000009e+02 1.739505000000000109e+03
1.050000000000000100e-01 6.485634999999999595e-01 1.303402499999999975e+01 1.307324999999999875e+02 1.739304999999999836e+03
1.059999999999999970e-01 6.483630000000000226e-01 1.224903500000000101e+01 1.297464999999999975e+02 1.739085000000000036e+03
1.069999999999999979e-01 6.481565000000000243e-01 1.145091999999999999e+01 1.287164999999999964e+02 1.738860000000000127e+03
1.079999999999999988e-01 6.479494999999999560e-01 1.065361000000000047e+01 1.276714999999999947e+02 1.738619999999999891e+03
1.089999999999999997e-01 6.477485000000000603e-01 9.872014999999999318e+00 1.266430000000000007e+02 1.738384999999999991e+03
1.100000000000000006e-01 6.475589999999999957e-01 9.121185000000000542e+00 1.256634999999999991e+02 1.738159999999999854e+03
1.110000000000000014e-01 6.473875000000000046e-01 8.415419999999999234e+00 1.247620000000000005e+02 1.737944999999999936e+03
1.120000000000000023e-01 6.472385000000000499e-01 7.767599999999999838e+00 1.239650000000000034e+02 1.737755000000000109e+03
1.130000000000000032e-01 6.471154999999999546e-01 7.188510000000000844e+00 1.232944999999999993e+02 1.737585000000000036e+03
1.140000000000000041e-01 6.470215000000000272e-01 6.686120000000000729e+00 1.227665000000000077e+02 1.737450000000000045e+03
1.150000000000000050e-01 6.469579999999999220e-01 6.265455000000000219e+00 1.223905000000000030e+02 1.737340000000000146e+03
1.160000000000000059e-01 6.469245000000000134e-01 5.928325000000000067e+00 1.221694999999999993e+02 1.737269999999999982e+03
1.170000000000000068e-01 6.469199999999999395e-01 5.673344999999999416e+00 1.220989999999999895e+02 1.737224999999999909e+03
1.180000000000000077e-01 6.469415000000000582e-01 5.496159999999999712e+00 1.221680000000000064e+02 1.737220000000000027e+03
1.190000000000000085e-01 6.469865000000000199e-01 5.389834999999999710e+00 1.223610000000000042e+02 1.737240000000000009e+03
1.200000000000000094e-01 6.470495000000000552e-01 5.345315000000000261e+00 1.226589999999999918e+02 1.737284999999999854e+03
1.209999999999999964e-01 6.471270000000000078e-01 5.352009999999999934e+00 1.230374999999999943e+02 1.737355000000000018e+03
1.219999999999999973e-01 6.472134999999999971e-01 5.398374999999999702e+00 1.234729999999999990e+02 1.737434999999999945e+03
1.229999999999999982e-01 6.473039999999999905e-01 5.472529999999999895e+00 1.239399999999999977e+02 1.737529999999999973e+03
1.239999999999999991e-01 6.473949999999999427e-01 5.562770000000000437e+00 1.244145000000000039e+02 1.737625000000000000e+03
1.250000000000000000e-01 6.474820000000000020e-01 5.658129999999999882e+00 1.248750000000000000e+02 1.737730000000000018e+03
1.260000000000000009e-01 6.475610000000000532e-01 5.748704999999999288e+00 1.253025000000000091e+02 1.737820000000000164e+03
1.270000000000000018e-01 6.476300000000000390e-01 5.826039999999999885e+00 1.256814999999999998e+02 1.737905000000000200e+03
1.280000000000000027e-01 6.476865000000000538e-01 5.883314999999999628e+00 1.260005000000000024e+02 1.737980000000000018e+03
1.290000000000000036e-01 6.477300000000000280e-01 5.915470000000000006e+00 1.262504999999999882e+02 1.738045000000000073e+03
1.300000000000000044e-01 6.477595000000000436e-01 5.919249999999999901e+00 1.264300000000000068e+02 1.738090000000000146e+03
1.310000000000000053e-01 6.477755000000000596e-01 5.893155000000000143e+00 1.265374999999999943e+02 1.738130000000000109e+03
1.320000000000000062e-01 6.477785000000000348e-01 5.837345000000000006e+00 1.265764999999999958e+02 1.738144999999999982e+03
1.330000000000000071e-01 6.477699999999999569e-01 5.753410000000000579e+00 1.265525000000000091e+02 1.738150000000000091e+03
1.340000000000000080e-01 6.477524999999999533e-01 5.644230000000000302e+00 1.264745000000000061e+02 1.738139999999999873e+03
1.350000000000000089e-01 6.477269999999999417e-01 5.513640000000000541e+00 1.263514999999999873e+02 1.738119999999999891e+03
1.360000000000000098e-01 6.476960000000000495e-01 5.366200000000000081e+00 1.261940000000000026e+02 1.738089999999999918e+03
1.370000000000000107e-01 6.476604999999999723e-01 5.206875000000000142e+00 1.260134999999999934e+02 1.738059999999999945e+03
1.380000000000000115e-01 6.476245000000000474e-01 5.040734999999999744e+00 1.258190000000000026e+02 1.738019999999999982e+03
1.390000000000000124e-01 6.475880000000000525e-01 4.872714999999999463e+00 1.256214999999999975e+02 1.737980000000000018e+03
1.400000000000000133e-01 6.475535000000000041e-01 4.707304999999999851e+00 1.254290000000000020e+02 1.737934999999999945e+03
1.410000000000000142e-01 6.475215000000000831e-01 4.548399999999999999e+00 1.252464999999999975e+02 1.737900000000000091e+03
1.420000000000000151e-01 6.474929999999999852e-01 4.399079999999999657e+00 1.250810000000000031e+02 1.737860000000000127e+03
1.430000000000000160e-01 6.474679999999999325e-01 4.261554999999999538e+00 1.249339999999999975e+02 1.737824999999999818e+03
1.440000000000000169e-01 6.474474999999999536e-01 4.137100000000000222e+00 1.248054999999999950e+02 1.737795000000000073e+03
1.450000000000000178e-01 6.474294999999999911e-01 4.026094999999999757e+00 1.246949999999999932e+02 1.737769999999999982e+03
1.459999999999999909e-01 6.474139999999999340e-01 3.928099999999999703e+00 1.245995000000000061e+02 1.737744999999999891e+03
1.469999999999999918e-01 6.474005000000000454e-01 3.841969999999999885e+00 1.245139999999999958e+02 1.737719999999999800e+03
1.479999999999999927e-01 6.473869999999999347e-01 3.766040000000000276e+00 1.244335000000000093e+02 1.737699999999999818e+03
1.489999999999999936e-01 6.473735000000000461e-01 3.698299999999999699e+00 1.243529999999999944e+02 1.737679999999999836e+03
1.499999999999999944e-01 6.473579999999999890e-01 3.636569999999999858e+00 1.242665000000000077e+02 1.737659999999999854e+03
1.509999999999999953e-01 6.473389999999999977e-01 3.578695000000000181e+00 1.241684999999999945e+02 1.737639999999999873e+03
1.519999999999999962e-01 6.473169999999999202e-01 3.522680000000000256e+00 1.240544999999999902e+02 1.737610000000000127e+03
1.529999999999999971e-01 6.472904999999999909e-01 3.466819999999999791e+00 1.239219999999999970e+02 1.737579999999999927e+03
1.539999999999999980e-01 6.472599999999999465e-01 3.409804999999999531e+00 1.237674999999999983e+02 1.737545000000000073e+03
1.549999999999999989e-01 6.472244999999999804e-01 3.350780000000000314e+00 1.235910000000000082e+02 1.737500000000000000e+03
1.559999999999999998e-01 6.471850000000000103e-01 3.289359999999999840e+00 1.233919999999999959e+02 1.737454999999999927e+03
1.570000000000000007e-01 6.471405000000000074e-01 3.225634999999999586e+00 1.231730000000000018e+02 1.737409999999999854e+03
1.580000000000000016e-01 6.470934999999999881e-01 3.160194999999999865e+00 1.229369999999999976e+02 1.737355000000000018e+03
1.590000000000000024e-01 6.470435000000001047e-01 3.094039999999999679e+00 1.226870000000000118e+02 1.737300000000000182e+03
