# t [s], A [cm^2], U [cm/s], P [cPa], c [cm/s]
1.000000000000000021e-03 6.553744999999999710e-01 6.104999999999999316e-03 9.854464999999999009e+01 1.828670000000000073e+03
2.000000000000000042e-03 6.553720000000000656e-01 1.581464999999999954e-02 9.851789999999999736e+01 1.828664999999999964e+03
3.000000000000000062e-03 6.554524999999999935e-01 1.874928000000000150e-01 9.872630000000000905e+01 1.828710000000000036e+03
4.000000000000000083e-03 6.554605000000000015e-01 2.409350000000000103e-01 9.876910000000000878e+01 1.828720000000000027e+03
5.000000000000000104e-03 6.553674999999999917e-01 9.746500000000002384e-02 9.843274999999999864e+01 1.828650000000000091e+03
6.000000000000000125e-03 6.552819999999999201e-01 -4.827999999999998959e-02 9.796460000000000434e+01 1.828545000000000073e+03
7.000000000000000146e-03 6.551495000000000513e-01 -3.085499999999999909e-01 9.725645000000000095e+01 1.828389999999999873e+03
8.000000000000000167e-03 6.549220000000000041e-01 -7.846950000000001424e-01 9.611899999999999977e+01 1.828144999999999982e+03
9.000000000000001055e-03 6.546060000000000212e-01 -1.455664999999999987e+00 9.450894999999999868e+01 1.827795000000000073e+03
1.000000000000000194e-02 6.541649999999999965e-01 -2.370465000000000266e+00 9.229155000000000086e+01 1.827305000000000064e+03
1.099999999999999936e-02 6.535984999999999712e-01 -3.500460000000000349e+00 8.942179999999999040e+01 1.826659999999999854e+03
1.200000000000000025e-02 6.530100000000000904e-01 -4.596558000000000810e+00 8.620964999999999634e+01 1.825914999999999964e+03
1.300000000000000114e-02 6.525354999999999350e-01 -5.326009499999999619e+00 8.319865000000000066e+01 1.825184999999999945e+03
1.400000000000000203e-02 6.522429999999999062e-01 -5.495314999999999728e+00 8.081974999999999909e+01 1.824554999999999836e+03
1.499999999999999944e-02 6.521019999999999595e-01 -5.135850000000000470e+00 7.917329999999999757e+01 1.824065000000000055e+03
1.600000000000000033e-02 6.520159999999999290e-01 -4.446575000000000166e+00 7.803579999999999472e+01 1.823684999999999945e+03
1.700000000000000122e-02 6.518815000000000026e-01 -3.675330000000000208e+00 7.701340000000000430e+01 1.823340000000000146e+03
1.800000000000000211e-02 6.516345000000000054e-01 -3.001722000000000001e+00 7.574420000000000641e+01 1.822960000000000036e+03
1.900000000000000300e-02 6.512744999999999784e-01 -2.469346000000000263e+00 7.405899999999999750e+01 1.822494999999999891e+03
2.000000000000000042e-02 6.508530000000000149e-01 -1.998395000000000143e+00 7.202155000000000484e+01 1.821965000000000146e+03
2.100000000000000130e-02 6.504345000000000265e-01 -1.464325000000000099e+00 6.984059999999999491e+01 1.821389999999999873e+03
2.200000000000000219e-02 6.500604999999999301e-01 -7.878099999999998992e-01 6.772235000000000582e+01 1.820820000000000164e+03
2.299999999999999961e-02 6.497275000000000134e-01 1.195000000000012719e-02 6.575050000000000239e+01 1.820275000000000091e+03
2.400000000000000050e-02 6.493940000000000268e-01 8.143599999999997507e-01 6.383744999999999692e+01 1.819739999999999782e+03
2.500000000000000139e-02 6.489920000000000133e-01 1.434265000000000345e+00 6.174949999999999761e+01 1.819170000000000073e+03
2.600000000000000228e-02 6.484550000000000036e-01 1.681385000000000129e+00 5.918744999999999834e+01 1.818505000000000109e+03
2.700000000000000316e-02 6.477424999999999988e-01 1.424080000000000013e+00 5.589660000000000650e+01 1.817695000000000164e+03
2.800000000000000058e-02 6.468555000000000277e-01 6.363300000000000622e-01 5.176940000000000452e+01 1.816699999999999818e+03
2.900000000000000147e-02 6.458409999999999984e-01 -5.913500000000002643e-01 4.689945000000000164e+01 1.815545000000000073e+03
3.000000000000000236e-02 6.447769999999999335e-01 -2.080589999999999939e+00 4.156709999999999638e+01 1.814264999999999873e+03
3.099999999999999978e-02 6.437515000000000320e-01 -3.617674999999999752e+00 3.616810000000000258e+01 1.812949999999999818e+03
3.200000000000000067e-02 6.428420000000000245e-01 -5.004685000000000272e+00 3.112215000000000131e+01 1.811690000000000055e+03
3.300000000000000155e-02 6.421030000000000904e-01 -6.093600000000000350e+00 2.679355000000000331e+01 1.810559999999999945e+03
3.400000000000000244e-02 6.415655000000000108e-01 -6.798834999999999518e+00 2.344060000000000343e+01 1.809644999999999982e+03
3.500000000000000333e-02 6.412349999999999994e-01 -7.092335000000000278e+00 2.119829999999999970e+01 1.808974999999999909e+03
3.600000000000000422e-02 6.411014999999999908e-01 -6.987109999999999488e+00 2.008845000000000169e+01 1.808569999999999936e+03
3.700000000000000511e-02 6.411454999999999238e-01 -6.517094999999999416e+00 2.005024999999999835e+01 1.808429999999999836e+03
3.799999999999999906e-02 6.413465000000000416e-01 -5.718754999999999811e+00 2.097769999999999868e+01 1.808529999999999973e+03
3.899999999999999994e-02 6.416865000000000485e-01 -4.620555500000000038e+00 2.275280000000000058e+01 1.808860000000000127e+03
4.000000000000000083e-02 6.421510000000000273e-01 -3.241715000000000124e+00 2.526575000000000060e+01 1.809380000000000109e+03
4.100000000000000172e-02 6.427264999999999784e-01 -1.598809999999999842e+00 2.841839999999999833e+01 1.810074999999999818e+03
4.200000000000000261e-02 6.433990000000000542e-01 2.845499999999994145e-01 3.211670000000000158e+01 1.810920000000000073e+03
4.300000000000000350e-02 6.441489999999999716e-01 2.369995000000000296e+00 3.625889999999999702e+01 1.811889999999999873e+03
4.400000000000000439e-02 6.449540000000000273e-01 4.601905000000000356e+00 4.072794999999999987e+01 1.812950000000000045e+03
4.499999999999999833e-02 6.457854999999999013e-01 6.910169999999999924e+00 4.539010000000000389e+01 1.814074999999999818e+03
4.599999999999999922e-02 6.466159999999999686e-01 9.218014999999999404e+00 5.010269999999999868e+01 1.815240000000000009e+03
4.700000000000000011e-02 6.474195000000000366e-01 1.145058500000000024e+01 5.472575000000000500e+01 1.816394999999999982e+03
4.800000000000000100e-02 6.481764999999999333e-01 1.354387999999999970e+01 5.913644999999999641e+01 1.817525000000000091e+03
4.900000000000000189e-02 6.488715000000000455e-01 1.545061500000000088e+01 6.324134999999999707e+01 1.818595000000000027e+03
5.000000000000000278e-02 6.494995000000000074e-01 1.714294999999999902e+01 6.698390000000000555e+01 1.819585000000000036e+03
5.100000000000000366e-02 6.500619999999999177e-01 1.861220000000000141e+01 7.034619999999999607e+01 1.820494999999999891e+03
5.200000000000000455e-02 6.505650000000000599e-01 1.986564999999999870e+01 7.334609999999999275e+01 1.821324999999999818e+03
5.300000000000000544e-02 6.510200000000000431e-01 2.092304999999999993e+01 7.603014999999999191e+01 1.822075000000000045e+03
5.399999999999999939e-02 6.514394999999999492e-01 2.181269999999999953e+01 7.846594999999999231e+01 1.822764999999999873e+03
5.500000000000000028e-02 6.518399999999999750e-01 2.256804999999999950e+01 8.073335000000000150e+01 1.823410000000000082e+03
5.600000000000000117e-02 6.522339999999999804e-01 2.322540000000000049e+01 8.291769999999999641e+01 1.824025000000000091e+03
5.700000000000000205e-02 6.526374999999999815e-01 2.382160000000000011e+01 8.510314999999999941e+01 1.824630000000000109e+03
5.800000000000000294e-02 6.530635000000000190e-01 2.439189999999999969e+01 8.736695000000000277e+01 1.825244999999999891e+03
5.900000000000000383e-02 6.535204999999999487e-01 2.496734999999999971e+01 8.977385000000001014e+01 1.825894999999999982e+03
6.000000000000000472e-02 6.540159999999999307e-01 2.557195000000000107e+01 9.237059999999999604e+01 1.826579999999999927e+03
6.099999999999999867e-02 6.545524999999999816e-01 2.622055000000000291e+01 9.518119999999998981e+01 1.827315000000000055e+03
6.199999999999999956e-02 6.551285000000000025e-01 2.691709999999999781e+01 9.820404999999999518e+01 1.828094999999999800e+03
6.300000000000000044e-02 6.557344999999999979e-01 2.765404999999999802e+01 1.014111000000000047e+02 1.828920000000000073e+03
6.400000000000000133e-02 6.563605000000000134e-01 2.841355000000000075e+01 1.047494000000000085e+02 1.829784999999999854e+03
6.500000000000000222e-02 6.569920000000000204e-01 2.916939999999999955e+01 1.081479999999999961e+02 1.830664999999999964e+03
6.600000000000000311e-02 6.576124999999999332e-01 2.989030000000000342e+01 1.115225000000000080e+02 1.831545000000000073e+03
6.700000000000000400e-02 6.582049999999999290e-01 3.054315000000000069e+01 1.147810000000000059e+02 1.832405000000000200e+03
6.800000000000000488e-02 6.587555000000000494e-01 3.109584999999999866e+01 1.178385000000000105e+02 1.833220000000000027e+03
6.900000000000000577e-02 6.592510000000000314e-01 3.152055000000000007e+01 1.206159999999999997e+02 1.833974999999999909e+03
7.000000000000000666e-02 6.596809999999999619e-01 3.179534999999999911e+01 1.230515000000000043e+02 1.834650000000000091e+03
7.100000000000000755e-02 6.600395000000000012e-01 3.190569999999999951e+01 1.251009999999999991e+02 1.835230000000000018e+03
7.200000000000000844e-02 6.603244999999999809e-01 3.184505000000000052e+01 1.267425000000000068e+02 1.835719999999999800e+03
7.300000000000000933e-02 6.605365000000000819e-01 3.161500000000000199e+01 1.279719999999999942e+02 1.836099999999999909e+03
7.399999999999999634e-02 6.606799999999999340e-01 3.122475000000000023e+01 1.288079999999999927e+02 1.836380000000000109e+03
7.499999999999999722e-02 6.607624999999999194e-01 3.069030000000000058e+01 1.292855000000000132e+02 1.836569999999999936e+03
7.599999999999999811e-02 6.607929999999999637e-01 3.003344999999999843e+01 1.294524999999999864e+02 1.836674999999999955e+03
7.699999999999999900e-02 6.607830000000000092e-01 2.928014999999999901e+01 1.293679999999999950e+02 1.836704999999999927e+03
7.799999999999999989e-02 6.607434999999999281e-01 2.845924999999999727e+01 1.290969999999999800e+02 1.836684999999999945e+03
7.900000000000000078e-02 6.606864999999999544e-01 2.760030000000000072e+01 1.287065000000000055e+02 1.836625000000000000e+03
8.000000000000000167e-02 6.606239999999999890e-01 2.673250000000000171e+01 1.282620000000000005e+02 1.836545000000000073e+03
8.100000000000000255e-02 6.605644999999999989e-01 2.588264999999999816e+01 1.278230000000000075e+02 1.836449999999999818e+03
8.200000000000000344e-02 6.605174999999999796e-01 2.507370000000000232e+01 1.274394999999999953e+02 1.836364999999999782e+03
8.300000000000000433e-02 6.604889999999999928e-01 2.432394999999999996e+01 1.271520000000000152e+02 1.836295000000000073e+03
8.400000000000000522e-02 6.604820000000000135e-01 2.364585000000000292e+01 1.269855000000000018e+02 1.836244999999999891e+03
8.500000000000000611e-02 6.604984999999999884e-01 2.304574999999999818e+01 1.269535000000000053e+02 1.836230000000000018e+03
8.600000000000000699e-02 6.605374999999999996e-01 2.252404999999999902e+01 1.270564999999999998e+02 1.836244999999999891e+03
8.700000000000000788e-02 6.605950000000000433e-01 2.207565000000000310e+01 1.272800000000000011e+02 1.836284999999999854e+03
8.800000000000000877e-02 6.606674999999999631e-01 2.169004999999999939e+01 1.276015000000000015e+02 1.836355000000000018e+03
8.899999999999999578e-02 6.607480000000000020e-01 2.135300000000000153e+01 1.279874999999999972e+02 1.836434999999999945e+03
8.999999999999999667e-02 6.608289999999999997e-01 2.104699999999999704e+01 1.284000000000000057e+02 1.836530000000000200e+03
9.099999999999999756e-02 6.609030000000000182e-01 2.075289999999999679e+01 1.287965000000000089e+02 1.836625000000000000e+03
9.199999999999999845e-02 6.609625000000000083e-01 2.045080000000000098e+01 1.291345000000000027e+02 1.836710000000000036e+03
9.299999999999999933e-02 6.610009999999999497e-01 2.012169999999999703e+01 1.293720000000000141e+02 1.836769999999999982e+03
9.400000000000000022e-02 6.610114999999999741e-01 1.974864999999999782e+01 1.294739999999999895e+02 1.836800000000000182e+03
9.500000000000000111e-02 6.609905000000000364e-01 1.931794999999999973e+01 1.294114999999999895e+02 1.836799999999999955e+03
9.600000000000000200e-02 6.609344999999999803e-01 1.882029999999999959e+01 1.291645000000000039e+02 1.836750000000000000e+03
9.700000000000000289e-02 6.608439999999999870e-01 1.825120000000000076e+01 1.287245000000000061e+02 1.836654999999999973e+03
9.800000000000000377e-02 6.607190000000000563e-01 1.761169999999999902e+01 1.280949999999999989e+02 1.836514999999999873e+03
9.900000000000000466e-02 6.605644999999999989e-01 1.690800000000000125e+01 1.272915000000000134e+02 1.836329999999999927e+03
1.000000000000000056e-01 6.603849999999999998e-01 1.615169999999999817e+01 1.263389999999999986e+02 1.836105000000000018e+03
1.010000000000000064e-01 6.601885000000000669e-01 1.535824999999999818e+01 1.252725000000000080e+02 1.835855000000000018e+03
1.020000000000000073e-01 6.599820000000000686e-01 1.454667000000000066e+01 1.241345000000000027e+02 1.835570000000000164e+03
1.030000000000000082e-01 6.597744999999999305e-01 1.373799499999999796e+01 1.229719999999999942e+02 1.835285000000000082e+03
1.040000000000000091e-01 6.595750000000000224e-01 1.295400499999999866e+01 1.218329999999999984e+02 1.835000000000000000e+03
1.050000000000000100e-01 6.593909999999999494e-01 1.221577500000000072e+01 1.207650000000000006e+02 1.834720000000000027e+03
1.059999999999999970e-01 6.592305000000000526e-01 1.154265499999999989e+01 1.198100000000000023e+02 1.834469999999999800e+03
1.069999999999999979e-01 6.590985000000000316e-01 1.095060999999999929e+01 1.190035000000000025e+02 1.834244999999999891e+03
1.079999999999999988e-01 6.589994999999999603e-01 1.045194500000000026e+01 1.183729999999999905e+02 1.834065000000000055e+03
1.089999999999999997e-01 6.589359999999999662e-01 1.005423500000000026e+01 1.179339999999999975e+02 1.833930000000000064e+03
1.100000000000000006e-01 6.589074999999999793e-01 9.760335000000001315e+00 1.176924999999999955e+02 1.833839999999999918e+03
1.110000000000000014e-01 6.589125000000000121e-01 9.568384999999999252e+00 1.176450000000000102e+02 1.833795000000000073e+03
1.120000000000000023e-01 6.589479999999999782e-01 9.472159999999998803e+00 1.177760000000000105e+02 1.833799999999999955e+03
1.130000000000000032e-01 6.590095000000000258e-01 9.461835000000000662e+00 1.180649999999999977e+02 1.833849999999999909e+03
1.140000000000000041e-01 6.590909999999999824e-01 9.524675000000000225e+00 1.184819999999999993e+02 1.833924999999999955e+03
1.150000000000000050e-01 6.591879999999999962e-01 9.646015000000000228e+00 1.189964999999999975e+02 1.834034999999999854e+03
1.160000000000000059e-01 6.592930000000000179e-01 9.809940000000000992e+00 1.195749999999999886e+02 1.834164999999999964e+03
1.170000000000000068e-01 6.594010000000000149e-01 1.000047999999999959e+01 1.201825000000000045e+02 1.834299999999999955e+03
1.180000000000000077e-01 6.595069999999999544e-01 1.020211000000000112e+01 1.207895000000000039e+02 1.834450000000000045e+03
1.190000000000000085e-01 6.596055000000000668e-01 1.040068499999999929e+01 1.213670000000000044e+02 1.834595000000000027e+03
1.200000000000000094e-01 6.596930000000000849e-01 1.058369000000000071e+01 1.218924999999999983e+02 1.834724999999999909e+03
1.209999999999999964e-01 6.597669999999999924e-01 1.074091500000000110e+01 1.223485000000000014e+02 1.834845000000000027e+03
1.219999999999999973e-01 6.598264999999999825e-01 1.086459499999999956e+01 1.227214999999999918e+02 1.834945000000000164e+03
1.229999999999999982e-01 6.598694999999999977e-01 1.094958000000000098e+01 1.230074999999999932e+02 1.835025000000000091e+03
1.239999999999999991e-01 6.598964999999999970e-01 1.099334499999999970e+01 1.232034999999999911e+02 1.835085000000000036e+03
1.250000000000000000e-01 6.599094999999999267e-01 1.099586500000000022e+01 1.233155000000000001e+02 1.835125000000000000e+03
1.260000000000000009e-01 6.599099999999999966e-01 1.095949500000000043e+01 1.233509999999999991e+02 1.835144999999999982e+03
1.270000000000000018e-01 6.599005000000000010e-01 1.088864500000000035e+01 1.233230000000000075e+02 1.835150000000000091e+03
1.280000000000000027e-01 6.598835000000000672e-01 1.078930500000000059e+01 1.232469999999999999e+02 1.835144999999999982e+03
1.290000000000000036e-01 6.598625000000000185e-01 1.066865999999999914e+01 1.231384999999999934e+02 1.835130000000000109e+03
1.300000000000000044e-01 6.598405000000000520e-01 1.053464999999999918e+01 1.230155000000000030e+02 1.835099999999999909e+03
1.310000000000000053e-01 6.598200000000000731e-01 1.039522499999999994e+01 1.228944999999999936e+02 1.835079999999999927e+03
1.320000000000000062e-01 6.598040000000000571e-01 1.025815499999999858e+01 1.227914999999999992e+02 1.835054999999999836e+03
1.330000000000000071e-01 6.597950000000000204e-01 1.013025500000000001e+01 1.227194999999999965e+02 1.835034999999999854e+03
1.340000000000000080e-01 6.597945000000000615e-01 1.001712500000000006e+01 1.226875000000000000e+02 1.835029999999999973e+03
1.350000000000000089e-01 6.598025000000000695e-01 9.922920000000001295e+00 1.227025000000000006e+02 1.835035000000000082e+03
1.360000000000000098e-01 6.598195000000000032e-01 9.849924999999998931e+00 1.227680000000000007e+02 1.835050000000000182e+03
1.370000000000000107e-01 6.598450000000000149e-01 9.798980000000000246e+00 1.228810000000000002e+02 1.835074999999999818e+03
1.380000000000000115e-01 6.598779999999999646e-01 9.769120000000000914e+00 1.230380000000000109e+02 1.835110000000000127e+03
1.390000000000000124e-01 6.599165000000000170e-01 9.758119999999999905e+00 1.232305000000000064e+02 1.835154999999999973e+03
1.400000000000000133e-01 6.599589999999999623e-01 9.762544999999999362e+00 1.234500000000000028e+02 1.835204999999999927e+03
1.410000000000000142e-01 6.600040000000000351e-01 9.778400000000001313e+00 1.236844999999999999e+02 1.835259999999999991e+03
1.420000000000000151e-01 6.600479999999999681e-01 9.801085000000000491e+00 1.239219999999999970e+02 1.835320000000000164e+03
1.430000000000000160e-01 6.600905000000000244e-01 9.826024999999999565e+00 1.241529999999999916e+02 1.835380000000000109e+03
1.440000000000000169e-01 6.601280000000000481e-01 9.848970000000001335e+00 1.243665000000000020e+02 1.835434999999999945e+03
1.450000000000000178e-01 6.601609999999999978e-01 9.866150000000001086e+00 1.245540000000000020e+02 1.835480000000000018e+03
1.459999999999999909e-01 6.601875000000000382e-01 9.874559999999998894e+00 1.247100000000000080e+02 1.835525000000000091e+03
1.469999999999999918e-01 6.602075000000000582e-01 9.872060000000001168e+00 1.248305000000000007e+02 1.835559999999999945e+03
1.479999999999999927e-01 6.602209999999999468e-01 9.857689999999999841e+00 1.249155000000000086e+02 1.835585000000000036e+03
1.489999999999999936e-01 6.602280000000000371e-01 9.831360000000000099e+00 1.249650000000000034e+02 1.835599999999999909e+03
1.499999999999999944e-01 6.602299999999999836e-01 9.794070000000001386e+00 1.249844999999999970e+02 1.835610000000000127e+03
1.509999999999999953e-01 6.602280000000000371e-01 9.747840000000000060e+00 1.249789999999999992e+02 1.835609999999999900e+03
1.519999999999999962e-01 6.602235000000000742e-01 9.695365000000000677e+00 1.249569999999999936e+02 1.835610000000000127e+03
1.529999999999999971e-01 6.602179999999999715e-01 9.640025000000001398e+00 1.249279999999999973e+02 1.835605000000000018e+03
1.539999999999999980e-01 6.602135000000000087e-01 9.585639999999999716e+00 1.249014999999999986e+02 1.835599999999999909e+03
1.549999999999999989e-01 6.602125000000000909e-01 9.536179999999999879e+00 1.248880000000000052e+02 1.835599999999999909e+03
1.559999999999999998e-01 6.602155000000000662e-01 9.495665000000000688e+00 1.248965000000000032e+02 1.835599999999999909e+03
1.570000000000000007e-01 6.602250000000000618e-01 9.467670000000000030e+00 1.249364999999999952e+02 1.835609999999999900e+03
1.580000000000000016e-01 6.602419999999999956e-01 9.455479999999999663e+00 1.250155000000000030e+02 1.835625000000000000e+03
1.590000000000000024e-01 6.602675000000000072e-01 9.461655000000000371e+00 1.251390000000000100e+02 1.835654999999999973e+03
