# t [s], A [cm^2], U [cm/s], P [cPa], c [cm/s]
1.000000000000000021e-03 6.227975000000000039e-01 7.559699999999995590e-03 1.026380000000000052e+02 1.771670000000000073e+03
2.000000000000000042e-03 6.227860000000000618e-01 -5.051144999999999941e-03 1.026009999999999991e+02 1.771659999999999854e+03
3.000000000000000062e-03 6.228354999999999864e-01 9.324275000000001312e-02 1.027185000000000059e+02 1.771690000000000055e+03
4.000000000000000083e-03 6.228799999999999892e-01 1.961545000000000094e-01 1.028545000000000016e+02 1.771720000000000027e+03
5.000000000000000104e-03 6.228469999999999285e-01 1.603545000000000109e-01 1.027655000000000030e+02 1.771704999999999927e+03
6.000000000000000125e-03 6.227800000000000002e-01 5.606800000000000672e-02 1.025000000000000000e+02 1.771639999999999873e+03
7.000000000000000146e-03 6.227294999999999359e-01 -2.764699999999997715e-02 1.021984999999999957e+02 1.771570000000000164e+03
8.000000000000000167e-03 6.226419999999999177e-01 -1.982800000000000118e-01 1.017400000000000091e+02 1.771465000000000146e+03
9.000000000000001055e-03 6.224975000000000369e-01 -5.028449999999998754e-01 1.010326000000000022e+02 1.771304999999999836e+03
1.000000000000000194e-02 6.222925000000000262e-01 -9.459299999999999375e-01 1.000277999999999992e+02 1.771070000000000164e+03
1.099999999999999936e-02 6.220025000000000137e-01 -1.565215000000000023e+00 9.862690000000000623e+01 1.770744999999999891e+03
1.200000000000000025e-02 6.216265000000000818e-01 -2.342505000000000059e+00 9.679545000000000243e+01 1.770320000000000164e+03
1.300000000000000114e-02 6.212210000000000232e-01 -3.137694999999999901e+00 9.468234999999999957e+01 1.769809999999999945e+03
1.400000000000000203e-02 6.208635000000000126e-01 -3.757445999999999842e+00 9.256289999999999907e+01 1.769279999999999973e+03
1.499999999999999944e-02 6.205994999999999706e-01 -4.067910499999999985e+00 9.067640000000000100e+01 1.768775000000000091e+03
1.600000000000000033e-02 6.204214999999999591e-01 -4.047631499999999605e+00 8.911690000000000111e+01 1.768329999999999927e+03
1.700000000000000122e-02 6.202874999999999917e-01 -3.769695000000000018e+00 8.782345000000000823e+01 1.767940000000000055e+03
1.800000000000000211e-02 6.201434999999999587e-01 -3.348790000000000155e+00 8.663939999999999486e+01 1.767569999999999936e+03
1.900000000000000300e-02 6.199494999999999312e-01 -2.886541499999999871e+00 8.539539999999999509e+01 1.767184999999999945e+03
2.000000000000000042e-02 6.196905000000000330e-01 -2.435213499999999698e+00 8.397974999999999568e+01 1.766764999999999873e+03
2.100000000000000130e-02 6.193819999999999881e-01 -1.988799999999999901e+00 8.237344999999999118e+01 1.766309999999999945e+03
2.200000000000000219e-02 6.190515000000000878e-01 -1.500505000000000200e+00 8.064150000000000773e+01 1.765815000000000055e+03
2.299999999999999961e-02 6.187310000000000310e-01 -9.159300000000001329e-01 7.888990000000001146e+01 1.765309999999999945e+03
2.400000000000000050e-02 6.184389999999999610e-01 -2.059400000000000119e-01 7.721164999999999168e+01 1.764815000000000055e+03
2.500000000000000139e-02 6.181740000000000013e-01 6.136500000000000288e-01 7.564390000000000214e+01 1.764345000000000027e+03
2.600000000000000228e-02 6.179149999999999920e-01 1.479994999999999727e+00 7.414965000000000828e+01 1.763894999999999982e+03
2.700000000000000316e-02 6.176295000000000535e-01 2.296605000000000452e+00 7.262520000000000664e+01 1.763434999999999945e+03
2.800000000000000058e-02 6.172830000000000261e-01 2.957004999999999661e+00 7.092929999999999779e+01 1.762945000000000164e+03
2.900000000000000147e-02 6.168480000000000629e-01 3.372499999999999609e+00 6.892605000000000359e+01 1.762394999999999982e+03
3.000000000000000236e-02 6.163174999999999626e-01 3.496500000000000163e+00 6.652879999999998972e+01 1.761755000000000109e+03
3.099999999999999978e-02 6.157040000000000290e-01 3.336895000000000611e+00 6.373194999999999766e+01 1.761025000000000091e+03
3.200000000000000067e-02 6.150394999999999612e-01 2.952265000000000139e+00 6.061849999999999739e+01 1.760220000000000027e+03
3.300000000000000155e-02 6.143654999999998978e-01 2.433324999999999516e+00 5.734064999999999657e+01 1.759365000000000009e+03
3.400000000000000244e-02 6.137255000000000349e-01 1.878959999999999742e+00 5.408585000000000065e+01 1.758505000000000109e+03
3.500000000000000333e-02 6.131524999999999892e-01 1.375574999999999548e+00 5.103905000000000314e+01 1.757690000000000055e+03
3.600000000000000422e-02 6.126694999999999780e-01 9.852099999999999191e-01 4.835484999999999900e+01 1.756950000000000045e+03
3.700000000000000511e-02 6.122885000000000133e-01 7.423199999999998688e-01 4.614144999999999897e+01 1.756315000000000055e+03
3.799999999999999906e-02 6.120105000000000128e-01 6.580550000000000566e-01 4.445805000000000007e+01 1.755809999999999945e+03
3.899999999999999994e-02 6.118310000000000137e-01 7.283599999999998964e-01 4.332160000000000366e+01 1.755440000000000055e+03
4.000000000000000083e-02 6.117440000000000655e-01 9.434095000000000120e-01 4.272010000000000218e+01 1.755210000000000036e+03
4.100000000000000172e-02 6.117420000000000080e-01 1.295650999999999886e+00 4.262740000000000151e+01 1.755115000000000009e+03
4.200000000000000261e-02 6.118225000000000469e-01 1.784707499999999891e+00 4.301630000000000109e+01 1.755155000000000200e+03
4.300000000000000350e-02 6.119855000000000711e-01 2.418018500000000071e+00 4.386594999999999800e+01 1.755320000000000164e+03
4.400000000000000439e-02 6.122309999999999697e-01 3.207783699999999794e+00 4.516304999999999836e+01 1.755605000000000018e+03
4.499999999999999833e-02 6.125589999999999646e-01 4.165548000000000251e+00 4.689804999999999779e+01 1.756009999999999991e+03
4.599999999999999922e-02 6.129685000000000272e-01 5.296679150000000114e+00 4.905760000000000076e+01 1.756529999999999973e+03
4.700000000000000011e-02 6.134534999999999849e-01 6.596189999999999998e+00 5.161830000000000496e+01 1.757164999999999964e+03
4.800000000000000100e-02 6.140045000000000641e-01 8.047534999999999883e+00 5.454200000000000159e+01 1.757894999999999982e+03
4.900000000000000189e-02 6.146095000000000308e-01 9.623120000000000118e+00 5.777479999999999905e+01 1.758720000000000027e+03
5.000000000000000278e-02 6.152530000000000499e-01 1.128781999999999996e+01 6.125014999999999787e+01 1.759610000000000127e+03
5.100000000000000366e-02 6.159194999999999531e-01 1.300269500000000100e+01 6.489359999999999218e+01 1.760559999999999945e+03
5.200000000000000455e-02 6.165955000000000741e-01 1.472937500000000099e+01 6.862960000000001060e+01 1.761545000000000073e+03
5.300000000000000544e-02 6.172679999999999279e-01 1.643387500000000045e+01 7.238845000000000596e+01 1.762549999999999955e+03
5.399999999999999939e-02 6.179280000000000328e-01 1.808889999999999887e+01 7.611159999999999570e+01 1.763559999999999945e+03
5.500000000000000028e-02 6.185705000000000231e-01 1.967504999999999882e+01 7.975515000000000043e+01 1.764554999999999836e+03
5.600000000000000117e-02 6.191919999999999646e-01 2.118064999999999998e+01 8.329155000000000086e+01 1.765529999999999973e+03
5.700000000000000205e-02 6.197934999999999972e-01 2.260094999999999743e+01 8.670855000000000246e+01 1.766485000000000127e+03
5.800000000000000294e-02 6.203765000000001084e-01 2.393639999999999901e+01 9.000704999999999245e+01 1.767409999999999854e+03
5.900000000000000383e-02 6.209434999999999816e-01 2.519105000000000061e+01 9.319845000000000823e+01 1.768309999999999945e+03
6.000000000000000472e-02 6.214999999999999414e-01 2.637120000000000175e+01 9.630084999999999695e+01 1.769190000000000055e+03
6.099999999999999867e-02 6.220485000000000042e-01 2.748385000000000034e+01 9.933525000000000205e+01 1.770049999999999955e+03
6.199999999999999956e-02 6.225929999999999520e-01 2.853589999999999804e+01 1.023237000000000023e+02 1.770900000000000091e+03
6.300000000000000044e-02 6.231370000000000520e-01 2.953294999999999959e+01 1.052844000000000051e+02 1.771740000000000009e+03
6.400000000000000133e-02 6.236805000000000820e-01 3.047850000000000037e+01 1.082314999999999969e+02 1.772579999999999927e+03
6.500000000000000222e-02 6.242255000000000997e-01 3.137395000000000067e+01 1.111719999999999970e+02 1.773409999999999854e+03
6.600000000000000311e-02 6.247694999999999776e-01 3.221790000000000020e+01 1.141055000000000064e+02 1.774240000000000009e+03
6.700000000000000400e-02 6.253100000000000325e-01 3.300639999999999930e+01 1.170219999999999914e+02 1.775065000000000055e+03
6.800000000000000488e-02 6.258440000000000669e-01 3.373359999999999559e+01 1.199070000000000107e+02 1.775889999999999873e+03
6.900000000000000577e-02 6.263674999999999660e-01 3.439225000000000421e+01 1.227394999999999925e+02 1.776695000000000164e+03
7.000000000000000666e-02 6.268739999999999313e-01 3.497455000000000069e+01 1.254945000000000164e+02 1.777485000000000127e+03
7.100000000000000755e-02 6.273600000000000287e-01 3.547319999999999851e+01 1.281465000000000032e+02 1.778250000000000000e+03
7.200000000000000844e-02 6.278209999999999624e-01 3.588169999999999504e+01 1.306705000000000041e+02 1.778980000000000018e+03
7.300000000000000933e-02 6.282529999999999504e-01 3.619495000000000573e+01 1.330439999999999827e+02 1.779670000000000073e+03
7.399999999999999634e-02 6.286534999999999762e-01 3.640970000000000084e+01 1.352475000000000023e+02 1.780320000000000164e+03
7.499999999999999722e-02 6.290200000000000236e-01 3.652420000000000044e+01 1.372669999999999959e+02 1.780914999999999964e+03
7.599999999999999811e-02 6.293515000000000637e-01 3.653849999999999909e+01 1.390910000000000082e+02 1.781469999999999800e+03
7.699999999999999900e-02 6.296464999999999979e-01 3.645394999999999897e+01 1.407149999999999750e+02 1.781960000000000036e+03
7.799999999999999989e-02 6.299055000000000071e-01 3.627355000000000018e+01 1.421365000000000123e+02 1.782400000000000091e+03
7.900000000000000078e-02 6.301289999999999392e-01 3.600175000000000125e+01 1.433589999999999804e+02 1.782784999999999854e+03
8.000000000000000167e-02 6.303185000000000038e-01 3.564430000000000121e+01 1.443880000000000052e+02 1.783115000000000009e+03
8.100000000000000255e-02 6.304760000000000364e-01 3.520860000000000412e+01 1.452339999999999804e+02 1.783389999999999873e+03
8.200000000000000344e-02 6.306039999999999424e-01 3.470345000000000368e+01 1.459110000000000014e+02 1.783619999999999891e+03
8.300000000000000433e-02 6.307055000000000300e-01 3.413889999999999958e+01 1.464350000000000023e+02 1.783804999999999836e+03
8.400000000000000522e-02 6.307845000000000812e-01 3.352615000000000123e+01 1.468249999999999886e+02 1.783949999999999818e+03
8.500000000000000611e-02 6.308445000000000302e-01 3.287704999999999700e+01 1.471009999999999991e+02 1.784059999999999945e+03
8.600000000000000699e-02 6.308890000000000331e-01 3.220359999999999445e+01 1.472860000000000014e+02 1.784139999999999873e+03
8.700000000000000788e-02 6.309225000000000527e-01 3.151754999999999995e+01 1.474014999999999986e+02 1.784194999999999936e+03
8.800000000000000877e-02 6.309485000000000232e-01 3.082950000000000301e+01 1.474664999999999964e+02 1.784235000000000127e+03
8.899999999999999578e-02 6.309694999999999609e-01 3.014860000000000184e+01 1.474995000000000118e+02 1.784259999999999991e+03
8.999999999999999667e-02 6.309875000000000345e-01 2.948210000000000264e+01 1.475144999999999982e+02 1.784275000000000091e+03
9.099999999999999756e-02 6.310050000000000381e-01 2.883494999999999919e+01 1.475219999999999914e+02 1.784289999999999964e+03
9.199999999999999845e-02 6.310210000000000541e-01 2.820985000000000298e+01 1.475294999999999845e+02 1.784295000000000073e+03
9.299999999999999933e-02 6.310365000000000002e-01 2.760719999999999885e+01 1.475364999999999895e+02 1.784299999999999955e+03
9.400000000000000022e-02 6.310499999999999998e-01 2.702534999999999954e+01 1.475419999999999732e+02 1.784304999999999836e+03
9.500000000000000111e-02 6.310605000000000242e-01 2.646094999999999686e+01 1.475395000000000039e+02 1.784305000000000064e+03
9.600000000000000200e-02 6.310655000000000570e-01 2.590950000000000131e+01 1.475204999999999984e+02 1.784299999999999955e+03
9.700000000000000289e-02 6.310634999999999994e-01 2.536530000000000129e+01 1.474744999999999777e+02 1.784284999999999854e+03
9.800000000000000377e-02 6.310519999999999463e-01 2.482254999999999967e+01 1.473899999999999864e+02 1.784264999999999873e+03
9.900000000000000466e-02 6.310299999999999798e-01 2.427515000000000001e+01 1.472549999999999955e+02 1.784230000000000018e+03
1.000000000000000056e-01 6.309940000000000548e-01 2.371730000000000160e+01 1.470585000000000093e+02 1.784180000000000064e+03
1.010000000000000064e-01 6.309445000000000192e-01 2.314395000000000024e+01 1.467909999999999968e+02 1.784115000000000009e+03
1.020000000000000073e-01 6.308789999999999676e-01 2.255105000000000004e+01 1.464454999999999814e+02 1.784025000000000091e+03
1.030000000000000082e-01 6.307970000000000521e-01 2.193574999999999875e+01 1.460174999999999841e+02 1.783914999999999964e+03
1.040000000000000091e-01 6.306985000000000507e-01 2.129670000000000130e+01 1.455045000000000073e+02 1.783779999999999973e+03
1.050000000000000100e-01 6.305855000000000210e-01 2.063425000000000153e+01 1.449089999999999918e+02 1.783625000000000000e+03
1.059999999999999970e-01 6.304579999999999629e-01 1.995049999999999812e+01 1.442364999999999782e+02 1.783449999999999818e+03
1.069999999999999979e-01 6.303189999999999626e-01 1.924920000000000186e+01 1.434954999999999927e+02 1.783255000000000109e+03
1.079999999999999988e-01 6.301710000000000367e-01 1.853584999999999994e+01 1.426990000000000123e+02 1.783045000000000073e+03
1.089999999999999997e-01 6.300159999999999094e-01 1.781714999999999804e+01 1.418609999999999900e+02 1.782819999999999936e+03
1.100000000000000006e-01 6.298585000000000989e-01 1.710094999999999743e+01 1.409989999999999952e+02 1.782589999999999918e+03
1.110000000000000014e-01 6.297015000000000251e-01 1.639584999999999937e+01 1.401324999999999932e+02 1.782349999999999909e+03
1.120000000000000023e-01 6.295490000000000252e-01 1.571049999999999969e+01 1.392789999999999964e+02 1.782115000000000009e+03
1.130000000000000032e-01 6.294035000000000046e-01 1.505375000000000085e+01 1.384590000000000032e+02 1.781884999999999991e+03
1.140000000000000041e-01 6.292690000000000783e-01 1.443355000000000032e+01 1.376885000000000048e+02 1.781670000000000073e+03
1.150000000000000050e-01 6.291484999999999994e-01 1.385727999999999938e+01 1.369844999999999970e+02 1.781465000000000146e+03
1.160000000000000059e-01 6.290424999999999489e-01 1.333071999999999946e+01 1.363594999999999970e+02 1.781284999999999854e+03
1.170000000000000068e-01 6.289534999999999432e-01 1.285841500000000082e+01 1.358230000000000075e+02 1.781119999999999891e+03
1.180000000000000077e-01 6.288829999999999698e-01 1.244308000000000014e+01 1.353815000000000168e+02 1.780985000000000127e+03
1.190000000000000085e-01 6.288289999999999713e-01 1.208583000000000141e+01 1.350375000000000227e+02 1.780875000000000000e+03
1.200000000000000094e-01 6.287924999999999764e-01 1.178596500000000091e+01 1.347895000000000039e+02 1.780789999999999964e+03
1.209999999999999964e-01 6.287724999999999564e-01 1.154128000000000043e+01 1.346335000000000264e+02 1.780730000000000018e+03
1.219999999999999973e-01 6.287659999999999361e-01 1.134821999999999953e+01 1.345625000000000000e+02 1.780690000000000055e+03
1.229999999999999982e-01 6.287724999999999564e-01 1.120206500000000105e+01 1.345654999999999859e+02 1.780670000000000073e+03
1.239999999999999991e-01 6.287895000000000012e-01 1.109752500000000097e+01 1.346330000000000098e+02 1.780670000000000073e+03
1.250000000000000000e-01 6.288139999999999841e-01 1.102857500000000002e+01 1.347514999999999930e+02 1.780690000000000055e+03
1.260000000000000009e-01 6.288445000000000285e-01 1.098932500000000090e+01 1.349099999999999966e+02 1.780720000000000027e+03
1.270000000000000018e-01 6.288785000000000069e-01 1.097371500000000033e+01 1.350964999999999918e+02 1.780759999999999991e+03
1.280000000000000027e-01 6.289154999999999607e-01 1.097621000000000002e+01 1.352994999999999948e+02 1.780805000000000064e+03
1.290000000000000036e-01 6.289525000000000254e-01 1.099163000000000068e+01 1.355105000000000075e+02 1.780855000000000018e+03
1.300000000000000044e-01 6.289884999999999504e-01 1.101541500000000084e+01 1.357214999999999918e+02 1.780904999999999973e+03
1.310000000000000053e-01 6.290240000000000276e-01 1.104369499999999960e+01 1.359254999999999995e+02 1.780954999999999927e+03
1.320000000000000062e-01 6.290560000000000596e-01 1.107316499999999948e+01 1.361195000000000164e+02 1.781009999999999991e+03
1.330000000000000071e-01 6.290860000000000340e-01 1.110120500000000021e+01 1.362995000000000232e+02 1.781059999999999945e+03
1.340000000000000080e-01 6.291134999999999922e-01 1.112585499999999961e+01 1.364644999999999868e+02 1.781099999999999909e+03
1.350000000000000089e-01 6.291375000000000162e-01 1.114574999999999960e+01 1.366134999999999877e+02 1.781144999999999982e+03
1.360000000000000098e-01 6.291599999999999415e-01 1.116017500000000062e+01 1.367479999999999905e+02 1.781179999999999836e+03
1.370000000000000107e-01 6.291795000000000027e-01 1.116885999999999868e+01 1.368689999999999998e+02 1.781220000000000027e+03
1.380000000000000115e-01 6.291980000000000350e-01 1.117203500000000105e+01 1.369800000000000182e+02 1.781244999999999891e+03
1.390000000000000124e-01 6.292150000000000798e-01 1.117037999999999975e+01 1.370824999999999818e+02 1.781279999999999973e+03
1.400000000000000133e-01 6.292324999999999724e-01 1.116484499999999969e+01 1.371814999999999998e+02 1.781304999999999836e+03
1.410000000000000142e-01 6.292495000000000172e-01 1.115664999999999907e+01 1.372789999999999964e+02 1.781339999999999918e+03
1.420000000000000151e-01 6.292679999999999385e-01 1.114711000000000141e+01 1.373785000000000025e+02 1.781369999999999891e+03
1.430000000000000160e-01 6.292874999999999996e-01 1.113744999999999941e+01 1.374834999999999923e+02 1.781394999999999982e+03
1.440000000000000169e-01 6.293085000000000484e-01 1.112874000000000052e+01 1.375960000000000036e+02 1.781425000000000182e+03
1.450000000000000178e-01 6.293320000000000025e-01 1.112194000000000038e+01 1.377180000000000177e+02 1.781465000000000146e+03
1.459999999999999909e-01 6.293575000000000141e-01 1.111753500000000017e+01 1.378505000000000109e+02 1.781500000000000000e+03
1.469999999999999918e-01 6.293850000000000833e-01 1.111584500000000020e+01 1.379929999999999950e+02 1.781539999999999964e+03
1.479999999999999927e-01 6.294140000000000290e-01 1.111663500000000049e+01 1.381444999999999936e+02 1.781579999999999927e+03
1.489999999999999936e-01 6.294440000000000035e-01 1.111945000000000050e+01 1.383040000000000020e+02 1.781625000000000000e+03
1.499999999999999944e-01 6.294760000000000355e-01 1.112365000000000137e+01 1.384689999999999941e+02 1.781670000000000073e+03
1.509999999999999953e-01 6.295074999999999976e-01 1.112831500000000062e+01 1.386359999999999957e+02 1.781715000000000146e+03
1.519999999999999962e-01 6.295379999999999310e-01 1.113264999999999993e+01 1.388034999999999854e+02 1.781764999999999873e+03
1.529999999999999971e-01 6.295684999999999754e-01 1.113567000000000107e+01 1.389669999999999845e+02 1.781809999999999945e+03
1.539999999999999980e-01 6.295975000000000321e-01 1.113687000000000005e+01 1.391254999999999882e+02 1.781855000000000018e+03
1.549999999999999989e-01 6.296254999999999491e-01 1.113570499999999974e+01 1.392769999999999868e+02 1.781894999999999982e+03
1.559999999999999998e-01 6.296515000000000306e-01 1.113205999999999918e+01 1.394189999999999827e+02 1.781934999999999945e+03
1.570000000000000007e-01 6.296760000000000135e-01 1.112616000000000049e+01 1.395529999999999973e+02 1.781974999999999909e+03
1.580000000000000016e-01 6.296984999999999388e-01 1.111852000000000018e+01 1.396784999999999854e+02 1.782009999999999991e+03
1.590000000000000024e-01 6.297204999999999053e-01 1.110983500000000035e+01 1.397969999999999970e+02 1.782045000000000073e+03
