# t [s], A [cm^2], U [cm/s], P [cPa], c [cm/s]
1.000000000000000021e-03 1.380230000000000068e-01 2.317440000000000055e-01 1.043325000000000102e+02 2.048095000000000255e+03
2.000000000000000042e-03 1.379944999999999922e-01 1.715611500000000067e+00 1.012177499999999952e+02 2.047714999999999918e+03
3.000000000000000062e-03 1.379015000000000102e-01 3.594594499999999915e+00 9.688439999999999941e+01 2.046579999999999927e+03
4.000000000000000083e-03 1.377665000000000139e-01 5.718091150000000233e+00 9.194149999999999068e+01 2.044960000000000036e+03
5.000000000000000104e-03 1.376149999999999873e-01 8.021324999999999150e+00 8.724049999999999727e+01 2.043154999999999973e+03
6.000000000000000125e-03 1.374644999999999895e-01 1.037051999999999907e+01 8.321739999999999782e+01 2.041375000000000000e+03
7.000000000000000146e-03 1.373205000000000120e-01 1.256718000000000046e+01 7.979784999999999684e+01 2.039704999999999927e+03
8.000000000000000167e-03 1.371864999999999890e-01 1.447879499999999986e+01 7.673465000000000202e+01 2.038174999999999955e+03
9.000000000000001055e-03 1.370640000000000192e-01 1.610210000000000008e+01 7.398519999999999186e+01 2.036800000000000182e+03
1.000000000000000194e-02 1.369575000000000098e-01 1.747475000000000023e+01 7.163429999999999609e+01 2.035615000000000009e+03
1.099999999999999936e-02 1.368675000000000030e-01 1.861874999999999858e+01 6.970985000000000298e+01 2.034625000000000000e+03
1.200000000000000025e-02 1.367935000000000123e-01 1.954954999999999998e+01 6.818009999999999593e+01 2.033820000000000164e+03
1.300000000000000114e-02 1.367335000000000078e-01 2.027590000000000003e+01 6.697729999999999961e+01 2.033175000000000182e+03
1.400000000000000203e-02 1.366850000000000009e-01 2.079755000000000109e+01 6.599074999999999136e+01 2.032664999999999964e+03
1.499999999999999944e-02 1.366445000000000021e-01 2.113369999999999749e+01 6.512619999999999720e+01 2.032244999999999891e+03
1.600000000000000033e-02 1.366114999999999968e-01 2.135815000000000197e+01 6.442234999999999445e+01 2.031909999999999854e+03
1.700000000000000122e-02 1.365899999999999892e-01 2.159410000000000096e+01 6.409375000000000000e+01 2.031695000000000164e+03
1.800000000000000211e-02 1.365854999999999986e-01 2.196389999999999887e+01 6.443070000000000164e+01 2.031664999999999964e+03
1.900000000000000300e-02 1.366025000000000156e-01 2.252919999999999945e+01 6.562010000000000787e+01 2.031860000000000127e+03
2.000000000000000042e-02 1.366419999999999857e-01 2.326010000000000133e+01 6.761109999999999332e+01 2.032295000000000073e+03
2.100000000000000130e-02 1.366985000000000006e-01 2.404870000000000019e+01 7.009890000000000043e+01 2.032930000000000064e+03
2.200000000000000219e-02 1.367639999999999967e-01 2.475260000000000105e+01 7.262434999999999263e+01 2.033655000000000200e+03
2.299999999999999961e-02 1.368260000000000032e-01 2.524714999999999776e+01 7.472939999999999827e+01 2.034360000000000127e+03
2.400000000000000050e-02 1.368759999999999977e-01 2.546379999999999910e+01 7.609860000000000468e+01 2.034944999999999936e+03
2.500000000000000139e-02 1.369095000000000173e-01 2.540405000000000157e+01 7.663634999999999309e+01 2.035345000000000027e+03
2.600000000000000228e-02 1.369250000000000189e-01 2.512790000000000035e+01 7.646229999999999905e+01 2.035545000000000073e+03
2.700000000000000316e-02 1.369265000000000065e-01 2.472504999999999953e+01 7.583790000000000475e+01 2.035585000000000036e+03
2.800000000000000058e-02 1.369190000000000129e-01 2.428085000000000093e+01 7.505865000000000009e+01 2.035514999999999873e+03
2.900000000000000147e-02 1.369084999999999885e-01 2.385050000000000026e+01 7.435454999999998904e+01 2.035404999999999973e+03
3.000000000000000236e-02 1.368975000000000053e-01 2.344689999999999941e+01 7.382925000000000182e+01 2.035284999999999854e+03
3.099999999999999978e-02 1.368884999999999963e-01 2.304579999999999984e+01 7.345125000000000171e+01 2.035184999999999945e+03
3.200000000000000067e-02 1.368790000000000007e-01 2.260164999999999935e+01 7.309149999999999636e+01 2.035079999999999927e+03
3.300000000000000155e-02 1.368669999999999887e-01 2.206985000000000241e+01 7.258840000000000714e+01 2.034949999999999818e+03
3.400000000000000244e-02 1.368489999999999984e-01 2.142689999999999984e+01 7.181810000000000116e+01 2.034755000000000109e+03
3.500000000000000333e-02 1.368240000000000012e-01 2.068359999999999843e+01 7.074834999999998786e+01 2.034485000000000127e+03
3.600000000000000422e-02 1.367924999999999836e-01 1.988725000000000165e+01 6.946209999999999241e+01 2.034144999999999982e+03
3.700000000000000511e-02 1.367579999999999907e-01 1.911280000000000001e+01 6.814324999999999477e+01 2.033764999999999873e+03
3.799999999999999906e-02 1.367249999999999854e-01 1.844464999999999932e+01 6.703059999999999263e+01 2.033389999999999873e+03
3.899999999999999994e-02 1.366995000000000016e-01 1.795649999999999835e+01 6.635515000000000896e+01 2.033099999999999909e+03
4.000000000000000083e-02 1.366860000000000019e-01 1.769344999999999857e+01 6.627955000000000041e+01 2.032945000000000164e+03
4.100000000000000172e-02 1.366880000000000039e-01 1.766260000000000119e+01 6.685694999999999766e+01 2.032950000000000045e+03
4.200000000000000261e-02 1.367059999999999942e-01 1.783205000000000240e+01 6.801914999999999623e+01 2.033130000000000109e+03
4.300000000000000350e-02 1.367375000000000118e-01 1.813909999999999911e+01 6.959274999999999523e+01 2.033460000000000036e+03
4.400000000000000439e-02 1.367774999999999963e-01 1.850305000000000177e+01 7.133695000000000164e+01 2.033889999999999873e+03
4.499999999999999833e-02 1.368205000000000116e-01 1.883999999999999986e+01 7.299035000000000650e+01 2.034365000000000009e+03
4.599999999999999922e-02 1.368599999999999817e-01 1.907549999999999812e+01 7.431584999999999752e+01 2.034805000000000064e+03
4.700000000000000011e-02 1.368904999999999983e-01 1.915399999999999991e+01 7.513505000000000678e+01 2.035154999999999973e+03
4.800000000000000100e-02 1.369090000000000029e-01 1.904279999999999973e+01 7.534610000000000696e+01 2.035375000000000000e+03
4.900000000000000189e-02 1.369124999999999925e-01 1.873205000000000098e+01 7.492589999999999861e+01 2.035424999999999955e+03
5.000000000000000278e-02 1.368999999999999939e-01 1.823049999999999926e+01 7.391779999999999973e+01 2.035295000000000073e+03
5.100000000000000366e-02 1.368725000000000080e-01 1.755989999999999895e+01 7.241155000000000541e+01 2.035000000000000000e+03
5.200000000000000455e-02 1.368320000000000092e-01 1.674885000000000090e+01 7.052004999999999768e+01 2.034559999999999945e+03
5.300000000000000544e-02 1.367815000000000003e-01 1.582805000000000106e+01 6.835910000000001219e+01 2.034000000000000000e+03
5.399999999999999939e-02 1.367224999999999968e-01 1.482689999999999841e+01 6.603404999999999347e+01 2.033349999999999909e+03
5.500000000000000028e-02 1.366580000000000017e-01 1.377299999999999969e+01 6.363309999999999889e+01 2.032639999999999873e+03
5.600000000000000117e-02 1.365909999999999902e-01 1.269209999999999994e+01 6.122835000000000605e+01 2.031889999999999873e+03
5.700000000000000205e-02 1.365224999999999911e-01 1.161007500000000014e+01 5.888065000000000282e+01 2.031130000000000109e+03
5.800000000000000294e-02 1.364545000000000063e-01 1.055410499999999985e+01 5.664695000000000391e+01 2.030375000000000000e+03
5.900000000000000383e-02 1.363900000000000112e-01 9.554020000000001289e+00 5.458659999999999712e+01 2.029644999999999982e+03
6.000000000000000472e-02 1.363290000000000057e-01 8.642559999999999576e+00 5.276539999999999964e+01 2.028965000000000146e+03
6.099999999999999867e-02 1.362760000000000082e-01 7.854654999999999276e+00 5.125619999999999976e+01 2.028365000000000009e+03
6.199999999999999956e-02 1.362309999999999910e-01 7.225770000000000692e+00 5.013625000000000398e+01 2.027855000000000018e+03
6.300000000000000044e-02 1.361974999999999991e-01 6.789649999999999963e+00 4.948205000000000098e+01 2.027470000000000027e+03
6.400000000000000133e-02 1.361779999999999935e-01 6.575874999999999915e+00 4.936220000000000141e+01 2.027235000000000127e+03
6.500000000000000222e-02 1.361729999999999885e-01 6.607599999999999696e+00 4.983129999999999882e+01 2.027164999999999964e+03
6.600000000000000311e-02 1.361854999999999871e-01 6.899734999999999729e+00 5.092390000000000327e+01 2.027279999999999973e+03
6.700000000000000400e-02 1.362149999999999750e-01 7.457860000000000156e+00 5.265094999999999459e+01 2.027595000000000027e+03
6.800000000000000488e-02 1.362629999999999952e-01 8.277989999999999071e+00 5.499880000000000280e+01 2.028099999999999909e+03
6.900000000000000577e-02 1.363285000000000191e-01 9.347020000000000550e+00 5.793009999999999593e+01 2.028809999999999945e+03
7.000000000000000666e-02 1.364110000000000045e-01 1.064374499999999912e+01 6.138714999999999833e+01 2.029715000000000146e+03
7.100000000000000755e-02 1.365085000000000048e-01 1.214055000000000106e+01 6.529630000000000223e+01 2.030784999999999854e+03
7.200000000000000844e-02 1.366195000000000048e-01 1.380509999999999948e+01 6.957329999999998904e+01 2.032005000000000109e+03
7.300000000000000933e-02 1.367410000000000014e-01 1.560239999999999938e+01 7.412919999999999732e+01 2.033360000000000127e+03
7.399999999999999634e-02 1.368719999999999937e-01 1.749664999999999893e+01 7.887584999999999980e+01 2.034809999999999945e+03
7.499999999999999722e-02 1.370089999999999919e-01 1.945329999999999870e+01 8.373079999999998790e+01 2.036344999999999800e+03
7.599999999999999811e-02 1.371505000000000085e-01 2.144044999999999845e+01 8.862180000000000746e+01 2.037929999999999836e+03
7.699999999999999900e-02 1.372939999999999994e-01 2.343025000000000091e+01 9.348965000000001169e+01 2.039539999999999964e+03
7.799999999999999989e-02 1.374380000000000046e-01 2.539985000000000070e+01 9.829085000000000605e+01 2.041164999999999964e+03
7.900000000000000078e-02 1.375810000000000088e-01 2.733180000000000121e+01 1.029971500000000049e+02 2.042789999999999964e+03
8.000000000000000167e-02 1.377224999999999977e-01 2.921389999999999887e+01 1.075948999999999955e+02 2.044400000000000091e+03
8.100000000000000255e-02 1.378620000000000123e-01 3.103904999999999959e+01 1.120840000000000032e+02 2.045984999999999900e+03
8.200000000000000344e-02 1.379989999999999828e-01 3.280404999999999660e+01 1.164735000000000014e+02 2.047554999999999836e+03
8.300000000000000433e-02 1.381339999999999790e-01 3.450874999999999915e+01 1.207789999999999964e+02 2.049099999999999909e+03
8.400000000000000522e-02 1.382670000000000010e-01 3.615489999999999782e+01 1.250185000000000031e+02 2.050625000000000000e+03
8.500000000000000611e-02 1.383989999999999942e-01 3.774524999999999864e+01 1.292090000000000032e+02 2.052130000000000109e+03
8.600000000000000699e-02 1.385290000000000132e-01 3.928204999999999814e+01 1.333629999999999995e+02 2.053630000000000109e+03
8.700000000000000788e-02 1.386584999999999901e-01 4.076699999999999591e+01 1.374884999999999877e+02 2.055119999999999891e+03
8.800000000000000877e-02 1.387865000000000071e-01 4.220035000000000025e+01 1.415865000000000009e+02 2.056599999999999909e+03
8.899999999999999578e-02 1.389139999999999819e-01 4.358075000000000188e+01 1.456504999999999939e+02 2.058070000000000164e+03
8.999999999999999667e-02 1.390399999999999969e-01 4.490524999999999523e+01 1.496675000000000182e+02 2.059525000000000091e+03
9.099999999999999756e-02 1.391649999999999832e-01 4.616929999999999978e+01 1.536195000000000164e+02 2.060970000000000255e+03
9.199999999999999845e-02 1.392875000000000085e-01 4.736710000000000065e+01 1.574844999999999970e+02 2.062394999999999982e+03
9.299999999999999933e-02 1.394075000000000175e-01 4.849200000000000443e+01 1.612364999999999782e+02 2.063784999999999854e+03
9.400000000000000022e-02 1.395239999999999814e-01 4.953645000000000209e+01 1.648500000000000227e+02 2.065135000000000218e+03
9.500000000000000111e-02 1.396359999999999824e-01 5.049269999999999925e+01 1.682980000000000018e+02 2.066449999999999818e+03
9.600000000000000200e-02 1.397434999999999927e-01 5.135280000000000200e+01 1.715534999999999854e+02 2.067699999999999818e+03
9.700000000000000289e-02 1.398455000000000115e-01 5.210909999999999798e+01 1.745925000000000011e+02 2.068889999999999873e+03
9.800000000000000377e-02 1.399404999999999955e-01 5.275459999999999638e+01 1.773919999999999959e+02 2.070010000000000218e+03
9.900000000000000466e-02 1.400290000000000146e-01 5.328294999999999959e+01 1.799319999999999879e+02 2.071045000000000073e+03
1.000000000000000056e-01 1.401100000000000123e-01 5.368905000000000172e+01 1.821965000000000146e+02 2.071994999999999891e+03
1.010000000000000064e-01 1.401824999999999877e-01 5.396929999999999694e+01 1.841734999999999900e+02 2.072849999999999909e+03
1.020000000000000073e-01 1.402460000000000095e-01 5.412189999999999657e+01 1.858549999999999898e+02 2.073610000000000127e+03
1.030000000000000082e-01 1.403014999999999957e-01 5.414695000000000391e+01 1.872384999999999877e+02 2.074269999999999982e+03
1.040000000000000091e-01 1.403484999999999872e-01 5.404699999999999704e+01 1.883290000000000077e+02 2.074824999999999818e+03
1.050000000000000100e-01 1.403865000000000252e-01 5.382665000000000077e+01 1.891345000000000027e+02 2.075284999999999854e+03
1.059999999999999970e-01 1.404159999999999853e-01 5.349309999999999832e+01 1.896705000000000041e+02 2.075640000000000327e+03
1.069999999999999979e-01 1.404374999999999929e-01 5.305530000000000257e+01 1.899580000000000268e+02 2.075904999999999745e+03
1.079999999999999988e-01 1.404520000000000213e-01 5.252439999999999998e+01 1.900210000000000150e+02 2.076085000000000036e+03
1.089999999999999997e-01 1.404590000000000005e-01 5.191259999999999764e+01 1.898874999999999886e+02 2.076184999999999945e+03
1.100000000000000006e-01 1.404604999999999881e-01 5.123329999999999984e+01 1.895885000000000105e+02 2.076210000000000036e+03
1.110000000000000014e-01 1.404565000000000119e-01 5.050025000000000119e+01 1.891550000000000011e+02 2.076175000000000182e+03
1.120000000000000023e-01 1.404484999999999761e-01 4.972710000000000008e+01 1.886179999999999950e+02 2.076085000000000036e+03
1.130000000000000032e-01 1.404370000000000063e-01 4.892699999999999960e+01 1.880054999999999836e+02 2.075954999999999927e+03
1.140000000000000041e-01 1.404225000000000056e-01 4.811195000000000022e+01 1.873429999999999893e+02 2.075789999999999964e+03
1.150000000000000050e-01 1.404059999999999753e-01 4.729279999999999973e+01 1.866544999999999845e+02 2.075605000000000018e+03
1.160000000000000059e-01 1.403884999999999994e-01 4.647845000000000226e+01 1.859574999999999818e+02 2.075405000000000200e+03
1.170000000000000068e-01 1.403699999999999948e-01 4.567620000000000147e+01 1.852640000000000100e+02 2.075190000000000055e+03
1.180000000000000077e-01 1.403515000000000179e-01 4.489124999999999943e+01 1.845840000000000032e+02 2.074970000000000255e+03
1.190000000000000085e-01 1.403320000000000123e-01 4.412684999999999746e+01 1.839219999999999970e+02 2.074744999999999891e+03
1.200000000000000094e-01 1.403134999999999799e-01 4.338425000000000153e+01 1.832760000000000105e+02 2.074525000000000091e+03
1.209999999999999964e-01 1.402950000000000030e-01 4.266275000000000261e+01 1.826425000000000125e+02 2.074305000000000291e+03
1.219999999999999973e-01 1.402760000000000118e-01 4.196014999999999873e+01 1.820135000000000218e+02 2.074085000000000036e+03
1.229999999999999982e-01 1.402570000000000205e-01 4.127275000000000205e+01 1.813779999999999859e+02 2.073859999999999673e+03
1.239999999999999991e-01 1.402375000000000149e-01 4.059564999999999912e+01 1.807230000000000132e+02 2.073630000000000109e+03
1.250000000000000000e-01 1.402174999999999949e-01 3.992319999999999425e+01 1.800345000000000084e+02 2.073394999999999982e+03
1.260000000000000009e-01 1.401965000000000017e-01 3.924925000000000352e+01 1.792965000000000089e+02 2.073149999999999636e+03
1.270000000000000018e-01 1.401729999999999920e-01 3.856754999999999711e+01 1.784954999999999927e+02 2.072880000000000109e+03
1.280000000000000027e-01 1.401489999999999958e-01 3.787219999999999942e+01 1.776175000000000068e+02 2.072590000000000146e+03
1.290000000000000036e-01 1.401219999999999966e-01 3.715784999999999627e+01 1.766514999999999986e+02 2.072279999999999745e+03
1.300000000000000044e-01 1.400919999999999943e-01 3.642014999999999958e+01 1.755889999999999986e+02 2.071940000000000055e+03
1.310000000000000053e-01 1.400599999999999901e-01 3.565579999999999927e+01 1.744244999999999948e+02 2.071559999999999945e+03
1.320000000000000062e-01 1.400244999999999962e-01 3.486325000000000074e+01 1.731555000000000177e+02 2.071154999999999745e+03
1.330000000000000071e-01 1.399865000000000137e-01 3.404229999999999734e+01 1.717860000000000014e+02 2.070715000000000146e+03
1.340000000000000080e-01 1.399455000000000005e-01 3.319440000000000168e+01 1.703220000000000027e+02 2.070239999999999782e+03
1.350000000000000089e-01 1.399019999999999986e-01 3.232300000000000040e+01 1.687735000000000127e+02 2.069734999999999673e+03
1.360000000000000098e-01 1.398560000000000081e-01 3.143290000000000362e+01 1.671555000000000177e+02 2.069199999999999818e+03
1.370000000000000107e-01 1.398075000000000012e-01 3.053045000000000186e+01 1.654864999999999782e+02 2.068644999999999982e+03
1.380000000000000115e-01 1.397579999999999933e-01 2.962314999999999898e+01 1.637855000000000132e+02 2.068069999999999709e+03
1.390000000000000124e-01 1.397075000000000122e-01 2.871945000000000192e+01 1.620765000000000100e+02 2.067484999999999673e+03
1.400000000000000133e-01 1.396565000000000167e-01 2.782854999999999990e+01 1.603820000000000050e+02 2.066894999999999982e+03
1.410000000000000142e-01 1.396054999999999935e-01 2.695960000000000178e+01 1.587259999999999991e+02 2.066309999999999945e+03
1.420000000000000151e-01 1.395565000000000000e-01 2.612160000000000082e+01 1.571305000000000121e+02 2.065735000000000127e+03
1.430000000000000160e-01 1.395084999999999797e-01 2.532300000000000040e+01 1.556165000000000020e+02 2.065180000000000291e+03
1.440000000000000169e-01 1.394624999999999893e-01 2.457130000000000081e+01 1.542015000000000100e+02 2.064644999999999982e+03
1.450000000000000178e-01 1.394195000000000018e-01 2.387274999999999991e+01 1.528999999999999773e+02 2.064144999999999982e+03
1.459999999999999909e-01 1.393790000000000029e-01 2.323230000000000217e+01 1.517224999999999966e+02 2.063680000000000291e+03
1.469999999999999918e-01 1.393429999999999946e-01 2.265310000000000201e+01 1.506765000000000043e+02 2.063250000000000000e+03
1.479999999999999927e-01 1.393095000000000028e-01 2.213690000000000069e+01 1.497635000000000218e+02 2.062859999999999673e+03
1.489999999999999936e-01 1.392805000000000015e-01 2.168374999999999986e+01 1.489825000000000159e+02 2.062519999999999982e+03
1.499999999999999944e-01 1.392554999999999765e-01 2.129234999999999900e+01 1.483284999999999911e+02 2.062220000000000255e+03
1.509999999999999953e-01 1.392335000000000100e-01 2.096000000000000085e+01 1.477944999999999993e+02 2.061954999999999927e+03
1.519999999999999962e-01 1.392149999999999777e-01 2.068290000000000006e+01 1.473704999999999927e+02 2.061739999999999782e+03
1.529999999999999971e-01 1.391999999999999904e-01 2.045649999999999835e+01 1.470444999999999993e+02 2.061560000000000400e+03
1.539999999999999980e-01 1.391880000000000062e-01 2.027534999999999954e+01 1.468034999999999854e+02 2.061409999999999854e+03
1.549999999999999989e-01 1.391775000000000095e-01 2.013385000000000247e+01 1.466349999999999909e+02 2.061295000000000073e+03
1.559999999999999998e-01 1.391705000000000025e-01 2.002624999999999744e+01 1.465260000000000105e+02 2.061204999999999927e+03
1.570000000000000007e-01 1.391654999999999975e-01 1.994660000000000011e+01 1.464635000000000105e+02 2.061135000000000218e+03
1.580000000000000016e-01 1.391609999999999792e-01 1.988949999999999818e+01 1.464370000000000118e+02 2.061085000000000036e+03
1.590000000000000024e-01 1.391584999999999905e-01 1.984955000000000069e+01 1.464354999999999905e+02 2.061050000000000182e+03
