# t [s], A [cm^2], U [cm/s], P [cPa], c [cm/s]
1.000000000000000021e-03 5.196094999999999464e-01 6.074099999999998944e-03 1.088435000000000059e+02 1.626750000000000000e+03
2.000000000000000042e-03 5.196005000000000207e-01 -3.158045300000000052e-03 1.088164999999999907e+02 1.626740000000000009e+03
3.000000000000000062e-03 5.196355000000000279e-01 6.899824999999998321e-02 1.088960000000000008e+02 1.626759999999999991e+03
4.000000000000000083e-03 5.196784999999999322e-01 1.653485999999999845e-01 1.090215000000000032e+02 1.626800000000000182e+03
5.000000000000000104e-03 5.196709999999999940e-01 1.663344999999999962e-01 1.090100000000000051e+02 1.626795000000000073e+03
6.000000000000000125e-03 5.196229999999999460e-01 8.184100000000002484e-02 1.088340000000000032e+02 1.626755000000000109e+03
7.000000000000000146e-03 5.195815000000000294e-01 4.813499999999970580e-03 1.086030000000000086e+02 1.626700000000000045e+03
8.000000000000000167e-03 5.195300000000000473e-01 -1.027434999999999876e-01 1.082924999999999898e+02 1.626625000000000000e+03
9.000000000000001055e-03 5.194389999999999841e-01 -3.085050000000000292e-01 1.078129999999999882e+02 1.626505000000000109e+03
1.000000000000000194e-02 5.193050000000000166e-01 -6.225600000000000023e-01 1.071189999999999998e+02 1.626335000000000036e+03
1.099999999999999936e-02 5.191164999999999807e-01 -1.059639999999999915e+00 1.061574999999999989e+02 1.626099999999999909e+03
1.200000000000000025e-02 5.188595000000000290e-01 -1.637964999999999893e+00 1.048644999999999925e+02 1.625775000000000091e+03
1.300000000000000114e-02 5.185440000000000049e-01 -2.317529999999999646e+00 1.032437500000000057e+02 1.625360000000000127e+03
1.400000000000000203e-02 5.182100000000000595e-01 -2.983554999999999957e+00 1.014147499999999980e+02 1.624875000000000000e+03
1.499999999999999944e-02 5.179055000000000186e-01 -3.498330000000000162e+00 9.955979999999999563e+01 1.624365000000000009e+03
1.600000000000000033e-02 5.176594999999999391e-01 -3.765541499999999875e+00 9.783840000000000714e+01 1.623869999999999891e+03
1.700000000000000122e-02 5.174715000000000842e-01 -3.760615500000000111e+00 9.633025000000000659e+01 1.623405000000000200e+03
1.800000000000000211e-02 5.173200000000000021e-01 -3.523005000000000386e+00 9.501939999999999031e+01 1.622980000000000018e+03
1.900000000000000300e-02 5.171719999999999651e-01 -3.127556999999999920e+00 9.382370000000000232e+01 1.622575000000000045e+03
2.000000000000000042e-02 5.169989999999999863e-01 -2.651862500000000011e+00 9.263540000000000418e+01 1.622175000000000182e+03
2.100000000000000130e-02 5.167855000000000087e-01 -2.150529999999999831e+00 9.136334999999999695e+01 1.621750000000000000e+03
2.200000000000000219e-02 5.165305000000000035e-01 -1.642539999999999889e+00 8.996195000000000164e+01 1.621295000000000073e+03
2.299999999999999961e-02 5.162459999999999827e-01 -1.113874999999999948e+00 8.843960000000001287e+01 1.620805000000000064e+03
2.400000000000000050e-02 5.159519999999999662e-01 -5.327250000000001151e-01 8.684569999999999368e+01 1.620299999999999955e+03
2.500000000000000139e-02 5.156640000000000112e-01 1.300249999999998352e-01 8.524424999999999386e+01 1.619784999999999854e+03
2.600000000000000228e-02 5.153904999999999736e-01 8.832949999999999413e-01 8.368519999999999470e+01 1.619275000000000091e+03
2.700000000000000316e-02 5.151289999999999480e-01 1.706905000000000117e+00 8.218439999999999657e+01 1.618779999999999973e+03
2.800000000000000058e-02 5.148665000000000047e-01 2.552430000000000199e+00 8.071540000000000248e+01 1.618289999999999964e+03
2.900000000000000147e-02 5.145834999999999715e-01 3.352269999999999861e+00 7.921549999999999159e+01 1.617795000000000073e+03
3.000000000000000236e-02 5.142610000000000792e-01 4.033859999999999779e+00 7.760130000000000905e+01 1.617280000000000200e+03
3.099999999999999978e-02 5.138820000000000610e-01 4.535544999999999938e+00 7.579130000000000678e+01 1.616710000000000036e+03
3.200000000000000067e-02 5.134410000000000363e-01 4.820684999999999221e+00 7.372925000000000750e+01 1.616089999999999918e+03
3.300000000000000155e-02 5.129434999999999967e-01 4.885555000000000092e+00 7.140219999999999345e+01 1.615404999999999973e+03
3.400000000000000244e-02 5.124055000000000692e-01 4.759309999999999263e+00 6.884770000000000323e+01 1.614659999999999854e+03
3.500000000000000333e-02 5.118515000000000148e-01 4.496380000000000265e+00 6.614885000000001014e+01 1.613880000000000109e+03
3.600000000000000422e-02 5.113079999999999847e-01 4.163669999999999760e+00 6.341944999999999766e+01 1.613085000000000036e+03
3.700000000000000511e-02 5.108015000000000194e-01 3.827860000000000262e+00 6.078524999999999778e+01 1.612309999999999945e+03
3.799999999999999906e-02 5.103509999999999991e-01 3.545539999999999914e+00 5.836504999999999654e+01 1.611575000000000045e+03
3.899999999999999994e-02 5.099715000000000220e-01 3.358029999999999848e+00 5.625815000000000055e+01 1.610925000000000182e+03
4.000000000000000083e-02 5.096704999999999153e-01 3.290230000000000210e+00 5.453669999999999618e+01 1.610375000000000000e+03
4.100000000000000172e-02 5.094514999999999461e-01 3.353380000000000472e+00 5.324439999999999884e+01 1.609930000000000064e+03
4.200000000000000261e-02 5.093130000000000157e-01 3.549474000000000018e+00 5.240014999999999645e+01 1.609615000000000009e+03
4.300000000000000350e-02 5.092529999999999557e-01 3.876254999999999562e+00 5.200435000000000230e+01 1.609424999999999955e+03
4.400000000000000439e-02 5.092674999999999841e-01 4.331554999999999822e+00 5.204619999999999891e+01 1.609365000000000009e+03
4.499999999999999833e-02 5.093560000000000310e-01 4.915989999999999860e+00 5.251059999999999661e+01 1.609430000000000064e+03
4.599999999999999922e-02 5.095155000000000101e-01 5.633600000000000385e+00 5.338254999999999484e+01 1.609615000000000009e+03
4.700000000000000011e-02 5.097475000000000200e-01 6.490599999999999703e+00 5.464874999999999972e+01 1.609920000000000073e+03
4.800000000000000100e-02 5.100479999999999459e-01 7.492824999999999847e+00 5.629654999999999632e+01 1.610345000000000027e+03
4.900000000000000189e-02 5.104174999999999685e-01 8.642804999999999183e+00 5.831125000000000114e+01 1.610875000000000000e+03
5.000000000000000278e-02 5.108509999999999440e-01 9.937319999999999709e+00 6.067314999999999259e+01 1.611509999999999991e+03
5.100000000000000366e-02 5.113429999999999920e-01 1.136611499999999886e+01 6.335490000000000066e+01 1.612244999999999891e+03
5.200000000000000455e-02 5.118849999999999234e-01 1.291187500000000021e+01 6.632044999999999391e+01 1.613070000000000164e+03
5.300000000000000544e-02 5.124674999999999647e-01 1.455117000000000083e+01 6.952535000000000309e+01 1.613974999999999909e+03
5.399999999999999939e-02 5.130805000000000504e-01 1.625674499999999867e+01 7.291915000000000191e+01 1.614944999999999936e+03
5.500000000000000028e-02 5.137135000000000451e-01 1.799969499999999911e+01 7.644819999999999993e+01 1.615960000000000036e+03
5.600000000000000117e-02 5.143569999999999531e-01 1.975189999999999912e+01 8.005925000000000580e+01 1.617014999999999873e+03
5.700000000000000205e-02 5.150015000000000009e-01 2.148809999999999931e+01 8.370314999999999372e+01 1.618089999999999918e+03
5.800000000000000294e-02 5.156414999999999749e-01 2.318730000000000047e+01 8.733820000000000050e+01 1.619174999999999955e+03
5.900000000000000383e-02 5.162725000000000231e-01 2.483344999999999914e+01 9.093030000000000257e+01 1.620255000000000109e+03
6.000000000000000472e-02 5.168909999999999894e-01 2.641544999999999987e+01 9.445635000000000048e+01 1.621329999999999927e+03
6.099999999999999867e-02 5.174959999999999560e-01 2.792680000000000007e+01 9.790234999999999843e+01 1.622384999999999991e+03
6.199999999999999956e-02 5.180869999999999642e-01 2.936475000000000080e+01 1.012630000000000052e+02 1.623424999999999955e+03
6.300000000000000044e-02 5.186665000000000303e-01 3.072950000000000159e+01 1.045407000000000011e+02 1.624450000000000045e+03
6.400000000000000133e-02 5.192354999999999610e-01 3.202304999999999779e+01 1.077423500000000018e+02 1.625450000000000045e+03
6.500000000000000222e-02 5.197959999999999248e-01 3.324849999999999994e+01 1.108774999999999977e+02 1.626434999999999945e+03
6.600000000000000311e-02 5.203499999999999792e-01 3.440954999999999586e+01 1.139590000000000032e+02 1.627405000000000200e+03
6.700000000000000400e-02 5.208994999999999598e-01 3.550914999999999822e+01 1.169975000000000023e+02 1.628359999999999900e+03
6.800000000000000488e-02 5.214449999999999363e-01 3.654975000000000307e+01 1.200024999999999977e+02 1.629304999999999836e+03
6.900000000000000577e-02 5.219880000000000075e-01 3.753244999999999720e+01 1.229789999999999992e+02 1.630250000000000000e+03
7.000000000000000666e-02 5.225275000000000336e-01 3.845700000000000074e+01 1.259290000000000020e+02 1.631180000000000064e+03
7.100000000000000755e-02 5.230615000000000681e-01 3.932139999999999702e+01 1.288505000000000109e+02 1.632105000000000018e+03
7.200000000000000844e-02 5.235899999999999999e-01 4.012234999999999729e+01 1.317344999999999970e+02 1.633015000000000100e+03
7.300000000000000933e-02 5.241084999999999772e-01 4.085519999999999641e+01 1.345699999999999932e+02 1.633914999999999964e+03
7.399999999999999634e-02 5.246150000000000535e-01 4.151449999999999818e+01 1.373414999999999964e+02 1.634795000000000073e+03
7.499999999999999722e-02 5.251055000000000028e-01 4.209435000000000571e+01 1.400310000000000059e+02 1.635659999999999854e+03
7.599999999999999811e-02 5.255769999999999609e-01 4.258905000000000030e+01 1.426200000000000045e+02 1.636490000000000009e+03
7.699999999999999900e-02 5.260255000000000347e-01 4.299330000000000496e+01 1.450889999999999986e+02 1.637289999999999964e+03
7.799999999999999989e-02 5.264489999999999448e-01 4.330284999999999940e+01 1.474209999999999923e+02 1.638054999999999836e+03
7.900000000000000078e-02 5.268439999999999790e-01 4.351440000000000197e+01 1.496000000000000227e+02 1.638769999999999982e+03
8.000000000000000167e-02 5.272090000000000387e-01 4.362630000000000052e+01 1.516129999999999995e+02 1.639434999999999945e+03
8.100000000000000255e-02 5.275425000000000253e-01 4.363785000000000025e+01 1.534504999999999768e+02 1.640054999999999836e+03
8.200000000000000344e-02 5.278435000000000210e-01 4.355010000000000048e+01 1.551055000000000064e+02 1.640615000000000009e+03
8.300000000000000433e-02 5.281115000000000670e-01 4.336520000000000152e+01 1.565755000000000052e+02 1.641125000000000000e+03
8.400000000000000522e-02 5.283474999999999699e-01 4.308670000000000044e+01 1.578594999999999970e+02 1.641575000000000045e+03
8.500000000000000611e-02 5.285509999999999931e-01 4.271940000000000026e+01 1.589619999999999891e+02 1.641974999999999909e+03
8.600000000000000699e-02 5.287235000000000129e-01 4.226919999999999789e+01 1.598885000000000218e+02 1.642309999999999945e+03
8.700000000000000788e-02 5.288675000000000459e-01 4.174309999999999832e+01 1.606490000000000009e+02 1.642599999999999909e+03
8.800000000000000877e-02 5.289844999999999686e-01 4.114929999999999666e+01 1.612529999999999859e+02 1.642840000000000146e+03
8.899999999999999578e-02 5.290770000000000195e-01 4.049685000000000201e+01 1.617150000000000034e+02 1.643029999999999973e+03
8.999999999999999667e-02 5.291479999999999517e-01 3.979529999999999745e+01 1.620500000000000114e+02 1.643180000000000064e+03
9.099999999999999756e-02 5.291989999999999750e-01 3.905499999999999972e+01 1.622744999999999891e+02 1.643289999999999964e+03
9.199999999999999845e-02 5.292354999999999698e-01 3.828624999999999545e+01 1.624050000000000011e+02 1.643365000000000009e+03
9.299999999999999933e-02 5.292584999999999651e-01 3.749934999999999974e+01 1.624594999999999914e+02 1.643420000000000073e+03
9.400000000000000022e-02 5.292719999999999647e-01 3.670394999999999897e+01 1.624535000000000196e+02 1.643450000000000045e+03
9.500000000000000111e-02 5.292780000000000262e-01 3.590879999999999939e+01 1.624035000000000082e+02 1.643454999999999927e+03
9.600000000000000200e-02 5.292780000000000262e-01 3.512149999999999750e+01 1.623215000000000146e+02 1.643450000000000045e+03
9.700000000000000289e-02 5.292755000000000098e-01 3.434805000000000064e+01 1.622205000000000155e+02 1.643434999999999945e+03
9.800000000000000377e-02 5.292700000000000182e-01 3.359290000000000020e+01 1.621075000000000159e+02 1.643409999999999854e+03
9.900000000000000466e-02 5.292630000000000390e-01 3.285845000000000482e+01 1.619884999999999877e+02 1.643380000000000109e+03
1.000000000000000056e-01 5.292544999999999611e-01 3.214580000000000126e+01 1.618654999999999973e+02 1.643349999999999909e+03
1.010000000000000064e-01 5.292434999999999778e-01 3.145400000000000063e+01 1.617375000000000114e+02 1.643315000000000055e+03
1.020000000000000073e-01 5.292295000000000194e-01 3.078099999999999881e+01 1.616014999999999873e+02 1.643275000000000091e+03
1.030000000000000082e-01 5.292120000000000157e-01 3.012344999999999828e+01 1.614519999999999982e+02 1.643230000000000018e+03
1.040000000000000091e-01 5.291890000000000205e-01 2.947724999999999795e+01 1.612814999999999941e+02 1.643179999999999836e+03
1.050000000000000100e-01 5.291584999999999761e-01 2.883769999999999811e+01 1.610824999999999818e+02 1.643115000000000009e+03
1.059999999999999970e-01 5.291194999999999649e-01 2.819989999999999952e+01 1.608455000000000155e+02 1.643045000000000073e+03
1.069999999999999979e-01 5.290704999999999991e-01 2.755904999999999916e+01 1.605625000000000000e+02 1.642965000000000146e+03
1.079999999999999988e-01 5.290110000000000090e-01 2.691065000000000040e+01 1.602264999999999873e+02 1.642860000000000127e+03
1.089999999999999997e-01 5.289395000000000069e-01 2.625084999999999980e+01 1.598305000000000007e+02 1.642750000000000000e+03
1.100000000000000006e-01 5.288545000000000051e-01 2.557654999999999745e+01 1.593689999999999998e+02 1.642615000000000009e+03
1.110000000000000014e-01 5.287569999999999215e-01 2.488550000000000040e+01 1.588405000000000200e+02 1.642454999999999927e+03
1.120000000000000023e-01 5.286465000000000192e-01 2.417674999999999841e+01 1.582434999999999832e+02 1.642284999999999854e+03
1.130000000000000032e-01 5.285239999999999938e-01 2.345049999999999812e+01 1.575784999999999911e+02 1.642085000000000036e+03
1.140000000000000041e-01 5.283895000000000675e-01 2.270810000000000173e+01 1.568514999999999873e+02 1.641875000000000000e+03
1.150000000000000050e-01 5.282455000000000345e-01 2.195219999999999771e+01 1.560679999999999836e+02 1.641644999999999982e+03
1.160000000000000059e-01 5.280934999999999935e-01 2.118665000000000020e+01 1.552355000000000018e+02 1.641400000000000091e+03
1.170000000000000068e-01 5.279350000000000431e-01 2.041629999999999967e+01 1.543659999999999854e+02 1.641134999999999991e+03
1.180000000000000077e-01 5.277730000000000476e-01 1.964689999999999870e+01 1.534705000000000155e+02 1.640869999999999891e+03
1.190000000000000085e-01 5.276095000000000645e-01 1.888490000000000180e+01 1.525625000000000000e+02 1.640595000000000027e+03
1.200000000000000094e-01 5.274474999999999580e-01 1.813719999999999999e+01 1.516560000000000059e+02 1.640320000000000164e+03
1.209999999999999964e-01 5.272900000000000365e-01 1.741084999999999994e+01 1.507659999999999911e+02 1.640045000000000073e+03
1.219999999999999973e-01 5.271379999999999955e-01 1.671265000000000001e+01 1.499054999999999893e+02 1.639779999999999973e+03
1.229999999999999982e-01 5.269949999999999912e-01 1.604925000000000068e+01 1.490879999999999939e+02 1.639519999999999982e+03
1.239999999999999991e-01 5.268629999999999702e-01 1.542649999999999899e+01 1.483255000000000052e+02 1.639275000000000091e+03
1.250000000000000000e-01 5.267435000000000311e-01 1.484939999999999927e+01 1.476279999999999859e+02 1.639049999999999955e+03
1.260000000000000009e-01 5.266370000000000218e-01 1.432195000000000107e+01 1.470029999999999859e+02 1.638849999999999909e+03
1.270000000000000018e-01 5.265454999999999997e-01 1.384680000000000000e+01 1.464560000000000173e+02 1.638664999999999964e+03
1.280000000000000027e-01 5.264679999999999360e-01 1.342553500000000000e+01 1.459904999999999973e+02 1.638505000000000109e+03
1.290000000000000036e-01 5.264054999999999707e-01 1.305830000000000091e+01 1.456075000000000159e+02 1.638365000000000009e+03
1.300000000000000044e-01 5.263565000000000049e-01 1.274404499999999985e+01 1.453040000000000020e+02 1.638250000000000000e+03
1.310000000000000053e-01 5.263214999999999977e-01 1.248050999999999888e+01 1.450769999999999982e+02 1.638159999999999854e+03
1.320000000000000062e-01 5.262970000000000148e-01 1.226455999999999946e+01 1.449194999999999993e+02 1.638090000000000146e+03
1.330000000000000071e-01 5.262835000000000152e-01 1.209220499999999987e+01 1.448240000000000123e+02 1.638039999999999964e+03
1.340000000000000080e-01 5.262790000000000523e-01 1.195886000000000138e+01 1.447824999999999989e+02 1.638005000000000109e+03
1.350000000000000089e-01 5.262805000000000399e-01 1.185955000000000048e+01 1.447844999999999800e+02 1.637990000000000009e+03
1.360000000000000098e-01 5.262879999999999781e-01 1.178930000000000078e+01 1.448215000000000146e+02 1.637985000000000127e+03
1.370000000000000107e-01 5.262989999999999613e-01 1.174305000000000021e+01 1.448849999999999909e+02 1.637990000000000009e+03
1.380000000000000115e-01 5.263120000000000021e-01 1.171600000000000108e+01 1.449650000000000034e+02 1.638000000000000000e+03
1.390000000000000124e-01 5.263265000000000304e-01 1.170384999999999920e+01 1.450550000000000068e+02 1.638019999999999982e+03
1.400000000000000133e-01 5.263409999999999478e-01 1.170254999999999868e+01 1.451485000000000127e+02 1.638034999999999854e+03
1.410000000000000142e-01 5.263550000000000173e-01 1.170884999999999998e+01 1.452404999999999973e+02 1.638059999999999945e+03
1.420000000000000151e-01 5.263679999999999470e-01 1.171989999999999910e+01 1.453274999999999864e+02 1.638079999999999927e+03
1.430000000000000160e-01 5.263795000000000002e-01 1.173339999999999961e+01 1.454074999999999989e+02 1.638099999999999909e+03
1.440000000000000169e-01 5.263895000000000657e-01 1.174770000000000003e+01 1.454780000000000086e+02 1.638119999999999891e+03
1.450000000000000178e-01 5.263980000000000325e-01 1.176164999999999949e+01 1.455399999999999920e+02 1.638134999999999991e+03
1.459999999999999909e-01 5.264050000000000118e-01 1.177449999999999974e+01 1.455935000000000059e+02 1.638150000000000091e+03
1.469999999999999918e-01 5.264115000000000322e-01 1.178594999999999970e+01 1.456405000000000030e+02 1.638159999999999854e+03
1.479999999999999927e-01 5.264170000000000238e-01 1.179594499999999968e+01 1.456825000000000045e+02 1.638174999999999955e+03
1.489999999999999936e-01 5.264230000000000853e-01 1.180493500000000040e+01 1.457235000000000014e+02 1.638190000000000055e+03
1.499999999999999944e-01 5.264294999999999947e-01 1.181329999999999991e+01 1.457634999999999934e+02 1.638199999999999818e+03
1.509999999999999953e-01 5.264364999999999739e-01 1.182169999999999987e+01 1.458070000000000164e+02 1.638214999999999918e+03
1.519999999999999962e-01 5.264444999999999819e-01 1.183089999999999975e+01 1.458559999999999945e+02 1.638230000000000018e+03
1.529999999999999971e-01 5.264544999999999364e-01 1.184159999999999968e+01 1.459119999999999777e+02 1.638244999999999891e+03
1.539999999999999980e-01 5.264665000000000594e-01 1.185425000000000040e+01 1.459770000000000039e+02 1.638259999999999991e+03
1.549999999999999989e-01 5.264800000000000590e-01 1.186945000000000050e+01 1.460525000000000091e+02 1.638285000000000082e+03
1.559999999999999998e-01 5.264965000000000339e-01 1.188739999999999952e+01 1.461390000000000100e+02 1.638309999999999945e+03
1.570000000000000007e-01 5.265150000000000663e-01 1.190820000000000078e+01 1.462365000000000066e+02 1.638340000000000146e+03
1.580000000000000016e-01 5.265349999999999753e-01 1.193165000000000120e+01 1.463439999999999941e+02 1.638375000000000000e+03
1.590000000000000024e-01 5.265560000000000240e-01 1.195730000000000004e+01 1.464615000000000009e+02 1.638404999999999973e+03
