# t [s], A [cm^2], U [cm/s], P [cPa], c [cm/s]
1.000000000000000021e-03 1.959740000000000093e-01 1.912774999999999892e-01 9.144854999999999734e+01 2.202295000000000073e+03
2.000000000000000042e-03 1.959295000000000064e-01 1.480691500000000049e+00 8.852250000000000796e+01 2.201909999999999854e+03
3.000000000000000062e-03 1.958055000000000212e-01 3.138063499999999895e+00 8.427719999999999345e+01 2.200909999999999854e+03
4.000000000000000083e-03 1.956350000000000033e-01 5.038655449999999369e+00 7.948480000000000700e+01 2.199560000000000400e+03
5.000000000000000104e-03 1.954515000000000002e-01 7.117644999999999555e+00 7.506430000000000291e+01 2.198114999999999782e+03
6.000000000000000125e-03 1.952764999999999918e-01 9.207599999999999341e+00 7.139285000000000991e+01 2.196744999999999891e+03
7.000000000000000146e-03 1.951130000000000086e-01 1.107625999999999955e+01 6.824445000000000050e+01 2.195500000000000000e+03
8.000000000000000167e-03 1.949624999999999830e-01 1.262762000000000029e+01 6.538065000000000282e+01 2.194375000000000000e+03
9.000000000000001055e-03 1.948309999999999764e-01 1.390122999999999998e+01 6.287895000000000323e+01 2.193405000000000200e+03
1.000000000000000194e-02 1.947210000000000052e-01 1.493479999999999919e+01 6.083785000000000309e+01 2.192605000000000018e+03
1.099999999999999936e-02 1.946330000000000005e-01 1.574830000000000041e+01 5.924824999999999875e+01 2.191970000000000255e+03
1.200000000000000025e-02 1.945635000000000003e-01 1.635725000000000051e+01 5.805015000000000214e+01 2.191485000000000127e+03
1.300000000000000114e-02 1.945100000000000162e-01 1.675854999999999961e+01 5.711400000000000432e+01 2.191105000000000018e+03
1.400000000000000203e-02 1.944655000000000133e-01 1.695895000000000152e+01 5.628739999999999810e+01 2.190805000000000291e+03
1.499999999999999944e-02 1.944295000000000051e-01 1.703754999999999953e+01 5.558525000000000205e+01 2.190565000000000055e+03
1.600000000000000033e-02 1.944079999999999975e-01 1.715474999999999994e+01 5.530254999999999654e+01 2.190425000000000182e+03
1.700000000000000122e-02 1.944135000000000169e-01 1.747724999999999795e+01 5.587089999999999890e+01 2.190470000000000255e+03
1.800000000000000211e-02 1.944540000000000157e-01 1.808019999999999783e+01 5.755865000000000009e+01 2.190764999999999873e+03
1.900000000000000300e-02 1.945290000000000075e-01 1.890010000000000190e+01 6.024660000000000082e+01 2.191309999999999945e+03
2.000000000000000042e-02 1.946259999999999935e-01 1.976265000000000072e+01 6.342409999999999570e+01 2.192019999999999982e+03
2.100000000000000130e-02 1.947265000000000246e-01 2.046090000000000231e+01 6.638644999999999641e+01 2.192774999999999636e+03
2.200000000000000219e-02 1.948104999999999976e-01 2.083814999999999884e+01 6.850784999999999059e+01 2.193420000000000073e+03
2.299999999999999961e-02 1.948659999999999837e-01 2.083970000000000056e+01 6.945820000000000505e+01 2.193860000000000127e+03
2.400000000000000050e-02 1.948874999999999913e-01 2.051769999999999783e+01 6.928094999999999004e+01 2.194054999999999836e+03
2.500000000000000139e-02 1.948819999999999997e-01 1.999425000000000097e+01 6.831960000000000832e+01 2.194030000000000200e+03
2.600000000000000228e-02 1.948584999999999900e-01 1.940465000000000018e+01 6.704399999999999693e+01 2.193869999999999891e+03
2.700000000000000316e-02 1.948289999999999744e-01 1.884525000000000006e+01 6.585849999999999227e+01 2.193654999999999745e+03
2.800000000000000058e-02 1.948019999999999752e-01 1.834539999999999793e+01 6.496774999999999523e+01 2.193460000000000036e+03
2.900000000000000147e-02 1.947800000000000087e-01 1.786970000000000169e+01 6.433990000000000009e+01 2.193284999999999854e+03
3.000000000000000236e-02 1.947579999999999867e-01 1.734434999999999860e+01 6.376404999999999745e+01 2.193125000000000000e+03
3.099999999999999978e-02 1.947315000000000018e-01 1.669590000000000174e+01 6.296835000000000093e+01 2.192930000000000291e+03
3.200000000000000067e-02 1.946935000000000193e-01 1.588790000000000191e+01 6.175140000000000384e+01 2.192654999999999745e+03
3.300000000000000155e-02 1.946415000000000228e-01 1.494369999999999976e+01 6.008270000000000266e+01 2.192279999999999745e+03
3.400000000000000244e-02 1.945790000000000020e-01 1.394794999999999874e+01 5.813815000000000310e+01 2.191829999999999927e+03
3.500000000000000333e-02 1.945145000000000068e-01 1.302564999999999884e+01 5.625950000000000273e+01 2.191350000000000364e+03
3.600000000000000422e-02 1.944589999999999930e-01 1.230665000000000120e+01 5.485200000000000387e+01 2.190935000000000400e+03
3.700000000000000511e-02 1.944239999999999857e-01 1.188860000000000028e+01 5.426045000000000584e+01 2.190654999999999745e+03
3.799999999999999906e-02 1.944180000000000075e-01 1.181039999999999957e+01 5.466525000000000034e+01 2.190590000000000146e+03
3.899999999999999994e-02 1.944424999999999903e-01 1.204340000000000011e+01 5.603130000000000166e+01 2.190744999999999891e+03
4.000000000000000083e-02 1.944945000000000146e-01 1.250065000000000026e+01 5.811939999999999884e+01 2.191105000000000018e+03
4.100000000000000172e-02 1.945635000000000003e-01 1.305910000000000082e+01 6.054784999999999684e+01 2.191609999999999673e+03
4.200000000000000261e-02 1.946384999999999921e-01 1.358579999999999899e+01 6.288119999999999976e+01 2.192155000000000200e+03
4.300000000000000350e-02 1.947059999999999902e-01 1.396310000000000073e+01 6.471925000000000239e+01 2.192659999999999854e+03
4.400000000000000439e-02 1.947554999999999981e-01 1.410549999999999926e+01 6.576589999999998781e+01 2.193039999999999964e+03
4.499999999999999833e-02 1.947784999999999933e-01 1.396760000000000090e+01 6.586525000000000318e+01 2.193224999999999909e+03
4.599999999999999922e-02 1.947720000000000007e-01 1.354269999999999996e+01 6.500339999999999918e+01 2.193190000000000055e+03
4.700000000000000011e-02 1.947349999999999914e-01 1.285399999999999920e+01 6.328149999999999409e+01 2.192934999999999945e+03
4.800000000000000100e-02 1.946724999999999983e-01 1.194327999999999967e+01 6.087274999999999636e+01 2.192485000000000127e+03
4.900000000000000189e-02 1.945879999999999832e-01 1.085940000000000083e+01 5.797625000000000028e+01 2.191864999999999782e+03
5.000000000000000278e-02 1.944875000000000076e-01 9.649765000000000370e+00 5.478010000000000446e+01 2.191130000000000109e+03
5.100000000000000366e-02 1.943765000000000076e-01 8.356284999999999741e+00 5.143965000000000032e+01 2.190314999999999600e+03
5.200000000000000455e-02 1.942595000000000016e-01 7.015139999999999709e+00 4.807210000000000605e+01 2.189444999999999709e+03
5.300000000000000544e-02 1.941404999999999936e-01 5.658924999999999983e+00 4.476399999999999579e+01 2.188564999999999600e+03
5.399999999999999939e-02 1.940230000000000010e-01 4.320520000000000138e+00 4.158534999999999826e+01 2.187690000000000055e+03
5.500000000000000028e-02 1.939089999999999980e-01 3.035812899999999814e+00 3.860495000000000232e+01 2.186840000000000146e+03
5.600000000000000117e-02 1.938020000000000020e-01 1.845303499999999985e+00 3.590149999999999864e+01 2.186039999999999964e+03
5.700000000000000205e-02 1.937055000000000027e-01 7.935600000000000431e-01 3.356730000000000302e+01 2.185319999999999709e+03
5.800000000000000294e-02 1.936229999999999896e-01 -7.313000000000002832e-02 3.170544999999999902e+01 2.184694999999999709e+03
5.900000000000000383e-02 1.935580000000000078e-01 -7.104515000000000136e-01 3.042099999999999937e+01 2.184199999999999818e+03
6.000000000000000472e-02 1.935144999999999782e-01 -1.080173000000000050e+00 2.980849999999999866e+01 2.183859999999999673e+03
6.099999999999999867e-02 1.934960000000000013e-01 -1.153985000000000039e+00 2.994000000000000128e+01 2.183695000000000164e+03
6.199999999999999956e-02 1.935034999999999950e-01 -9.162489999999999801e-01 3.085524999999999807e+01 2.183734999999999673e+03
6.300000000000000044e-02 1.935385000000000022e-01 -3.654374999999999707e-01 3.255590000000000117e+01 2.183969999999999800e+03
6.400000000000000133e-02 1.936009999999999953e-01 4.858800000000000896e-01 3.500464999999999804e+01 2.184404999999999745e+03
6.500000000000000222e-02 1.936895000000000144e-01 1.612260500000000096e+00 3.812859999999999872e+01 2.185039999999999964e+03
6.600000000000000311e-02 1.938015000000000154e-01 2.977584049999999927e+00 4.182589999999999719e+01 2.185850000000000364e+03
6.700000000000000400e-02 1.939329999999999943e-01 4.537799999999999834e+00 4.597440000000000282e+01 2.186810000000000400e+03
6.800000000000000488e-02 1.940804999999999891e-01 6.244049999999999656e+00 5.044115000000000038e+01 2.187894999999999982e+03
6.900000000000000577e-02 1.942389999999999950e-01 8.045849999999999724e+00 5.509234999999999616e+01 2.189065000000000055e+03
7.000000000000000666e-02 1.944044999999999801e-01 9.894280000000000186e+00 5.980239999999999867e+01 2.190289999999999964e+03
7.100000000000000755e-02 1.945724999999999816e-01 1.174476999999999904e+01 6.446200000000000330e+01 2.191539999999999964e+03
7.200000000000000844e-02 1.947395000000000098e-01 1.355949499999999830e+01 6.898409999999999798e+01 2.192789999999999964e+03
7.300000000000000933e-02 1.949024999999999785e-01 1.530905000000000094e+01 7.330865000000000009e+01 2.194015000000000327e+03
7.399999999999999634e-02 1.950600000000000112e-01 1.697340000000000160e+01 7.740350000000000819e+01 2.195199999999999818e+03
7.499999999999999722e-02 1.952109999999999956e-01 1.854169999999999874e+01 8.126330000000000098e+01 2.196335000000000036e+03
7.599999999999999811e-02 1.953550000000000009e-01 2.001144999999999996e+01 8.490590000000000259e+01 2.197425000000000182e+03
7.699999999999999900e-02 1.954919999999999991e-01 2.138705000000000211e+01 8.836619999999999209e+01 2.198465000000000146e+03
7.799999999999999989e-02 1.956239999999999923e-01 2.267739999999999867e+01 9.168905000000000882e+01 2.199470000000000255e+03
7.900000000000000078e-02 1.957519999999999816e-01 2.389430000000000121e+01 9.492230000000000700e+01 2.200440000000000055e+03
8.000000000000000167e-02 1.958770000000000233e-01 2.505000000000000071e+01 9.811055000000000348e+01 2.201394999999999982e+03
8.100000000000000255e-02 1.960009999999999808e-01 2.615565000000000140e+01 1.012899000000000029e+02 2.202335000000000036e+03
8.200000000000000344e-02 1.961240000000000205e-01 2.722025000000000006e+01 1.044837500000000006e+02 2.203274999999999636e+03
8.300000000000000433e-02 1.962479999999999780e-01 2.824994999999999834e+01 1.077040000000000077e+02 2.204215000000000146e+03
8.400000000000000522e-02 1.963719999999999910e-01 2.924750000000000227e+01 1.109484999999999957e+02 2.205159999999999854e+03
8.500000000000000611e-02 1.964969999999999772e-01 3.021249999999999858e+01 1.142049999999999983e+02 2.206110000000000127e+03
8.600000000000000699e-02 1.966209999999999902e-01 3.114170000000000016e+01 1.174525000000000006e+02 2.207054999999999836e+03
8.700000000000000788e-02 1.967450000000000032e-01 3.202915000000000134e+01 1.206605000000000132e+02 2.208000000000000000e+03
8.800000000000000877e-02 1.968664999999999998e-01 3.286710000000000065e+01 1.237969999999999970e+02 2.208925000000000182e+03
8.899999999999999578e-02 1.969855000000000078e-01 3.364605000000000246e+01 1.268245000000000005e+02 2.209829999999999927e+03
8.999999999999999667e-02 1.970999999999999974e-01 3.435540000000000305e+01 1.297065000000000055e+02 2.210699999999999818e+03
9.099999999999999756e-02 1.972085000000000088e-01 3.498425000000000296e+01 1.324069999999999823e+02 2.211534999999999854e+03
9.199999999999999845e-02 1.973099999999999854e-01 3.552155000000000484e+01 1.348899999999999864e+02 2.212320000000000164e+03
9.299999999999999933e-02 1.974035000000000095e-01 3.595699999999999363e+01 1.371254999999999882e+02 2.213034999999999854e+03
9.400000000000000022e-02 1.974879999999999969e-01 3.628170000000000073e+01 1.390855000000000246e+02 2.213689999999999600e+03
9.500000000000000111e-02 1.975625000000000020e-01 3.648864999999999981e+01 1.407510000000000048e+02 2.214265000000000327e+03
9.600000000000000200e-02 1.976264999999999827e-01 3.657339999999999947e+01 1.421084999999999923e+02 2.214755000000000109e+03
9.700000000000000289e-02 1.976785000000000070e-01 3.653475000000000250e+01 1.431535000000000082e+02 2.215164999999999964e+03
9.800000000000000377e-02 1.977200000000000069e-01 3.637460000000000093e+01 1.438915000000000077e+02 2.215494999999999891e+03
9.900000000000000466e-02 1.977499999999999813e-01 3.609869999999999379e+01 1.443360000000000127e+02 2.215735000000000127e+03
1.000000000000000056e-01 1.977700000000000014e-01 3.571560000000000201e+01 1.445104999999999791e+02 2.215894999999999982e+03
1.010000000000000064e-01 1.977800000000000114e-01 3.523709999999999809e+01 1.444449999999999932e+02 2.215980000000000018e+03
1.020000000000000073e-01 1.977809999999999846e-01 3.467714999999999748e+01 1.441754999999999995e+02 2.216000000000000000e+03
1.030000000000000082e-01 1.977750000000000064e-01 3.405129999999999768e+01 1.437409999999999854e+02 2.215965000000000146e+03
1.040000000000000091e-01 1.977630000000000221e-01 3.337600000000000477e+01 1.431839999999999975e+02 2.215875000000000000e+03
1.050000000000000100e-01 1.977464999999999917e-01 3.266764999999999475e+01 1.425434999999999945e+02 2.215755000000000109e+03
1.059999999999999970e-01 1.977264999999999995e-01 3.194209999999999994e+01 1.418564999999999827e+02 2.215609999999999673e+03
1.069999999999999979e-01 1.977045000000000052e-01 3.121390000000000242e+01 1.411580000000000155e+02 2.215444999999999709e+03
1.079999999999999988e-01 1.976820000000000244e-01 3.049579999999999913e+01 1.404755000000000109e+02 2.215274999999999636e+03
1.089999999999999997e-01 1.976594999999999880e-01 2.979820000000000135e+01 1.398305000000000007e+02 2.215105000000000018e+03
1.100000000000000006e-01 1.976379999999999804e-01 2.912904999999999944e+01 1.392384999999999877e+02 2.214934999999999945e+03
1.110000000000000014e-01 1.976175000000000015e-01 2.849334999999999951e+01 1.387065000000000055e+02 2.214784999999999854e+03
1.120000000000000023e-01 1.975990000000000246e-01 2.789339999999999975e+01 1.382355000000000018e+02 2.214640000000000327e+03
1.130000000000000032e-01 1.975824999999999942e-01 2.732854999999999990e+01 1.378199999999999932e+02 2.214510000000000218e+03
1.140000000000000041e-01 1.975669999999999926e-01 2.679549999999999699e+01 1.374470000000000027e+02 2.214390000000000327e+03
1.150000000000000050e-01 1.975530000000000064e-01 2.628860000000000241e+01 1.370980000000000132e+02 2.214279999999999745e+03
1.160000000000000059e-01 1.975389999999999924e-01 2.580030000000000001e+01 1.367524999999999977e+02 2.214170000000000073e+03
1.170000000000000068e-01 1.975250000000000061e-01 2.532179999999999964e+01 1.363845000000000027e+02 2.214059999999999945e+03
1.180000000000000077e-01 1.975100000000000189e-01 2.484324999999999761e+01 1.359695000000000107e+02 2.213940000000000055e+03
1.190000000000000085e-01 1.974930000000000019e-01 2.435495000000000232e+01 1.354814999999999827e+02 2.213814999999999600e+03
1.200000000000000094e-01 1.974730000000000096e-01 2.384765000000000157e+01 1.348975000000000080e+02 2.213659999999999854e+03
1.209999999999999964e-01 1.974495000000000000e-01 2.331325000000000003e+01 1.341995000000000005e+02 2.213484999999999673e+03
1.219999999999999973e-01 1.974219999999999864e-01 2.274530000000000030e+01 1.333720000000000141e+02 2.213274999999999636e+03
1.229999999999999982e-01 1.973894999999999955e-01 2.213960000000000150e+01 1.324080000000000155e+02 2.213034999999999854e+03
1.239999999999999991e-01 1.973530000000000006e-01 2.149439999999999884e+01 1.313064999999999998e+02 2.212755000000000109e+03
1.250000000000000000e-01 1.973115000000000008e-01 2.081049999999999756e+01 1.300734999999999957e+02 2.212439999999999600e+03
1.260000000000000009e-01 1.972649999999999959e-01 2.009154999999999802e+01 1.287220000000000084e+02 2.212090000000000146e+03
1.270000000000000018e-01 1.972150000000000014e-01 1.934364999999999668e+01 1.272719999999999914e+02 2.211715000000000146e+03
1.280000000000000027e-01 1.971614999999999895e-01 1.857519999999999882e+01 1.257485000000000070e+02 2.211309999999999945e+03
1.290000000000000036e-01 1.971054999999999890e-01 1.779635000000000034e+01 1.241810000000000116e+02 2.210885000000000218e+03
1.300000000000000044e-01 1.970480000000000009e-01 1.701859999999999928e+01 1.226009999999999991e+02 2.210449999999999818e+03
1.310000000000000053e-01 1.969899999999999984e-01 1.625404999999999944e+01 1.210430000000000064e+02 2.210014999999999873e+03
1.320000000000000062e-01 1.969334999999999836e-01 1.551484999999999914e+01 1.195380000000000109e+02 2.209579999999999927e+03
1.330000000000000071e-01 1.968785000000000118e-01 1.481255000000000166e+01 1.181169999999999902e+02 2.209159999999999854e+03
1.340000000000000080e-01 1.968270000000000020e-01 1.415745000000000076e+01 1.168050000000000068e+02 2.208765000000000327e+03
1.350000000000000089e-01 1.967784999999999951e-01 1.355819999999999936e+01 1.156239999999999952e+02 2.208399999999999636e+03
1.360000000000000098e-01 1.967355000000000076e-01 1.302159999999999940e+01 1.145884999999999962e+02 2.208065000000000055e+03
1.370000000000000107e-01 1.966970000000000107e-01 1.255219999999999914e+01 1.137079999999999984e+02 2.207769999999999982e+03
1.380000000000000115e-01 1.966640000000000055e-01 1.215230000000000032e+01 1.129865000000000066e+02 2.207514999999999873e+03
1.390000000000000124e-01 1.966364999999999919e-01 1.182199999999999918e+01 1.124209999999999923e+02 2.207305000000000291e+03
1.400000000000000133e-01 1.966140000000000110e-01 1.155945000000000000e+01 1.120039999999999907e+02 2.207125000000000000e+03
1.410000000000000142e-01 1.965979999999999950e-01 1.136100000000000065e+01 1.117255000000000109e+02 2.206994999999999891e+03
1.420000000000000151e-01 1.965854999999999964e-01 1.122160000000000046e+01 1.115699999999999932e+02 2.206894999999999982e+03
1.430000000000000160e-01 1.965784999999999894e-01 1.113494999999999990e+01 1.115215000000000032e+02 2.206835000000000036e+03
1.440000000000000169e-01 1.965744999999999854e-01 1.109404999999999930e+01 1.115625000000000000e+02 2.206804999999999836e+03
1.450000000000000178e-01 1.965739999999999987e-01 1.109125000000000050e+01 1.116740000000000066e+02 2.206795000000000073e+03
1.459999999999999909e-01 1.965764999999999874e-01 1.111890000000000001e+01 1.118389999999999986e+02 2.206810000000000400e+03
1.469999999999999918e-01 1.965804999999999914e-01 1.116924999999999990e+01 1.120399999999999920e+02 2.206835000000000036e+03
1.479999999999999927e-01 1.965859999999999830e-01 1.123489999999999966e+01 1.122609999999999957e+02 2.206875000000000000e+03
1.489999999999999936e-01 1.965925000000000034e-01 1.130899999999999928e+01 1.124874999999999972e+02 2.206920000000000073e+03
1.499999999999999944e-01 1.965995000000000104e-01 1.138534999999999897e+01 1.127065000000000055e+02 2.206970000000000255e+03
1.509999999999999953e-01 1.966064999999999896e-01 1.145865000000000045e+01 1.129095000000000084e+02 2.207024999999999636e+03
1.519999999999999962e-01 1.966124999999999956e-01 1.152449999999999974e+01 1.130875000000000057e+02 2.207069999999999709e+03
1.529999999999999971e-01 1.966185000000000016e-01 1.157965000000000089e+01 1.132349999999999994e+02 2.207114999999999782e+03
1.539999999999999980e-01 1.966229999999999922e-01 1.162174999999999869e+01 1.133490000000000038e+02 2.207150000000000091e+03
1.549999999999999989e-01 1.966269999999999962e-01 1.164965000000000117e+01 1.134300000000000068e+02 2.207180000000000291e+03
1.559999999999999998e-01 1.966295000000000126e-01 1.166324999999999967e+01 1.134795000000000016e+02 2.207199999999999818e+03
1.570000000000000007e-01 1.966310000000000002e-01 1.166319999999999979e+01 1.135000000000000000e+02 2.207215000000000146e+03
1.580000000000000016e-01 1.966320000000000012e-01 1.165115000000000123e+01 1.134985000000000070e+02 2.207225000000000364e+03
1.590000000000000024e-01 1.966320000000000012e-01 1.162924999999999898e+01 1.134800000000000040e+02 2.207224999999999909e+03
