# t [s], A [cm^2], U [cm/s], P [cPa], c [cm/s]
1.000000000000000021e-03 1.782670000000000088e-01 2.760212000000000221e-01 9.689224999999999000e+01 2.293029999999999745e+03
2.000000000000000042e-03 1.782134999999999969e-01 1.749824499999999894e+00 9.336260000000000048e+01 2.292519999999999982e+03
3.000000000000000062e-03 1.780824999999999769e-01 3.612952000000000385e+00 8.829044999999999277e+01 2.291319999999999709e+03
4.000000000000000083e-03 1.779129999999999878e-01 5.743466999999999878e+00 8.284239999999999782e+01 2.289775000000000091e+03
5.000000000000000104e-03 1.777384999999999937e-01 8.039189999999999614e+00 7.811324999999999363e+01 2.288210000000000036e+03
6.000000000000000125e-03 1.775770000000000126e-01 1.024110500000000101e+01 7.430854999999999677e+01 2.286779999999999745e+03
7.000000000000000146e-03 1.774284999999999890e-01 1.209036499999999847e+01 7.098805000000000121e+01 2.285494999999999891e+03
8.000000000000000167e-03 1.772964999999999958e-01 1.356695000000000029e+01 6.802674999999999272e+01 2.284385000000000218e+03
9.000000000000001055e-03 1.771860000000000102e-01 1.473939999999999984e+01 6.560134999999999650e+01 2.283465000000000146e+03
1.000000000000000194e-02 1.770990000000000064e-01 1.563905000000000101e+01 6.374734999999999729e+01 2.282744999999999891e+03
1.099999999999999936e-02 1.770329999999999959e-01 1.629540000000000077e+01 6.241029999999999944e+01 2.282210000000000036e+03
1.200000000000000025e-02 1.769844999999999891e-01 1.671989999999999910e+01 6.147074999999999534e+01 2.281824999999999818e+03
1.300000000000000114e-02 1.769475000000000076e-01 1.690809999999999746e+01 6.071495000000000175e+01 2.281539999999999964e+03
1.400000000000000203e-02 1.769175000000000053e-01 1.692995000000000161e+01 6.007300000000000040e+01 2.281320000000000164e+03
1.499999999999999944e-02 1.769024999999999903e-01 1.697954999999999970e+01 5.987805000000000177e+01 2.281210000000000036e+03
1.600000000000000033e-02 1.769140000000000157e-01 1.728475000000000250e+01 6.073024999999999807e+01 2.281320000000000164e+03
1.700000000000000122e-02 1.769634999999999958e-01 1.795380000000000109e+01 6.303064999999999429e+01 2.281730000000000018e+03
1.800000000000000211e-02 1.770499999999999852e-01 1.889215000000000089e+01 6.659590000000000032e+01 2.282445000000000164e+03
1.900000000000000300e-02 1.771574999999999955e-01 1.984405000000000285e+01 7.064645000000000152e+01 2.283350000000000364e+03
2.000000000000000042e-02 1.772615000000000163e-01 2.051800000000000068e+01 7.414199999999999591e+01 2.284250000000000000e+03
2.100000000000000130e-02 1.773399999999999976e-01 2.071739999999999782e+01 7.623789999999999623e+01 2.284944999999999709e+03
2.200000000000000219e-02 1.773795000000000233e-01 2.041259999999999764e+01 7.661715000000000941e+01 2.285314999999999600e+03
2.299999999999999961e-02 1.773799999999999821e-01 1.973069999999999879e+01 7.555734999999999957e+01 2.285354999999999563e+03
2.400000000000000050e-02 1.773529999999999829e-01 1.887934999999999874e+01 7.373545000000000016e+01 2.285150000000000091e+03
2.500000000000000139e-02 1.773150000000000004e-01 1.804834999999999923e+01 7.189189999999999259e+01 2.284840000000000146e+03
2.600000000000000228e-02 1.772799999999999931e-01 1.733650000000000091e+01 7.052344999999999686e+01 2.284534999999999854e+03
2.700000000000000316e-02 1.772539999999999949e-01 1.672889999999999944e+01 6.972950000000000159e+01 2.284309999999999945e+03
2.800000000000000058e-02 1.772345000000000170e-01 1.612604999999999933e+01 6.924725000000000819e+01 2.284140000000000327e+03
2.900000000000000147e-02 1.772144999999999970e-01 1.540370000000000061e+01 6.862999999999999545e+01 2.283965000000000146e+03
3.000000000000000236e-02 1.771834999999999938e-01 1.447809999999999953e+01 6.748149999999999693e+01 2.283715000000000146e+03
3.099999999999999978e-02 1.771369999999999889e-01 1.335379999999999967e+01 6.565590000000000259e+01 2.283329999999999927e+03
3.200000000000000067e-02 1.770760000000000112e-01 1.213509999999999955e+01 6.335094999999999743e+01 2.282824999999999818e+03
3.300000000000000155e-02 1.770114999999999883e-01 1.099777500000000074e+01 6.105899999999999750e+01 2.282279999999999745e+03
3.400000000000000244e-02 1.769565000000000166e-01 1.013159500000000079e+01 5.939780000000000371e+01 2.281805000000000291e+03
3.500000000000000333e-02 1.769264999999999866e-01 9.677469999999999573e+00 5.889199999999999591e+01 2.281524999999999636e+03
3.600000000000000422e-02 1.769295000000000173e-01 9.683234999999999815e+00 5.979139999999999588e+01 2.281534999999999854e+03
3.700000000000000511e-02 1.769695000000000018e-01 1.009113499999999952e+01 6.198995000000000033e+01 2.281835000000000036e+03
3.799999999999999906e-02 1.770380000000000009e-01 1.075695499999999960e+01 6.505944999999999823e+01 2.282394999999999982e+03
3.899999999999999994e-02 1.771230000000000027e-01 1.148917000000000144e+01 6.837094999999999345e+01 2.283095000000000255e+03
4.000000000000000083e-02 1.772064999999999890e-01 1.209404999999999930e+01 7.125515000000000043e+01 2.283804999999999836e+03
4.100000000000000172e-02 1.772730000000000139e-01 1.241379999999999839e+01 7.315014999999999645e+01 2.284380000000000109e+03
4.200000000000000261e-02 1.773099999999999954e-01 1.235020000000000095e+01 7.370199999999999818e+01 2.284710000000000036e+03
4.300000000000000350e-02 1.773099999999999954e-01 1.187034999999999840e+01 7.280185000000000173e+01 2.284735000000000127e+03
4.400000000000000439e-02 1.772719999999999851e-01 1.099841499999999961e+01 7.056100000000000705e+01 2.284434999999999945e+03
4.499999999999999833e-02 1.771995000000000098e-01 9.796879999999999811e+00 6.724379999999999313e+01 2.283840000000000146e+03
4.599999999999999922e-02 1.771004999999999940e-01 8.346159999999999357e+00 6.318370000000000175e+01 2.283014999999999873e+03
4.700000000000000011e-02 1.769815000000000138e-01 6.727735000000000021e+00 5.870870000000000033e+01 2.282014999999999873e+03
4.800000000000000100e-02 1.768510000000000082e-01 5.014060000000000628e+00 5.409304999999999808e+01 2.280914999999999964e+03
4.900000000000000189e-02 1.767164999999999986e-01 3.266462999999999894e+00 4.954064999999999941e+01 2.279769999999999982e+03
5.000000000000000278e-02 1.765820000000000167e-01 1.538115000000000121e+00 4.519464999999999577e+01 2.278630000000000109e+03
5.100000000000000366e-02 1.764534999999999854e-01 -1.204799999999999205e-01 4.116185000000000116e+01 2.277534999999999854e+03
5.200000000000000455e-02 1.763330000000000175e-01 -1.656519999999999770e+00 3.753945000000000221e+01 2.276505000000000109e+03
5.300000000000000544e-02 1.762255000000000071e-01 -3.012572000000000028e+00 3.443455000000000155e+01 2.275579999999999927e+03
5.399999999999999939e-02 1.761340000000000128e-01 -4.127660000000000551e+00 3.197070000000000078e+01 2.274789999999999964e+03
5.500000000000000028e-02 1.760629999999999973e-01 -4.941385000000000360e+00 3.028179999999999694e+01 2.274170000000000073e+03
5.600000000000000117e-02 1.760165000000000202e-01 -5.399950000000000472e+00 2.949589999999999890e+01 2.273755000000000109e+03
5.700000000000000205e-02 1.759975000000000012e-01 -5.462429999999999453e+00 2.971544999999999703e+01 2.273565000000000055e+03
5.800000000000000294e-02 1.760094999999999854e-01 -5.105850000000000222e+00 3.099889999999999901e+01 2.273639999999999873e+03
5.900000000000000383e-02 1.760530000000000150e-01 -4.328034999999999854e+00 3.334940000000000282e+01 2.273974999999999909e+03
6.000000000000000472e-02 1.761274999999999924e-01 -3.147962500000000219e+00 3.671094999999999686e+01 2.274579999999999927e+03
6.099999999999999867e-02 1.762314999999999854e-01 -1.603835000000000122e+00 4.097344999999999970e+01 2.275434999999999945e+03
6.199999999999999956e-02 1.763609999999999900e-01 2.503549999999998832e-01 4.598335000000000150e+01 2.276510000000000218e+03
6.300000000000000044e-02 1.765125000000000166e-01 2.349190000000000111e+00 5.155790000000000362e+01 2.277774999999999636e+03
6.400000000000000133e-02 1.766800000000000037e-01 4.620483500000000632e+00 5.750000000000000000e+01 2.279180000000000291e+03
6.500000000000000222e-02 1.768575000000000008e-01 6.989969999999999573e+00 6.361299999999999955e+01 2.280685000000000400e+03
6.600000000000000311e-02 1.770404999999999895e-01 9.385794999999999888e+00 6.971405000000000030e+01 2.282239999999999782e+03
6.700000000000000400e-02 1.772229999999999916e-01 1.174292499999999961e+01 7.564570000000000505e+01 2.283805000000000291e+03
6.800000000000000488e-02 1.774014999999999898e-01 1.400672499999999943e+01 8.128569999999999141e+01 2.285329999999999927e+03
6.900000000000000577e-02 1.775720000000000076e-01 1.613609999999999900e+01 8.655365000000000464e+01 2.286800000000000182e+03
7.000000000000000666e-02 1.777320000000000011e-01 1.810500000000000043e+01 9.141464999999999463e+01 2.288190000000000055e+03
7.100000000000000755e-02 1.778819999999999846e-01 1.990249999999999986e+01 9.587700000000000955e+01 2.289489999999999782e+03
7.200000000000000844e-02 1.780220000000000136e-01 2.153190000000000026e+01 9.998720000000000141e+01 2.290704999999999927e+03
7.300000000000000933e-02 1.781524999999999914e-01 2.300779999999999959e+01 1.038206500000000005e+02 2.291845000000000255e+03
7.399999999999999634e-02 1.782765000000000044e-01 2.435235000000000127e+01 1.074675000000000011e+02 2.292925000000000182e+03
7.499999999999999722e-02 1.783954999999999846e-01 2.559190000000000254e+01 1.110210000000000008e+02 2.293970000000000255e+03
7.599999999999999811e-02 1.785125000000000184e-01 2.675260000000000105e+01 1.145665000000000049e+02 2.294989999999999782e+03
7.699999999999999900e-02 1.786294999999999966e-01 2.785784999999999911e+01 1.181699999999999875e+02 2.296015000000000327e+03
7.799999999999999989e-02 1.787485000000000046e-01 2.892555000000000121e+01 1.218735000000000070e+02 2.297050000000000182e+03
7.900000000000000078e-02 1.788700000000000012e-01 2.996715000000000018e+01 1.256939999999999884e+02 2.298109999999999673e+03
8.000000000000000167e-02 1.789934999999999998e-01 3.098669999999999902e+01 1.296204999999999927e+02 2.299190000000000055e+03
8.100000000000000255e-02 1.791200000000000014e-01 3.198149999999999693e+01 1.336220000000000141e+02 2.300295000000000073e+03
8.200000000000000344e-02 1.792479999999999907e-01 3.294270000000000209e+01 1.376480000000000246e+02 2.301404999999999745e+03
8.300000000000000433e-02 1.793760000000000077e-01 3.385640000000000072e+01 1.416374999999999886e+02 2.302519999999999982e+03
8.400000000000000522e-02 1.795014999999999805e-01 3.470520000000000493e+01 1.455200000000000102e+02 2.303619999999999891e+03
8.500000000000000611e-02 1.796234999999999915e-01 3.546930000000000405e+01 1.492235000000000014e+02 2.304684999999999945e+03
8.600000000000000699e-02 1.797394999999999965e-01 3.612825000000000131e+01 1.526795000000000186e+02 2.305699999999999818e+03
8.700000000000000788e-02 1.798470000000000069e-01 3.666214999999999691e+01 1.558240000000000123e+02 2.306644999999999982e+03
8.800000000000000877e-02 1.799450000000000216e-01 3.705290000000000106e+01 1.586014999999999873e+02 2.307510000000000218e+03
8.899999999999999578e-02 1.800315000000000110e-01 3.728579999999999472e+01 1.609689999999999941e+02 2.308275000000000091e+03
8.999999999999999667e-02 1.801055000000000017e-01 3.735040000000000049e+01 1.628980000000000246e+02 2.308934999999999945e+03
9.099999999999999756e-02 1.801659999999999928e-01 3.724110000000000298e+01 1.643734999999999786e+02 2.309474999999999909e+03
9.199999999999999845e-02 1.802130000000000121e-01 3.695834999999999582e+01 1.653975000000000080e+02 2.309900000000000091e+03
9.299999999999999933e-02 1.802464999999999762e-01 3.650840000000000174e+01 1.659890000000000043e+02 2.310210000000000036e+03
9.400000000000000022e-02 1.802674999999999972e-01 3.590314999999999657e+01 1.661814999999999998e+02 2.310404999999999745e+03
9.500000000000000111e-02 1.802759999999999918e-01 3.515980000000000416e+01 1.660215000000000032e+02 2.310494999999999891e+03
9.600000000000000200e-02 1.802749999999999908e-01 3.429949999999999477e+01 1.655649999999999977e+02 2.310494999999999891e+03
9.700000000000000289e-02 1.802644999999999942e-01 3.334649999999999892e+01 1.648750000000000000e+02 2.310409999999999854e+03
9.800000000000000377e-02 1.802469999999999906e-01 3.232685000000000031e+01 1.640180000000000007e+02 2.310275000000000091e+03
9.900000000000000466e-02 1.802239999999999953e-01 3.126670000000000016e+01 1.630570000000000164e+02 2.310085000000000036e+03
1.000000000000000056e-01 1.801989999999999981e-01 3.019169999999999732e+01 1.620540000000000020e+02 2.309859999999999673e+03
1.010000000000000064e-01 1.801714999999999844e-01 2.912525000000000119e+01 1.610625000000000000e+02 2.309625000000000000e+03
1.020000000000000073e-01 1.801444999999999852e-01 2.808784999999999954e+01 1.601279999999999859e+02 2.309394999999999982e+03
1.030000000000000082e-01 1.801190000000000013e-01 2.709645000000000081e+01 1.592839999999999918e+02 2.309170000000000073e+03
1.040000000000000091e-01 1.800950000000000051e-01 2.616335000000000122e+01 1.585545000000000186e+02 2.308960000000000036e+03
1.050000000000000100e-01 1.800749999999999851e-01 2.529629999999999868e+01 1.579499999999999886e+02 2.308775000000000091e+03
1.059999999999999970e-01 1.800569999999999948e-01 2.449795000000000300e+01 1.574679999999999893e+02 2.308619999999999891e+03
1.069999999999999979e-01 1.800430000000000086e-01 2.376614999999999966e+01 1.570955000000000155e+02 2.308489999999999782e+03
1.079999999999999988e-01 1.800315000000000110e-01 2.309420000000000073e+01 1.568070000000000164e+02 2.308390000000000327e+03
1.089999999999999997e-01 1.800225000000000020e-01 2.247135000000000105e+01 1.565709999999999980e+02 2.308300000000000182e+03
1.100000000000000006e-01 1.800140000000000073e-01 2.188400000000000034e+01 1.563454999999999870e+02 2.308215000000000146e+03
1.110000000000000014e-01 1.800049999999999983e-01 2.131640000000000157e+01 1.560874999999999773e+02 2.308139999999999873e+03
1.120000000000000023e-01 1.799950000000000161e-01 2.075199999999999889e+01 1.557529999999999859e+02 2.308045000000000073e+03
1.130000000000000032e-01 1.799824999999999897e-01 2.017470000000000141e+01 1.553004999999999995e+02 2.307930000000000291e+03
1.140000000000000041e-01 1.799660000000000148e-01 1.956990000000000052e+01 1.546945000000000050e+02 2.307789999999999964e+03
1.150000000000000050e-01 1.799445000000000072e-01 1.892575000000000074e+01 1.539069999999999823e+02 2.307605000000000018e+03
1.160000000000000059e-01 1.799179999999999946e-01 1.823375000000000057e+01 1.529234999999999900e+02 2.307375000000000000e+03
1.170000000000000068e-01 1.798854999999999760e-01 1.748965000000000103e+01 1.517375000000000114e+02 2.307100000000000364e+03
1.180000000000000077e-01 1.798474999999999935e-01 1.669375000000000142e+01 1.503584999999999923e+02 2.306765000000000327e+03
1.190000000000000085e-01 1.798035000000000050e-01 1.585075000000000145e+01 1.488054999999999950e+02 2.306390000000000327e+03
1.200000000000000094e-01 1.797549999999999981e-01 1.496979999999999933e+01 1.471114999999999782e+02 2.305970000000000255e+03
1.209999999999999964e-01 1.797024999999999872e-01 1.406370000000000076e+01 1.453160000000000025e+02 2.305514999999999873e+03
1.219999999999999973e-01 1.796474999999999878e-01 1.314815000000000111e+01 1.434675000000000011e+02 2.305039999999999964e+03
1.229999999999999982e-01 1.795910000000000006e-01 1.224075999999999986e+01 1.416175000000000068e+02 2.304550000000000182e+03
1.239999999999999991e-01 1.795350000000000001e-01 1.136003999999999969e+01 1.398170000000000073e+02 2.304055000000000291e+03
1.250000000000000000e-01 1.794800000000000006e-01 1.052402999999999977e+01 1.381150000000000091e+02 2.303585000000000036e+03
1.260000000000000009e-01 1.794290000000000052e-01 9.749459999999999127e+00 1.365570000000000164e+02 2.303135000000000218e+03
1.270000000000000018e-01 1.793819999999999859e-01 9.050720000000000098e+00 1.351779999999999973e+02 2.302719999999999800e+03
1.280000000000000027e-01 1.793405000000000138e-01 8.439149999999999707e+00 1.340054999999999836e+02 2.302355000000000018e+03
1.290000000000000036e-01 1.793045000000000055e-01 7.922449999999999548e+00 1.330554999999999950e+02 2.302039999999999964e+03
1.300000000000000044e-01 1.792754999999999765e-01 7.504640000000000200e+00 1.323344999999999914e+02 2.301775000000000091e+03
1.310000000000000053e-01 1.792529999999999957e-01 7.185924999999999230e+00 1.318385000000000105e+02 2.301569999999999709e+03
1.320000000000000062e-01 1.792369999999999797e-01 6.962984999999999758e+00 1.315540000000000020e+02 2.301425000000000182e+03
1.330000000000000071e-01 1.792274999999999840e-01 6.829365000000000130e+00 1.314615000000000009e+02 2.301335000000000036e+03
1.340000000000000080e-01 1.792235000000000078e-01 6.775994999999999990e+00 1.315339999999999918e+02 2.301289999999999964e+03
1.350000000000000089e-01 1.792245000000000088e-01 6.791764999999999830e+00 1.317419999999999902e+02 2.301289999999999964e+03
1.360000000000000098e-01 1.792289999999999994e-01 6.864209999999999923e+00 1.320539999999999736e+02 2.301324999999999818e+03
1.370000000000000107e-01 1.792364999999999930e-01 6.980050000000000310e+00 1.324354999999999905e+02 2.301385000000000218e+03
1.380000000000000115e-01 1.792464999999999753e-01 7.125880000000000436e+00 1.328569999999999993e+02 2.301465000000000146e+03
1.390000000000000124e-01 1.792575000000000141e-01 7.288605000000000445e+00 1.332875000000000227e+02 2.301560000000000400e+03
1.400000000000000133e-01 1.792690000000000117e-01 7.456005000000000216e+00 1.337005000000000052e+02 2.301654999999999745e+03
1.410000000000000142e-01 1.792799999999999949e-01 7.617110000000000269e+00 1.340734999999999957e+02 2.301750000000000000e+03
1.420000000000000151e-01 1.792900000000000049e-01 7.762525000000000119e+00 1.343885000000000218e+02 2.301835000000000036e+03
1.430000000000000160e-01 1.792984999999999995e-01 7.884719999999999729e+00 1.346315000000000168e+02 2.301909999999999854e+03
1.440000000000000169e-01 1.793049999999999922e-01 7.978170000000000428e+00 1.347939999999999827e+02 2.301965000000000146e+03
1.450000000000000178e-01 1.793089999999999962e-01 8.039429999999999410e+00 1.348729999999999905e+02 2.302005000000000109e+03
1.459999999999999909e-01 1.793104999999999838e-01 8.067149999999999821e+00 1.348695000000000164e+02 2.302025000000000091e+03
1.469999999999999918e-01 1.793099999999999972e-01 8.061894999999999811e+00 1.347884999999999991e+02 2.302019999999999982e+03
1.479999999999999927e-01 1.793079999999999952e-01 8.025964999999999350e+00 1.346405000000000030e+02 2.302000000000000000e+03
1.489999999999999936e-01 1.793035000000000045e-01 7.963079999999999714e+00 1.344365000000000236e+02 2.301965000000000146e+03
1.499999999999999944e-01 1.792974999999999985e-01 7.877995000000000303e+00 1.341904999999999859e+02 2.301914999999999964e+03
1.509999999999999953e-01 1.792900000000000049e-01 7.776085000000000136e+00 1.339180000000000064e+02 2.301854999999999563e+03
1.519999999999999962e-01 1.792819999999999969e-01 7.662914999999999921e+00 1.336324999999999932e+02 2.301789999999999964e+03
1.529999999999999971e-01 1.792745000000000033e-01 7.543795000000000250e+00 1.333474999999999966e+02 2.301720000000000255e+03
1.539999999999999980e-01 1.792654999999999943e-01 7.423465000000000202e+00 1.330720000000000027e+02 2.301650000000000091e+03
1.549999999999999989e-01 1.792580000000000007e-01 7.305725000000000691e+00 1.328149999999999977e+02 2.301579999999999927e+03
1.559999999999999998e-01 1.792504999999999793e-01 7.193340000000000067e+00 1.325794999999999959e+02 2.301515000000000327e+03
1.570000000000000007e-01 1.792435000000000000e-01 7.087894999999999612e+00 1.323669999999999902e+02 2.301454999999999927e+03
1.580000000000000016e-01 1.792370000000000074e-01 6.989874999999999616e+00 1.321739999999999782e+02 2.301400000000000091e+03
1.590000000000000024e-01 1.792310000000000014e-01 6.898765000000000036e+00 1.319964999999999975e+02 2.301345000000000255e+03
