# t [s], A [cm^2], U [cm/s], P [cPa], c [cm/s]
1.000000000000000021e-03 7.799065000000000580e-01 5.588499999999996248e-03 1.009499999999999886e+02 1.634840000000000146e+03
2.000000000000000042e-03 7.798939999999999761e-01 -2.953350000000003021e-04 1.009189999999999969e+02 1.634829999999999927e+03
3.000000000000000062e-03 7.799734999999999863e-01 1.187275499999999873e-01 1.010474999999999994e+02 1.634860000000000127e+03
4.000000000000000083e-03 7.800270000000000259e-01 2.136531500000000139e-01 1.011597999999999900e+02 1.634889999999999873e+03
5.000000000000000104e-03 7.799679999999999946e-01 1.570770000000000222e-01 1.010390000000000015e+02 1.634865000000000009e+03
6.000000000000000125e-03 7.798704999999999110e-01 3.719400000000000484e-02 1.007479999999999905e+02 1.634804999999999836e+03
7.000000000000000146e-03 7.797794999999999588e-01 -8.514300000000002422e-02 1.003829999999999956e+02 1.634724999999999909e+03
8.000000000000000167e-03 7.796199999999999797e-01 -3.243849999999999234e-01 9.981475000000000364e+01 1.634599999999999909e+03
9.000000000000001055e-03 7.793710000000000360e-01 -7.163400000000000878e-01 9.895795000000001096e+01 1.634414999999999964e+03
1.000000000000000194e-02 7.790304999999999591e-01 -1.252889999999999837e+00 9.777559999999999718e+01 1.634164999999999964e+03
1.099999999999999936e-02 7.785680000000000378e-01 -1.961600000000000232e+00 9.618690000000000850e+01 1.633819999999999936e+03
1.200000000000000025e-02 7.779784999999999062e-01 -2.826665000000000205e+00 9.415549999999998931e+01 1.633365000000000009e+03
1.300000000000000114e-02 7.773309999999999942e-01 -3.714069999999999538e+00 9.181074999999999875e+01 1.632829999999999927e+03
1.400000000000000203e-02 7.767364999999999409e-01 -4.419126000000000332e+00 8.942695000000000505e+01 1.632264999999999873e+03
1.499999999999999944e-02 7.762759999999999661e-01 -4.776949999999999363e+00 8.728135000000000332e+01 1.631735000000000127e+03
1.600000000000000033e-02 7.759659999999999336e-01 -4.733014999999999972e+00 8.553110000000000923e+01 1.631259999999999991e+03
1.700000000000000122e-02 7.757605000000000750e-01 -4.345005000000000450e+00 8.416939999999999600e+01 1.630865000000000009e+03
1.800000000000000211e-02 7.755814999999999237e-01 -3.740560000000000329e+00 8.305719999999999459e+01 1.630519999999999982e+03
1.900000000000000300e-02 7.753544999999999465e-01 -3.060201999999999867e+00 8.199450000000000216e+01 1.630184999999999945e+03
2.000000000000000042e-02 7.750334999999999308e-01 -2.405978499999999798e+00 8.080385000000001128e+01 1.629835000000000036e+03
2.100000000000000130e-02 7.746150000000000535e-01 -1.812314999999999898e+00 7.939300000000000068e+01 1.629445000000000164e+03
2.200000000000000219e-02 7.741325000000000012e-01 -1.249765000000000015e+00 7.777479999999999905e+01 1.629005000000000109e+03
2.299999999999999961e-02 7.736330000000000151e-01 -6.574299999999999589e-01 7.603864999999998986e+01 1.628539999999999964e+03
2.400000000000000050e-02 7.731550000000000367e-01 1.481500000000002260e-02 7.429294999999999050e+01 1.628065000000000055e+03
2.500000000000000139e-02 7.727124999999999133e-01 7.746550000000000935e-01 7.260935000000000628e+01 1.627599999999999909e+03
2.600000000000000228e-02 7.722875000000000156e-01 1.575854999999999784e+00 7.098794999999999789e+01 1.627150000000000091e+03
2.700000000000000316e-02 7.718384999999999829e-01 2.326475000000000293e+00 6.935205000000000553e+01 1.626695000000000164e+03
2.800000000000000058e-02 7.713129999999999153e-01 2.911080000000000112e+00 6.756785000000000707e+01 1.626210000000000036e+03
2.900000000000000147e-02 7.706640000000000157e-01 3.219904999999999795e+00 6.548259999999999081e+01 1.625659999999999854e+03
3.000000000000000236e-02 7.698625000000000052e-01 3.177825000000000344e+00 6.297064999999999912e+01 1.625029999999999973e+03
3.099999999999999978e-02 7.689094999999999125e-01 2.765190000000000037e+00 5.997480000000000189e+01 1.624299999999999955e+03
3.200000000000000067e-02 7.678359999999999630e-01 2.024049999999999905e+00 5.653054999999999808e+01 1.623469999999999800e+03
3.300000000000000155e-02 7.666994999999999783e-01 1.047314999999999330e+00 5.276465000000000316e+01 1.622559999999999945e+03
3.400000000000000244e-02 7.655674999999999564e-01 -4.285000000000049880e-02 4.887134999999999962e+01 1.621610000000000127e+03
3.500000000000000333e-02 7.645079999999999654e-01 -1.120565000000000033e+00 4.507620000000000005e+01 1.620670000000000073e+03
3.600000000000000422e-02 7.635780000000000900e-01 -2.076200000000000045e+00 4.159909999999999997e+01 1.619789999999999964e+03
3.700000000000000511e-02 7.628154999999999797e-01 -2.828824999999999701e+00 3.862485000000000213e+01 1.619005000000000109e+03
3.799999999999999906e-02 7.622444999999999915e-01 -3.329380000000000006e+00 3.628584999999999638e+01 1.618360000000000127e+03
3.899999999999999994e-02 7.618705000000000060e-01 -3.557419000000000331e+00 3.465700000000000358e+01 1.617875000000000000e+03
4.000000000000000083e-02 7.616890000000000605e-01 -3.513424999999999798e+00 3.376049999999999329e+01 1.617559999999999945e+03
4.100000000000000172e-02 7.616880000000000317e-01 -3.209610000000000074e+00 3.357795000000000130e+01 1.617425000000000182e+03
4.200000000000000261e-02 7.618540000000000312e-01 -2.661677000000000071e+00 3.406550000000000011e+01 1.617450000000000045e+03
4.300000000000000350e-02 7.621725000000000305e-01 -1.883380000000000054e+00 3.516779999999999973e+01 1.617639999999999873e+03
4.400000000000000439e-02 7.626319999999999766e-01 -8.849399999999998379e-01 3.682780000000000342e+01 1.617964999999999918e+03
4.499999999999999833e-02 7.632214999999999971e-01 3.251550000000000828e-01 3.899049999999999727e+01 1.618429999999999836e+03
4.599999999999999922e-02 7.639285000000000103e-01 1.736159999999999926e+00 4.160264999999999702e+01 1.619014999999999873e+03
4.700000000000000011e-02 7.647405000000000452e-01 3.330950000000000077e+00 4.460849999999999937e+01 1.619704999999999927e+03
4.800000000000000100e-02 7.656389999999999585e-01 5.083215000000000039e+00 4.794579999999999842e+01 1.620485000000000127e+03
4.900000000000000189e-02 7.666025000000000755e-01 6.956845000000001278e+00 5.154354999999999620e+01 1.621345000000000027e+03
5.000000000000000278e-02 7.676074999999999982e-01 8.907706499999999750e+00 5.532200000000000273e+01 1.622259999999999991e+03
5.100000000000000366e-02 7.686304999999999943e-01 1.088710000000000022e+01 5.919604999999999961e+01 1.623204999999999927e+03
5.200000000000000455e-02 7.696460000000000523e-01 1.284594500000000039e+01 6.308020000000000493e+01 1.624174999999999955e+03
5.300000000000000544e-02 7.706340000000000412e-01 1.473912499999999959e+01 6.689464999999999861e+01 1.625134999999999991e+03
5.399999999999999939e-02 7.715775000000000272e-01 1.652874500000000069e+01 7.057129999999999370e+01 1.626075000000000045e+03
5.500000000000000028e-02 7.724664999999999448e-01 1.818659999999999854e+01 7.405769999999999698e+01 1.626990000000000009e+03
5.600000000000000117e-02 7.732944999999999958e-01 1.969480000000000075e+01 7.732014999999999816e+01 1.627849999999999909e+03
5.700000000000000205e-02 7.740610000000001101e-01 2.104529999999999745e+01 8.034379999999998745e+01 1.628664999999999964e+03
5.800000000000000294e-02 7.747694999999999999e-01 2.223899999999999721e+01 8.313139999999999930e+01 1.629420000000000073e+03
5.900000000000000383e-02 7.754270000000000884e-01 2.328374999999999773e+01 8.570064999999999600e+01 1.630130000000000109e+03
6.000000000000000472e-02 7.760430000000000383e-01 2.419275000000000020e+01 8.808080000000001064e+01 1.630789999999999964e+03
6.099999999999999867e-02 7.766269999999999563e-01 2.498304999999999865e+01 9.030934999999999491e+01 1.631414999999999964e+03
6.199999999999999956e-02 7.771909999999999652e-01 2.567405000000000115e+01 9.242824999999999136e+01 1.632005000000000109e+03
6.300000000000000044e-02 7.777454999999999785e-01 2.628634999999999877e+01 9.448140000000000782e+01 1.632579999999999927e+03
6.400000000000000133e-02 7.783020000000000493e-01 2.684045000000000059e+01 9.651095000000000823e+01 1.633139999999999873e+03
6.500000000000000222e-02 7.788684999999999636e-01 2.735575000000000045e+01 9.855525000000000091e+01 1.633699999999999818e+03
6.600000000000000311e-02 7.794535000000000213e-01 2.784895000000000209e+01 1.006448000000000036e+02 1.634269999999999982e+03
6.700000000000000400e-02 7.800599999999999756e-01 2.833299999999999841e+01 1.028029999999999973e+02 1.634849999999999909e+03
6.800000000000000488e-02 7.806900000000001061e-01 2.881615000000000038e+01 1.050399999999999920e+02 1.635445000000000164e+03
6.900000000000000577e-02 7.813419999999999810e-01 2.930105000000000004e+01 1.073555000000000064e+02 1.636059999999999945e+03
7.000000000000000666e-02 7.820100000000000939e-01 2.978484999999999872e+01 1.097360000000000042e+02 1.636690000000000055e+03
7.100000000000000755e-02 7.826865000000000627e-01 3.025955000000000084e+01 1.121569999999999965e+02 1.637325000000000045e+03
7.200000000000000844e-02 7.833604999999999041e-01 3.071284999999999954e+01 1.145844999999999914e+02 1.637969999999999800e+03
7.300000000000000933e-02 7.840205000000000091e-01 3.112959999999999638e+01 1.169779999999999944e+02 1.638605000000000018e+03
7.399999999999999634e-02 7.846539999999999626e-01 3.149279999999999902e+01 1.192920000000000016e+02 1.639224999999999909e+03
7.499999999999999722e-02 7.852494999999999337e-01 3.178560000000000230e+01 1.214805000000000064e+02 1.639815000000000055e+03
7.599999999999999811e-02 7.857954999999999801e-01 3.199230000000000018e+01 1.235024999999999977e+02 1.640369999999999891e+03
7.699999999999999900e-02 7.862829999999999542e-01 3.209929999999999950e+01 1.253185000000000002e+02 1.640875000000000000e+03
7.799999999999999989e-02 7.867044999999999177e-01 3.209620000000000317e+01 1.268995000000000033e+02 1.641324999999999818e+03
7.900000000000000078e-02 7.870555000000000190e-01 3.197630000000000194e+01 1.282219999999999800e+02 1.641710000000000036e+03
8.000000000000000167e-02 7.873345000000000482e-01 3.173664999999999736e+01 1.292750000000000057e+02 1.642034999999999854e+03
8.100000000000000255e-02 7.875400000000000178e-01 3.137845000000000084e+01 1.300544999999999902e+02 1.642284999999999854e+03
8.200000000000000344e-02 7.876760000000000428e-01 3.090680000000000049e+01 1.305674999999999955e+02 1.642470000000000027e+03
8.300000000000000433e-02 7.877464999999999051e-01 3.033020000000000138e+01 1.308290000000000077e+02 1.642585000000000036e+03
8.400000000000000522e-02 7.877589999999999870e-01 2.966055000000000064e+01 1.308609999999999900e+02 1.642644999999999982e+03
8.500000000000000611e-02 7.877205000000000457e-01 2.891230000000000189e+01 1.306924999999999955e+02 1.642644999999999982e+03
8.600000000000000699e-02 7.876400000000000068e-01 2.810185000000000244e+01 1.303564999999999827e+02 1.642595000000000027e+03
8.700000000000000788e-02 7.875280000000000058e-01 2.724680000000000035e+01 1.298885000000000218e+02 1.642509999999999991e+03
8.800000000000000877e-02 7.873935000000000795e-01 2.636540000000000106e+01 1.293265000000000100e+02 1.642400000000000091e+03
8.899999999999999578e-02 7.872460000000000013e-01 2.547569999999999979e+01 1.287065000000000055e+02 1.642260000000000218e+03
8.999999999999999667e-02 7.870939999999999603e-01 2.459440000000000026e+01 1.280625000000000000e+02 1.642115000000000009e+03
9.099999999999999756e-02 7.869459999999999233e-01 2.373665000000000092e+01 1.274274999999999949e+02 1.641960000000000036e+03
9.199999999999999845e-02 7.868085000000000218e-01 2.291525000000000034e+01 1.268269999999999982e+02 1.641809999999999945e+03
9.299999999999999933e-02 7.866854999999999265e-01 2.213994999999999891e+01 1.262814999999999941e+02 1.641674999999999955e+03
9.400000000000000022e-02 7.865815000000000445e-01 2.141744999999999877e+01 1.258060000000000116e+02 1.641545000000000073e+03
9.500000000000000111e-02 7.864959999999999729e-01 2.075104999999999933e+01 1.254085000000000036e+02 1.641434999999999945e+03
9.600000000000000200e-02 7.864305000000000323e-01 2.014070000000000249e+01 1.250904999999999916e+02 1.641340000000000146e+03
9.700000000000000289e-02 7.863820000000000254e-01 1.958334999999999937e+01 1.248470000000000084e+02 1.641264999999999873e+03
9.800000000000000377e-02 7.863469999999999072e-01 1.907315000000000182e+01 1.246674999999999898e+02 1.641204999999999927e+03
9.900000000000000466e-02 7.863219999999999654e-01 1.860190000000000055e+01 1.245370000000000061e+02 1.641155000000000200e+03
1.000000000000000056e-01 7.863020000000000564e-01 1.815974999999999895e+01 1.244385000000000048e+02 1.641119999999999891e+03
1.010000000000000064e-01 7.862804999999999378e-01 1.773560000000000159e+01 1.243495000000000061e+02 1.641090000000000146e+03
1.020000000000000073e-01 7.862530000000000907e-01 1.731779999999999831e+01 1.242494999999999976e+02 1.641049999999999955e+03
1.030000000000000082e-01 7.862130000000000507e-01 1.689489999999999981e+01 1.241165000000000020e+02 1.641014999999999873e+03
1.040000000000000091e-01 7.861549999999999372e-01 1.645599999999999952e+01 1.239310000000000116e+02 1.640965000000000146e+03
1.050000000000000100e-01 7.860765000000000668e-01 1.599169999999999980e+01 1.236740000000000066e+02 1.640894999999999982e+03
1.059999999999999970e-01 7.859730000000000327e-01 1.549424999999999919e+01 1.233325000000000102e+02 1.640815000000000055e+03
1.069999999999999979e-01 7.858429999999999582e-01 1.495824999999999960e+01 1.228965000000000032e+02 1.640704999999999927e+03
1.079999999999999988e-01 7.856859999999999955e-01 1.438090000000000046e+01 1.223615000000000066e+02 1.640575000000000045e+03
1.089999999999999997e-01 7.855024999999999924e-01 1.376220500000000158e+01 1.217274999999999920e+02 1.640425000000000182e+03
1.100000000000000006e-01 7.852955000000000352e-01 1.310488499999999945e+01 1.210010000000000048e+02 1.640244999999999891e+03
1.110000000000000014e-01 7.850679999999999881e-01 1.241443500000000100e+01 1.201940000000000026e+02 1.640049999999999955e+03
1.120000000000000023e-01 7.848249999999999948e-01 1.169880000000000031e+01 1.193205000000000098e+02 1.639835000000000036e+03
1.130000000000000032e-01 7.845735000000000348e-01 1.096806000000000125e+01 1.184025000000000034e+02 1.639605000000000018e+03
1.140000000000000041e-01 7.843179999999999596e-01 1.023382499999999951e+01 1.174620000000000033e+02 1.639369999999999891e+03
1.150000000000000050e-01 7.840664999999999996e-01 9.508734999999999715e+00 1.165240000000000009e+02 1.639130000000000109e+03
1.160000000000000059e-01 7.838255000000000638e-01 8.805889999999999773e+00 1.156140000000000043e+02 1.638900000000000091e+03
1.170000000000000068e-01 7.836024999999999796e-01 8.137999999999999901e+00 1.147574999999999932e+02 1.638670000000000073e+03
1.180000000000000077e-01 7.834025000000000016e-01 7.517059999999999853e+00 1.139770000000000039e+02 1.638465000000000146e+03
1.190000000000000085e-01 7.832299999999999818e-01 6.953495000000000203e+00 1.132940000000000111e+02 1.638275000000000091e+03
1.200000000000000094e-01 7.830900000000000638e-01 6.455874999999999808e+00 1.127235000000000014e+02 1.638115000000000009e+03
1.209999999999999964e-01 7.829850000000000421e-01 6.030445000000000277e+00 1.122785000000000082e+02 1.637985000000000127e+03
1.219999999999999973e-01 7.829150000000000276e-01 5.680920000000000414e+00 1.119650000000000034e+02 1.637880000000000109e+03
1.229999999999999982e-01 7.828804999999999792e-01 5.408369999999999678e+00 1.117845000000000084e+02 1.637815000000000055e+03
1.239999999999999991e-01 7.828800000000000203e-01 5.211304999999999410e+00 1.117334999999999923e+02 1.637779999999999973e+03
1.250000000000000000e-01 7.829105000000000647e-01 5.085820000000000007e+00 1.118040000000000020e+02 1.637775000000000091e+03
1.260000000000000009e-01 7.829679999999999973e-01 5.025895000000000223e+00 1.119834999999999923e+02 1.637795000000000073e+03
1.270000000000000018e-01 7.830490000000001061e-01 5.023769999999999847e+00 1.122555000000000121e+02 1.637849999999999909e+03
1.280000000000000027e-01 7.831464999999999677e-01 5.070375000000000298e+00 1.126020000000000039e+02 1.637920000000000073e+03
1.290000000000000036e-01 7.832570000000000920e-01 5.155775000000000219e+00 1.130044999999999931e+02 1.638000000000000000e+03
1.300000000000000044e-01 7.833745000000000847e-01 5.269655000000000200e+00 1.134424999999999955e+02 1.638099999999999909e+03
1.310000000000000053e-01 7.834940000000000238e-01 5.401720000000000077e+00 1.138960000000000008e+02 1.638204999999999927e+03
1.320000000000000062e-01 7.836110000000000575e-01 5.542099999999999582e+00 1.143464999999999918e+02 1.638309999999999945e+03
1.330000000000000071e-01 7.837210000000000010e-01 5.681675000000000253e+00 1.147785000000000082e+02 1.638414999999999964e+03
1.340000000000000080e-01 7.838214999999999488e-01 5.812379999999999214e+00 1.151769999999999925e+02 1.638519999999999982e+03
1.350000000000000089e-01 7.839084999999998971e-01 5.927374999999999616e+00 1.155319999999999965e+02 1.638610000000000127e+03
1.360000000000000098e-01 7.839814999999999978e-01 6.021205000000000140e+00 1.158335000000000008e+02 1.638690000000000055e+03
1.370000000000000107e-01 7.840380000000000127e-01 6.089864999999999640e+00 1.160769999999999982e+02 1.638755000000000109e+03
1.380000000000000115e-01 7.840795000000000403e-01 6.130819999999999936e+00 1.162605000000000075e+02 1.638809999999999945e+03
1.390000000000000124e-01 7.841055000000000108e-01 6.142970000000000041e+00 1.163830000000000098e+02 1.638855000000000018e+03
1.400000000000000133e-01 7.841160000000000352e-01 6.126549999999999940e+00 1.164484999999999957e+02 1.638880000000000109e+03
1.410000000000000142e-01 7.841145000000000476e-01 6.083000000000000185e+00 1.164619999999999891e+02 1.638889999999999873e+03
1.420000000000000151e-01 7.841009999999999369e-01 6.014815000000000467e+00 1.164279999999999973e+02 1.638889999999999873e+03
1.430000000000000160e-01 7.840789999999999704e-01 5.925324999999999953e+00 1.163559999999999945e+02 1.638880000000000109e+03
1.440000000000000169e-01 7.840500000000000247e-01 5.818505000000000038e+00 1.162535000000000025e+02 1.638860000000000127e+03
1.450000000000000178e-01 7.840175000000000338e-01 5.698745000000000616e+00 1.161299999999999955e+02 1.638840000000000146e+03
1.459999999999999909e-01 7.839819999999999567e-01 5.570605000000000473e+00 1.159934999999999974e+02 1.638809999999999945e+03
1.469999999999999918e-01 7.839464999999999906e-01 5.438589999999999591e+00 1.158530000000000086e+02 1.638779999999999973e+03
1.479999999999999927e-01 7.839130000000000820e-01 5.306945000000000690e+00 1.157150000000000034e+02 1.638750000000000000e+03
1.489999999999999936e-01 7.838829999999999965e-01 5.179479999999999862e+00 1.155865000000000009e+02 1.638719999999999800e+03
1.499999999999999944e-01 7.838570000000000260e-01 5.059390000000000498e+00 1.154719999999999942e+02 1.638690000000000055e+03
1.509999999999999953e-01 7.838365000000000471e-01 4.949164999999999814e+00 1.153744999999999976e+02 1.638664999999999964e+03
1.519999999999999962e-01 7.838205000000000311e-01 4.850495000000000445e+00 1.152959999999999923e+02 1.638639999999999873e+03
1.529999999999999971e-01 7.838100000000000067e-01 4.764314999999999856e+00 1.152360000000000042e+02 1.638625000000000000e+03
1.539999999999999980e-01 7.838034999999999863e-01 4.690760000000000041e+00 1.151940000000000026e+02 1.638615000000000009e+03
1.549999999999999989e-01 7.838005000000000111e-01 4.629294999999999938e+00 1.151659999999999968e+02 1.638605000000000018e+03
1.559999999999999998e-01 7.838005000000000111e-01 4.578800000000000203e+00 1.151494999999999891e+02 1.638595000000000027e+03
1.570000000000000007e-01 7.838009999999999700e-01 4.537710000000000576e+00 1.151394999999999982e+02 1.638590000000000146e+03
1.580000000000000016e-01 7.838009999999999700e-01 4.504165000000000418e+00 1.151310000000000002e+02 1.638590000000000146e+03
1.590000000000000024e-01 7.838000000000000522e-01 4.476150000000000517e+00 1.151195000000000022e+02 1.638585000000000036e+03
