# t [s], A [cm^2], U [cm/s], P [cPa], c [cm/s]
1.000000000000000021e-03 4.631279999999999841e-01 4.554750000000003241e-03 9.807509999999999195e+01 1.595625000000000000e+03
2.000000000000000042e-03 4.631214999999999637e-01 2.151064999999999748e-03 9.804829999999999757e+01 1.595619999999999891e+03
3.000000000000000062e-03 4.631705000000000405e-01 1.221841000000000038e-01 9.817310000000000514e+01 1.595650000000000091e+03
4.000000000000000083e-03 4.632014999999999882e-01 2.125550999999999968e-01 9.827975000000000705e+01 1.595675000000000182e+03
5.000000000000000104e-03 4.631680000000000241e-01 1.551914999999999822e-01 9.816649999999999920e+01 1.595654999999999973e+03
6.000000000000000125e-03 4.631104999999999805e-01 3.251850000000000573e-02 9.788454999999999018e+01 1.595590000000000146e+03
7.000000000000000146e-03 4.630545000000000355e-01 -9.877000000000002444e-02 9.751654999999999518e+01 1.595505000000000109e+03
8.000000000000000167e-03 4.629575000000000218e-01 -3.419449999999999434e-01 9.694740000000000180e+01 1.595369999999999891e+03
9.000000000000001055e-03 4.628065000000000095e-01 -7.317500000000000115e-01 9.609444999999999482e+01 1.595174999999999955e+03
1.000000000000000194e-02 4.626010000000000399e-01 -1.257829999999999782e+00 9.492494999999999550e+01 1.594900000000000091e+03
1.099999999999999936e-02 4.623244999999999716e-01 -1.943585000000000118e+00 9.336844999999999573e+01 1.594525000000000091e+03
1.200000000000000025e-02 4.619710000000000205e-01 -2.780825000000000102e+00 9.138489999999998759e+01 1.594039999999999964e+03
1.300000000000000114e-02 4.615759999999999863e-01 -3.654139999999999944e+00 8.907965000000000089e+01 1.593454999999999927e+03
1.400000000000000203e-02 4.612025000000000152e-01 -4.371538499999999772e+00 8.670189999999999486e+01 1.592829999999999927e+03
1.499999999999999944e-02 4.609035000000000215e-01 -4.764396049999999327e+00 8.452750000000000341e+01 1.592235000000000127e+03
1.600000000000000033e-02 4.606964999999999533e-01 -4.762246499999999827e+00 8.273570000000000846e+01 1.591700000000000045e+03
1.700000000000000122e-02 4.605609999999999982e-01 -4.405135000000000467e+00 8.135360000000000014e+01 1.591250000000000000e+03
1.800000000000000211e-02 4.604549999999999477e-01 -3.809975000000000112e+00 8.027100000000000080e+01 1.590865000000000009e+03
1.900000000000000300e-02 4.603319999999999634e-01 -3.117843999999999838e+00 7.930035000000000878e+01 1.590514999999999873e+03
2.000000000000000042e-02 4.601594999999999991e-01 -2.442387699999999828e+00 7.825414999999999566e+01 1.590155000000000200e+03
2.100000000000000130e-02 4.599285000000000179e-01 -1.835594999999999866e+00 7.701245000000000118e+01 1.589755000000000109e+03
2.200000000000000219e-02 4.596525000000000194e-01 -1.283334999999999892e+00 7.555445000000000277e+01 1.589309999999999945e+03
2.299999999999999961e-02 4.593570000000000153e-01 -7.304949999999998944e-01 7.394415000000000759e+01 1.588824999999999818e+03
2.400000000000000050e-02 4.590665000000000440e-01 -1.205549999999999677e-01 7.228284999999999627e+01 1.588329999999999927e+03
2.500000000000000139e-02 4.587944999999999940e-01 5.701450000000001239e-01 7.065394999999999470e+01 1.587835000000000036e+03
2.600000000000000228e-02 4.585369999999999724e-01 1.315649999999999764e+00 6.908365000000000578e+01 1.587339999999999918e+03
2.700000000000000316e-02 4.582745000000000291e-01 2.042874999999999552e+00 6.752644999999999698e+01 1.586855000000000018e+03
2.800000000000000058e-02 4.579790000000000250e-01 2.648889999999999745e+00 6.587574999999999648e+01 1.586349999999999909e+03
2.900000000000000147e-02 4.576209999999999445e-01 3.026625000000000121e+00 6.399329999999999785e+01 1.585789999999999964e+03
3.000000000000000236e-02 4.571800000000000308e-01 3.092399999999999594e+00 6.174974999999999881e+01 1.585154999999999973e+03
3.099999999999999978e-02 4.566494999999999860e-01 2.808625000000000149e+00 5.906534999999999513e+01 1.584414999999999964e+03
3.200000000000000067e-02 4.560409999999999742e-01 2.194569999999999688e+00 5.593904999999999461e+01 1.583579999999999927e+03
3.300000000000000155e-02 4.553810000000000358e-01 1.323069999999999524e+00 5.245779999999999887e+01 1.582644999999999982e+03
3.400000000000000244e-02 4.547075000000000422e-01 3.036499999999993094e-01 4.878340000000000032e+01 1.581654999999999973e+03
3.500000000000000333e-02 4.540619999999999656e-01 -7.399699999999995725e-01 4.512349999999999994e+01 1.580655000000000200e+03
3.600000000000000422e-02 4.534804999999999531e-01 -1.691089999999999538e+00 4.169774999999999920e+01 1.579694999999999936e+03
3.700000000000000511e-02 4.529929999999999790e-01 -2.455189999999999539e+00 3.870635000000000048e+01 1.578829999999999927e+03
3.799999999999999906e-02 4.526189999999999936e-01 -2.967340000000000089e+00 3.630785000000000196e+01 1.578099999999999909e+03
3.899999999999999994e-02 4.523690000000000211e-01 -3.192230000000000345e+00 3.460819999999999652e+01 1.577539999999999964e+03
4.000000000000000083e-02 4.522450000000000081e-01 -3.119019999999999904e+00 3.365935000000000343e+01 1.577170000000000073e+03
4.100000000000000172e-02 4.522420000000000329e-01 -2.753624999999999989e+00 3.346710000000000207e+01 1.577000000000000000e+03
4.200000000000000261e-02 4.523534999999999640e-01 -2.110504500000000228e+00 3.400280000000000058e+01 1.577029999999999973e+03
4.300000000000000350e-02 4.525704999999999867e-01 -1.206109999999999793e+00 3.521739999999999782e+01 1.577250000000000000e+03
4.400000000000000439e-02 4.528849999999999820e-01 -5.539000000000005031e-02 3.705275000000000318e+01 1.577644999999999982e+03
4.499999999999999833e-02 4.532884999999999831e-01 1.328449999999999687e+00 3.944894999999999641e+01 1.578210000000000036e+03
4.599999999999999922e-02 4.537729999999999819e-01 2.931549999999999656e+00 4.234664999999999679e+01 1.578930000000000064e+03
4.700000000000000011e-02 4.543294999999999417e-01 4.735784999999999911e+00 4.568545000000000300e+01 1.579775000000000091e+03
4.800000000000000100e-02 4.549480000000000190e-01 6.715794999999999071e+00 4.940125000000000455e+01 1.580735000000000127e+03
4.900000000000000189e-02 4.556160000000000210e-01 8.837559999999999860e+00 5.342314999999999969e+01 1.581795000000000073e+03
5.000000000000000278e-02 4.563185000000000158e-01 1.105885000000000140e+01 5.767300000000000182e+01 1.582934999999999945e+03
5.100000000000000366e-02 4.570404999999999607e-01 1.333162499999999895e+01 6.206645000000000323e+01 1.584130000000000109e+03
5.200000000000000455e-02 4.577679999999999527e-01 1.560590000000000011e+01 6.651749999999999829e+01 1.585355000000000018e+03
5.300000000000000544e-02 4.584860000000000047e-01 1.783353999999999928e+01 7.094320000000000448e+01 1.586595000000000027e+03
5.399999999999999939e-02 4.591844999999999954e-01 1.997214999999999918e+01 7.526924999999999955e+01 1.587825000000000045e+03
5.500000000000000028e-02 4.598530000000000117e-01 2.198744999999999905e+01 7.943489999999999895e+01 1.589030000000000200e+03
5.600000000000000117e-02 4.604865000000000208e-01 2.385529999999999973e+01 8.339634999999999820e+01 1.590184999999999945e+03
5.700000000000000205e-02 4.610830000000000206e-01 2.556135000000000090e+01 8.712805000000000177e+01 1.591295000000000073e+03
5.800000000000000294e-02 4.616429999999999700e-01 2.710075000000000145e+01 9.062284999999999968e+01 1.592349999999999909e+03
5.900000000000000383e-02 4.621689999999999965e-01 2.847664999999999935e+01 9.388835000000000264e+01 1.593345000000000027e+03
6.000000000000000472e-02 4.626654999999999518e-01 2.969835000000000136e+01 9.694710000000000605e+01 1.594284999999999854e+03
6.099999999999999867e-02 4.631380000000000496e-01 3.078010000000000090e+01 9.983070000000000732e+01 1.595180000000000064e+03
6.199999999999999956e-02 4.635934999999999917e-01 3.173915000000000219e+01 1.025762500000000017e+02 1.596035000000000082e+03
6.300000000000000044e-02 4.640379999999999505e-01 3.259499999999999886e+01 1.052254999999999967e+02 1.596860000000000127e+03
6.400000000000000133e-02 4.644785000000000164e-01 3.336789999999999878e+01 1.078204999999999956e+02 1.597664999999999964e+03
6.500000000000000222e-02 4.649199999999999999e-01 3.407795000000000130e+01 1.104004999999999939e+02 1.598460000000000036e+03
6.600000000000000311e-02 4.653694999999999915e-01 3.474389999999999645e+01 1.130000000000000000e+02 1.599259999999999991e+03
6.700000000000000400e-02 4.658290000000000486e-01 3.538179999999999836e+01 1.156475000000000080e+02 1.600059999999999945e+03
6.800000000000000488e-02 4.663019999999999943e-01 3.600400000000000489e+01 1.183615000000000066e+02 1.600884999999999991e+03
6.900000000000000577e-02 4.667884999999999951e-01 3.661789999999999878e+01 1.211494999999999891e+02 1.601715000000000146e+03
7.000000000000000666e-02 4.672865000000000490e-01 3.722565000000000168e+01 1.240079999999999956e+02 1.602565000000000055e+03
7.100000000000000755e-02 4.677934999999999732e-01 3.782380000000000564e+01 1.269205000000000041e+02 1.603434999999999945e+03
7.200000000000000844e-02 4.683040000000000536e-01 3.840359999999999729e+01 1.298609999999999900e+02 1.604304999999999836e+03
7.300000000000000933e-02 4.688094999999999901e-01 3.895204999999999984e+01 1.327934999999999945e+02 1.605184999999999945e+03
7.399999999999999634e-02 4.693045000000000133e-01 3.945315000000000083e+01 1.356734999999999900e+02 1.606049999999999955e+03
7.499999999999999722e-02 4.697805000000000453e-01 3.988904999999999745e+01 1.384560000000000173e+02 1.606884999999999991e+03
7.599999999999999811e-02 4.702294999999999670e-01 4.024184999999999945e+01 1.410929999999999893e+02 1.607684999999999945e+03
7.699999999999999900e-02 4.706439999999999513e-01 4.049474999999999625e+01 1.435405000000000086e+02 1.608445000000000164e+03
7.799999999999999989e-02 4.710179999999999367e-01 4.063325000000000387e+01 1.457565000000000168e+02 1.609134999999999991e+03
7.900000000000000078e-02 4.713469999999999605e-01 4.064609999999999701e+01 1.477104999999999961e+02 1.609759999999999991e+03
8.000000000000000167e-02 4.716274999999999773e-01 4.052584999999999837e+01 1.493785000000000025e+02 1.610315000000000055e+03
8.100000000000000255e-02 4.718579999999999997e-01 4.026914999999999623e+01 1.507470000000000141e+02 1.610775000000000091e+03
8.200000000000000344e-02 4.720384999999999720e-01 3.987709999999999866e+01 1.518125000000000000e+02 1.611154999999999973e+03
8.300000000000000433e-02 4.721700000000000341e-01 3.935500000000000398e+01 1.525815000000000055e+02 1.611450000000000045e+03
8.400000000000000522e-02 4.722564999999999680e-01 3.871189999999999998e+01 1.530690000000000168e+02 1.611664999999999964e+03
8.500000000000000611e-02 4.723019999999999996e-01 3.796045000000000158e+01 1.532995000000000232e+02 1.611799999999999955e+03
8.600000000000000699e-02 4.723104999999999665e-01 3.711610000000000298e+01 1.533020000000000209e+02 1.611865000000000009e+03
8.700000000000000788e-02 4.722890000000000144e-01 3.619664999999999822e+01 1.531115000000000066e+02 1.611869999999999891e+03
8.800000000000000877e-02 4.722429999999999684e-01 3.522129999999999939e+01 1.527674999999999841e+02 1.611825000000000045e+03
8.899999999999999578e-02 4.721799999999999886e-01 3.420994999999999919e+01 1.523084999999999809e+02 1.611740000000000009e+03
8.999999999999999667e-02 4.721060000000000256e-01 3.318245000000000289e+01 1.517750000000000057e+02 1.611625000000000000e+03
9.099999999999999756e-02 4.720265000000000155e-01 3.215749999999999886e+01 1.512040000000000077e+02 1.611485000000000127e+03
9.199999999999999845e-02 4.719475000000000198e-01 3.115220000000000056e+01 1.506304999999999836e+02 1.611340000000000146e+03
9.299999999999999933e-02 4.718729999999999869e-01 3.018139999999999645e+01 1.500840000000000032e+02 1.611195000000000164e+03
9.400000000000000022e-02 4.718069999999999764e-01 2.925675000000000381e+01 1.495889999999999986e+02 1.611059999999999945e+03
9.500000000000000111e-02 4.717520000000000047e-01 2.838680000000000092e+01 1.491614999999999895e+02 1.610930000000000064e+03
9.600000000000000200e-02 4.717089999999999894e-01 2.757645000000000124e+01 1.488135000000000048e+02 1.610824999999999818e+03
9.700000000000000289e-02 4.716785000000000005e-01 2.682724999999999937e+01 1.485480000000000018e+02 1.610740000000000009e+03
9.800000000000000377e-02 4.716590000000000504e-01 2.613719999999999999e+01 1.483615000000000066e+02 1.610664999999999964e+03
9.900000000000000466e-02 4.716495000000000548e-01 2.550124999999999886e+01 1.482465000000000259e+02 1.610619999999999891e+03
1.000000000000000056e-01 4.716479999999999562e-01 2.491185000000000116e+01 1.481884999999999764e+02 1.610585000000000036e+03
1.010000000000000064e-01 4.716500000000000137e-01 2.435930000000000106e+01 1.481689999999999827e+02 1.610559999999999945e+03
1.020000000000000073e-01 4.716529999999999889e-01 2.383245000000000147e+01 1.481680000000000064e+02 1.610545000000000073e+03
1.030000000000000082e-01 4.716529999999999889e-01 2.331925000000000026e+01 1.481630000000000109e+02 1.610539999999999964e+03
1.040000000000000091e-01 4.716464999999999685e-01 2.280754999999999910e+01 1.481310000000000002e+02 1.610519999999999982e+03
1.050000000000000100e-01 4.716299999999999937e-01 2.228555000000000064e+01 1.480504999999999995e+02 1.610490000000000009e+03
1.059999999999999970e-01 4.716004999999999781e-01 2.174259999999999948e+01 1.479035000000000082e+02 1.610444999999999936e+03
1.069999999999999979e-01 4.715564999999999896e-01 2.116959999999999908e+01 1.476720000000000255e+02 1.610384999999999991e+03
1.079999999999999988e-01 4.714949999999999974e-01 2.055969999999999942e+01 1.473435000000000059e+02 1.610299999999999955e+03
1.089999999999999997e-01 4.714160000000000017e-01 1.990820000000000078e+01 1.469119999999999777e+02 1.610179999999999836e+03
1.100000000000000006e-01 4.713189999999999880e-01 1.921334999999999837e+01 1.463750000000000000e+02 1.610034999999999854e+03
1.110000000000000014e-01 4.712049999999999850e-01 1.847589999999999932e+01 1.457339999999999804e+02 1.609865000000000009e+03
1.120000000000000023e-01 4.710765000000000091e-01 1.769964999999999833e+01 1.449979999999999905e+02 1.609664999999999964e+03
1.130000000000000032e-01 4.709349999999999925e-01 1.689075000000000060e+01 1.441800000000000068e+02 1.609445000000000164e+03
1.140000000000000041e-01 4.707839999999999803e-01 1.605770000000000053e+01 1.432970000000000255e+02 1.609204999999999927e+03
1.150000000000000050e-01 4.706270000000000175e-01 1.521090000000000053e+01 1.423689999999999998e+02 1.608950000000000045e+03
1.160000000000000059e-01 4.704675000000000384e-01 1.436213499999999854e+01 1.414194999999999993e+02 1.608684999999999945e+03
1.170000000000000068e-01 4.703109999999999791e-01 1.352391000000000076e+01 1.404724999999999966e+02 1.608410000000000082e+03
1.180000000000000077e-01 4.701604999999999812e-01 1.270905499999999932e+01 1.395534999999999854e+02 1.608150000000000091e+03
1.190000000000000085e-01 4.700195000000000345e-01 1.192992500000000078e+01 1.386839999999999975e+02 1.607894999999999982e+03
1.200000000000000094e-01 4.698924999999999352e-01 1.119806499999999971e+01 1.378874999999999886e+02 1.607654999999999973e+03
1.209999999999999964e-01 4.697810000000000041e-01 1.052333000000000141e+01 1.371814999999999998e+02 1.607440000000000055e+03
1.219999999999999973e-01 4.696885000000000088e-01 9.913819999999999411e+00 1.365810000000000173e+02 1.607244999999999891e+03
1.229999999999999982e-01 4.696150000000000047e-01 9.375299999999999301e+00 1.360960000000000036e+02 1.607090000000000146e+03
1.239999999999999991e-01 4.695619999999999794e-01 8.911224999999999952e+00 1.357325000000000159e+02 1.606960000000000036e+03
1.250000000000000000e-01 4.695289999999999742e-01 8.522489999999999455e+00 1.354894999999999925e+02 1.606864999999999782e+03
1.260000000000000009e-01 4.695154999999999745e-01 8.207480000000000331e+00 1.353640000000000043e+02 1.606804999999999836e+03
1.270000000000000018e-01 4.695184999999999498e-01 7.962505000000000166e+00 1.353480000000000132e+02 1.606769999999999982e+03
1.280000000000000027e-01 4.695365000000000233e-01 7.781850000000000378e+00 1.354284999999999854e+02 1.606769999999999982e+03
1.290000000000000036e-01 4.695675000000000265e-01 7.658210000000000406e+00 1.355910000000000082e+02 1.606789999999999964e+03
1.300000000000000044e-01 4.696080000000000254e-01 7.583125000000000782e+00 1.358179999999999836e+02 1.606835000000000036e+03
1.310000000000000053e-01 4.696544999999999748e-01 7.547394999999999854e+00 1.360925000000000011e+02 1.606894999999999982e+03
1.320000000000000062e-01 4.697054999999999980e-01 7.541489999999999583e+00 1.363954999999999984e+02 1.606965000000000146e+03
1.330000000000000071e-01 4.697565000000000213e-01 7.555979999999999919e+00 1.367104999999999961e+02 1.607039999999999964e+03
1.340000000000000080e-01 4.698059999999999459e-01 7.581855000000000011e+00 1.370190000000000055e+02 1.607115000000000009e+03
1.350000000000000089e-01 4.698515000000000330e-01 7.610844999999999416e+00 1.373095000000000141e+02 1.607194999999999936e+03
1.360000000000000098e-01 4.698904999999999887e-01 7.635650000000000048e+00 1.375674999999999955e+02 1.607265000000000100e+03
1.370000000000000107e-01 4.699229999999999796e-01 7.650114999999999554e+00 1.377844999999999800e+02 1.607325000000000045e+03
1.380000000000000115e-01 4.699474999999999625e-01 7.649324999999999264e+00 1.379549999999999841e+02 1.607380000000000109e+03
1.390000000000000124e-01 4.699630000000000196e-01 7.629664999999999253e+00 1.380724999999999909e+02 1.607414999999999964e+03
1.400000000000000133e-01 4.699699999999999989e-01 7.588794999999999291e+00 1.381370000000000005e+02 1.607440000000000055e+03
1.410000000000000142e-01 4.699685000000000112e-01 7.525599999999999845e+00 1.381485000000000127e+02 1.607449999999999818e+03
1.420000000000000151e-01 4.699590000000000156e-01 7.440115000000000478e+00 1.381105000000000018e+02 1.607450000000000045e+03
1.430000000000000160e-01 4.699429999999999996e-01 7.333370000000000388e+00 1.380264999999999986e+02 1.607430000000000064e+03
1.440000000000000169e-01 4.699200000000000044e-01 7.207250000000000156e+00 1.379030000000000200e+02 1.607404999999999973e+03
1.450000000000000178e-01 4.698930000000000051e-01 7.064329999999999998e+00 1.377459999999999809e+02 1.607369999999999891e+03
1.459999999999999909e-01 4.698614999999999875e-01 6.907709999999999795e+00 1.375625000000000000e+02 1.607325000000000045e+03
1.469999999999999918e-01 4.698280000000000234e-01 6.740804999999999936e+00 1.373595000000000255e+02 1.607269999999999982e+03
1.479999999999999927e-01 4.697925000000000018e-01 6.567185000000000272e+00 1.371449999999999818e+02 1.607220000000000027e+03
1.489999999999999936e-01 4.697569999999999801e-01 6.390404999999999447e+00 1.369240000000000066e+02 1.607155000000000200e+03
1.499999999999999944e-01 4.697215000000000140e-01 6.213815000000000310e+00 1.367035000000000196e+02 1.607094999999999800e+03
1.509999999999999953e-01 4.696879999999999944e-01 6.040459999999999496e+00 1.364875000000000114e+02 1.607039999999999964e+03
1.519999999999999962e-01 4.696549999999999891e-01 5.872939999999999827e+00 1.362799999999999727e+02 1.606974999999999909e+03
1.529999999999999971e-01 4.696249999999999591e-01 5.713340000000000529e+00 1.360840000000000032e+02 1.606924999999999955e+03
1.539999999999999980e-01 4.695964999999999723e-01 5.563195000000000334e+00 1.359005000000000223e+02 1.606869999999999891e+03
1.549999999999999989e-01 4.695699999999999874e-01 5.423470000000000013e+00 1.357295000000000016e+02 1.606820000000000164e+03
1.559999999999999998e-01 4.695464999999999778e-01 5.294554999999999900e+00 1.355699999999999932e+02 1.606769999999999982e+03
1.570000000000000007e-01 4.695234999999999825e-01 5.176384999999999792e+00 1.354205000000000041e+02 1.606724999999999909e+03
1.580000000000000016e-01 4.695015000000000160e-01 5.068464999999999776e+00 1.352789999999999964e+02 1.606675000000000182e+03
1.590000000000000024e-01 4.694800000000000084e-01 4.969969999999999999e+00 1.351419999999999959e+02 1.606634999999999991e+03
