# t [s], A [cm^2], U [cm/s], P [cPa], c [cm/s]
1.000000000000000021e-03 1.230175000000000018e-01 4.013668000000000236e-01 9.323134999999999195e+01 2.008849999999999909e+03
2.000000000000000042e-03 1.229805000000000065e-01 2.023400500000000157e+00 8.975095000000000312e+01 2.008369999999999891e+03
3.000000000000000062e-03 1.228839999999999932e-01 3.980226499999999668e+00 8.507220000000000937e+01 2.007150000000000091e+03
4.000000000000000083e-03 1.227540000000000020e-01 6.161684000000000161e+00 8.018690000000000850e+01 2.005534999999999854e+03
5.000000000000000104e-03 1.226165000000000033e-01 8.484289999999999665e+00 7.599484999999999957e+01 2.003840000000000146e+03
6.000000000000000125e-03 1.224860000000000115e-01 1.074004000000000048e+01 7.266559999999999775e+01 2.002250000000000000e+03
7.000000000000000146e-03 1.223645000000000010e-01 1.270655000000000001e+01 6.983189999999999031e+01 2.000795000000000073e+03
8.000000000000000167e-03 1.222535000000000011e-01 1.433357999999999954e+01 6.727289999999999281e+01 1.999500000000000000e+03
9.000000000000001055e-03 1.221569999999999878e-01 1.568144999999999989e+01 6.508884999999999366e+01 1.998380000000000109e+03
1.000000000000000194e-02 1.220765000000000045e-01 1.678369999999999962e+01 6.334085000000000321e+01 1.997454999999999927e+03
1.099999999999999936e-02 1.220104999999999940e-01 1.765654999999999930e+01 6.198125000000000284e+01 1.996715000000000146e+03
1.200000000000000025e-02 1.219589999999999980e-01 1.832184999999999775e+01 6.095320000000000249e+01 1.996139999999999873e+03
1.300000000000000114e-02 1.219185000000000130e-01 1.878714999999999691e+01 6.016510000000000247e+01 1.995695000000000164e+03
1.400000000000000203e-02 1.218859999999999943e-01 1.906409999999999982e+01 5.950034999999999741e+01 1.995355000000000018e+03
1.499999999999999944e-02 1.218605000000000105e-01 1.922639999999999816e+01 5.897534999999999883e+01 1.995085000000000036e+03
1.600000000000000033e-02 1.218450000000000089e-01 1.942470000000000141e+01 5.885504999999999853e+01 1.994929999999999836e+03
1.700000000000000122e-02 1.218474999999999975e-01 1.982075000000000031e+01 5.953875000000000028e+01 1.994970000000000027e+03
1.800000000000000211e-02 1.218739999999999962e-01 2.049109999999999943e+01 6.128294999999999959e+01 1.995279999999999973e+03
1.900000000000000300e-02 1.219244999999999912e-01 2.137349999999999994e+01 6.397620000000000573e+01 1.995869999999999891e+03
2.000000000000000042e-02 1.219929999999999903e-01 2.228725000000000023e+01 6.711740000000000350e+01 1.996655000000000200e+03
2.100000000000000130e-02 1.220664999999999945e-01 2.300724999999999909e+01 6.999279999999998836e+01 1.997505000000000109e+03
2.200000000000000219e-02 1.221285000000000009e-01 2.335119999999999862e+01 7.194374999999999432e+01 1.998250000000000000e+03
2.299999999999999961e-02 1.221695000000000142e-01 2.324220000000000041e+01 7.259964999999999691e+01 1.998750000000000000e+03
2.400000000000000050e-02 1.221824999999999994e-01 2.272554999999999836e+01 7.198369999999999891e+01 1.998934999999999945e+03
2.500000000000000139e-02 1.221720000000000028e-01 2.193834999999999980e+01 7.046375000000000455e+01 1.998839999999999918e+03
2.600000000000000228e-02 1.221445000000000031e-01 2.105035000000000167e+01 6.858240000000000691e+01 1.998545000000000073e+03
2.700000000000000316e-02 1.221109999999999973e-01 2.020204999999999984e+01 6.684789999999999566e+01 1.998164999999999964e+03
2.800000000000000058e-02 1.220799999999999941e-01 1.946484999999999843e+01 6.557165000000000532e+01 1.997809999999999945e+03
2.900000000000000147e-02 1.220559999999999978e-01 1.883305000000000007e+01 6.480389999999999873e+01 1.997525000000000091e+03
3.000000000000000236e-02 1.220384999999999942e-01 1.824445000000000050e+01 6.437184999999999491e+01 1.997320000000000164e+03
3.099999999999999978e-02 1.220239999999999936e-01 1.761704999999999899e+01 6.398770000000000380e+01 1.997144999999999982e+03
3.200000000000000067e-02 1.220080000000000053e-01 1.688749999999999929e+01 6.337959999999999638e+01 1.996960000000000036e+03
3.300000000000000155e-02 1.219854999999999967e-01 1.604044999999999987e+01 6.240210000000000434e+01 1.996710000000000036e+03
3.400000000000000244e-02 1.219565000000000093e-01 1.511919999999999931e+01 6.109564999999999912e+01 1.996380000000000109e+03
3.500000000000000333e-02 1.219224999999999892e-01 1.421739999999999959e+01 5.967974999999999852e+01 1.995990000000000009e+03
3.600000000000000422e-02 1.218895000000000117e-01 1.345289999999999964e+01 5.848624999999999829e+01 1.995610000000000127e+03
3.700000000000000511e-02 1.218644999999999867e-01 1.293384999999999962e+01 5.785555000000000092e+01 1.995315000000000055e+03
3.799999999999999906e-02 1.218545000000000045e-01 1.272765000000000057e+01 5.803079999999999927e+01 1.995184999999999945e+03
3.899999999999999994e-02 1.218629999999999991e-01 1.284165000000000134e+01 5.908344999999999914e+01 1.995269999999999982e+03
4.000000000000000083e-02 1.218909999999999993e-01 1.322019999999999840e+01 6.088880000000000337e+01 1.995565000000000055e+03
4.100000000000000172e-02 1.219345000000000012e-01 1.375710000000000122e+01 6.315335000000000321e+01 1.996049999999999955e+03
4.200000000000000261e-02 1.219864999999999977e-01 1.431745000000000090e+01 6.548075000000000045e+01 1.996639999999999873e+03
4.300000000000000350e-02 1.220379999999999937e-01 1.476324999999999932e+01 6.745300000000000296e+01 1.997240000000000009e+03
4.400000000000000439e-02 1.220805000000000085e-01 1.497574999999999967e+01 6.870820000000000505e+01 1.997730000000000018e+03
4.499999999999999833e-02 1.221059999999999923e-01 1.487099999999999866e+01 6.899585000000000434e+01 1.998034999999999854e+03
4.599999999999999922e-02 1.221085000000000087e-01 1.440724999999999945e+01 6.820409999999999684e+01 1.998079999999999927e+03
4.700000000000000011e-02 1.220865000000000006e-01 1.358364999999999867e+01 6.635705000000000098e+01 1.997840000000000146e+03
4.800000000000000100e-02 1.220400000000000096e-01 1.243327000000000027e+01 6.358955000000000268e+01 1.997315000000000055e+03
4.900000000000000189e-02 1.219709999999999961e-01 1.101241500000000073e+01 6.010795000000000243e+01 1.996534999999999854e+03
5.000000000000000278e-02 1.218850000000000072e-01 9.390125000000001165e+00 5.614969999999999573e+01 1.995545000000000073e+03
5.100000000000000366e-02 1.217860000000000054e-01 7.639244999999999841e+00 5.194935000000000258e+01 1.994404999999999973e+03
5.200000000000000455e-02 1.216790000000000094e-01 5.831014999999999837e+00 4.771670000000000300e+01 1.993180000000000064e+03
5.300000000000000544e-02 1.215704999999999980e-01 4.032270500000000091e+00 4.362845000000000084e+01 1.991924999999999955e+03
5.399999999999999939e-02 1.214635000000000020e-01 2.305684999999999985e+00 3.983010000000000161e+01 1.990684999999999945e+03
5.500000000000000028e-02 1.213619999999999977e-01 7.105200000000000404e-01 3.644365000000000521e+01 1.989509999999999991e+03
5.600000000000000117e-02 1.212709999999999899e-01 -6.962899999999998535e-01 3.357694999999999652e+01 1.988445000000000164e+03
5.700000000000000205e-02 1.211919999999999942e-01 -1.859950500000000062e+00 3.133010000000000161e+01 1.987519999999999982e+03
5.800000000000000294e-02 1.211285000000000001e-01 -2.728998499999999883e+00 2.979755000000000109e+01 1.986775000000000091e+03
5.900000000000000383e-02 1.210839999999999972e-01 -3.257615000000000371e+00 2.906559999999999988e+01 1.986244999999999891e+03
6.000000000000000472e-02 1.210600000000000009e-01 -3.408789999999999765e+00 2.920474999999999710e+01 1.985945000000000164e+03
6.099999999999999867e-02 1.210589999999999999e-01 -3.157530000000000392e+00 3.026205000000000211e+01 1.985909999999999854e+03
6.199999999999999956e-02 1.210819999999999952e-01 -2.493540000000000312e+00 3.225240000000000151e+01 1.986150000000000091e+03
6.300000000000000044e-02 1.211299999999999877e-01 -1.422654500000000155e+00 3.515364999999999895e+01 1.986670000000000073e+03
6.400000000000000133e-02 1.212014999999999898e-01 3.307500000000018758e-02 3.890540000000000020e+01 1.987474999999999909e+03
6.500000000000000222e-02 1.212959999999999872e-01 1.836889999999999912e+00 4.341225000000000023e+01 1.988535000000000082e+03
6.600000000000000311e-02 1.214110000000000050e-01 3.939861999999999753e+00 4.855039999999999623e+01 1.989839999999999918e+03
6.700000000000000400e-02 1.215429999999999844e-01 6.284234999999999793e+00 5.417719999999999914e+01 1.991349999999999909e+03
6.800000000000000488e-02 1.216890000000000055e-01 8.806960000000000122e+00 6.014099999999999824e+01 1.993025000000000091e+03
6.900000000000000577e-02 1.218454999999999955e-01 1.144307000000000052e+01 6.629040000000000532e+01 1.994824999999999818e+03
7.000000000000000666e-02 1.220080000000000053e-01 1.412870500000000007e+01 7.248260000000000502e+01 1.996710000000000036e+03
7.100000000000000755e-02 1.221724999999999894e-01 1.680389999999999873e+01 7.858965000000000600e+01 1.998630000000000109e+03
7.200000000000000844e-02 1.223370000000000013e-01 1.941464999999999819e+01 8.450284999999999513e+01 2.000554999999999836e+03
7.300000000000000933e-02 1.224984999999999963e-01 2.191495000000000104e+01 9.013634999999999309e+01 2.002445000000000164e+03
7.399999999999999634e-02 1.226539999999999991e-01 2.426825000000000188e+01 9.542990000000000350e+01 2.004275000000000091e+03
7.499999999999999722e-02 1.228015000000000079e-01 2.644870000000000232e+01 1.003499500000000069e+02 2.006025000000000091e+03
7.599999999999999811e-02 1.229405000000000081e-01 2.844189999999999685e+01 1.048889000000000067e+02 2.007680000000000064e+03
7.699999999999999900e-02 1.230709999999999998e-01 3.024469999999999814e+01 1.090660000000000025e+02 2.009230000000000018e+03
7.799999999999999989e-02 1.231924999999999965e-01 3.186439999999999984e+01 1.129230000000000018e+02 2.010684999999999945e+03
7.900000000000000078e-02 1.233064999999999856e-01 3.331749999999999545e+01 1.165194999999999936e+02 2.012045000000000073e+03
8.000000000000000167e-02 1.234145000000000103e-01 3.462730000000000530e+01 1.199260000000000019e+02 2.013340000000000146e+03
8.100000000000000255e-02 1.235165000000000013e-01 3.582144999999999868e+01 1.232220000000000084e+02 2.014569999999999936e+03
8.200000000000000344e-02 1.236164999999999903e-01 3.692934999999999945e+01 1.264805000000000064e+02 2.015769999999999982e+03
8.300000000000000433e-02 1.237145000000000050e-01 3.797925000000000040e+01 1.297710000000000150e+02 2.016954999999999927e+03
8.400000000000000522e-02 1.238134999999999930e-01 3.899615000000000009e+01 1.331454999999999984e+02 2.018139999999999873e+03
8.500000000000000611e-02 1.239145000000000107e-01 3.999965000000000259e+01 1.366394999999999982e+02 2.019349999999999909e+03
8.600000000000000699e-02 1.240170000000000022e-01 4.100270000000000437e+01 1.402690000000000055e+02 2.020585000000000036e+03
8.700000000000000788e-02 1.241224999999999967e-01 4.201099999999999568e+01 1.440280000000000200e+02 2.021849999999999909e+03
8.800000000000000877e-02 1.242310000000000081e-01 4.302275000000000205e+01 1.478930000000000007e+02 2.023150000000000091e+03
8.899999999999999578e-02 1.243420000000000081e-01 4.402934999999999377e+01 1.518204999999999814e+02 2.024474999999999909e+03
8.999999999999999667e-02 1.244530000000000081e-01 4.501614999999999611e+01 1.557565000000000168e+02 2.025815000000000055e+03
9.099999999999999756e-02 1.245650000000000091e-01 4.596389999999999532e+01 1.596365000000000123e+02 2.027155000000000200e+03
9.199999999999999845e-02 1.246749999999999942e-01 4.685034999999999883e+01 1.633915000000000077e+02 2.028480000000000018e+03
9.299999999999999933e-02 1.247810000000000030e-01 4.765135000000000076e+01 1.669519999999999982e+02 2.029764999999999873e+03
9.400000000000000022e-02 1.248819999999999930e-01 4.834324999999999761e+01 1.702524999999999977e+02 2.030980000000000018e+03
9.500000000000000111e-02 1.249765000000000043e-01 4.890354999999999563e+01 1.732344999999999970e+02 2.032125000000000000e+03
9.600000000000000200e-02 1.250625000000000209e-01 4.931264999999999787e+01 1.758489999999999895e+02 2.033170000000000073e+03
9.700000000000000289e-02 1.251384999999999859e-01 4.955499999999999972e+01 1.780584999999999809e+02 2.034099999999999909e+03
9.800000000000000377e-02 1.252044999999999964e-01 4.961960000000000548e+01 1.798410000000000082e+02 2.034905000000000200e+03
9.900000000000000466e-02 1.252590000000000092e-01 4.950070000000000192e+01 1.811845000000000141e+02 2.035579999999999927e+03
1.000000000000000056e-01 1.253019999999999967e-01 4.919839999999999947e+01 1.820944999999999823e+02 2.036115000000000009e+03
1.010000000000000064e-01 1.253335000000000143e-01 4.871805000000000518e+01 1.825880000000000223e+02 2.036509999999999991e+03
1.020000000000000073e-01 1.253539999999999932e-01 4.807040000000000646e+01 1.826935000000000002e+02 2.036769999999999982e+03
1.030000000000000082e-01 1.253634999999999888e-01 4.727084999999999582e+01 1.824499999999999886e+02 2.036900000000000091e+03
1.040000000000000091e-01 1.253635000000000166e-01 4.633894999999999698e+01 1.819060000000000059e+02 2.036920000000000073e+03
1.050000000000000100e-01 1.253555000000000086e-01 4.529710000000000036e+01 1.811129999999999995e+02 2.036840000000000146e+03
1.059999999999999970e-01 1.253404999999999936e-01 4.416989999999999839e+01 1.801274999999999977e+02 2.036664999999999964e+03
1.069999999999999979e-01 1.253199999999999870e-01 4.298274999999999579e+01 1.790065000000000168e+02 2.036424999999999955e+03
1.079999999999999988e-01 1.252945000000000031e-01 4.176125000000000398e+01 1.778045000000000186e+02 2.036125000000000000e+03
1.089999999999999997e-01 1.252659999999999885e-01 4.052974999999999994e+01 1.765730000000000075e+02 2.035795000000000073e+03
1.100000000000000006e-01 1.252369999999999872e-01 3.931080000000000041e+01 1.753580000000000041e+02 2.035440000000000055e+03
1.110000000000000014e-01 1.252070000000000127e-01 3.812409999999999854e+01 1.741974999999999909e+02 2.035085000000000036e+03
1.120000000000000023e-01 1.251780000000000115e-01 3.698615000000000208e+01 1.731229999999999905e+02 2.034735000000000127e+03
1.130000000000000032e-01 1.251499999999999835e-01 3.590944999999999965e+01 1.721555000000000177e+02 2.034400000000000091e+03
1.140000000000000041e-01 1.251244999999999996e-01 3.490265000000000128e+01 1.713079999999999927e+02 2.034085000000000036e+03
1.150000000000000050e-01 1.251015000000000044e-01 3.396994999999999720e+01 1.705819999999999936e+02 2.033804999999999836e+03
1.160000000000000059e-01 1.250819999999999987e-01 3.311140000000000327e+01 1.699730000000000132e+02 2.033555000000000064e+03
1.170000000000000068e-01 1.250640000000000085e-01 3.232314999999999827e+01 1.694654999999999916e+02 2.033339999999999918e+03
1.180000000000000077e-01 1.250489999999999935e-01 3.159795000000000087e+01 1.690389999999999873e+02 2.033150000000000091e+03
1.190000000000000085e-01 1.250355000000000216e-01 3.092535000000000167e+01 1.686659999999999968e+02 2.032980000000000018e+03
1.200000000000000094e-01 1.250235000000000096e-01 3.029274999999999807e+01 1.683145000000000095e+02 2.032829999999999927e+03
1.209999999999999964e-01 1.250114999999999976e-01 2.968594999999999828e+01 1.679515000000000100e+02 2.032680000000000064e+03
1.219999999999999973e-01 1.249994999999999856e-01 2.908999999999999986e+01 1.675424999999999898e+02 2.032529999999999973e+03
1.229999999999999982e-01 1.249865000000000004e-01 2.849009999999999820e+01 1.670554999999999950e+02 2.032369999999999891e+03
1.239999999999999991e-01 1.249714999999999993e-01 2.787239999999999895e+01 1.664594999999999914e+02 2.032190000000000055e+03
1.250000000000000000e-01 1.249534999999999951e-01 2.722459999999999880e+01 1.657309999999999945e+02 2.031970000000000027e+03
1.260000000000000009e-01 1.249325000000000019e-01 2.653685000000000116e+01 1.648509999999999991e+02 2.031715000000000146e+03
1.270000000000000018e-01 1.249075000000000046e-01 2.580209999999999937e+01 1.638089999999999975e+02 2.031414999999999964e+03
1.280000000000000027e-01 1.248785000000000034e-01 2.501650000000000063e+01 1.626020000000000039e+02 2.031065000000000055e+03
1.290000000000000036e-01 1.248449999999999976e-01 2.417969999999999686e+01 1.612339999999999804e+02 2.030664999999999964e+03
1.300000000000000044e-01 1.248080000000000023e-01 2.329484999999999673e+01 1.597199999999999989e+02 2.030219999999999800e+03
1.310000000000000053e-01 1.247665000000000024e-01 2.236824999999999974e+01 1.580794999999999959e+02 2.029730000000000018e+03
1.320000000000000062e-01 1.247219999999999995e-01 2.140939999999999799e+01 1.563400000000000034e+02 2.029195000000000164e+03
1.330000000000000071e-01 1.246749999999999942e-01 2.043025000000000091e+01 1.545339999999999918e+02 2.028635000000000218e+03
1.340000000000000080e-01 1.246259999999999868e-01 1.944454999999999956e+01 1.526965000000000146e+02 2.028049999999999955e+03
1.350000000000000089e-01 1.245759999999999923e-01 1.846734999999999971e+01 1.508665000000000020e+02 2.027454999999999927e+03
1.360000000000000098e-01 1.245264999999999983e-01 1.751404999999999745e+01 1.490799999999999841e+02 2.026855000000000018e+03
1.370000000000000107e-01 1.244774999999999909e-01 1.659969999999999857e+01 1.473734999999999786e+02 2.026264999999999873e+03
1.380000000000000115e-01 1.244300000000000128e-01 1.573835000000000051e+01 1.457789999999999964e+02 2.025700000000000045e+03
1.390000000000000124e-01 1.243859999999999966e-01 1.494245000000000090e+01 1.443230000000000075e+02 2.025164999999999964e+03
1.400000000000000133e-01 1.243450000000000111e-01 1.422210000000000107e+01 1.430285000000000082e+02 2.024670000000000073e+03
1.410000000000000142e-01 1.243080000000000018e-01 1.358504999999999896e+01 1.419089999999999918e+02 2.024224999999999909e+03
1.420000000000000151e-01 1.242754999999999971e-01 1.303600000000000136e+01 1.409719999999999800e+02 2.023829999999999927e+03
1.430000000000000160e-01 1.242475000000000107e-01 1.257690000000000019e+01 1.402194999999999823e+02 2.023490000000000009e+03
1.440000000000000169e-01 1.242244999999999877e-01 1.220674999999999955e+01 1.396454999999999984e+02 2.023204999999999927e+03
1.450000000000000178e-01 1.242060000000000108e-01 1.192190000000000083e+01 1.392390000000000043e+02 2.022974999999999909e+03
1.459999999999999909e-01 1.241914999999999963e-01 1.171649999999999991e+01 1.389824999999999875e+02 2.022800000000000182e+03
1.469999999999999918e-01 1.241815000000000002e-01 1.158259999999999934e+01 1.388575000000000159e+02 2.022670000000000073e+03
1.479999999999999927e-01 1.241749999999999937e-01 1.151079999999999970e+01 1.388414999999999964e+02 2.022585000000000036e+03
1.489999999999999936e-01 1.241720000000000046e-01 1.149050000000000082e+01 1.389094999999999800e+02 2.022539999999999964e+03
1.499999999999999944e-01 1.241710000000000036e-01 1.151079999999999970e+01 1.390370000000000061e+02 2.022519999999999982e+03
1.509999999999999953e-01 1.241715000000000041e-01 1.156044999999999945e+01 1.392009999999999934e+02 2.022525000000000091e+03
1.519999999999999962e-01 1.241734999999999922e-01 1.162870000000000026e+01 1.393790000000000191e+02 2.022545000000000073e+03
1.529999999999999971e-01 1.241764999999999952e-01 1.170545000000000080e+01 1.395504999999999995e+02 2.022575000000000045e+03
1.539999999999999980e-01 1.241794999999999982e-01 1.178125000000000000e+01 1.396990000000000123e+02 2.022605000000000018e+03
1.549999999999999989e-01 1.241820000000000007e-01 1.184839999999999982e+01 1.398095000000000141e+02 2.022634999999999991e+03
1.559999999999999998e-01 1.241835000000000022e-01 1.190015000000000001e+01 1.398720000000000141e+02 2.022654999999999973e+03
1.570000000000000007e-01 1.241845000000000032e-01 1.193144999999999989e+01 1.398790000000000191e+02 2.022659999999999854e+03
1.580000000000000016e-01 1.241840000000000027e-01 1.193875000000000064e+01 1.398265000000000100e+02 2.022659999999999854e+03
1.590000000000000024e-01 1.241825000000000012e-01 1.192004999999999981e+01 1.397125000000000057e+02 2.022639999999999873e+03
