# t [s], A [cm^2], U [cm/s], P [cPa], c [cm/s]
1.000000000000000021e-03 1.563844999999999819e-01 1.564548499999999787e-01 9.066825000000000045e+01 1.878634999999999991e+03
2.000000000000000042e-03 1.563644999999999896e-01 1.381852999999999998e+00 8.825915000000000532e+01 1.878434999999999945e+03
3.000000000000000062e-03 1.562815000000000176e-01 2.944348000000000187e+00 8.501980000000000359e+01 1.877654999999999973e+03
4.000000000000000083e-03 1.561524999999999996e-01 4.702725000000000044e+00 8.121924999999998818e+01 1.876470000000000027e+03
5.000000000000000104e-03 1.559995000000000132e-01 6.613400999999999641e+00 7.744339999999999691e+01 1.875079999999999927e+03
6.000000000000000125e-03 1.558410000000000073e-01 8.604359999999999786e+00 7.408889999999999532e+01 1.873644999999999982e+03
7.000000000000000146e-03 1.556865000000000054e-01 1.054979500000000137e+01 7.123290000000000077e+01 1.872264999999999873e+03
8.000000000000000167e-03 1.555389999999999828e-01 1.232301000000000002e+01 6.873009999999999309e+01 1.870970000000000027e+03
9.000000000000001055e-03 1.554014999999999980e-01 1.387167999999999957e+01 6.645830000000000837e+01 1.869779999999999973e+03
1.000000000000000194e-02 1.552764999999999840e-01 1.520950000000000024e+01 6.442804999999999893e+01 1.868710000000000036e+03
1.099999999999999936e-02 1.551664999999999850e-01 1.635970000000000013e+01 6.268769999999999953e+01 1.867779999999999973e+03
1.200000000000000025e-02 1.550719999999999876e-01 1.733474999999999966e+01 6.124419999999999220e+01 1.866985000000000127e+03
1.300000000000000114e-02 1.549920000000000186e-01 1.814249999999999829e+01 6.007010000000000360e+01 1.866329999999999927e+03
1.400000000000000203e-02 1.549260000000000081e-01 1.878685000000000116e+01 5.911650000000000205e+01 1.865785000000000082e+03
1.499999999999999944e-02 1.548710000000000087e-01 1.926829999999999998e+01 5.831435000000000457e+01 1.865340000000000146e+03
1.600000000000000033e-02 1.548240000000000172e-01 1.959860000000000113e+01 5.760360000000000014e+01 1.864970000000000027e+03
1.700000000000000122e-02 1.547844999999999915e-01 1.981954999999999956e+01 5.698890000000000100e+01 1.864659999999999854e+03
1.800000000000000211e-02 1.547544999999999893e-01 2.000520000000000209e+01 5.657205000000000439e+01 1.864425000000000182e+03
1.900000000000000300e-02 1.547375000000000000e-01 2.024130000000000251e+01 5.652150000000000318e+01 1.864299999999999955e+03
2.000000000000000042e-02 1.547379999999999867e-01 2.059215000000000018e+01 5.699300000000000210e+01 1.864320000000000164e+03
2.100000000000000130e-02 1.547594999999999943e-01 2.107620000000000005e+01 5.804664999999999964e+01 1.864500000000000000e+03
2.200000000000000219e-02 1.547999999999999932e-01 2.165939999999999799e+01 5.960384999999999422e+01 1.864845000000000027e+03
2.299999999999999961e-02 1.548559999999999937e-01 2.226855000000000118e+01 6.146120000000000516e+01 1.865325000000000045e+03
2.400000000000000050e-02 1.549200000000000021e-01 2.281575000000000131e+01 6.334669999999999845e+01 1.865869999999999891e+03
2.500000000000000139e-02 1.549829999999999819e-01 2.322439999999999927e+01 6.499450000000000216e+01 1.866414999999999964e+03
2.600000000000000228e-02 1.550385000000000235e-01 2.344794999999999874e+01 6.621094999999999686e+01 1.866904999999999973e+03
2.700000000000000316e-02 1.550814999999999833e-01 2.347775000000000034e+01 6.691190000000000282e+01 1.867289999999999964e+03
2.800000000000000058e-02 1.551095000000000113e-01 2.333905000000000030e+01 6.712655000000000882e+01 1.867545000000000073e+03
2.900000000000000147e-02 1.551239999999999841e-01 2.307860000000000156e+01 6.697015000000000384e+01 1.867690000000000055e+03
3.000000000000000236e-02 1.551285000000000025e-01 2.274824999999999875e+01 6.659805000000000064e+01 1.867740000000000009e+03
3.099999999999999978e-02 1.551259999999999861e-01 2.238985000000000269e+01 6.615664999999999907e+01 1.867730000000000018e+03
3.200000000000000067e-02 1.551200000000000079e-01 2.202629999999999910e+01 6.574559999999999604e+01 1.867684999999999945e+03
3.300000000000000155e-02 1.551130000000000009e-01 2.165910000000000224e+01 6.540064999999999884e+01 1.867625000000000000e+03
3.400000000000000244e-02 1.551055000000000073e-01 2.127299999999999969e+01 6.509654999999999347e+01 1.867565000000000055e+03
3.500000000000000333e-02 1.550960000000000116e-01 2.084485000000000099e+01 6.476850000000000307e+01 1.867490000000000009e+03
3.600000000000000422e-02 1.550834999999999853e-01 2.035399999999999920e+01 6.434175000000000466e+01 1.867384999999999991e+03
3.700000000000000511e-02 1.550664999999999960e-01 1.979165000000000063e+01 6.376215000000000543e+01 1.867244999999999891e+03
3.799999999999999906e-02 1.550435000000000008e-01 1.916669999999999874e+01 6.301855000000000473e+01 1.867059999999999945e+03
3.899999999999999994e-02 1.550155000000000005e-01 1.850659999999999883e+01 6.215370000000000061e+01 1.866825000000000045e+03
4.000000000000000083e-02 1.549845000000000250e-01 1.785329999999999728e+01 6.125885000000000247e+01 1.866570000000000164e+03
4.100000000000000172e-02 1.549534999999999940e-01 1.725580000000000069e+01 6.045619999999999550e+01 1.866309999999999945e+03
4.200000000000000261e-02 1.549274999999999958e-01 1.676019999999999754e+01 5.987250000000000227e+01 1.866085000000000036e+03
4.300000000000000350e-02 1.549094999999999778e-01 1.640095000000000169e+01 5.961175000000000068e+01 1.865924999999999955e+03
4.400000000000000439e-02 1.549024999999999985e-01 1.619435000000000002e+01 5.973295000000000243e+01 1.865860000000000127e+03
4.499999999999999833e-02 1.549079999999999901e-01 1.613584999999999781e+01 6.023789999999999623e+01 1.865889999999999873e+03
4.599999999999999922e-02 1.549254999999999938e-01 1.620159999999999911e+01 6.107115000000000293e+01 1.866029999999999973e+03
4.700000000000000011e-02 1.549534999999999940e-01 1.635294999999999987e+01 6.213029999999999831e+01 1.866255000000000109e+03
4.800000000000000100e-02 1.549885000000000013e-01 1.654279999999999973e+01 6.328385000000000105e+01 1.866539999999999964e+03
4.900000000000000189e-02 1.550259999999999971e-01 1.672279999999999944e+01 6.439220000000000255e+01 1.866855000000000018e+03
5.000000000000000278e-02 1.550624999999999920e-01 1.684909999999999997e+01 6.532680000000000575e+01 1.867164999999999964e+03
5.100000000000000366e-02 1.550934999999999953e-01 1.688704999999999856e+01 6.598579999999999757e+01 1.867430000000000064e+03
5.200000000000000455e-02 1.551150000000000029e-01 1.681340000000000146e+01 6.630289999999999395e+01 1.867619999999999891e+03
5.300000000000000544e-02 1.551259999999999861e-01 1.661645000000000039e+01 6.624939999999999429e+01 1.867719999999999800e+03
5.399999999999999939e-02 1.551250000000000129e-01 1.629514999999999958e+01 6.583089999999999975e+01 1.867715000000000146e+03
5.500000000000000028e-02 1.551109999999999989e-01 1.585640000000000072e+01 6.507959999999999923e+01 1.867605000000000018e+03
5.600000000000000117e-02 1.550865000000000160e-01 1.531250000000000000e+01 6.404495000000000005e+01 1.867400000000000091e+03
5.700000000000000205e-02 1.550509999999999944e-01 1.467864999999999931e+01 6.278450000000000131e+01 1.867105000000000018e+03
5.800000000000000294e-02 1.550064999999999915e-01 1.397139999999999915e+01 6.135634999999999906e+01 1.866735000000000127e+03
5.900000000000000383e-02 1.549554999999999960e-01 1.320724999999999838e+01 5.981494999999999607e+01 1.866304999999999836e+03
6.000000000000000472e-02 1.548995000000000233e-01 1.240293499999999938e+01 5.820905000000000484e+01 1.865829999999999927e+03
6.099999999999999867e-02 1.548394999999999910e-01 1.157541999999999938e+01 5.658244999999999436e+01 1.865325000000000045e+03
6.199999999999999956e-02 1.547779999999999989e-01 1.074264999999999937e+01 5.497589999999999577e+01 1.864804999999999836e+03
6.300000000000000044e-02 1.547165000000000068e-01 9.924329999999999430e+00 5.343059999999999832e+01 1.864279999999999973e+03
6.400000000000000133e-02 1.546565000000000023e-01 9.142150000000000887e+00 5.198984999999999701e+01 1.863775000000000091e+03
6.500000000000000222e-02 1.546000000000000152e-01 8.419900000000000162e+00 5.070089999999999719e+01 1.863289999999999964e+03
6.600000000000000311e-02 1.545484999999999776e-01 7.783065000000000566e+00 4.961509999999999820e+01 1.862849999999999909e+03
6.700000000000000400e-02 1.545050000000000034e-01 7.258000000000000007e+00 4.878685000000000116e+01 1.862474999999999909e+03
6.800000000000000488e-02 1.544705000000000106e-01 6.870694999999999553e+00 4.827069999999999794e+01 1.862175000000000182e+03
6.900000000000000577e-02 1.544484999999999886e-01 6.645514999999999617e+00 4.811889999999999645e+01 1.861974999999999909e+03
7.000000000000000666e-02 1.544395000000000073e-01 6.603804999999999481e+00 4.837744999999999607e+01 1.861889999999999873e+03
7.100000000000000755e-02 1.544460000000000000e-01 6.762665000000000148e+00 4.908320000000000505e+01 1.861934999999999945e+03
7.200000000000000844e-02 1.544694999999999818e-01 7.134014999999999773e+00 5.026099999999999568e+01 1.862119999999999891e+03
7.300000000000000933e-02 1.545104999999999951e-01 7.723905000000000243e+00 5.192204999999999870e+01 1.862449999999999818e+03
7.399999999999999634e-02 1.545704999999999996e-01 8.532325000000000159e+00 5.406315000000000026e+01 1.862940000000000055e+03
7.499999999999999722e-02 1.546485000000000221e-01 9.553174999999999528e+00 5.666689999999999827e+01 1.863590000000000146e+03
7.599999999999999811e-02 1.547445000000000070e-01 1.077494500000000066e+01 5.970289999999999964e+01 1.864389999999999873e+03
7.699999999999999900e-02 1.548575000000000090e-01 1.218107499999999987e+01 6.312975000000000136e+01 1.865335000000000036e+03
7.799999999999999989e-02 1.549860000000000126e-01 1.375120000000000076e+01 6.689770000000000039e+01 1.866414999999999964e+03
7.900000000000000078e-02 1.551285000000000025e-01 1.546184999999999832e+01 7.095114999999999839e+01 1.867615000000000009e+03
8.000000000000000167e-02 1.552830000000000044e-01 1.728795000000000215e+01 7.523195000000001187e+01 1.868924999999999955e+03
8.100000000000000255e-02 1.554470000000000018e-01 1.920370000000000132e+01 7.968199999999998795e+01 1.870325000000000045e+03
8.200000000000000344e-02 1.556190000000000073e-01 2.118359999999999843e+01 8.424620000000000175e+01 1.871789999999999964e+03
8.300000000000000433e-02 1.557975000000000054e-01 2.320354999999999990e+01 8.887460000000000093e+01 1.873309999999999945e+03
8.400000000000000522e-02 1.559789999999999788e-01 2.524159999999999826e+01 9.352405000000000257e+01 1.874869999999999891e+03
8.500000000000000611e-02 1.561635000000000106e-01 2.727834999999999965e+01 9.815949999999999420e+01 1.876454999999999927e+03
8.600000000000000699e-02 1.563479999999999870e-01 2.929744999999999777e+01 1.027543500000000023e+02 1.878050000000000182e+03
8.700000000000000788e-02 1.565329999999999777e-01 3.128569999999999851e+01 1.072898500000000013e+02 1.879654999999999973e+03
8.800000000000000877e-02 1.567164999999999808e-01 3.323264999999999958e+01 1.117555000000000121e+02 1.881250000000000000e+03
8.899999999999999578e-02 1.568990000000000107e-01 3.513065000000000282e+01 1.161465000000000032e+02 1.882829999999999927e+03
8.999999999999999667e-02 1.570795000000000108e-01 3.697419999999999618e+01 1.204625000000000057e+02 1.884404999999999973e+03
9.099999999999999756e-02 1.572570000000000079e-01 3.875939999999999941e+01 1.247055000000000007e+02 1.885954999999999927e+03
9.199999999999999845e-02 1.574329999999999896e-01 4.048360000000000269e+01 1.288795000000000073e+02 1.887494999999999891e+03
9.299999999999999933e-02 1.576064999999999827e-01 4.214475000000000193e+01 1.329879999999999995e+02 1.889015000000000100e+03
9.400000000000000022e-02 1.577775000000000150e-01 4.374085000000000178e+01 1.370324999999999989e+02 1.890519999999999982e+03
9.500000000000000111e-02 1.579460000000000031e-01 4.527009999999999934e+01 1.410120000000000005e+02 1.892009999999999991e+03
9.600000000000000200e-02 1.581124999999999892e-01 4.673019999999999641e+01 1.449220000000000255e+02 1.893470000000000027e+03
9.700000000000000289e-02 1.582764999999999866e-01 4.811849999999999739e+01 1.487570000000000050e+02 1.894920000000000073e+03
9.800000000000000377e-02 1.584375000000000089e-01 4.943180000000000263e+01 1.525065000000000168e+02 1.896345000000000027e+03
9.900000000000000466e-02 1.585949999999999860e-01 5.066655000000000086e+01 1.561605000000000132e+02 1.897735000000000127e+03
1.000000000000000056e-01 1.587485000000000146e-01 5.181895000000000095e+01 1.597034999999999911e+02 1.899099999999999909e+03
1.010000000000000064e-01 1.588975000000000248e-01 5.288490000000000180e+01 1.631229999999999905e+02 1.900429999999999836e+03
1.020000000000000073e-01 1.590420000000000167e-01 5.386015000000000441e+01 1.664029999999999916e+02 1.901715000000000146e+03
1.030000000000000082e-01 1.591810000000000169e-01 5.474070000000000391e+01 1.695285000000000082e+02 1.902949999999999818e+03
1.040000000000000091e-01 1.593140000000000112e-01 5.552249999999999375e+01 1.724859999999999900e+02 1.904144999999999982e+03
1.050000000000000100e-01 1.594409999999999994e-01 5.620204999999999984e+01 1.752615000000000123e+02 1.905275000000000091e+03
1.059999999999999970e-01 1.595600000000000074e-01 5.677609999999999957e+01 1.778425000000000011e+02 1.906340000000000146e+03
1.069999999999999979e-01 1.596714999999999940e-01 5.724195000000000277e+01 1.802189999999999941e+02 1.907345000000000027e+03
1.079999999999999988e-01 1.597750000000000004e-01 5.759765000000000157e+01 1.823820000000000050e+02 1.908275000000000091e+03
1.089999999999999997e-01 1.598704999999999987e-01 5.784199999999999875e+01 1.843235000000000241e+02 1.909134999999999991e+03
1.100000000000000006e-01 1.599570000000000158e-01 5.797475000000000023e+01 1.860405000000000086e+02 1.909920000000000073e+03
1.110000000000000014e-01 1.600350000000000106e-01 5.799669999999999703e+01 1.875294999999999845e+02 1.910619999999999891e+03
1.120000000000000023e-01 1.601035000000000097e-01 5.790980000000000416e+01 1.887925000000000182e+02 1.911244999999999891e+03
1.130000000000000032e-01 1.601629999999999998e-01 5.771724999999999994e+01 1.898324999999999818e+02 1.911789999999999964e+03
1.140000000000000041e-01 1.602135000000000087e-01 5.742355000000000587e+01 1.906564999999999941e+02 1.912250000000000000e+03
1.150000000000000050e-01 1.602550000000000086e-01 5.703439999999999799e+01 1.912744999999999891e+02 1.912634999999999991e+03
1.160000000000000059e-01 1.602890000000000148e-01 5.655675000000000097e+01 1.916984999999999957e+02 1.912949999999999818e+03
1.170000000000000068e-01 1.603144999999999987e-01 5.599849999999999994e+01 1.919440000000000168e+02 1.913190000000000055e+03
1.180000000000000077e-01 1.603324999999999889e-01 5.536849999999999739e+01 1.920285000000000082e+02 1.913360000000000127e+03
1.190000000000000085e-01 1.603439999999999865e-01 5.467620000000000147e+01 1.919694999999999823e+02 1.913470000000000027e+03
1.200000000000000094e-01 1.603485000000000049e-01 5.393144999999999811e+01 1.917870000000000061e+02 1.913525000000000091e+03
1.209999999999999964e-01 1.603490000000000193e-01 5.314419999999999789e+01 1.915004999999999882e+02 1.913534999999999854e+03
1.219999999999999973e-01 1.603434999999999999e-01 5.232424999999999926e+01 1.911295000000000073e+02 1.913494999999999891e+03
1.229999999999999982e-01 1.603350000000000053e-01 5.148104999999999620e+01 1.906920000000000073e+02 1.913424999999999955e+03
1.239999999999999991e-01 1.603229999999999933e-01 5.062319999999999709e+01 1.902049999999999841e+02 1.913320000000000164e+03
1.250000000000000000e-01 1.603085000000000204e-01 4.975870000000000459e+01 1.896829999999999927e+02 1.913190000000000055e+03
1.260000000000000009e-01 1.602914999999999757e-01 4.889439999999999742e+01 1.891380000000000052e+02 1.913045000000000073e+03
1.270000000000000018e-01 1.602735000000000132e-01 4.803605000000000302e+01 1.885805000000000007e+02 1.912880000000000109e+03
1.280000000000000027e-01 1.602540000000000076e-01 4.718824999999999648e+01 1.880174999999999841e+02 1.912715000000000146e+03
1.290000000000000036e-01 1.602339999999999876e-01 4.635430000000000206e+01 1.874540000000000077e+02 1.912534999999999854e+03
1.300000000000000044e-01 1.602129999999999943e-01 4.553640000000000043e+01 1.868925000000000125e+02 1.912344999999999800e+03
1.310000000000000053e-01 1.601920000000000011e-01 4.473555000000000348e+01 1.863324999999999818e+02 1.912155000000000200e+03
1.320000000000000062e-01 1.601710000000000078e-01 4.395159999999999911e+01 1.857715000000000032e+02 1.911965000000000146e+03
1.330000000000000071e-01 1.601489999999999858e-01 4.318349999999999511e+01 1.852069999999999936e+02 1.911769999999999982e+03
1.340000000000000080e-01 1.601265000000000049e-01 4.242934999999999945e+01 1.846324999999999932e+02 1.911570000000000164e+03
1.350000000000000089e-01 1.601035000000000097e-01 4.168635000000000446e+01 1.840414999999999850e+02 1.911360000000000127e+03
1.360000000000000098e-01 1.600794999999999857e-01 4.095154999999999745e+01 1.834270000000000209e+02 1.911144999999999982e+03
1.370000000000000107e-01 1.600544999999999884e-01 4.022119999999999607e+01 1.827805000000000177e+02 1.910920000000000073e+03
1.380000000000000115e-01 1.600290000000000046e-01 3.949159999999999826e+01 1.820939999999999941e+02 1.910684999999999945e+03
1.390000000000000124e-01 1.600010000000000043e-01 3.875905000000000200e+01 1.813609999999999900e+02 1.910434999999999945e+03
1.400000000000000133e-01 1.599710000000000021e-01 3.802004999999999768e+01 1.805730000000000075e+02 1.910170000000000073e+03
1.410000000000000142e-01 1.599389999999999978e-01 3.727129999999999654e+01 1.797250000000000227e+02 1.909890000000000100e+03
1.420000000000000151e-01 1.599049999999999916e-01 3.651010000000000133e+01 1.788129999999999882e+02 1.909585000000000036e+03
1.430000000000000160e-01 1.598684999999999967e-01 3.573440000000000083e+01 1.778324999999999818e+02 1.909259999999999991e+03
1.440000000000000169e-01 1.598289999999999988e-01 3.494295000000000329e+01 1.767839999999999918e+02 1.908910000000000082e+03
1.450000000000000178e-01 1.597870000000000124e-01 3.413524999999999920e+01 1.756675000000000182e+02 1.908534999999999854e+03
1.459999999999999909e-01 1.597425000000000095e-01 3.331170000000000186e+01 1.744855000000000018e+02 1.908140000000000100e+03
1.469999999999999918e-01 1.596954999999999902e-01 3.247370000000000090e+01 1.732434999999999832e+02 1.907720000000000027e+03
1.479999999999999927e-01 1.596465000000000245e-01 3.162349999999999994e+01 1.719484999999999957e+02 1.907289999999999964e+03
1.489999999999999936e-01 1.595945000000000003e-01 3.076415000000000077e+01 1.706084999999999923e+02 1.906829999999999927e+03
1.499999999999999944e-01 1.595415000000000028e-01 2.989959999999999951e+01 1.692345000000000255e+02 1.906355000000000018e+03
1.509999999999999953e-01 1.594865000000000033e-01 2.903425000000000011e+01 1.678369999999999891e+02 1.905869999999999891e+03
1.519999999999999962e-01 1.594305000000000028e-01 2.817304999999999993e+01 1.664284999999999854e+02 1.905375000000000000e+03
1.529999999999999971e-01 1.593745000000000023e-01 2.732140000000000057e+01 1.650219999999999914e+02 1.904875000000000000e+03
1.539999999999999980e-01 1.593180000000000152e-01 2.648450000000000060e+01 1.636304999999999836e+02 1.904375000000000000e+03
1.549999999999999989e-01 1.592615000000000003e-01 2.566775000000000162e+01 1.622665000000000077e+02 1.903875000000000000e+03
1.559999999999999998e-01 1.592065000000000008e-01 2.487619999999999720e+01 1.609404999999999859e+02 1.903385000000000218e+03
1.570000000000000007e-01 1.591525000000000023e-01 2.411449999999999960e+01 1.596639999999999873e+02 1.902904999999999973e+03
1.580000000000000016e-01 1.590995000000000048e-01 2.338670000000000115e+01 1.584449999999999932e+02 1.902440000000000055e+03
1.590000000000000024e-01 1.590495000000000103e-01 2.269614999999999938e+01 1.572909999999999968e+02 1.901984999999999900e+03
