# t [s], A [cm^2], U [cm/s], P [cPa], c [cm/s]
1.000000000000000021e-03 1.521239999999999815e-01 2.764949999999999908e-01 1.043155000000000001e+02 1.910384999999999991e+03
2.000000000000000042e-03 1.520900000000000030e-01 1.877294499999999866e+00 1.011705500000000058e+02 1.910059999999999945e+03
3.000000000000000062e-03 1.519770000000000010e-01 3.874034500000000047e+00 9.687479999999999336e+01 1.909069999999999936e+03
4.000000000000000083e-03 1.518125000000000169e-01 6.109797000000000367e+00 9.201339999999999009e+01 1.907639999999999873e+03
5.000000000000000104e-03 1.516260000000000108e-01 8.520939999999999515e+00 8.741235000000000355e+01 1.906034999999999854e+03
6.000000000000000125e-03 1.514389999999999903e-01 1.097600500000000068e+01 8.349280000000000257e+01 1.904445000000000164e+03
7.000000000000000146e-03 1.512614999999999932e-01 1.328177000000000163e+01 8.019409999999999172e+01 1.902954999999999927e+03
8.000000000000000167e-03 1.510950000000000071e-01 1.530026999999999937e+01 7.727074999999999250e+01 1.901585000000000036e+03
9.000000000000001055e-03 1.509435000000000082e-01 1.701944999999999908e+01 7.464824999999999022e+01 1.900355000000000018e+03
1.000000000000000194e-02 1.508105000000000140e-01 1.847809999999999775e+01 7.239695000000000391e+01 1.899284999999999854e+03
1.099999999999999936e-02 1.506970000000000254e-01 1.970040000000000191e+01 7.054740000000001032e+01 1.898384999999999991e+03
1.200000000000000025e-02 1.506029999999999869e-01 2.070244999999999891e+01 6.907009999999999650e+01 1.897644999999999982e+03
1.300000000000000114e-02 1.505269999999999941e-01 2.149994999999999834e+01 6.791545000000000698e+01 1.897054999999999836e+03
1.400000000000000203e-02 1.504659999999999886e-01 2.210034999999999883e+01 6.700665000000000759e+01 1.896585000000000036e+03
1.499999999999999944e-02 1.504159999999999942e-01 2.251474999999999937e+01 6.625424999999999898e+01 1.896215000000000146e+03
1.600000000000000033e-02 1.503764999999999963e-01 2.278914999999999935e+01 6.563625000000000398e+01 1.895924999999999955e+03
1.700000000000000122e-02 1.503475000000000228e-01 2.301855000000000118e+01 6.526975000000000193e+01 1.895715000000000146e+03
1.800000000000000211e-02 1.503349999999999964e-01 2.332045000000000101e+01 6.538320000000000221e+01 1.895634999999999991e+03
1.900000000000000300e-02 1.503439999999999777e-01 2.378300000000000125e+01 6.619290000000000873e+01 1.895720000000000027e+03
2.000000000000000042e-02 1.503789999999999849e-01 2.442345000000000255e+01 6.776465000000000316e+01 1.896009999999999991e+03
2.100000000000000130e-02 1.504379999999999884e-01 2.517820000000000036e+01 6.994509999999999650e+01 1.896474999999999909e+03
2.200000000000000219e-02 1.505119999999999791e-01 2.592685000000000173e+01 7.239209999999999923e+01 1.897075000000000045e+03
2.299999999999999961e-02 1.505904999999999883e-01 2.653549999999999898e+01 7.468104999999999905e+01 1.897715000000000146e+03
2.400000000000000050e-02 1.506619999999999904e-01 2.689955000000000140e+01 7.643514999999999304e+01 1.898305000000000064e+03
2.500000000000000139e-02 1.507165000000000032e-01 2.697285000000000110e+01 7.743059999999999832e+01 1.898759999999999991e+03
2.600000000000000228e-02 1.507494999999999807e-01 2.677400000000000091e+01 7.764349999999998886e+01 1.899055000000000064e+03
2.700000000000000316e-02 1.507620000000000071e-01 2.637225000000000108e+01 7.723019999999999641e+01 1.899174999999999955e+03
2.800000000000000058e-02 1.507580000000000031e-01 2.585914999999999964e+01 7.645435000000000514e+01 1.899164999999999964e+03
2.900000000000000147e-02 1.507450000000000179e-01 2.531799999999999784e+01 7.559210000000000207e+01 1.899065000000000055e+03
3.000000000000000236e-02 1.507284999999999875e-01 2.480120000000000147e+01 7.484850000000000136e+01 1.898934999999999945e+03
3.099999999999999978e-02 1.507129999999999859e-01 2.432094999999999985e+01 7.431064999999999543e+01 1.898815000000000055e+03
3.200000000000000067e-02 1.507010000000000016e-01 2.385470000000000113e+01 7.394480000000000075e+01 1.898719999999999800e+03
3.300000000000000155e-02 1.506890000000000174e-01 2.336035000000000039e+01 7.363179999999999836e+01 1.898625000000000000e+03
3.400000000000000244e-02 1.506759999999999766e-01 2.279595000000000127e+01 7.322414999999999452e+01 1.898519999999999982e+03
3.500000000000000333e-02 1.506574999999999998e-01 2.213804999999999978e+01 7.260564999999999714e+01 1.898380000000000109e+03
3.600000000000000422e-02 1.506319999999999881e-01 2.139329999999999998e+01 7.173734999999999218e+01 1.898179999999999836e+03
3.700000000000000511e-02 1.506000000000000116e-01 2.060154999999999959e+01 7.067879999999999541e+01 1.897930000000000064e+03
3.799999999999999906e-02 1.505640000000000034e-01 1.982884999999999920e+01 6.957884999999998854e+01 1.897639999999999873e+03
3.899999999999999994e-02 1.505289999999999961e-01 1.915265000000000128e+01 6.864050000000000296e+01 1.897360000000000127e+03
4.000000000000000083e-02 1.505015000000000103e-01 1.864419999999999789e+01 6.806964999999999577e+01 1.897134999999999991e+03
4.100000000000000172e-02 1.504869999999999819e-01 1.835184999999999889e+01 6.802325000000000443e+01 1.897014999999999873e+03
4.200000000000000261e-02 1.504900000000000126e-01 1.828999999999999915e+01 6.856974999999999909e+01 1.897019999999999982e+03
4.300000000000000350e-02 1.505110000000000059e-01 1.843654999999999688e+01 6.967204999999999870e+01 1.897170000000000073e+03
4.400000000000000439e-02 1.505480000000000151e-01 1.873734999999999928e+01 7.119450000000000500e+01 1.897460000000000036e+03
4.499999999999999833e-02 1.505964999999999943e-01 1.911614999999999753e+01 7.292924999999999613e+01 1.897840000000000146e+03
4.599999999999999922e-02 1.506514999999999938e-01 1.948825000000000074e+01 7.463439999999999941e+01 1.898269999999999982e+03
4.700000000000000011e-02 1.507034999999999902e-01 1.977284999999999826e+01 7.607465000000000543e+01 1.898695000000000164e+03
4.800000000000000100e-02 1.507479999999999931e-01 1.990350000000000108e+01 7.705504999999999427e+01 1.899049999999999955e+03
4.900000000000000189e-02 1.507769999999999944e-01 1.983440000000000225e+01 7.744435000000000002e+01 1.899289999999999964e+03
5.000000000000000278e-02 1.507880000000000054e-01 1.954289999999999949e+01 7.718389999999999418e+01 1.899389999999999873e+03
5.100000000000000366e-02 1.507784999999999820e-01 1.902790000000000248e+01 7.628435000000000343e+01 1.899324999999999818e+03
5.200000000000000455e-02 1.507485000000000075e-01 1.830555000000000021e+01 7.481189999999999429e+01 1.899094999999999800e+03
5.300000000000000544e-02 1.507000000000000006e-01 1.740399999999999991e+01 7.286969999999999459e+01 1.898714999999999918e+03
5.399999999999999939e-02 1.506350000000000189e-01 1.635810000000000031e+01 7.057829999999999870e+01 1.898199999999999818e+03
5.500000000000000028e-02 1.505580000000000251e-01 1.520495000000000019e+01 6.805910000000000082e+01 1.897585000000000036e+03
5.600000000000000117e-02 1.504714999999999803e-01 1.398104999999999976e+01 6.542350000000000421e+01 1.896900000000000091e+03
5.700000000000000205e-02 1.503800000000000137e-01 1.272152499999999975e+01 6.276794999999999902e+01 1.896164999999999964e+03
5.800000000000000294e-02 1.502860000000000029e-01 1.145992500000000014e+01 6.017425000000000068e+01 1.895409999999999854e+03
5.900000000000000383e-02 1.501929999999999932e-01 1.022907499999999992e+01 5.771304999999999552e+01 1.894659999999999854e+03
6.000000000000000472e-02 1.501029999999999864e-01 9.062135000000001384e+00 5.544904999999999973e+01 1.893934999999999945e+03
6.099999999999999867e-02 1.500195000000000001e-01 7.993190000000000239e+00 5.344554999999999723e+01 1.893255000000000109e+03
6.199999999999999956e-02 1.499444999999999806e-01 7.057195000000000107e+00 5.176739999999999498e+01 1.892650000000000091e+03
6.300000000000000044e-02 1.498804999999999998e-01 6.289225000000000065e+00 5.048085000000000377e+01 1.892130000000000109e+03
6.400000000000000133e-02 1.498305000000000053e-01 5.723060000000000258e+00 4.965205000000000268e+01 1.891710000000000036e+03
6.500000000000000222e-02 1.497970000000000135e-01 5.389319999999999666e+00 4.934255000000000280e+01 1.891429999999999836e+03
6.600000000000000311e-02 1.497815000000000119e-01 5.313424999999999621e+00 4.960459999999999781e+01 1.891295000000000073e+03
6.700000000000000400e-02 1.497870000000000035e-01 5.513774999999999871e+00 5.047584999999999411e+01 1.891315000000000055e+03
6.800000000000000488e-02 1.498140000000000027e-01 6.000334999999999752e+00 5.197554999999999836e+01 1.891519999999999982e+03
6.900000000000000577e-02 1.498635000000000106e-01 6.773844999999999672e+00 5.410175000000000267e+01 1.891894999999999982e+03
7.000000000000000666e-02 1.499360000000000137e-01 7.825680000000000192e+00 5.683074999999999477e+01 1.892460000000000036e+03
7.100000000000000755e-02 1.500305000000000111e-01 9.138495000000000701e+00 6.011825000000000330e+01 1.893200000000000045e+03
7.200000000000000844e-02 1.501450000000000007e-01 1.068706500000000048e+01 6.390240000000000009e+01 1.894099999999999909e+03
7.300000000000000933e-02 1.502779999999999949e-01 1.243995999999999924e+01 6.810710000000000264e+01 1.895160000000000082e+03
7.399999999999999634e-02 1.504269999999999774e-01 1.436104999999999876e+01 7.264719999999999800e+01 1.896349999999999909e+03
7.499999999999999722e-02 1.505894999999999873e-01 1.641150000000000020e+01 7.743280000000000030e+01 1.897650000000000091e+03
7.599999999999999811e-02 1.507620000000000071e-01 1.855105000000000004e+01 8.237409999999999854e+01 1.899034999999999854e+03
7.699999999999999900e-02 1.509420000000000206e-01 2.074044999999999916e+01 8.738535000000000252e+01 1.900484999999999900e+03
7.799999999999999989e-02 1.511254999999999959e-01 2.294245000000000090e+01 9.238884999999999081e+01 1.901970000000000027e+03
7.900000000000000078e-02 1.513105000000000144e-01 2.512340000000000018e+01 9.731784999999999286e+01 1.903474999999999909e+03
8.000000000000000167e-02 1.514944999999999764e-01 2.725450000000000017e+01 1.021188500000000090e+02 1.904974999999999909e+03
8.100000000000000255e-02 1.516754999999999909e-01 2.931264999999999787e+01 1.067540999999999940e+02 1.906454999999999927e+03
8.200000000000000344e-02 1.518519999999999870e-01 3.128065000000000140e+01 1.111995000000000005e+02 1.907900000000000091e+03
8.300000000000000433e-02 1.520229999999999915e-01 3.314784999999999826e+01 1.154480000000000075e+02 1.909304999999999836e+03
8.400000000000000522e-02 1.521885000000000043e-01 3.490914999999999679e+01 1.195045000000000073e+02 1.910670000000000073e+03
8.500000000000000611e-02 1.523470000000000102e-01 3.656484999999999985e+01 1.233855000000000075e+02 1.911980000000000018e+03
8.600000000000000699e-02 1.525009999999999977e-01 3.811929999999999552e+01 1.271159999999999997e+02 1.913255000000000109e+03
8.700000000000000788e-02 1.526494999999999935e-01 3.957994999999999663e+01 1.307239999999999895e+02 1.914485000000000127e+03
8.800000000000000877e-02 1.527944999999999998e-01 4.095595000000000141e+01 1.342400000000000091e+02 1.915684999999999945e+03
8.899999999999999578e-02 1.529355000000000020e-01 4.225695000000000334e+01 1.376920000000000073e+02 1.916860000000000127e+03
8.999999999999999667e-02 1.530739999999999879e-01 4.349200000000000443e+01 1.411034999999999968e+02 1.918009999999999991e+03
9.099999999999999756e-02 1.532109999999999861e-01 4.466864999999999952e+01 1.444894999999999925e+02 1.919150000000000091e+03
9.199999999999999845e-02 1.533470000000000111e-01 4.579240000000000066e+01 1.478594999999999970e+02 1.920279999999999973e+03
9.299999999999999933e-02 1.534814999999999929e-01 4.686610000000000298e+01 1.512125000000000057e+02 1.921400000000000091e+03
9.400000000000000022e-02 1.536155000000000159e-01 4.788979999999999393e+01 1.545394999999999754e+02 1.922514999999999873e+03
9.500000000000000111e-02 1.537479999999999958e-01 4.886119999999999663e+01 1.578254999999999768e+02 1.923615000000000009e+03
9.600000000000000200e-02 1.538775000000000004e-01 4.977544999999999931e+01 1.610475000000000136e+02 1.924704999999999927e+03
9.700000000000000289e-02 1.540055000000000174e-01 5.062569999999999482e+01 1.641795000000000186e+02 1.925769999999999982e+03
9.800000000000000377e-02 1.541294999999999749e-01 5.140370000000000061e+01 1.671910000000000025e+02 1.926809999999999945e+03
9.900000000000000466e-02 1.542489999999999972e-01 5.210014999999999930e+01 1.700529999999999973e+02 1.927809999999999945e+03
1.000000000000000056e-01 1.543630000000000002e-01 5.270544999999999902e+01 1.727334999999999923e+02 1.928764999999999873e+03
1.010000000000000064e-01 1.544699999999999962e-01 5.321004999999999541e+01 1.752055000000000007e+02 1.929659999999999854e+03
1.020000000000000073e-01 1.545694999999999986e-01 5.360519999999999641e+01 1.774420000000000073e+02 1.930494999999999891e+03
1.030000000000000082e-01 1.546604999999999785e-01 5.388315000000000055e+01 1.794209999999999923e+02 1.931265000000000100e+03
1.040000000000000091e-01 1.547419999999999907e-01 5.403775000000000261e+01 1.811260000000000048e+02 1.931950000000000045e+03
1.050000000000000100e-01 1.548129999999999784e-01 5.406475000000000364e+01 1.825450000000000159e+02 1.932555000000000064e+03
1.059999999999999970e-01 1.548740000000000117e-01 5.396219999999999573e+01 1.836719999999999970e+02 1.933074999999999818e+03
1.069999999999999979e-01 1.549234999999999918e-01 5.373029999999999973e+01 1.845065000000000168e+02 1.933505000000000109e+03
1.079999999999999988e-01 1.549625000000000030e-01 5.337205000000000155e+01 1.850540000000000020e+02 1.933840000000000146e+03
1.089999999999999997e-01 1.549909999999999899e-01 5.289280000000000115e+01 1.853269999999999982e+02 1.934090000000000146e+03
1.100000000000000006e-01 1.550095000000000223e-01 5.230039999999999623e+01 1.853425000000000011e+02 1.934255000000000109e+03
1.110000000000000014e-01 1.550175000000000025e-01 5.160484999999999900e+01 1.851220000000000141e+02 1.934329999999999927e+03
1.120000000000000023e-01 1.550169999999999881e-01 5.081815000000000282e+01 1.846924999999999955e+02 1.934340000000000146e+03
1.130000000000000032e-01 1.550079999999999791e-01 4.995374999999999943e+01 1.840819999999999936e+02 1.934269999999999982e+03
1.140000000000000041e-01 1.549919999999999909e-01 4.902615000000000123e+01 1.833230000000000075e+02 1.934144999999999982e+03
1.150000000000000050e-01 1.549695000000000100e-01 4.805025000000000546e+01 1.824465000000000146e+02 1.933974999999999909e+03
1.160000000000000059e-01 1.549429999999999974e-01 4.704110000000000014e+01 1.814840000000000089e+02 1.933750000000000000e+03
1.170000000000000068e-01 1.549115000000000075e-01 4.601335000000000264e+01 1.804650000000000034e+02 1.933500000000000000e+03
1.180000000000000077e-01 1.548785000000000023e-01 4.498035000000000139e+01 1.794180000000000064e+02 1.933219999999999800e+03
1.190000000000000085e-01 1.548424999999999940e-01 4.395439999999999969e+01 1.783650000000000091e+02 1.932924999999999955e+03
1.200000000000000094e-01 1.548059999999999992e-01 4.294594999999999629e+01 1.773265000000000100e+02 1.932619999999999891e+03
1.209999999999999964e-01 1.547695000000000043e-01 4.196365000000000123e+01 1.763184999999999718e+02 1.932320000000000164e+03
1.219999999999999973e-01 1.547330000000000094e-01 4.101385000000000502e+01 1.753505000000000109e+02 1.932015000000000100e+03
1.229999999999999982e-01 1.546980000000000022e-01 4.010085000000000122e+01 1.744284999999999854e+02 1.931719999999999800e+03
1.239999999999999991e-01 1.546635000000000093e-01 3.922684999999999889e+01 1.735550000000000068e+02 1.931424999999999955e+03
1.250000000000000000e-01 1.546305000000000041e-01 3.839175000000000182e+01 1.727255000000000109e+02 1.931144999999999982e+03
1.260000000000000009e-01 1.545984999999999998e-01 3.759375000000000000e+01 1.719329999999999927e+02 1.930880000000000109e+03
1.270000000000000018e-01 1.545674999999999966e-01 3.682914999999999850e+01 1.711689999999999827e+02 1.930615000000000009e+03
1.280000000000000027e-01 1.545374999999999943e-01 3.609275000000000233e+01 1.704194999999999993e+02 1.930365000000000009e+03
1.290000000000000036e-01 1.545074999999999921e-01 3.537845000000000084e+01 1.696694999999999993e+02 1.930110000000000127e+03
1.300000000000000044e-01 1.544774999999999898e-01 3.467910000000000537e+01 1.689039999999999964e+02 1.929855000000000018e+03
1.310000000000000053e-01 1.544464999999999866e-01 3.398729999999999762e+01 1.681055000000000064e+02 1.929599999999999909e+03
1.320000000000000062e-01 1.544145000000000101e-01 3.329540000000000077e+01 1.672590000000000146e+02 1.929329999999999927e+03
1.330000000000000071e-01 1.543809999999999905e-01 3.259619999999999607e+01 1.663489999999999895e+02 1.929045000000000073e+03
1.340000000000000080e-01 1.543454999999999966e-01 3.188309999999999889e+01 1.653639999999999759e+02 1.928744999999999891e+03
1.350000000000000089e-01 1.543065000000000131e-01 3.115034999999999954e+01 1.642925000000000182e+02 1.928424999999999955e+03
1.360000000000000098e-01 1.542649999999999855e-01 3.039355000000000118e+01 1.631270000000000095e+02 1.928079999999999927e+03
1.370000000000000107e-01 1.542199999999999960e-01 2.960965000000000202e+01 1.618650000000000091e+02 1.927704999999999927e+03
1.380000000000000115e-01 1.541720000000000035e-01 2.879729999999999990e+01 1.605049999999999955e+02 1.927304999999999836e+03
1.390000000000000124e-01 1.541200000000000070e-01 2.795674999999999955e+01 1.590520000000000209e+02 1.926875000000000000e+03
1.400000000000000133e-01 1.540644999999999931e-01 2.709004999999999797e+01 1.575130000000000052e+02 1.926420000000000073e+03
1.410000000000000142e-01 1.540064999999999906e-01 2.620105000000000217e+01 1.558985000000000127e+02 1.925940000000000055e+03
1.420000000000000151e-01 1.539455000000000129e-01 2.529489999999999839e+01 1.542244999999999777e+02 1.925430000000000064e+03
1.430000000000000160e-01 1.538824999999999776e-01 2.437834999999999752e+01 1.525079999999999814e+02 1.924910000000000082e+03
1.440000000000000169e-01 1.538174999999999959e-01 2.345929999999999893e+01 1.507685000000000173e+02 1.924375000000000000e+03
1.450000000000000178e-01 1.537519999999999998e-01 2.254635000000000034e+01 1.490269999999999868e+02 1.923829999999999927e+03
1.459999999999999909e-01 1.536859999999999893e-01 2.164874999999999972e+01 1.473054999999999950e+02 1.923284999999999854e+03
1.469999999999999918e-01 1.536204999999999932e-01 2.077574999999999861e+01 1.456254999999999882e+02 1.922740000000000009e+03
1.479999999999999927e-01 1.535559999999999981e-01 1.993649999999999878e+01 1.440084999999999980e+02 1.922204999999999927e+03
1.489999999999999936e-01 1.534944999999999782e-01 1.913940000000000197e+01 1.424724999999999966e+02 1.921690000000000055e+03
1.499999999999999944e-01 1.534344999999999737e-01 1.839209999999999923e+01 1.410345000000000084e+02 1.921200000000000045e+03
1.509999999999999953e-01 1.533784999999999732e-01 1.770100000000000051e+01 1.397075000000000102e+02 1.920730000000000018e+03
1.519999999999999962e-01 1.533259999999999901e-01 1.707104999999999961e+01 1.385020000000000095e+02 1.920295000000000073e+03
1.529999999999999971e-01 1.532784999999999842e-01 1.650565000000000282e+01 1.374244999999999948e+02 1.919894999999999982e+03
1.539999999999999980e-01 1.532344999999999957e-01 1.600669999999999860e+01 1.364770000000000039e+02 1.919525000000000091e+03
1.549999999999999989e-01 1.531959999999999988e-01 1.557444999999999879e+01 1.356589999999999918e+02 1.919194999999999936e+03
1.559999999999999998e-01 1.531615000000000060e-01 1.520744999999999969e+01 1.349650000000000034e+02 1.918909999999999854e+03
1.570000000000000007e-01 1.531314999999999760e-01 1.490305000000000035e+01 1.343885000000000218e+02 1.918660000000000082e+03
1.580000000000000016e-01 1.531065000000000065e-01 1.465735000000000099e+01 1.339200000000000159e+02 1.918444999999999936e+03
1.590000000000000024e-01 1.530849999999999989e-01 1.446529999999999916e+01 1.335475000000000136e+02 1.918259999999999991e+03
