# t [s], A [cm^2], U [cm/s], P [cPa], c [cm/s]
1.000000000000000021e-03 1.356219999999999926e-01 4.552979999999999805e-01 1.034860000000000042e+02 1.873730000000000018e+03
2.000000000000000042e-03 1.355870000000000131e-01 2.238923499999999844e+00 9.989840000000000941e+01 1.873329999999999927e+03
3.000000000000000062e-03 1.354799999999999893e-01 4.362289999999999779e+00 9.526054999999999495e+01 1.872154999999999973e+03
4.000000000000000083e-03 1.353280000000000038e-01 6.694223499999999660e+00 9.037359999999999616e+01 1.870509999999999991e+03
5.000000000000000104e-03 1.351600000000000024e-01 9.160404999999999021e+00 8.606340000000000146e+01 1.868699999999999818e+03
6.000000000000000125e-03 1.349930000000000019e-01 1.159736499999999992e+01 8.258100000000000307e+01 1.866930000000000064e+03
7.000000000000000146e-03 1.348349999999999826e-01 1.381302499999999966e+01 7.970180000000000575e+01 1.865279999999999973e+03
8.000000000000000167e-03 1.346884999999999888e-01 1.571735999999999933e+01 7.717109999999999559e+01 1.863769999999999982e+03
9.000000000000001055e-03 1.345564999999999956e-01 1.733265000000000100e+01 7.496895000000000664e+01 1.862430000000000064e+03
1.000000000000000194e-02 1.344425000000000203e-01 1.869555000000000078e+01 7.315099999999999625e+01 1.861280000000000200e+03
1.099999999999999936e-02 1.343455000000000066e-01 1.982094999999999985e+01 7.169704999999999018e+01 1.860315000000000055e+03
1.200000000000000025e-02 1.342655000000000098e-01 2.072175000000000011e+01 7.054769999999999186e+01 1.859534999999999854e+03
1.300000000000000114e-02 1.341999999999999860e-01 2.141185000000000116e+01 6.964105000000000700e+01 1.858904999999999973e+03
1.400000000000000203e-02 1.341470000000000162e-01 2.190245000000000175e+01 6.890285000000000082e+01 1.858394999999999982e+03
1.499999999999999944e-02 1.341040000000000010e-01 2.222200000000000131e+01 6.828364999999999441e+01 1.857994999999999891e+03
1.600000000000000033e-02 1.340695000000000081e-01 2.244290000000000163e+01 6.784184999999999377e+01 1.857684999999999945e+03
1.700000000000000122e-02 1.340480000000000005e-01 2.267660000000000053e+01 6.777185000000000059e+01 1.857490000000000009e+03
1.800000000000000211e-02 1.340434999999999821e-01 2.303144999999999953e+01 6.831999999999999318e+01 1.857470000000000027e+03
1.900000000000000300e-02 1.340620000000000145e-01 2.356155000000000044e+01 6.963694999999999879e+01 1.857664999999999964e+03
2.000000000000000042e-02 1.341034999999999866e-01 2.423914999999999864e+01 7.166534999999998945e+01 1.858090000000000146e+03
2.100000000000000130e-02 1.341644999999999921e-01 2.496349999999999980e+01 7.412495000000001255e+01 1.858704999999999927e+03
2.200000000000000219e-02 1.342360000000000220e-01 2.559765000000000157e+01 7.659484999999999388e+01 1.859434999999999945e+03
2.299999999999999961e-02 1.343070000000000097e-01 2.601525000000000176e+01 7.864724999999999966e+01 1.860159999999999854e+03
2.400000000000000050e-02 1.343675000000000008e-01 2.613775000000000048e+01 7.997390000000000043e+01 1.860784999999999854e+03
2.500000000000000139e-02 1.344100000000000017e-01 2.595224999999999937e+01 8.046274999999999977e+01 1.861235000000000127e+03
2.600000000000000228e-02 1.344325000000000103e-01 2.550639999999999930e+01 8.020499999999999829e+01 1.861490000000000009e+03
2.700000000000000316e-02 1.344365000000000143e-01 2.488555000000000206e+01 7.943899999999999295e+01 1.861555000000000064e+03
2.800000000000000058e-02 1.344285000000000063e-01 2.418205000000000027e+01 7.845789999999999509e+01 1.861490000000000009e+03
2.900000000000000147e-02 1.344124999999999903e-01 2.346889999999999787e+01 7.751650000000000773e+01 1.861344999999999800e+03
3.000000000000000236e-02 1.343960000000000155e-01 2.278434999999999988e+01 7.676794999999999902e+01 1.861184999999999945e+03
3.099999999999999978e-02 1.343810000000000004e-01 2.213015000000000043e+01 7.624299999999999500e+01 1.861039999999999964e+03
3.200000000000000067e-02 1.343679999999999874e-01 2.148254999999999981e+01 7.587149999999999750e+01 1.860914999999999964e+03
3.300000000000000155e-02 1.343570000000000042e-01 2.080805000000000149e+01 7.553014999999999191e+01 1.860799999999999955e+03
3.400000000000000244e-02 1.343445000000000056e-01 2.008115000000000094e+01 7.509915000000000873e+01 1.860674999999999955e+03
3.500000000000000333e-02 1.343285000000000173e-01 1.929710000000000036e+01 7.451024999999999920e+01 1.860525000000000091e+03
3.600000000000000422e-02 1.343084999999999973e-01 1.847775000000000034e+01 7.377410000000000423e+01 1.860329999999999927e+03
3.700000000000000511e-02 1.342855000000000021e-01 1.766910000000000025e+01 7.298230000000000928e+01 1.860099999999999909e+03
3.799999999999999906e-02 1.342625000000000068e-01 1.693175000000000097e+01 7.228454999999999586e+01 1.859875000000000000e+03
3.899999999999999994e-02 1.342430000000000012e-01 1.632665000000000077e+01 7.184940000000000282e+01 1.859679999999999836e+03
4.000000000000000083e-02 1.342325000000000046e-01 1.590084999999999837e+01 7.181899999999998840e+01 1.859565000000000055e+03
4.100000000000000172e-02 1.342329999999999912e-01 1.567585000000000051e+01 7.227139999999999986e+01 1.859559999999999945e+03
4.200000000000000261e-02 1.342470000000000052e-01 1.564240000000000030e+01 7.319790000000000418e+01 1.859684999999999945e+03
4.300000000000000350e-02 1.342734999999999901e-01 1.576109999999999900e+01 7.450145000000000550e+01 1.859949999999999818e+03
4.400000000000000439e-02 1.343104999999999993e-01 1.596914999999999907e+01 7.601304999999999268e+01 1.860305000000000064e+03
4.499999999999999833e-02 1.343535000000000146e-01 1.619089999999999918e+01 7.752164999999999395e+01 1.860724999999999909e+03
4.599999999999999922e-02 1.343965000000000021e-01 1.634874999999999901e+01 7.880910000000000082e+01 1.861154999999999973e+03
4.700000000000000011e-02 1.344334999999999836e-01 1.637375000000000114e+01 7.968285000000000196e+01 1.861525000000000091e+03
4.800000000000000100e-02 1.344595000000000096e-01 1.621314999999999884e+01 8.000050000000000239e+01 1.861785000000000082e+03
4.900000000000000189e-02 1.344704999999999928e-01 1.583439999999999870e+01 7.968360000000001264e+01 1.861900000000000091e+03
5.000000000000000278e-02 1.344629999999999992e-01 1.522615000000000052e+01 7.871895000000000664e+01 1.861835000000000036e+03
5.100000000000000366e-02 1.344370000000000009e-01 1.439574999999999960e+01 7.715109999999999957e+01 1.861579999999999927e+03
5.200000000000000455e-02 1.343924999999999981e-01 1.336585000000000001e+01 7.506810000000000116e+01 1.861144999999999982e+03
5.300000000000000544e-02 1.343320000000000070e-01 1.216982499999999945e+01 7.258494999999999209e+01 1.860545000000000073e+03
5.399999999999999939e-02 1.342575000000000018e-01 1.084750999999999976e+01 6.982789999999999964e+01 1.859804999999999836e+03
5.500000000000000028e-02 1.341729999999999867e-01 9.441934999999999079e+00 6.692279999999999518e+01 1.858964999999999918e+03
5.600000000000000117e-02 1.340820000000000067e-01 7.997110000000000163e+00 6.398725000000000307e+01 1.858054999999999836e+03
5.700000000000000205e-02 1.339875000000000094e-01 6.556975000000000442e+00 6.112740000000000151e+01 1.857115000000000009e+03
5.800000000000000294e-02 1.338940000000000130e-01 5.164690000000000225e+00 5.843840000000000146e+01 1.856174999999999955e+03
5.900000000000000383e-02 1.338034999999999919e-01 3.862627499999999880e+00 5.600619999999999976e+01 1.855264999999999873e+03
6.000000000000000472e-02 1.337200000000000055e-01 2.692182500000000367e+00 5.390975000000000250e+01 1.854420000000000073e+03
6.099999999999999867e-02 1.336455000000000004e-01 1.693265499999999868e+00 5.222259999999999991e+01 1.853670000000000073e+03
6.199999999999999956e-02 1.335830000000000073e-01 9.034450000000000536e-01 5.101279999999999859e+01 1.853035000000000082e+03
6.300000000000000044e-02 1.335350000000000148e-01 3.566300000000000026e-01 5.034159999999999968e+01 1.852545000000000073e+03
6.400000000000000133e-02 1.335040000000000115e-01 8.150899999999999812e-02 5.026019999999999754e+01 1.852219999999999800e+03
6.500000000000000222e-02 1.334919999999999995e-01 9.994005000000000249e-02 5.080655000000000143e+01 1.852079999999999927e+03
6.600000000000000311e-02 1.335000000000000075e-01 4.255050000000000221e-01 5.200154999999999461e+01 1.852144999999999982e+03
6.700000000000000400e-02 1.335290000000000088e-01 1.062482499999999996e+00 5.384649999999999892e+01 1.852414999999999964e+03
6.800000000000000488e-02 1.335800000000000043e-01 2.005366435000000003e+00 5.632150000000000034e+01 1.852900000000000091e+03
6.900000000000000577e-02 1.336514999999999787e-01 3.239031500000000285e+00 5.938620000000000232e+01 1.853599999999999909e+03
7.000000000000000666e-02 1.337430000000000008e-01 4.739525000000000432e+00 6.298104999999999620e+01 1.854500000000000000e+03
7.100000000000000755e-02 1.338535000000000141e-01 6.475344999999999906e+00 6.703110000000000923e+01 1.855585000000000036e+03
7.200000000000000844e-02 1.339799999999999880e-01 8.409145000000000536e+00 7.145035000000000025e+01 1.856840000000000146e+03
7.300000000000000933e-02 1.341205000000000036e-01 1.049963500000000138e+01 7.614660000000000650e+01 1.858235000000000127e+03
7.399999999999999634e-02 1.342720000000000025e-01 1.270342499999999930e+01 8.102609999999999957e+01 1.859744999999999891e+03
7.499999999999999722e-02 1.344314999999999816e-01 1.497710000000000008e+01 8.599864999999999782e+01 1.861345000000000027e+03
7.599999999999999811e-02 1.345959999999999934e-01 1.727885000000000204e+01 9.098130000000000450e+01 1.863009999999999991e+03
7.699999999999999900e-02 1.347639999999999949e-01 1.957000000000000028e+01 9.590170000000000528e+01 1.864700000000000045e+03
7.799999999999999989e-02 1.349314999999999820e-01 2.181649999999999778e+01 1.007003500000000003e+02 1.866400000000000091e+03
7.900000000000000078e-02 1.350970000000000226e-01 2.398949999999999960e+01 1.053320499999999953e+02 1.868085000000000036e+03
8.000000000000000167e-02 1.352594999999999770e-01 2.606660000000000110e+01 1.097684999999999889e+02 1.869735000000000127e+03
8.100000000000000255e-02 1.354170000000000096e-01 2.803190000000000026e+01 1.139944999999999879e+02 1.871349999999999909e+03
8.200000000000000344e-02 1.355689999999999951e-01 2.987599999999999767e+01 1.180114999999999981e+02 1.872910000000000082e+03
8.300000000000000433e-02 1.357145000000000157e-01 3.159580000000000055e+01 1.218319999999999936e+02 1.874420000000000073e+03
8.400000000000000522e-02 1.358554999999999902e-01 3.319360000000000355e+01 1.254805000000000064e+02 1.875869999999999891e+03
8.500000000000000611e-02 1.359904999999999864e-01 3.467649999999999721e+01 1.289869999999999948e+02 1.877275000000000091e+03
8.600000000000000699e-02 1.361215000000000064e-01 3.605474999999999852e+01 1.323885000000000218e+02 1.878630000000000109e+03
8.700000000000000788e-02 1.362494999999999956e-01 3.734089999999999776e+01 1.357205000000000155e+02 1.879954999999999927e+03
8.800000000000000877e-02 1.363739999999999952e-01 3.854824999999999591e+01 1.390179999999999723e+02 1.881255000000000109e+03
8.899999999999999578e-02 1.364974999999999938e-01 3.968959999999999866e+01 1.423104999999999905e+02 1.882545000000000073e+03
8.999999999999999667e-02 1.366209999999999924e-01 4.077625000000000455e+01 1.456209999999999809e+02 1.883829999999999927e+03
9.099999999999999756e-02 1.367439999999999767e-01 4.181705000000000183e+01 1.489615000000000009e+02 1.885109999999999900e+03
9.199999999999999845e-02 1.368670000000000164e-01 4.281775000000000375e+01 1.523369999999999891e+02 1.886400000000000091e+03
9.299999999999999933e-02 1.369909999999999739e-01 4.378074999999999761e+01 1.557409999999999854e+02 1.887695000000000164e+03
9.400000000000000022e-02 1.371160000000000156e-01 4.470485000000000042e+01 1.591580000000000155e+02 1.889000000000000000e+03
9.500000000000000111e-02 1.372404999999999875e-01 4.558549999999999613e+01 1.625645000000000095e+02 1.890299999999999955e+03
9.600000000000000200e-02 1.373645000000000005e-01 4.641530000000000200e+01 1.659309999999999832e+02 1.891599999999999909e+03
9.700000000000000289e-02 1.374874999999999847e-01 4.718439999999999657e+01 1.692219999999999800e+02 1.892884999999999991e+03
9.800000000000000377e-02 1.376074999999999937e-01 4.788119999999999976e+01 1.724000000000000057e+02 1.894144999999999982e+03
9.900000000000000466e-02 1.377244999999999997e-01 4.849330000000000496e+01 1.754275000000000091e+02 1.895369999999999891e+03
1.000000000000000056e-01 1.378354999999999997e-01 4.900800000000000267e+01 1.782665000000000077e+02 1.896545000000000073e+03
1.010000000000000064e-01 1.379414999999999947e-01 4.941315000000000168e+01 1.808845000000000027e+02 1.897664999999999964e+03
1.020000000000000073e-01 1.380399999999999960e-01 4.969774999999999920e+01 1.832504999999999882e+02 1.898704999999999927e+03
1.030000000000000082e-01 1.381310000000000038e-01 4.985260000000000247e+01 1.853414999999999964e+02 1.899664999999999964e+03
1.040000000000000091e-01 1.382120000000000015e-01 4.987099999999999511e+01 1.871405000000000030e+02 1.900529999999999973e+03
1.050000000000000100e-01 1.382845000000000046e-01 4.974855000000000160e+01 1.886355000000000075e+02 1.901295000000000073e+03
1.059999999999999970e-01 1.383459999999999968e-01 4.948384999999999678e+01 1.898240000000000123e+02 1.901960000000000036e+03
1.069999999999999979e-01 1.383979999999999932e-01 4.907860000000000156e+01 1.907085000000000150e+02 1.902519999999999982e+03
1.079999999999999988e-01 1.384394999999999931e-01 4.853749999999999432e+01 1.913000000000000114e+02 1.902970000000000027e+03
1.089999999999999997e-01 1.384710000000000107e-01 4.786804999999999666e+01 1.916150000000000091e+02 1.903315000000000055e+03
1.100000000000000006e-01 1.384929999999999772e-01 4.708059999999999690e+01 1.916754999999999995e+02 1.903555000000000064e+03
1.110000000000000014e-01 1.385055000000000036e-01 4.618765000000000498e+01 1.915079999999999814e+02 1.903704999999999927e+03
1.120000000000000023e-01 1.385105000000000086e-01 4.520374999999999943e+01 1.911424999999999841e+02 1.903759999999999991e+03
1.130000000000000032e-01 1.385075000000000056e-01 4.414489999999999981e+01 1.906125000000000114e+02 1.903744999999999891e+03
1.140000000000000041e-01 1.384984999999999966e-01 4.302769999999999584e+01 1.899504999999999768e+02 1.903659999999999854e+03
1.150000000000000050e-01 1.384839999999999960e-01 4.186934999999999718e+01 1.891910000000000025e+02 1.903514999999999873e+03
1.160000000000000059e-01 1.384655000000000191e-01 4.068654999999999688e+01 1.883654999999999973e+02 1.903329999999999927e+03
1.170000000000000068e-01 1.384434999999999971e-01 3.949524999999999864e+01 1.875049999999999955e+02 1.903105000000000018e+03
1.180000000000000077e-01 1.384195000000000009e-01 3.831019999999999470e+01 1.866349999999999909e+02 1.902855000000000018e+03
1.190000000000000085e-01 1.383940000000000170e-01 3.714414999999999623e+01 1.857780000000000200e+02 1.902589999999999918e+03
1.200000000000000094e-01 1.383679999999999910e-01 3.600795000000000101e+01 1.849515000000000100e+02 1.902315000000000055e+03
1.209999999999999964e-01 1.383424999999999794e-01 3.491020000000000323e+01 1.841689999999999827e+02 1.902049999999999955e+03
1.219999999999999973e-01 1.383174999999999821e-01 3.385679999999999978e+01 1.834364999999999952e+02 1.901779999999999973e+03
1.229999999999999982e-01 1.382935000000000136e-01 3.285139999999999816e+01 1.827570000000000050e+02 1.901525000000000091e+03
1.239999999999999991e-01 1.382700000000000040e-01 3.189519999999999911e+01 1.821279999999999859e+02 1.901280000000000200e+03
1.250000000000000000e-01 1.382479999999999820e-01 3.098695000000000022e+01 1.815430000000000064e+02 1.901045000000000073e+03
1.260000000000000009e-01 1.382269999999999888e-01 3.012349999999999994e+01 1.809904999999999973e+02 1.900819999999999936e+03
1.270000000000000018e-01 1.382075000000000109e-01 2.929999999999999716e+01 1.804579999999999984e+02 1.900605000000000018e+03
1.280000000000000027e-01 1.381875000000000187e-01 2.851014999999999944e+01 1.799290000000000020e+02 1.900389999999999873e+03
1.290000000000000036e-01 1.381680000000000130e-01 2.774665000000000248e+01 1.793874999999999886e+02 1.900179999999999836e+03
1.300000000000000044e-01 1.381479999999999930e-01 2.700159999999999982e+01 1.788154999999999859e+02 1.899970000000000027e+03
1.310000000000000053e-01 1.381264999999999854e-01 2.626709999999999923e+01 1.781970000000000027e+02 1.899744999999999891e+03
1.320000000000000062e-01 1.381045000000000189e-01 2.553524999999999778e+01 1.775169999999999959e+02 1.899500000000000000e+03
1.330000000000000071e-01 1.380799999999999805e-01 2.479885000000000161e+01 1.767615000000000123e+02 1.899244999999999891e+03
1.340000000000000080e-01 1.380534999999999957e-01 2.405160000000000053e+01 1.759205000000000041e+02 1.898964999999999918e+03
1.350000000000000089e-01 1.380239999999999800e-01 2.328849999999999909e+01 1.749855000000000018e+02 1.898650000000000091e+03
1.360000000000000098e-01 1.379914999999999892e-01 2.250594999999999857e+01 1.739544999999999959e+02 1.898309999999999945e+03
1.370000000000000107e-01 1.379564999999999819e-01 2.170185000000000031e+01 1.728254999999999768e+02 1.897940000000000055e+03
1.380000000000000115e-01 1.379179999999999851e-01 2.087604999999999933e+01 1.716024999999999920e+02 1.897534999999999854e+03
1.390000000000000124e-01 1.378759999999999986e-01 2.002989999999999782e+01 1.702934999999999945e+02 1.897099999999999909e+03
1.400000000000000133e-01 1.378314999999999957e-01 1.916660000000000252e+01 1.689089999999999918e+02 1.896630000000000109e+03
1.410000000000000142e-01 1.377840000000000176e-01 1.829095000000000226e+01 1.674625000000000057e+02 1.896139999999999873e+03
1.420000000000000151e-01 1.377345000000000097e-01 1.740885000000000105e+01 1.659719999999999800e+02 1.895625000000000000e+03
1.430000000000000160e-01 1.376835000000000142e-01 1.652779999999999916e+01 1.644555000000000007e+02 1.895095000000000027e+03
1.440000000000000169e-01 1.376315000000000177e-01 1.565579999999999927e+01 1.629325000000000045e+02 1.894545000000000073e+03
1.450000000000000178e-01 1.375790000000000068e-01 1.480150000000000077e+01 1.614244999999999948e+02 1.893994999999999891e+03
1.459999999999999909e-01 1.375264999999999960e-01 1.397364999999999924e+01 1.599519999999999982e+02 1.893445000000000164e+03
1.469999999999999918e-01 1.374744999999999995e-01 1.318110000000000070e+01 1.585335000000000036e+02 1.892905000000000200e+03
1.479999999999999927e-01 1.374245000000000050e-01 1.243184000000000111e+01 1.571879999999999882e+02 1.892380000000000109e+03
1.489999999999999936e-01 1.373765000000000125e-01 1.173320999999999970e+01 1.559300000000000068e+02 1.891869999999999891e+03
1.499999999999999944e-01 1.373305000000000220e-01 1.109159500000000165e+01 1.547735000000000127e+02 1.891394999999999982e+03
1.509999999999999953e-01 1.372875000000000068e-01 1.051181000000000054e+01 1.537275000000000205e+02 1.890944999999999936e+03
1.519999999999999962e-01 1.372484999999999955e-01 9.997489999999999100e+00 1.527980000000000018e+02 1.890529999999999973e+03
1.529999999999999971e-01 1.372130000000000016e-01 9.550534999999999997e+00 1.519884999999999877e+02 1.890154999999999973e+03
1.539999999999999980e-01 1.371809999999999974e-01 9.171319999999999695e+00 1.512975000000000136e+02 1.889820000000000164e+03
1.549999999999999989e-01 1.371534999999999838e-01 8.858750000000000568e+00 1.507225000000000250e+02 1.889519999999999982e+03
1.559999999999999998e-01 1.371295000000000153e-01 8.610215000000000174e+00 1.502549999999999955e+02 1.889264999999999873e+03
1.570000000000000007e-01 1.371085000000000220e-01 8.421829999999999927e+00 1.498874999999999886e+02 1.889045000000000073e+03
1.580000000000000016e-01 1.370919999999999916e-01 8.288605000000000445e+00 1.496069999999999993e+02 1.888860000000000127e+03
1.590000000000000024e-01 1.370774999999999910e-01 8.204644999999999300e+00 1.494025000000000034e+02 1.888710000000000036e+03
