# t [s], A [cm^2], U [cm/s], P [cPa], c [cm/s]
1.000000000000000021e-03 7.345509999999999540e-01 5.756500000000004669e-03 9.132245000000000346e+01 1.668075000000000045e+03
2.000000000000000042e-03 7.345369999999999955e-01 -4.052345000000000599e-03 9.128860000000000241e+01 1.668065000000000055e+03
3.000000000000000062e-03 7.346019999999999772e-01 1.016839999999999966e-01 9.140245000000000175e+01 1.668090000000000146e+03
4.000000000000000083e-03 7.346565000000000456e-01 2.045693000000000095e-01 9.152615000000000123e+01 1.668119999999999891e+03
5.000000000000000104e-03 7.346129999999999605e-01 1.667209500000000066e-01 9.143620000000001369e+01 1.668105000000000018e+03
6.000000000000000125e-03 7.345260000000000122e-01 5.445900000000003516e-02 9.117074999999999818e+01 1.668039999999999964e+03
7.000000000000000146e-03 7.344534999999999814e-01 -4.528000000000004244e-02 9.085474999999999568e+01 1.667974999999999909e+03
8.000000000000000167e-03 7.343330000000000135e-01 -2.367850000000000232e-01 9.037800000000000011e+01 1.667865000000000009e+03
9.000000000000001055e-03 7.341364999999999696e-01 -5.693099999999999827e-01 8.964799999999999613e+01 1.667704999999999927e+03
1.000000000000000194e-02 7.338655000000000594e-01 -1.036924999999999875e+00 8.863145000000000095e+01 1.667474999999999909e+03
1.099999999999999936e-02 7.334924999999999917e-01 -1.669595000000000162e+00 8.724944999999999595e+01 1.667160000000000082e+03
1.200000000000000025e-02 7.330079999999999929e-01 -2.466359999999999886e+00 8.545179999999999154e+01 1.666750000000000000e+03
1.300000000000000114e-02 7.324660000000000615e-01 -3.314060000000000006e+00 8.334344999999999004e+01 1.666255000000000109e+03
1.400000000000000203e-02 7.319634999999999891e-01 -4.023111499999999729e+00 8.117419999999999902e+01 1.665730000000000018e+03
1.499999999999999944e-02 7.315739999999999466e-01 -4.433145500000000183e+00 7.920705000000000950e+01 1.665220000000000027e+03
1.600000000000000033e-02 7.313155000000000072e-01 -4.484774999999999956e+00 7.759499999999999886e+01 1.664780000000000200e+03
1.700000000000000122e-02 7.311480000000000201e-01 -4.224310000000000009e+00 7.633760000000000900e+01 1.664409999999999854e+03
1.800000000000000211e-02 7.310064999999998925e-01 -3.764305000000000234e+00 7.531055000000000632e+01 1.664079999999999927e+03
1.900000000000000300e-02 7.308265000000000455e-01 -3.230064999999999742e+00 7.433404999999999063e+01 1.663769999999999982e+03
2.000000000000000042e-02 7.305684999999999540e-01 -2.712725000000000275e+00 7.324854999999999450e+01 1.663440000000000055e+03
2.100000000000000130e-02 7.302305000000000046e-01 -2.243011500000000158e+00 7.197175000000000011e+01 1.663075000000000045e+03
2.200000000000000219e-02 7.298400000000000443e-01 -1.793674999999999908e+00 7.051679999999998927e+01 1.662664999999999964e+03
2.299999999999999961e-02 7.294380000000000308e-01 -1.307190000000000074e+00 6.896770000000000778e+01 1.662235000000000127e+03
2.400000000000000050e-02 7.290609999999999591e-01 -7.332850000000001867e-01 6.742785000000000650e+01 1.661805000000000064e+03
2.500000000000000139e-02 7.287200000000000344e-01 -5.885499999999987963e-02 6.596875000000000000e+01 1.661384999999999991e+03
2.600000000000000228e-02 7.284040000000000514e-01 6.795249999999997126e-01 6.459635000000000105e+01 1.660985000000000127e+03
2.700000000000000316e-02 7.280769999999999742e-01 1.400940000000000074e+00 6.324354999999999905e+01 1.660585000000000036e+03
2.800000000000000058e-02 7.276929999999999232e-01 1.998869999999999925e+00 6.178629999999999711e+01 1.660170000000000073e+03
2.900000000000000147e-02 7.272095000000000642e-01 2.367459999999999898e+00 6.007739999999999725e+01 1.659704999999999927e+03
3.000000000000000236e-02 7.265980000000000771e-01 2.428879999999999928e+00 5.798959999999999582e+01 1.659160000000000082e+03
3.099999999999999978e-02 7.258530000000000815e-01 2.154464999999999630e+00 5.545534999999999570e+01 1.658519999999999982e+03
3.200000000000000067e-02 7.249999999999999778e-01 1.572609999999999619e+00 5.249210000000000065e+01 1.657775000000000091e+03
3.300000000000000155e-02 7.240839999999999499e-01 7.606799999999998008e-01 4.920364999999999611e+01 1.656960000000000036e+03
3.400000000000000244e-02 7.231625000000000414e-01 -1.746850000000002012e-01 4.575889999999999702e+01 1.656090000000000146e+03
3.500000000000000333e-02 7.222915000000000862e-01 -1.121590000000000309e+00 4.235835000000000150e+01 1.655230000000000018e+03
3.600000000000000422e-02 7.215179999999999927e-01 -1.982305000000000206e+00 3.919890000000000185e+01 1.654405000000000200e+03
3.700000000000000511e-02 7.208755000000000024e-01 -2.685084999999999500e+00 3.644659999999999656e+01 1.653664999999999964e+03
3.799999999999999906e-02 7.203800000000000203e-01 -3.187339999999999840e+00 3.422025000000000006e+01 1.653039999999999964e+03
3.899999999999999994e-02 7.200370000000000381e-01 -3.472640000000000171e+00 3.258724999999999739e+01 1.652555000000000064e+03
4.000000000000000083e-02 7.198400000000000354e-01 -3.543155000000000054e+00 3.156795000000000329e+01 1.652220000000000027e+03
4.100000000000000172e-02 7.197804999999999342e-01 -3.410829999999999806e+00 3.114734999999999943e+01 1.652025000000000091e+03
4.200000000000000261e-02 7.198465000000000558e-01 -3.089204999999999757e+00 3.128945000000000221e+01 1.651985000000000127e+03
4.300000000000000350e-02 7.200280000000000014e-01 -2.587927599999999995e+00 3.195040000000000191e+01 1.652085000000000036e+03
4.400000000000000439e-02 7.203190000000000426e-01 -1.910974999999999868e+00 3.308780000000000143e+01 1.652305000000000064e+03
4.499999999999999833e-02 7.207129999999999370e-01 -1.058430000000000204e+00 3.466429999999999723e+01 1.652650000000000091e+03
4.599999999999999922e-02 7.212049999999999850e-01 -3.065499999999987679e-02 3.664634999999999820e+01 1.653099999999999909e+03
4.700000000000000011e-02 7.217884999999999440e-01 1.167030000000000012e+00 3.899940000000000140e+01 1.653654999999999973e+03
4.800000000000000100e-02 7.224524999999999419e-01 2.520730000000000359e+00 4.168285000000000196e+01 1.654299999999999955e+03
4.900000000000000189e-02 7.231819999999999915e-01 4.006529999999999703e+00 4.464614999999999867e+01 1.655025000000000091e+03
5.000000000000000278e-02 7.239610000000000767e-01 5.591275000000000439e+00 4.782805000000000462e+01 1.655815000000000055e+03
5.100000000000000366e-02 7.247680000000000788e-01 7.235249999999999737e+00 5.115829999999999700e+01 1.656650000000000091e+03
5.200000000000000455e-02 7.255844999999999656e-01 8.896098999999999535e+00 5.456224999999999881e+01 1.657519999999999982e+03
5.300000000000000544e-02 7.263920000000000377e-01 1.053265500000000010e+01 5.796609999999999729e+01 1.658400000000000091e+03
5.399999999999999939e-02 7.271745000000000569e-01 1.210875500000000038e+01 6.130290000000000816e+01 1.659269999999999982e+03
5.500000000000000028e-02 7.279219999999999580e-01 1.359554499999999955e+01 6.451739999999999498e+01 1.660130000000000109e+03
5.600000000000000117e-02 7.286259999999999959e-01 1.497279499999999786e+01 6.756950000000000500e+01 1.660950000000000045e+03
5.700000000000000205e-02 7.292845000000000022e-01 1.622905000000000086e+01 7.043545000000000300e+01 1.661735000000000127e+03
5.800000000000000294e-02 7.298985000000000056e-01 1.736094999999999899e+01 7.310739999999999839e+01 1.662480000000000018e+03
5.900000000000000383e-02 7.304720000000000102e-01 1.837144999999999939e+01 7.559194999999999709e+01 1.663170000000000073e+03
6.000000000000000472e-02 7.310099999999999376e-01 1.926869999999999905e+01 7.790719999999998890e+01 1.663829999999999927e+03
6.099999999999999867e-02 7.315214999999999357e-01 2.006445000000000078e+01 8.007959999999999923e+01 1.664445000000000164e+03
6.199999999999999956e-02 7.320124999999999549e-01 2.077250000000000085e+01 8.214109999999999445e+01 1.665029999999999973e+03
6.300000000000000044e-02 7.324930000000000607e-01 2.140784999999999982e+01 8.412590000000000146e+01 1.665599999999999909e+03
6.400000000000000133e-02 7.329695000000000515e-01 2.198550000000000182e+01 8.606770000000000209e+01 1.666155000000000200e+03
6.500000000000000222e-02 7.334479999999999889e-01 2.251919999999999789e+01 8.799699999999999989e+01 1.666694999999999936e+03
6.600000000000000311e-02 7.339350000000000041e-01 2.302060000000000173e+01 8.993874999999999886e+01 1.667240000000000009e+03
6.700000000000000400e-02 7.344325000000000436e-01 2.349844999999999828e+01 9.191030000000000655e+01 1.667789999999999964e+03
6.800000000000000488e-02 7.349404999999999966e-01 2.395769999999999911e+01 9.391974999999999341e+01 1.668344999999999800e+03
6.900000000000000577e-02 7.354579999999999451e-01 2.439925000000000210e+01 9.596569999999999823e+01 1.668910000000000082e+03
7.000000000000000666e-02 7.359809999999999963e-01 2.482010000000000005e+01 9.803659999999999286e+01 1.669474999999999909e+03
7.100000000000000755e-02 7.365025000000000599e-01 2.521365000000000123e+01 1.001127000000000038e+02 1.670049999999999955e+03
7.200000000000000844e-02 7.370160000000000045e-01 2.557079999999999842e+01 1.021668500000000108e+02 1.670619999999999891e+03
7.300000000000000933e-02 7.375130000000000852e-01 2.588074999999999903e+01 1.041674999999999898e+02 1.671174999999999955e+03
7.399999999999999634e-02 7.379850000000000021e-01 2.613210000000000122e+01 1.060810000000000031e+02 1.671704999999999927e+03
7.499999999999999722e-02 7.384245000000000392e-01 2.631385000000000218e+01 1.078735000000000070e+02 1.672210000000000036e+03
7.599999999999999811e-02 7.388235000000000774e-01 2.641644999999999754e+01 1.095134999999999934e+02 1.672679999999999836e+03
7.699999999999999900e-02 7.391769999999999730e-01 2.643209999999999837e+01 1.109755000000000109e+02 1.673099999999999909e+03
7.799999999999999989e-02 7.394810000000000549e-01 2.635539999999999949e+01 1.122385000000000019e+02 1.673474999999999909e+03
7.900000000000000078e-02 7.397324999999999040e-01 2.618370000000000175e+01 1.132884999999999991e+02 1.673799999999999955e+03
8.000000000000000167e-02 7.399305000000000465e-01 2.591700000000000159e+01 1.141165000000000020e+02 1.674059999999999945e+03
8.100000000000000255e-02 7.400759999999999561e-01 2.555799999999999983e+01 1.147249999999999943e+02 1.674264999999999873e+03
8.200000000000000344e-02 7.401699999999999946e-01 2.511204999999999998e+01 1.151179999999999950e+02 1.674410000000000082e+03
8.300000000000000433e-02 7.402174999999999727e-01 2.458684999999999832e+01 1.153100000000000023e+02 1.674505000000000109e+03
8.400000000000000522e-02 7.402225000000000055e-01 2.399230000000000018e+01 1.153170000000000073e+02 1.674545000000000073e+03
8.500000000000000611e-02 7.401899999999999036e-01 2.334015000000000128e+01 1.151624999999999943e+02 1.674539999999999964e+03
8.600000000000000699e-02 7.401275000000000492e-01 2.264334999999999809e+01 1.148714999999999975e+02 1.674500000000000000e+03
8.700000000000000788e-02 7.400409999999999489e-01 2.191575000000000273e+01 1.144715000000000060e+02 1.674420000000000073e+03
8.800000000000000877e-02 7.399375000000000258e-01 2.117159999999999798e+01 1.139920000000000044e+02 1.674319999999999936e+03
8.899999999999999578e-02 7.398230000000000084e-01 2.042480000000000118e+01 1.134615000000000009e+02 1.674195000000000164e+03
8.999999999999999667e-02 7.397055000000000158e-01 1.968829999999999814e+01 1.129074999999999989e+02 1.674059999999999945e+03
9.099999999999999756e-02 7.395890000000000519e-01 1.897375000000000256e+01 1.123539999999999992e+02 1.673925000000000182e+03
9.199999999999999845e-02 7.394789999999999974e-01 1.829060000000000130e+01 1.118230000000000075e+02 1.673785000000000082e+03
9.299999999999999933e-02 7.393784999999999386e-01 1.764625000000000199e+01 1.113315000000000055e+02 1.673655000000000200e+03
9.400000000000000022e-02 7.392900000000000027e-01 1.704520000000000124e+01 1.108909999999999911e+02 1.673535000000000082e+03
9.500000000000000111e-02 7.392144999999999966e-01 1.648949999999999960e+01 1.105084999999999980e+02 1.673420000000000073e+03
9.600000000000000200e-02 7.391509999999998914e-01 1.597830000000000084e+01 1.101850000000000023e+02 1.673329999999999927e+03
9.700000000000000289e-02 7.390995000000000203e-01 1.550870000000000104e+01 1.099180000000000064e+02 1.673244999999999891e+03
9.800000000000000377e-02 7.390565000000000051e-01 1.507530000000000037e+01 1.096990000000000123e+02 1.673174999999999955e+03
9.900000000000000466e-02 7.390195000000000514e-01 1.467125000000000057e+01 1.095184999999999889e+02 1.673114999999999782e+03
1.000000000000000056e-01 7.389859999999999207e-01 1.428824999999999967e+01 1.093609999999999900e+02 1.673065000000000055e+03
1.010000000000000064e-01 7.389505000000000656e-01 1.391740000000000066e+01 1.092115000000000009e+02 1.673010000000000218e+03
1.020000000000000073e-01 7.389099999999999557e-01 1.354939999999999856e+01 1.090540000000000020e+02 1.672960000000000036e+03
1.030000000000000082e-01 7.388609999999999900e-01 1.317510000000000048e+01 1.088719999999999999e+02 1.672909999999999854e+03
1.040000000000000091e-01 7.388000000000000123e-01 1.278630000000000067e+01 1.086504999999999939e+02 1.672845000000000027e+03
1.050000000000000100e-01 7.387235000000000884e-01 1.237566499999999969e+01 1.083774999999999977e+02 1.672775000000000091e+03
1.059999999999999970e-01 7.386314999999999964e-01 1.193762500000000060e+01 1.080420000000000016e+02 1.672690000000000055e+03
1.069999999999999979e-01 7.385215000000000529e-01 1.146844499999999911e+01 1.076389999999999958e+02 1.672585000000000036e+03
1.079999999999999988e-01 7.383939999999999948e-01 1.096646499999999946e+01 1.071650000000000063e+02 1.672464999999999918e+03
1.089999999999999997e-01 7.382504999999999207e-01 1.043233500000000014e+01 1.066225000000000023e+02 1.672329999999999927e+03
1.100000000000000006e-01 7.380919999999999703e-01 9.868925000000000836e+00 1.060180000000000007e+02 1.672170000000000073e+03
1.110000000000000014e-01 7.379225000000000367e-01 9.281285000000000451e+00 1.053609999999999900e+02 1.672005000000000109e+03
1.120000000000000023e-01 7.377460000000000129e-01 8.676349999999999341e+00 1.046654999999999944e+02 1.671824999999999818e+03
1.130000000000000032e-01 7.375665000000000138e-01 8.062515000000001208e+00 1.039488000000000056e+02 1.671639999999999873e+03
1.140000000000000041e-01 7.373894999999999200e-01 7.449445000000000761e+00 1.032291500000000042e+02 1.671450000000000045e+03
1.150000000000000050e-01 7.372190000000000687e-01 6.847284999999999400e+00 1.025277999999999992e+02 1.671264999999999873e+03
1.160000000000000059e-01 7.370605000000000073e-01 6.266379999999999839e+00 1.018643500000000017e+02 1.671090000000000146e+03
1.170000000000000068e-01 7.369179999999999620e-01 5.716660000000000075e+00 1.012582500000000039e+02 1.670920000000000073e+03
1.180000000000000077e-01 7.367965000000000764e-01 5.207155000000000200e+00 1.007273500000000013e+02 1.670775000000000091e+03
1.190000000000000085e-01 7.366985000000000339e-01 4.745605000000000295e+00 1.002866500000000087e+02 1.670644999999999982e+03
1.200000000000000094e-01 7.366270000000000318e-01 4.338065000000000282e+00 9.994700000000000273e+01 1.670539999999999964e+03
1.209999999999999964e-01 7.365819999999999590e-01 3.988685000000000258e+00 9.971649999999999636e+01 1.670465000000000146e+03
1.219999999999999973e-01 7.365649999999999142e-01 3.699575000000000280e+00 9.959819999999999141e+01 1.670414999999999964e+03
1.229999999999999982e-01 7.365749999999999797e-01 3.470765000000000100e+00 9.959059999999999491e+01 1.670400000000000091e+03
1.239999999999999991e-01 7.366099999999999870e-01 3.300295000000000201e+00 9.968979999999999109e+01 1.670409999999999854e+03
1.250000000000000000e-01 7.366669999999999607e-01 3.184420000000000250e+00 9.988650000000001228e+01 1.670440000000000055e+03
1.260000000000000009e-01 7.367434999999999956e-01 3.117849999999999788e+00 1.001684999999999945e+02 1.670500000000000000e+03
1.270000000000000018e-01 7.368360000000000465e-01 3.094100000000000072e+00 1.005225000000000080e+02 1.670575000000000045e+03
1.280000000000000027e-01 7.369394999999999696e-01 3.105830000000000091e+00 1.009320000000000022e+02 1.670670000000000073e+03
1.290000000000000036e-01 7.370514999999999706e-01 3.145175000000000054e+00 1.013810000000000002e+02 1.670779999999999973e+03
1.300000000000000044e-01 7.371665000000000578e-01 3.204139999999999766e+00 1.018525000000000063e+02 1.670894999999999982e+03
1.310000000000000053e-01 7.372815000000000341e-01 3.274885000000000268e+00 1.023309999999999889e+02 1.671009999999999991e+03
1.320000000000000062e-01 7.373935000000000350e-01 3.350005000000000344e+00 1.028015000000000043e+02 1.671130000000000109e+03
1.330000000000000071e-01 7.374990000000000157e-01 3.422730000000000050e+00 1.032504999999999882e+02 1.671250000000000000e+03
1.340000000000000080e-01 7.375960000000000294e-01 3.487149999999999750e+00 1.036680000000000064e+02 1.671360000000000127e+03
1.350000000000000089e-01 7.376825000000000188e-01 3.538279999999999870e+00 1.040439999999999969e+02 1.671460000000000036e+03
1.360000000000000098e-01 7.377569999999999961e-01 3.572175000000000100e+00 1.043725000000000023e+02 1.671554999999999836e+03
1.370000000000000107e-01 7.378195000000000725e-01 3.585945000000000160e+00 1.046500000000000057e+02 1.671634999999999991e+03
1.380000000000000115e-01 7.378685000000000382e-01 3.577779999999999738e+00 1.048729999999999905e+02 1.671699999999999818e+03
1.390000000000000124e-01 7.379050000000000331e-01 3.546879999999999811e+00 1.050424999999999898e+02 1.671755000000000109e+03
1.400000000000000133e-01 7.379295000000000160e-01 3.493414999999999715e+00 1.051599999999999966e+02 1.671795000000000073e+03
1.410000000000000142e-01 7.379430000000000156e-01 3.418425000000000047e+00 1.052284999999999968e+02 1.671820000000000164e+03
1.420000000000000151e-01 7.379465000000000607e-01 3.323704999999999909e+00 1.052524999999999977e+02 1.671835000000000036e+03
1.430000000000000160e-01 7.379419999999999868e-01 3.211705000000000254e+00 1.052375000000000114e+02 1.671839999999999918e+03
1.440000000000000169e-01 7.379305000000000447e-01 3.085315000000000030e+00 1.051910000000000025e+02 1.671839999999999918e+03
1.450000000000000178e-01 7.379135000000000000e-01 2.947759999999999714e+00 1.051175000000000068e+02 1.671825000000000045e+03
1.459999999999999909e-01 7.378925000000000622e-01 2.802435000000000009e+00 1.050250000000000057e+02 1.671805000000000064e+03
1.469999999999999918e-01 7.378694999999999560e-01 2.652695000000000025e+00 1.049184999999999945e+02 1.671785000000000082e+03
1.479999999999999927e-01 7.378445000000000142e-01 2.501749999999999918e+00 1.048045000000000044e+02 1.671759999999999991e+03
1.489999999999999936e-01 7.378204999999999902e-01 2.352504999999999846e+00 1.046875000000000000e+02 1.671730000000000018e+03
1.499999999999999944e-01 7.377964999999999662e-01 2.207430000000000003e+00 1.045720000000000027e+02 1.671699999999999818e+03
1.509999999999999953e-01 7.377739999999999299e-01 2.068509999999999849e+00 1.044600000000000080e+02 1.671674999999999955e+03
1.519999999999999962e-01 7.377529999999999921e-01 1.937159999999999993e+00 1.043530000000000086e+02 1.671650000000000091e+03
1.529999999999999971e-01 7.377329999999999721e-01 1.814230000000000009e+00 1.042514999999999930e+02 1.671619999999999891e+03
1.539999999999999980e-01 7.377145000000000508e-01 1.700010000000000021e+00 1.041554999999999893e+02 1.671594999999999800e+03
1.549999999999999989e-01 7.376960000000000184e-01 1.594319999999999959e+00 1.040629999999999882e+02 1.671569999999999936e+03
1.559999999999999998e-01 7.376774999999999860e-01 1.496564999999999923e+00 1.039710000000000036e+02 1.671545000000000073e+03
1.570000000000000007e-01 7.376579999999999249e-01 1.405853000000000019e+00 1.038769999999999953e+02 1.671519999999999982e+03
1.580000000000000016e-01 7.376365000000000283e-01 1.321096999999999966e+00 1.037785000000000082e+02 1.671490000000000009e+03
1.590000000000000024e-01 7.376125000000000043e-01 1.241162000000000099e+00 1.036714999999999947e+02 1.671464999999999918e+03
