# t [s], A [cm^2], U [cm/s], P [cPa], c [cm/s]
1.000000000000000021e-03 1.763235000000000219e-01 2.792129999999999890e-01 9.723640000000000327e+01 2.037440000000000055e+03
2.000000000000000042e-03 1.762825000000000086e-01 1.755940999999999974e+00 9.412690000000000623e+01 2.037110000000000127e+03
3.000000000000000062e-03 1.761614999999999986e-01 3.587308500000000233e+00 8.983584999999999354e+01 2.036164999999999964e+03
4.000000000000000083e-03 1.759899999999999798e-01 5.641724500000000475e+00 8.508879999999999200e+01 2.034875000000000000e+03
5.000000000000000104e-03 1.758029999999999871e-01 7.853979999999999961e+00 8.074770000000000891e+01 2.033460000000000036e+03
6.000000000000000125e-03 1.756205000000000127e-01 1.006973999999999947e+01 7.716400000000000148e+01 2.032099999999999909e+03
7.000000000000000146e-03 1.754489999999999938e-01 1.208140999999999821e+01 7.415879999999999939e+01 2.030839999999999918e+03
8.000000000000000167e-03 1.752905000000000157e-01 1.378326999999999991e+01 7.147920000000000584e+01 2.029699999999999818e+03
9.000000000000001055e-03 1.751500000000000001e-01 1.519829999999999970e+01 6.913290000000000646e+01 2.028704999999999927e+03
1.000000000000000194e-02 1.750300000000000189e-01 1.636619999999999919e+01 6.720654999999999291e+01 2.027865000000000009e+03
1.099999999999999936e-02 1.749320000000000042e-01 1.730485000000000184e+01 6.569804999999999495e+01 2.027184999999999945e+03
1.200000000000000025e-02 1.748534999999999950e-01 1.802840000000000131e+01 6.455285000000000650e+01 2.026650000000000091e+03
1.300000000000000114e-02 1.747925000000000173e-01 1.854414999999999836e+01 6.368565000000000254e+01 2.026240000000000009e+03
1.400000000000000203e-02 1.747440000000000104e-01 1.885754999999999981e+01 6.298270000000000124e+01 2.025920000000000073e+03
1.499999999999999944e-02 1.747044999999999848e-01 1.900840000000000174e+01 6.239020000000000721e+01 2.025670000000000073e+03
1.600000000000000033e-02 1.746765000000000123e-01 1.909810000000000230e+01 6.202700000000000102e+01 2.025494999999999891e+03
1.700000000000000122e-02 1.746659999999999879e-01 1.926485000000000269e+01 6.217565000000000452e+01 2.025440000000000055e+03
1.800000000000000211e-02 1.746814999999999896e-01 1.961880000000000024e+01 6.312575000000000358e+01 2.025555000000000064e+03
1.900000000000000300e-02 1.747265000000000068e-01 2.018489999999999895e+01 6.497995000000000232e+01 2.025880000000000109e+03
2.000000000000000042e-02 1.747994999999999965e-01 2.088830000000000098e+01 6.755270000000000152e+01 2.026390000000000100e+03
2.100000000000000130e-02 1.748905000000000043e-01 2.158534999999999826e+01 7.041289999999999338e+01 2.027034999999999854e+03
2.200000000000000219e-02 1.749850000000000017e-01 2.211984999999999957e+01 7.303199999999999648e+01 2.027710000000000036e+03
2.299999999999999961e-02 1.750674999999999870e-01 2.237715000000000032e+01 7.496170000000000755e+01 2.028315000000000055e+03
2.400000000000000050e-02 1.751274999999999915e-01 2.231615000000000038e+01 7.596665000000000134e+01 2.028759999999999991e+03
2.500000000000000139e-02 1.751614999999999978e-01 2.197214999999999918e+01 7.606995000000000573e+01 2.029025000000000091e+03
2.600000000000000228e-02 1.751710000000000211e-01 2.143265000000000242e+01 7.550554999999999950e+01 2.029115000000000009e+03
2.700000000000000316e-02 1.751634999999999998e-01 2.079964999999999975e+01 7.460720000000000596e+01 2.029074999999999818e+03
2.800000000000000058e-02 1.751464999999999828e-01 2.015350000000000108e+01 7.368229999999999791e+01 2.028965000000000146e+03
2.900000000000000147e-02 1.751274999999999915e-01 1.953144999999999953e+01 7.291800000000000637e+01 2.028829999999999927e+03
3.000000000000000236e-02 1.751099999999999879e-01 1.892524999999999835e+01 7.234579999999999700e+01 2.028710000000000036e+03
3.099999999999999978e-02 1.750935000000000130e-01 1.829554999999999865e+01 7.186610000000000298e+01 2.028589999999999918e+03
3.200000000000000067e-02 1.750750000000000084e-01 1.759525000000000006e+01 7.131479999999999109e+01 2.028465000000000146e+03
3.300000000000000155e-02 1.750504999999999978e-01 1.679360000000000142e+01 7.054474999999999341e+01 2.028295000000000073e+03
3.400000000000000244e-02 1.750185000000000213e-01 1.589400000000000013e+01 6.949399999999999977e+01 2.028074999999999818e+03
3.500000000000000333e-02 1.749779999999999947e-01 1.493999999999999950e+01 6.822275000000000489e+01 2.027795000000000073e+03
3.600000000000000422e-02 1.749334999999999918e-01 1.400774999999999970e+01 6.690774999999999295e+01 2.027485000000000127e+03
3.700000000000000511e-02 1.748905000000000043e-01 1.318859999999999921e+01 6.579815000000000680e+01 2.027184999999999945e+03
3.799999999999999906e-02 1.748580000000000134e-01 1.256584999999999930e+01 6.514685000000000059e+01 2.026945000000000164e+03
3.899999999999999994e-02 1.748425000000000118e-01 1.219379999999999953e+01 6.514060000000000628e+01 2.026825000000000045e+03
4.000000000000000083e-02 1.748490000000000044e-01 1.208474999999999966e+01 6.584799999999999898e+01 2.026855000000000018e+03
4.100000000000000172e-02 1.748764999999999903e-01 1.220629999999999882e+01 6.720024999999999693e+01 2.027035000000000082e+03
4.200000000000000261e-02 1.749240000000000239e-01 1.248864999999999981e+01 6.900495000000000800e+01 2.027355000000000018e+03
4.300000000000000350e-02 1.749835000000000140e-01 1.283915000000000006e+01 7.098699999999999477e+01 2.027764999999999873e+03
4.400000000000000439e-02 1.750470000000000081e-01 1.315879999999999939e+01 7.284219999999999118e+01 2.028210000000000036e+03
4.499999999999999833e-02 1.751044999999999963e-01 1.335810000000000031e+01 7.429064999999999941e+01 2.028615000000000009e+03
4.599999999999999922e-02 1.751484999999999848e-01 1.336834999999999951e+01 7.511844999999999573e+01 2.028929999999999836e+03
4.700000000000000011e-02 1.751715000000000078e-01 1.314739999999999931e+01 7.520099999999999341e+01 2.029099999999999909e+03
4.800000000000000100e-02 1.751709999999999934e-01 1.268029999999999902e+01 7.450719999999999743e+01 2.029110000000000127e+03
4.900000000000000189e-02 1.751444999999999808e-01 1.197534999999999883e+01 7.308680000000001087e+01 2.028934999999999945e+03
5.000000000000000278e-02 1.750950000000000006e-01 1.105777000000000143e+01 7.104744999999999777e+01 2.028590000000000146e+03
5.100000000000000366e-02 1.750240000000000129e-01 9.962930000000000064e+00 6.852815000000001078e+01 2.028099999999999909e+03
5.200000000000000455e-02 1.749354999999999938e-01 8.730354999999999421e+00 6.567515000000000214e+01 2.027480000000000018e+03
5.300000000000000544e-02 1.748350000000000182e-01 7.399949999999999584e+00 6.262515000000000498e+01 2.026775000000000091e+03
5.399999999999999939e-02 1.747259999999999924e-01 6.010254999999999903e+00 5.949660000000000082e+01 2.026009999999999991e+03
5.500000000000000028e-02 1.746130000000000182e-01 4.598209999999999908e+00 5.638904999999999745e+01 2.025210000000000036e+03
5.600000000000000117e-02 1.744985000000000008e-01 3.200270499999999796e+00 5.338715000000000543e+01 2.024400000000000091e+03
5.700000000000000205e-02 1.743870000000000142e-01 1.853504999999999736e+00 5.056759999999999877e+01 2.023605000000000018e+03
5.800000000000000294e-02 1.742815000000000059e-01 5.963849999999999429e-01 4.800515000000000043e+01 2.022855000000000018e+03
5.900000000000000383e-02 1.741845000000000199e-01 -5.313049999999999162e-01 4.577630000000000621e+01 2.022164999999999964e+03
6.000000000000000472e-02 1.741000000000000048e-01 -1.489527999999999963e+00 4.395969999999999800e+01 2.021550000000000182e+03
6.099999999999999867e-02 1.740300000000000180e-01 -2.239860499999999810e+00 4.263299999999999557e+01 2.021045000000000073e+03
6.199999999999999956e-02 1.739779999999999938e-01 -2.747904999999999820e+00 4.186769999999999925e+01 2.020664999999999964e+03
6.300000000000000044e-02 1.739469999999999905e-01 -2.985780000000000101e+00 4.172230000000000416e+01 2.020430000000000064e+03
6.400000000000000133e-02 1.739380000000000093e-01 -2.934339999999999726e+00 4.223605000000000587e+01 2.020349999999999909e+03
6.500000000000000222e-02 1.739535000000000109e-01 -2.584680000000000089e+00 4.342425000000000068e+01 2.020440000000000055e+03
6.600000000000000311e-02 1.739935000000000231e-01 -1.938962499999999922e+00 4.527550000000000097e+01 2.020704999999999927e+03
6.700000000000000400e-02 1.740575000000000039e-01 -1.010194999999999954e+00 4.775184999999999746e+01 2.021134999999999991e+03
6.800000000000000488e-02 1.741449999999999942e-01 1.786000000000000920e-01 5.079124999999999801e+01 2.021735000000000127e+03
6.900000000000000577e-02 1.742529999999999912e-01 1.595950000000000202e+00 5.431175000000000352e+01 2.022484999999999900e+03
7.000000000000000666e-02 1.743790000000000062e-01 3.203863000000000127e+00 5.821739999999999782e+01 2.023365000000000009e+03
7.100000000000000755e-02 1.745200000000000085e-01 4.960035000000000416e+00 6.240415000000000134e+01 2.024349999999999909e+03
7.200000000000000844e-02 1.746725000000000083e-01 6.820070000000000299e+00 6.676654999999999518e+01 2.025424999999999955e+03
7.300000000000000933e-02 1.748325000000000018e-01 8.739819999999999922e+00 7.120329999999999870e+01 2.026549999999999955e+03
7.399999999999999634e-02 1.749964999999999993e-01 1.067732999999999954e+01 7.562284999999999968e+01 2.027714999999999918e+03
7.499999999999999722e-02 1.751614999999999978e-01 1.259482999999999997e+01 7.994759999999999422e+01 2.028884999999999991e+03
7.599999999999999811e-02 1.753244999999999942e-01 1.446020000000000039e+01 8.411719999999999686e+01 2.030049999999999955e+03
7.699999999999999900e-02 1.754830000000000001e-01 1.624784999999999968e+01 8.809045000000000414e+01 2.031184999999999945e+03
7.799999999999999989e-02 1.756360000000000143e-01 1.793959999999999866e+01 9.184569999999999368e+01 2.032284999999999854e+03
7.900000000000000078e-02 1.757819999999999938e-01 1.952425000000000210e+01 9.537999999999999545e+01 2.033340000000000146e+03
8.000000000000000167e-02 1.759215000000000084e-01 2.099755000000000038e+01 9.870564999999999145e+01 2.034345000000000027e+03
8.100000000000000255e-02 1.760539999999999883e-01 2.236059999999999803e+01 1.018481500000000040e+02 2.035304999999999836e+03
8.200000000000000344e-02 1.761810000000000043e-01 2.361930000000000263e+01 1.048413000000000039e+02 2.036230000000000018e+03
8.300000000000000433e-02 1.763025000000000009e-01 2.478235000000000099e+01 1.077214999999999918e+02 2.037115000000000009e+03
8.400000000000000522e-02 1.764205000000000079e-01 2.586005000000000109e+01 1.105259999999999962e+02 2.037974999999999909e+03
8.500000000000000611e-02 1.765359999999999985e-01 2.686294999999999789e+01 1.132870000000000061e+02 2.038809999999999945e+03
8.600000000000000699e-02 1.766490000000000005e-01 2.780064999999999742e+01 1.160285000000000082e+02 2.039639999999999873e+03
8.700000000000000788e-02 1.767615000000000158e-01 2.868090000000000117e+01 1.187675000000000125e+02 2.040454999999999927e+03
8.800000000000000877e-02 1.768734999999999891e-01 2.950930000000000319e+01 1.215109999999999957e+02 2.041269999999999982e+03
8.899999999999999578e-02 1.769850000000000034e-01 3.028855000000000075e+01 1.242565000000000026e+02 2.042085000000000036e+03
8.999999999999999667e-02 1.770964999999999900e-01 3.101895000000000024e+01 1.269909999999999997e+02 2.042900000000000091e+03
9.099999999999999756e-02 1.772070000000000034e-01 3.169800000000000040e+01 1.296970000000000027e+02 2.043700000000000045e+03
9.199999999999999845e-02 1.773164999999999880e-01 3.232110000000000127e+01 1.323489999999999895e+02 2.044494999999999891e+03
9.299999999999999933e-02 1.774229999999999974e-01 3.288190000000000168e+01 1.349194999999999993e+02 2.045275000000000091e+03
9.400000000000000022e-02 1.775264999999999760e-01 3.337260000000000559e+01 1.373764999999999930e+02 2.046034999999999854e+03
9.500000000000000111e-02 1.776254999999999917e-01 3.378450000000000131e+01 1.396899999999999977e+02 2.046750000000000000e+03
9.600000000000000200e-02 1.777190000000000158e-01 3.410884999999999678e+01 1.418280000000000030e+02 2.047440000000000055e+03
9.700000000000000289e-02 1.778055000000000052e-01 3.433689999999999998e+01 1.437635000000000218e+02 2.048074999999999818e+03
9.800000000000000377e-02 1.778850000000000153e-01 3.446079999999999899e+01 1.454705000000000155e+02 2.048655000000000200e+03
9.900000000000000466e-02 1.779554999999999887e-01 3.447390000000000043e+01 1.469290000000000020e+02 2.049179999999999836e+03
1.000000000000000056e-01 1.780169999999999808e-01 3.437115000000000009e+01 1.481229999999999905e+02 2.049635000000000218e+03
1.010000000000000064e-01 1.780680000000000041e-01 3.414974999999999739e+01 1.490434999999999945e+02 2.050014999999999873e+03
1.020000000000000073e-01 1.781090000000000173e-01 3.380924999999999869e+01 1.496875000000000000e+02 2.050324999999999818e+03
1.030000000000000082e-01 1.781395000000000062e-01 3.335190000000000055e+01 1.500584999999999809e+02 2.050550000000000182e+03
1.040000000000000091e-01 1.781599999999999850e-01 3.278255000000000052e+01 1.501675000000000182e+02 2.050710000000000036e+03
1.050000000000000100e-01 1.781705000000000094e-01 3.210895000000000010e+01 1.500310000000000059e+02 2.050795000000000073e+03
1.059999999999999970e-01 1.781714999999999827e-01 3.134105000000000274e+01 1.496719999999999970e+02 2.050809999999999945e+03
1.069999999999999979e-01 1.781630000000000158e-01 3.049110000000000298e+01 1.491189999999999998e+02 2.050760000000000218e+03
1.079999999999999988e-01 1.781480000000000008e-01 2.957305000000000206e+01 1.484014999999999986e+02 2.050659999999999854e+03
1.089999999999999997e-01 1.781264999999999932e-01 2.860190000000000055e+01 1.475545000000000186e+02 2.050510000000000218e+03
1.100000000000000006e-01 1.780990000000000073e-01 2.759324999999999761e+01 1.466120000000000232e+02 2.050315000000000055e+03
1.110000000000000014e-01 1.780674999999999897e-01 2.656275000000000119e+01 1.456075000000000159e+02 2.050094999999999800e+03
1.120000000000000023e-01 1.780335000000000112e-01 2.552544999999999931e+01 1.445715000000000146e+02 2.049849999999999909e+03
1.130000000000000032e-01 1.779975000000000029e-01 2.449530000000000030e+01 1.435330000000000155e+02 2.049590000000000146e+03
1.140000000000000041e-01 1.779605000000000214e-01 2.348470000000000013e+01 1.425165000000000077e+02 2.049324999999999818e+03
1.150000000000000050e-01 1.779239999999999988e-01 2.250410000000000110e+01 1.415405000000000086e+02 2.049059999999999945e+03
1.160000000000000059e-01 1.778885000000000050e-01 2.156170000000000186e+01 1.406184999999999832e+02 2.048800000000000182e+03
1.170000000000000068e-01 1.778545000000000265e-01 2.066355000000000075e+01 1.397595000000000027e+02 2.048550000000000182e+03
1.180000000000000077e-01 1.778220000000000078e-01 1.981284999999999741e+01 1.389655000000000200e+02 2.048309999999999945e+03
1.190000000000000085e-01 1.777914999999999912e-01 1.901060000000000016e+01 1.382340000000000089e+02 2.048085000000000036e+03
1.200000000000000094e-01 1.777624999999999900e-01 1.825534999999999997e+01 1.375570000000000164e+02 2.047875000000000000e+03
1.209999999999999964e-01 1.777354999999999907e-01 1.754354999999999976e+01 1.369230000000000018e+02 2.047675000000000182e+03
1.219999999999999973e-01 1.777095000000000202e-01 1.686994999999999933e+01 1.363154999999999859e+02 2.047484999999999900e+03
1.229999999999999982e-01 1.776850000000000096e-01 1.622749999999999915e+01 1.357164999999999964e+02 2.047300000000000182e+03
1.239999999999999991e-01 1.776594999999999980e-01 1.560855000000000103e+01 1.351069999999999993e+02 2.047115000000000009e+03
1.250000000000000000e-01 1.776345000000000007e-01 1.500455000000000005e+01 1.344670000000000130e+02 2.046924999999999955e+03
1.260000000000000009e-01 1.776079999999999881e-01 1.440700000000000003e+01 1.337764999999999986e+02 2.046730000000000018e+03
1.270000000000000018e-01 1.775795000000000012e-01 1.380780000000000030e+01 1.330174999999999841e+02 2.046519999999999982e+03
1.280000000000000027e-01 1.775484999999999980e-01 1.319960000000000022e+01 1.321765000000000043e+02 2.046299999999999955e+03
1.290000000000000036e-01 1.775149999999999784e-01 1.257639999999999958e+01 1.312414999999999736e+02 2.046045000000000073e+03
1.300000000000000044e-01 1.774775000000000102e-01 1.193369999999999997e+01 1.302059999999999889e+02 2.045779999999999973e+03
1.310000000000000053e-01 1.774364999999999970e-01 1.126893499999999904e+01 1.290674999999999955e+02 2.045480000000000018e+03
1.320000000000000062e-01 1.773919999999999941e-01 1.058157999999999888e+01 1.278300000000000125e+02 2.045159999999999854e+03
1.330000000000000071e-01 1.773434999999999873e-01 9.873105000000000686e+00 1.265004999999999882e+02 2.044809999999999945e+03
1.340000000000000080e-01 1.772920000000000051e-01 9.147240000000000038e+00 1.250935000000000059e+02 2.044440000000000055e+03
1.350000000000000089e-01 1.772374999999999923e-01 8.409410000000001162e+00 1.236254999999999882e+02 2.044050000000000182e+03
1.360000000000000098e-01 1.771809999999999774e-01 7.666890000000000427e+00 1.221175000000000068e+02 2.043635000000000218e+03
1.370000000000000107e-01 1.771230000000000027e-01 6.928155000000000285e+00 1.205935000000000059e+02 2.043219999999999800e+03
1.380000000000000115e-01 1.770645000000000135e-01 6.202639999999999709e+00 1.190780000000000030e+02 2.042795000000000073e+03
1.390000000000000124e-01 1.770059999999999967e-01 5.500210000000000043e+00 1.175974999999999966e+02 2.042375000000000000e+03
1.400000000000000133e-01 1.769485000000000086e-01 4.830709999999999837e+00 1.161744999999999948e+02 2.041954999999999927e+03
1.410000000000000142e-01 1.768934999999999813e-01 4.203500000000000014e+00 1.148340000000000032e+02 2.041559999999999945e+03
1.420000000000000151e-01 1.768409999999999982e-01 3.627024999999999721e+00 1.135945000000000107e+02 2.041174999999999955e+03
1.430000000000000160e-01 1.767925000000000191e-01 3.108460000000000001e+00 1.124724999999999966e+02 2.040819999999999936e+03
1.440000000000000169e-01 1.767475000000000018e-01 2.653410000000000046e+00 1.114805000000000064e+02 2.040494999999999891e+03
1.450000000000000178e-01 1.767075000000000173e-01 2.265724999999999767e+00 1.106239999999999952e+02 2.040195000000000164e+03
1.459999999999999909e-01 1.766725000000000101e-01 1.947413999999999978e+00 1.099074999999999989e+02 2.039940000000000055e+03
1.469999999999999918e-01 1.766424999999999801e-01 1.698600499999999958e+00 1.093284999999999911e+02 2.039720000000000027e+03
1.479999999999999927e-01 1.766174999999999828e-01 1.517638499999999890e+00 1.088810000000000002e+02 2.039534999999999854e+03
1.489999999999999936e-01 1.765970000000000040e-01 1.401234000000000091e+00 1.085559999999999974e+02 2.039380000000000109e+03
1.499999999999999944e-01 1.765809999999999880e-01 1.344685000000000130e+00 1.083404999999999916e+02 2.039264999999999873e+03
1.509999999999999953e-01 1.765700000000000047e-01 1.342109999999999914e+00 1.082214999999999918e+02 2.039175000000000182e+03
1.519999999999999962e-01 1.765625000000000111e-01 1.386740000000000084e+00 1.081814999999999998e+02 2.039110000000000127e+03
1.529999999999999971e-01 1.765575000000000061e-01 1.471205000000000096e+00 1.082049999999999983e+02 2.039075000000000045e+03
1.539999999999999980e-01 1.765554999999999763e-01 1.587810000000000166e+00 1.082759999999999962e+02 2.039049999999999955e+03
1.549999999999999989e-01 1.765549999999999897e-01 1.728804999999999925e+00 1.083770000000000095e+02 2.039049999999999955e+03
1.559999999999999998e-01 1.765565000000000051e-01 1.886644999999999905e+00 1.084945000000000022e+02 2.039054999999999836e+03
1.570000000000000007e-01 1.765585000000000071e-01 2.054180000000000117e+00 1.086144999999999925e+02 2.039065000000000055e+03
1.580000000000000016e-01 1.765615000000000101e-01 2.224854999999999805e+00 1.087249999999999943e+02 2.039085000000000036e+03
1.590000000000000024e-01 1.765634999999999843e-01 2.392839999999999634e+00 1.088165000000000049e+02 2.039099999999999909e+03
