# t [s], A [cm^2], U [cm/s], P [cPa], c [cm/s]
1.000000000000000021e-03 5.228604999999999503e-01 3.684250000000000025e-03 1.075799999999999983e+02 1.527789999999999964e+03
2.000000000000000042e-03 5.228539999999999299e-01 1.780695000000000108e-03 1.075605000000000047e+02 1.527785000000000082e+03
3.000000000000000062e-03 5.228980000000000850e-01 8.868384999999998075e-02 1.076484999999999985e+02 1.527809999999999945e+03
4.000000000000000083e-03 5.229399999999999604e-01 1.748301499999999897e-01 1.077574999999999932e+02 1.527840000000000146e+03
5.000000000000000104e-03 5.229274999999999896e-01 1.578400000000000081e-01 1.077274999999999920e+02 1.527840000000000146e+03
6.000000000000000125e-03 5.228824999999999168e-01 7.259649999999998049e-02 1.075564999999999998e+02 1.527799999999999955e+03
7.000000000000000146e-03 5.228369999999999962e-01 -1.745349999999995516e-02 1.073135000000000048e+02 1.527744999999999891e+03
8.000000000000000167e-03 5.227714999999999446e-01 -1.573344999999999883e-01 1.069579999999999984e+02 1.527659999999999854e+03
9.000000000000001055e-03 5.226585000000000258e-01 -4.026300000000000434e-01 1.064085000000000036e+02 1.527525000000000091e+03
1.000000000000000194e-02 5.224929999999999852e-01 -7.611950000000000660e-01 1.056194999999999879e+02 1.527329999999999927e+03
1.099999999999999936e-02 5.222639999999999505e-01 -1.242064999999999975e+00 1.045444999999999993e+02 1.527065000000000055e+03
1.200000000000000025e-02 5.219610000000000083e-01 -1.852740000000000054e+00 1.031362000000000023e+02 1.526704999999999927e+03
1.300000000000000114e-02 5.215935000000000432e-01 -2.552010000000000112e+00 1.014052000000000078e+02 1.526250000000000000e+03
1.400000000000000203e-02 5.211989999999999679e-01 -3.236060000000000159e+00 9.945544999999999902e+01 1.525724999999999909e+03
1.499999999999999944e-02 5.208249999999999824e-01 -3.777085000000000470e+00 9.745454999999999757e+01 1.525164999999999964e+03
1.600000000000000033e-02 5.205055000000000653e-01 -4.076527000000000456e+00 9.556425000000000125e+01 1.524605000000000018e+03
1.700000000000000122e-02 5.202504999999999491e-01 -4.096237499999999976e+00 9.388875000000000171e+01 1.524089999999999918e+03
1.800000000000000211e-02 5.200449999999999795e-01 -3.859255500000000172e+00 9.244915000000000305e+01 1.523610000000000127e+03
1.900000000000000300e-02 5.198629999999999640e-01 -3.430254000000000136e+00 9.119575000000000387e+01 1.523170000000000073e+03
2.000000000000000042e-02 5.196739999999999693e-01 -2.888133999999999979e+00 9.003655000000000541e+01 1.522750000000000000e+03
2.100000000000000130e-02 5.194564999999999877e-01 -2.300425000000000164e+00 8.887354999999999450e+01 1.522335000000000036e+03
2.200000000000000219e-02 5.192004999999999537e-01 -1.706380000000000230e+00 8.763474999999999682e+01 1.521894999999999982e+03
2.299999999999999961e-02 5.189105000000000523e-01 -1.112999999999999989e+00 8.629085000000000605e+01 1.521440000000000055e+03
2.400000000000000050e-02 5.185990000000000322e-01 -5.039450000000003094e-01 8.485464999999999236e+01 1.520960000000000036e+03
2.500000000000000139e-02 5.182804999999999218e-01 1.437800000000000189e-01 8.336420000000001096e+01 1.520460000000000036e+03
2.600000000000000228e-02 5.179650000000000087e-01 8.428850000000003284e-01 8.185980000000000700e+01 1.519954999999999927e+03
2.700000000000000316e-02 5.176534999999999886e-01 1.584640000000000271e+00 8.036320000000000618e+01 1.519450000000000045e+03
2.800000000000000058e-02 5.173389999999999933e-01 2.336125000000000007e+00 7.886655000000000371e+01 1.518944999999999936e+03
2.900000000000000147e-02 5.170069999999999943e-01 3.045214999999999783e+00 7.733115000000000805e+01 1.518430000000000064e+03
3.000000000000000236e-02 5.166394999999999182e-01 3.651030000000000442e+00 7.569624999999999204e+01 1.517884999999999991e+03
3.099999999999999978e-02 5.162210000000000409e-01 4.096699999999999342e+00 7.389475000000000193e+01 1.517304999999999836e+03
3.200000000000000067e-02 5.157414999999999639e-01 4.341894999999999172e+00 7.187144999999999584e+01 1.516664999999999964e+03
3.300000000000000155e-02 5.152015000000000899e-01 4.371534999999999727e+00 6.959950000000000614e+01 1.515970000000000027e+03
3.400000000000000244e-02 5.146104999999999707e-01 4.199479999999999436e+00 6.709135000000000559e+01 1.515220000000000027e+03
3.500000000000000333e-02 5.139869999999999717e-01 3.865845000000000198e+00 6.440134999999999366e+01 1.514420000000000073e+03
3.600000000000000422e-02 5.133575000000000221e-01 3.429439999999999600e+00 6.161960000000000548e+01 1.513585000000000036e+03
3.700000000000000511e-02 5.127475000000000227e-01 2.957805000000000462e+00 5.885999999999999943e+01 1.512750000000000000e+03
3.799999999999999906e-02 5.121839999999999726e-01 2.517419999999999547e+00 5.624500000000000455e+01 1.511950000000000045e+03
3.899999999999999994e-02 5.116899999999999782e-01 2.166009999999999991e+00 5.389159999999999684e+01 1.511210000000000036e+03
4.000000000000000083e-02 5.112815000000000554e-01 1.948230000000000572e+00 5.190030000000000143e+01 1.510559999999999945e+03
4.100000000000000172e-02 5.109704999999999941e-01 1.894404999999999895e+00 5.034784999999999400e+01 1.510019999999999982e+03
4.200000000000000261e-02 5.107634999999999259e-01 2.021964999999999790e+00 4.928534999999999400e+01 1.509619999999999891e+03
4.300000000000000350e-02 5.106614999999999904e-01 2.338411849999999959e+00 4.873935000000000173e+01 1.509360000000000127e+03
4.400000000000000439e-02 5.106640000000000068e-01 2.844794999999999963e+00 4.871609999999999729e+01 1.509255000000000109e+03
4.499999999999999833e-02 5.107679999999999998e-01 3.538889999999999869e+00 4.920664999999999623e+01 1.509295000000000073e+03
4.599999999999999922e-02 5.109700000000000353e-01 4.417300000000000004e+00 5.019214999999999804e+01 1.509490000000000009e+03
4.700000000000000011e-02 5.112649999999999695e-01 5.476194999999999702e+00 5.164770000000000039e+01 1.509829999999999927e+03
4.800000000000000100e-02 5.116495000000000903e-01 6.710905000000000342e+00 5.354484999999999673e+01 1.510305000000000064e+03
4.900000000000000189e-02 5.121169999999999334e-01 8.114525000000000432e+00 5.585190000000000055e+01 1.510914999999999964e+03
5.000000000000000278e-02 5.126604999999999634e-01 9.676670000000001437e+00 5.853389999999999560e+01 1.511640000000000100e+03
5.100000000000000366e-02 5.132725000000000204e-01 1.138211000000000084e+01 6.155110000000000525e+01 1.512474999999999909e+03
5.200000000000000455e-02 5.139430000000000387e-01 1.321043000000000056e+01 6.485885000000000389e+01 1.513410000000000082e+03
5.300000000000000544e-02 5.146610000000000351e-01 1.513636499999999963e+01 6.840744999999999720e+01 1.514425000000000182e+03
5.399999999999999939e-02 5.154149999999999565e-01 1.713096499999999978e+01 7.214310000000000400e+01 1.515509999999999991e+03
5.500000000000000028e-02 5.161934999999999718e-01 1.916322999999999865e+01 7.600995000000000346e+01 1.516650000000000091e+03
5.600000000000000117e-02 5.169844999999999580e-01 2.120224999999999937e+01 7.995234999999999559e+01 1.517829999999999927e+03
5.700000000000000205e-02 5.177779999999999605e-01 2.321859999999999857e+01 8.391790000000000305e+01 1.519025000000000091e+03
5.800000000000000294e-02 5.185640000000000249e-01 2.518659999999999854e+01 8.785945000000000960e+01 1.520235000000000127e+03
5.900000000000000383e-02 5.193370000000000486e-01 2.708474999999999966e+01 9.173789999999999623e+01 1.521434999999999945e+03
6.000000000000000472e-02 5.200909999999999700e-01 2.889679999999999893e+01 9.552400000000000091e+01 1.522619999999999891e+03
6.099999999999999867e-02 5.208230000000000359e-01 3.061169999999999902e+01 9.919679999999999609e+01 1.523789999999999964e+03
6.199999999999999956e-02 5.215330000000000243e-01 3.222330000000000183e+01 1.027466000000000008e+02 1.524924999999999955e+03
6.300000000000000044e-02 5.222210000000000463e-01 3.372990000000000066e+01 1.061710999999999956e+02 1.526034999999999854e+03
6.400000000000000133e-02 5.228880000000000194e-01 3.513329999999999842e+01 1.094769000000000005e+02 1.527110000000000127e+03
6.500000000000000222e-02 5.235380000000000589e-01 3.643809999999999860e+01 1.126754999999999995e+02 1.528160000000000082e+03
6.600000000000000311e-02 5.241740000000000288e-01 3.765080000000000382e+01 1.157824999999999989e+02 1.529184999999999945e+03
6.700000000000000400e-02 5.247984999999999456e-01 3.877899999999999636e+01 1.188165000000000049e+02 1.530184999999999945e+03
6.800000000000000488e-02 5.254165000000000640e-01 3.983064999999999856e+01 1.217949999999999875e+02 1.531170000000000073e+03
6.900000000000000577e-02 5.260299999999999976e-01 4.081329999999999814e+01 1.247349999999999994e+02 1.532144999999999982e+03
7.000000000000000666e-02 5.266410000000000258e-01 4.173359999999999559e+01 1.276510000000000105e+02 1.533110000000000127e+03
7.100000000000000755e-02 5.272509999999999142e-01 4.259659999999999513e+01 1.305519999999999925e+02 1.534069999999999936e+03
7.200000000000000844e-02 5.278614999999999835e-01 4.340550000000000352e+01 1.334439999999999884e+02 1.535025000000000091e+03
7.300000000000000933e-02 5.284699999999999953e-01 4.416145000000000209e+01 1.363249999999999886e+02 1.535970000000000027e+03
7.399999999999999634e-02 5.290759999999999907e-01 4.486305000000000121e+01 1.391895000000000095e+02 1.536914999999999964e+03
7.499999999999999722e-02 5.296754999999999658e-01 4.550719999999999743e+01 1.420255000000000223e+02 1.537855000000000018e+03
7.599999999999999811e-02 5.302655000000000562e-01 4.608874999999999744e+01 1.448170000000000073e+02 1.538779999999999973e+03
7.699999999999999900e-02 5.308410000000000073e-01 4.660125000000000028e+01 1.475424999999999898e+02 1.539690000000000055e+03
7.799999999999999989e-02 5.313965000000000494e-01 4.703739999999999810e+01 1.501795000000000186e+02 1.540570000000000164e+03
7.900000000000000078e-02 5.319285000000000263e-01 4.738954999999999984e+01 1.527040000000000077e+02 1.541414999999999964e+03
8.000000000000000167e-02 5.324314999999999465e-01 4.765044999999999931e+01 1.550919999999999845e+02 1.542224999999999909e+03
8.100000000000000255e-02 5.329010000000000691e-01 4.781350000000000477e+01 1.573205000000000098e+02 1.542994999999999891e+03
8.200000000000000344e-02 5.333330000000000570e-01 4.787354999999999450e+01 1.593704999999999927e+02 1.543704999999999927e+03
8.300000000000000433e-02 5.337244999999999351e-01 4.782685000000000031e+01 1.612250000000000227e+02 1.544355000000000018e+03
8.400000000000000522e-02 5.340734999999999788e-01 4.767175000000000296e+01 1.628714999999999975e+02 1.544949999999999818e+03
8.500000000000000611e-02 5.343790000000000484e-01 4.740845000000000198e+01 1.643034999999999854e+02 1.545474999999999909e+03
8.600000000000000699e-02 5.346405000000000740e-01 4.703929999999999723e+01 1.655185000000000173e+02 1.545934999999999945e+03
8.700000000000000788e-02 5.348585000000000145e-01 4.656869999999999976e+01 1.665180000000000007e+02 1.546329999999999927e+03
8.800000000000000877e-02 5.350354999999999972e-01 4.600300000000000011e+01 1.673100000000000023e+02 1.546654999999999973e+03
8.899999999999999578e-02 5.351730000000000098e-01 4.535025000000000261e+01 1.679055000000000177e+02 1.546914999999999964e+03
8.999999999999999667e-02 5.352740000000000276e-01 4.462010000000000076e+01 1.683190000000000168e+02 1.547115000000000009e+03
9.099999999999999756e-02 5.353425000000000544e-01 4.382349999999999568e+01 1.685679999999999836e+02 1.547259999999999991e+03
9.199999999999999845e-02 5.353824999999999834e-01 4.297204999999999586e+01 1.686730000000000018e+02 1.547355000000000018e+03
9.299999999999999933e-02 5.353984999999999994e-01 4.207815000000000083e+01 1.686560000000000059e+02 1.547409999999999854e+03
9.400000000000000022e-02 5.353939999999999255e-01 4.115425000000000466e+01 1.685384999999999991e+02 1.547420000000000073e+03
9.500000000000000111e-02 5.353744999999999754e-01 4.021264999999999645e+01 1.683425000000000011e+02 1.547405000000000200e+03
9.600000000000000200e-02 5.353434999999999722e-01 3.926494999999999891e+01 1.680899999999999750e+02 1.547365000000000009e+03
9.700000000000000289e-02 5.353050000000000308e-01 3.832184999999999775e+01 1.678004999999999995e+02 1.547299999999999955e+03
9.800000000000000377e-02 5.352620000000000156e-01 3.739260000000000161e+01 1.674904999999999973e+02 1.547230000000000018e+03
9.900000000000000466e-02 5.352170000000000538e-01 3.648505000000000109e+01 1.671765000000000043e+02 1.547150000000000091e+03
1.000000000000000056e-01 5.351725000000000509e-01 3.560504999999999853e+01 1.668679999999999950e+02 1.547065000000000055e+03
1.010000000000000064e-01 5.351304999999999534e-01 3.475655000000000427e+01 1.665745000000000005e+02 1.546980000000000018e+03
1.020000000000000073e-01 5.350905000000000244e-01 3.394160000000000110e+01 1.663000000000000114e+02 1.546894999999999982e+03
1.030000000000000082e-01 5.350535000000000707e-01 3.316025000000000489e+01 1.660450000000000159e+02 1.546815000000000055e+03
1.040000000000000091e-01 5.350175000000000347e-01 3.241079999999999472e+01 1.658079999999999927e+02 1.546740000000000009e+03
1.050000000000000100e-01 5.349825000000000275e-01 3.168984999999999985e+01 1.655835000000000150e+02 1.546660000000000082e+03
1.059999999999999970e-01 5.349464999999999915e-01 3.099305000000000021e+01 1.653645000000000209e+02 1.546585000000000036e+03
1.069999999999999979e-01 5.349074999999999802e-01 3.031470000000000198e+01 1.651405000000000030e+02 1.546509999999999991e+03
1.079999999999999988e-01 5.348634999999999362e-01 2.964869999999999806e+01 1.649014999999999986e+02 1.546434999999999945e+03
1.089999999999999997e-01 5.348124999999999130e-01 2.898874999999999957e+01 1.646370000000000005e+02 1.546344999999999800e+03
1.100000000000000006e-01 5.347524999999999640e-01 2.832830000000000226e+01 1.643360000000000127e+02 1.546244999999999891e+03
1.110000000000000014e-01 5.346805000000000030e-01 2.766150000000000020e+01 1.639884999999999877e+02 1.546134999999999991e+03
1.120000000000000023e-01 5.345969999999999889e-01 2.698310000000000031e+01 1.635854999999999961e+02 1.546009999999999991e+03
1.130000000000000032e-01 5.344990000000000574e-01 2.628869999999999862e+01 1.631204999999999927e+02 1.545869999999999891e+03
1.140000000000000041e-01 5.343869999999999454e-01 2.557500000000000284e+01 1.625879999999999939e+02 1.545710000000000036e+03
1.150000000000000050e-01 5.342599999999999572e-01 2.484000000000000341e+01 1.619855000000000018e+02 1.545525000000000091e+03
1.160000000000000059e-01 5.341185000000000516e-01 2.408310000000000173e+01 1.613135000000000048e+02 1.545320000000000164e+03
1.170000000000000068e-01 5.339635000000000353e-01 2.330499999999999972e+01 1.605745000000000005e+02 1.545099999999999909e+03
1.180000000000000077e-01 5.337959999999999372e-01 2.250775000000000148e+01 1.597735000000000127e+02 1.544860000000000127e+03
1.190000000000000085e-01 5.336180000000000367e-01 2.169480000000000075e+01 1.589175000000000182e+02 1.544599999999999909e+03
1.200000000000000094e-01 5.334309999999999885e-01 2.087059999999999960e+01 1.580160000000000196e+02 1.544320000000000164e+03
1.209999999999999964e-01 5.332375000000000309e-01 2.004090000000000060e+01 1.570805000000000007e+02 1.544034999999999854e+03
1.219999999999999973e-01 5.330405000000000282e-01 1.921199999999999974e+01 1.561229999999999905e+02 1.543740000000000009e+03
1.229999999999999982e-01 5.328429999999999556e-01 1.839090000000000202e+01 1.551569999999999823e+02 1.543440000000000055e+03
1.239999999999999991e-01 5.326474999999999405e-01 1.758489999999999753e+01 1.541970000000000027e+02 1.543134999999999991e+03
1.250000000000000000e-01 5.324569999999999581e-01 1.680144999999999911e+01 1.532554999999999836e+02 1.542835000000000036e+03
1.260000000000000009e-01 5.322735000000000660e-01 1.604755000000000109e+01 1.523470000000000084e+02 1.542545000000000073e+03
1.270000000000000018e-01 5.321000000000000174e-01 1.532990000000000030e+01 1.514830000000000041e+02 1.542269999999999982e+03
1.280000000000000027e-01 5.319380000000000219e-01 1.465449500000000072e+01 1.506740000000000066e+02 1.542000000000000000e+03
1.290000000000000036e-01 5.317899999999999849e-01 1.402629500000000107e+01 1.499295000000000186e+02 1.541750000000000000e+03
1.300000000000000044e-01 5.316570000000000462e-01 1.344924999999999926e+01 1.492559999999999718e+02 1.541519999999999982e+03
1.310000000000000053e-01 5.315395000000000536e-01 1.292593000000000103e+01 1.486585000000000036e+02 1.541315000000000055e+03
1.320000000000000062e-01 5.314375000000000071e-01 1.245782999999999952e+01 1.481380000000000052e+02 1.541125000000000000e+03
1.330000000000000071e-01 5.313510000000000177e-01 1.204502000000000095e+01 1.476960000000000264e+02 1.540965000000000146e+03
1.340000000000000080e-01 5.312795000000000156e-01 1.168630500000000083e+01 1.473284999999999911e+02 1.540825000000000045e+03
1.350000000000000089e-01 5.312215000000000131e-01 1.137940000000000040e+01 1.470310000000000059e+02 1.540704999999999927e+03
1.360000000000000098e-01 5.311764999999999404e-01 1.112105999999999995e+01 1.467975000000000136e+02 1.540609999999999900e+03
1.370000000000000107e-01 5.311409999999999743e-01 1.090715499999999949e+01 1.466210000000000093e+02 1.540530000000000200e+03
1.380000000000000115e-01 5.311150000000000038e-01 1.073292499999999983e+01 1.464915000000000020e+02 1.540460000000000036e+03
1.390000000000000124e-01 5.310960000000000125e-01 1.059327000000000041e+01 1.464004999999999939e+02 1.540409999999999854e+03
1.400000000000000133e-01 5.310820000000000540e-01 1.048282000000000025e+01 1.463375000000000057e+02 1.540369999999999891e+03
1.410000000000000142e-01 5.310715000000000297e-01 1.039634500000000017e+01 1.462939999999999827e+02 1.540344999999999800e+03
1.420000000000000151e-01 5.310619999999999230e-01 1.032858500000000035e+01 1.462620000000000005e+02 1.540315000000000055e+03
1.430000000000000160e-01 5.310529999999999973e-01 1.027486500000000014e+01 1.462325000000000159e+02 1.540289999999999964e+03
1.440000000000000169e-01 5.310424999999999729e-01 1.023071999999999981e+01 1.461999999999999886e+02 1.540269999999999982e+03
1.450000000000000178e-01 5.310300000000000020e-01 1.019242500000000007e+01 1.461580000000000155e+02 1.540250000000000000e+03
1.459999999999999909e-01 5.310150000000000148e-01 1.015673499999999940e+01 1.461030000000000086e+02 1.540224999999999909e+03
1.469999999999999918e-01 5.309964999999999824e-01 1.012096499999999999e+01 1.460319999999999823e+02 1.540200000000000045e+03
1.479999999999999927e-01 5.309745000000000159e-01 1.008317500000000067e+01 1.459435000000000002e+02 1.540170000000000073e+03
1.489999999999999936e-01 5.309490000000000043e-01 1.004181999999999952e+01 1.458369999999999891e+02 1.540134999999999991e+03
1.499999999999999944e-01 5.309199999999999475e-01 9.995969999999999800e+00 1.457129999999999939e+02 1.540090000000000146e+03
1.509999999999999953e-01 5.308884999999999854e-01 9.945149999999999935e+00 1.455724999999999909e+02 1.540045000000000073e+03
1.519999999999999962e-01 5.308534999999999782e-01 9.889285000000000991e+00 1.454175000000000182e+02 1.540000000000000000e+03
1.529999999999999971e-01 5.308169999999999833e-01 9.828530000000000655e+00 1.452500000000000000e+02 1.539949999999999818e+03
1.539999999999999980e-01 5.307790000000000008e-01 9.763455000000000439e+00 1.450724999999999909e+02 1.539889999999999873e+03
1.549999999999999989e-01 5.307389999999999608e-01 9.694654999999999134e+00 1.448880000000000052e+02 1.539835000000000036e+03
1.559999999999999998e-01 5.306994999999999907e-01 9.622990000000001487e+00 1.446990000000000123e+02 1.539775000000000091e+03
1.570000000000000007e-01 5.306589999999999918e-01 9.549344999999998862e+00 1.445074999999999932e+02 1.539715000000000146e+03
1.580000000000000016e-01 5.306184999999999929e-01 9.474610000000000198e+00 1.443154999999999859e+02 1.539655000000000200e+03
1.590000000000000024e-01 5.305790000000000228e-01 9.399795000000001011e+00 1.441250000000000000e+02 1.539599999999999909e+03
