# t [s], A [cm^2], U [cm/s], P [cPa], c [cm/s]
1.000000000000000021e-03 4.983904999999999585e-01 4.520400000000000806e-03 9.076814999999999145e+01 1.639154999999999973e+03
2.000000000000000042e-03 4.983830000000000204e-01 -2.614250000000000254e-03 9.074275000000000091e+01 1.639150000000000091e+03
3.000000000000000062e-03 4.984180000000000277e-01 7.641714999999998925e-02 9.082665000000000077e+01 1.639170000000000073e+03
4.000000000000000083e-03 4.984564999999999690e-01 1.709349000000000007e-01 9.094724999999999682e+01 1.639194999999999936e+03
5.000000000000000104e-03 4.984465000000000146e-01 1.659595000000000098e-01 9.092805000000001314e+01 1.639190000000000055e+03
6.000000000000000125e-03 4.984034999999999993e-01 8.310549999999999882e-02 9.075480000000000302e+01 1.639159999999999854e+03
7.000000000000000146e-03 4.983655000000000168e-01 5.541500000000032511e-03 9.052694999999999936e+01 1.639110000000000127e+03
8.000000000000000167e-03 4.983155000000000223e-01 -1.087145000000000472e-01 9.021205000000000496e+01 1.639045000000000073e+03
9.000000000000001055e-03 4.982275000000000453e-01 -3.218449999999999367e-01 8.972239999999999327e+01 1.638944999999999936e+03
1.000000000000000194e-02 4.980959999999999832e-01 -6.473200000000000065e-01 8.901024999999999920e+01 1.638789999999999964e+03
1.099999999999999936e-02 4.979109999999999925e-01 -1.102810000000000068e+00 8.802025000000000432e+01 1.638579999999999927e+03
1.200000000000000025e-02 4.976620000000000488e-01 -1.699185000000000167e+00 8.669999999999998863e+01 1.638295000000000073e+03
1.300000000000000114e-02 4.973640000000000283e-01 -2.387234999999999996e+00 8.507419999999999050e+01 1.637934999999999945e+03
1.400000000000000203e-02 4.970549999999999691e-01 -3.053710000000000147e+00 8.327074999999999250e+01 1.637525000000000091e+03
1.499999999999999944e-02 4.967765000000000097e-01 -3.573605999999999838e+00 8.146755000000000280e+01 1.637099999999999909e+03
1.600000000000000033e-02 4.965514999999999790e-01 -3.865446999999999633e+00 7.981300000000000239e+01 1.636690000000000055e+03
1.700000000000000122e-02 4.963794999999999735e-01 -3.913364500000000135e+00 7.837680000000000291e+01 1.636309999999999945e+03
1.800000000000000211e-02 4.962405000000000288e-01 -3.756654999999999855e+00 7.714400000000000546e+01 1.635960000000000036e+03
1.900000000000000300e-02 4.961075000000000346e-01 -3.462967499999999976e+00 7.604035000000000366e+01 1.635644999999999982e+03
2.000000000000000042e-02 4.959584999999999688e-01 -3.099744000000000277e+00 7.497069999999999368e+01 1.635325000000000045e+03
2.100000000000000130e-02 4.957804999999999573e-01 -2.712682050000000178e+00 7.385499999999998977e+01 1.635000000000000000e+03
2.200000000000000219e-02 4.955740000000000145e-01 -2.316054499999999905e+00 7.265354999999999563e+01 1.634664999999999964e+03
2.299999999999999961e-02 4.953480000000000105e-01 -1.896605000000000096e+00 7.137180000000000746e+01 1.634309999999999945e+03
2.400000000000000050e-02 4.951180000000000581e-01 -1.428099999999999925e+00 7.004800000000000182e+01 1.633940000000000055e+03
2.500000000000000139e-02 4.948940000000000006e-01 -8.897399999999999753e-01 6.872849999999999682e+01 1.633570000000000164e+03
2.600000000000000228e-02 4.946809999999999818e-01 -2.807549999999998658e-01 6.744355000000000189e+01 1.633204999999999927e+03
2.700000000000000316e-02 4.944724999999999815e-01 3.733399999999997831e-01 6.619084999999999752e+01 1.632849999999999909e+03
2.800000000000000058e-02 4.942549999999999999e-01 1.023665000000000047e+00 6.493160000000000309e+01 1.632494999999999891e+03
2.900000000000000147e-02 4.940120000000000067e-01 1.607950000000000212e+00 6.359895000000000209e+01 1.632115000000000009e+03
3.000000000000000236e-02 4.937265000000000126e-01 2.064445000000000086e+00 6.211489999999999867e+01 1.631710000000000036e+03
3.099999999999999978e-02 4.933874999999999789e-01 2.346104999999999663e+00 6.041170000000000329e+01 1.631264999999999873e+03
3.200000000000000067e-02 4.929939999999999878e-01 2.431534999999999780e+00 5.845190000000000197e+01 1.630769999999999982e+03
3.300000000000000155e-02 4.925535000000000330e-01 2.329690000000000261e+00 5.624139999999999873e+01 1.630215000000000146e+03
3.400000000000000244e-02 4.920829999999999371e-01 2.077210000000000001e+00 5.383245000000000147e+01 1.629619999999999891e+03
3.500000000000000333e-02 4.916050000000000142e-01 1.729710000000000303e+00 5.131589999999999918e+01 1.628990000000000009e+03
3.600000000000000422e-02 4.911425000000000374e-01 1.350094999999999601e+00 4.880564999999999998e+01 1.628359999999999900e+03
3.700000000000000511e-02 4.907179999999999875e-01 9.977350000000000385e-01 4.642105000000000103e+01 1.627755000000000109e+03
3.799999999999999906e-02 4.903475000000000472e-01 7.208700000000001218e-01 4.427139999999999986e+01 1.627190000000000055e+03
3.899999999999999994e-02 4.900424999999999920e-01 5.532050000000001688e-01 4.244509999999999650e+01 1.626694999999999936e+03
4.000000000000000083e-02 4.898090000000000499e-01 5.144349999999997536e-01 4.100504999999999711e+01 1.626285000000000082e+03
4.100000000000000172e-02 4.896500000000000297e-01 6.133149999999998325e-01 3.998879999999999768e+01 1.625980000000000018e+03
4.200000000000000261e-02 4.895639999999999992e-01 8.520800000000000596e-01 3.941290000000000049e+01 1.625769999999999982e+03
4.300000000000000350e-02 4.895504999999999995e-01 1.230760499999999924e+00 3.927949999999999875e+01 1.625675000000000182e+03
4.400000000000000439e-02 4.896089999999999609e-01 1.750350000000000072e+00 3.958239999999999981e+01 1.625684999999999945e+03
4.499999999999999833e-02 4.897374999999999923e-01 2.414257999999999793e+00 4.031235000000000213e+01 1.625799999999999955e+03
4.599999999999999922e-02 4.899359999999999826e-01 3.227868999999999655e+00 4.145949999999999847e+01 1.626025000000000091e+03
4.700000000000000011e-02 4.902044999999999875e-01 4.196718049999999423e+00 4.301364999999999839e+01 1.626355000000000018e+03
4.800000000000000100e-02 4.905410000000000048e-01 5.323879500000000320e+00 4.496244999999999692e+01 1.626789999999999964e+03
4.900000000000000189e-02 4.909430000000000183e-01 6.607623999999999498e+00 4.728869999999999862e+01 1.627319999999999936e+03
5.000000000000000278e-02 4.914049999999999807e-01 8.039616999999999791e+00 4.996779999999999688e+01 1.627944999999999936e+03
5.100000000000000366e-02 4.919215000000000115e-01 9.604509999999999437e+00 5.296620000000000061e+01 1.628650000000000091e+03
5.200000000000000455e-02 4.924824999999999897e-01 1.128058000000000050e+01 5.624154999999999660e+01 1.629434999999999945e+03
5.300000000000000544e-02 4.930795000000000039e-01 1.304104500000000044e+01 5.974375000000000568e+01 1.630284999999999854e+03
5.399999999999999939e-02 4.937015000000000153e-01 1.485661499999999968e+01 6.341785000000000139e+01 1.631190000000000055e+03
5.500000000000000028e-02 4.943389999999999729e-01 1.669726999999999961e+01 6.720714999999999861e+01 1.632130000000000109e+03
5.600000000000000117e-02 4.949830000000000618e-01 1.853488000000000113e+01 7.105700000000000216e+01 1.633094999999999800e+03
5.700000000000000205e-02 4.956249999999999822e-01 2.034430000000000049e+01 7.491769999999999641e+01 1.634079999999999927e+03
5.800000000000000294e-02 4.962600000000000344e-01 2.210510000000000019e+01 7.874734999999999729e+01 1.635065000000000055e+03
5.900000000000000383e-02 4.968825000000000047e-01 2.380140000000000100e+01 8.251304999999999268e+01 1.636039999999999964e+03
6.000000000000000472e-02 4.974910000000000165e-01 2.542220000000000013e+01 8.619174999999999898e+01 1.637009999999999991e+03
6.099999999999999867e-02 4.980835000000000123e-01 2.696079999999999899e+01 8.976994999999999436e+01 1.637954999999999927e+03
6.199999999999999956e-02 4.986605000000000065e-01 2.841414999999999935e+01 9.324215000000000941e+01 1.638884999999999991e+03
6.300000000000000044e-02 4.992225000000000135e-01 2.978190000000000026e+01 9.661019999999999186e+01 1.639789999999999964e+03
6.400000000000000133e-02 4.997715000000000352e-01 3.106579999999999941e+01 9.988124999999999432e+01 1.640670000000000073e+03
6.500000000000000222e-02 5.003094999999999626e-01 3.226885000000000048e+01 1.030653499999999951e+02 1.641534999999999854e+03
6.600000000000000311e-02 5.008375000000000465e-01 3.339444999999999908e+01 1.061741000000000099e+02 1.642384999999999991e+03
6.700000000000000400e-02 5.013575000000000115e-01 3.444599999999999795e+01 1.092179999999999893e+02 1.643210000000000036e+03
6.800000000000000488e-02 5.018709999999999560e-01 3.542615000000000691e+01 1.122074999999999960e+02 1.644025000000000091e+03
6.900000000000000577e-02 5.023779999999999912e-01 3.633650000000000091e+01 1.151469999999999914e+02 1.644829999999999927e+03
7.000000000000000666e-02 5.028779999999999362e-01 3.717749999999999488e+01 1.180390000000000015e+02 1.645619999999999891e+03
7.100000000000000755e-02 5.033705000000000540e-01 3.794800000000000040e+01 1.208815000000000026e+02 1.646400000000000091e+03
7.200000000000000844e-02 5.038540000000000241e-01 3.864584999999999582e+01 1.236674999999999898e+02 1.647164999999999964e+03
7.300000000000000933e-02 5.043249999999999122e-01 3.926765000000000327e+01 1.263859999999999957e+02 1.647909999999999854e+03
7.399999999999999634e-02 5.047825000000000228e-01 3.980965000000000487e+01 1.290244999999999891e+02 1.648639999999999873e+03
7.499999999999999722e-02 5.052225000000000188e-01 4.026769999999999783e+01 1.315660000000000025e+02 1.649345000000000027e+03
7.599999999999999811e-02 5.056430000000000646e-01 4.063804999999999978e+01 1.339950000000000045e+02 1.650019999999999982e+03
7.699999999999999900e-02 5.060409999999999631e-01 4.091745000000000232e+01 1.362950000000000159e+02 1.650670000000000073e+03
7.799999999999999989e-02 5.064140000000000308e-01 4.110360000000000014e+01 1.384519999999999982e+02 1.651285000000000082e+03
7.900000000000000078e-02 5.067605000000000581e-01 4.119514999999999816e+01 1.404515000000000100e+02 1.651855000000000018e+03
8.000000000000000167e-02 5.070780000000000287e-01 4.119180000000000064e+01 1.422855000000000132e+02 1.652384999999999991e+03
8.100000000000000255e-02 5.073665000000000536e-01 4.109454999999999814e+01 1.439445000000000050e+02 1.652865000000000009e+03
8.200000000000000344e-02 5.076255000000000628e-01 4.090550000000000352e+01 1.454254999999999995e+02 1.653309999999999945e+03
8.300000000000000433e-02 5.078534999999999577e-01 4.062770000000000437e+01 1.467264999999999873e+02 1.653700000000000045e+03
8.400000000000000522e-02 5.080525000000000180e-01 4.026539999999999964e+01 1.478489999999999895e+02 1.654049999999999955e+03
8.500000000000000611e-02 5.082214999999999927e-01 3.982389999999999475e+01 1.487975000000000136e+02 1.654345000000000027e+03
8.600000000000000699e-02 5.083634999999999682e-01 3.930949999999999989e+01 1.495794999999999959e+02 1.654599999999999909e+03
8.700000000000000788e-02 5.084800000000000431e-01 3.872960000000000491e+01 1.502040000000000077e+02 1.654809999999999945e+03
8.800000000000000877e-02 5.085720000000000240e-01 3.809244999999999948e+01 1.506834999999999809e+02 1.654980000000000018e+03
8.899999999999999578e-02 5.086424999999999974e-01 3.740709999999999980e+01 1.510314999999999941e+02 1.655115000000000009e+03
8.999999999999999667e-02 5.086939999999999795e-01 3.668330000000000268e+01 1.512644999999999982e+02 1.655215000000000146e+03
9.099999999999999756e-02 5.087300000000000155e-01 3.593084999999999951e+01 1.513980000000000246e+02 1.655284999999999854e+03
9.199999999999999845e-02 5.087519999999999820e-01 3.515980000000000416e+01 1.514499999999999886e+02 1.655329999999999927e+03
9.299999999999999933e-02 5.087645000000000639e-01 3.437975000000000136e+01 1.514375000000000000e+02 1.655355000000000018e+03
9.400000000000000022e-02 5.087690000000000268e-01 3.359940000000000282e+01 1.513764999999999930e+02 1.655360000000000127e+03
9.500000000000000111e-02 5.087675000000000392e-01 3.282659999999999911e+01 1.512814999999999941e+02 1.655355000000000018e+03
9.600000000000000200e-02 5.087625000000000064e-01 3.206765000000000043e+01 1.511655000000000086e+02 1.655335000000000036e+03
9.700000000000000289e-02 5.087559999999999860e-01 3.132750000000000057e+01 1.510384999999999991e+02 1.655315000000000055e+03
9.800000000000000377e-02 5.087475000000000191e-01 3.060914999999999964e+01 1.509080000000000155e+02 1.655284999999999854e+03
9.900000000000000466e-02 5.087384999999999824e-01 2.991410000000000124e+01 1.507779999999999916e+02 1.655260000000000218e+03
1.000000000000000056e-01 5.087279999999999580e-01 2.924230000000000018e+01 1.506500000000000057e+02 1.655224999999999909e+03
1.010000000000000064e-01 5.087169999999999748e-01 2.859205000000000041e+01 1.505219999999999914e+02 1.655195000000000164e+03
1.020000000000000073e-01 5.087034999999999751e-01 2.796079999999999899e+01 1.503905000000000030e+02 1.655159999999999854e+03
1.030000000000000082e-01 5.086870000000000003e-01 2.734469999999999956e+01 1.502500000000000000e+02 1.655125000000000000e+03
1.040000000000000091e-01 5.086664999999999104e-01 2.673955000000000126e+01 1.500939999999999941e+02 1.655079999999999927e+03
1.050000000000000100e-01 5.086395000000000222e-01 2.614069999999999894e+01 1.499144999999999754e+02 1.655034999999999854e+03
1.059999999999999970e-01 5.086064999999999614e-01 2.554334999999999667e+01 1.497044999999999959e+02 1.654974999999999909e+03
1.069999999999999979e-01 5.085650000000000448e-01 2.494310000000000116e+01 1.494559999999999889e+02 1.654914999999999964e+03
1.079999999999999988e-01 5.085149999999999393e-01 2.433559999999999945e+01 1.491620000000000061e+02 1.654840000000000146e+03
1.089999999999999997e-01 5.084549999999999903e-01 2.371724999999999994e+01 1.488185000000000002e+02 1.654750000000000000e+03
1.100000000000000006e-01 5.083855000000000457e-01 2.308530000000000015e+01 1.484200000000000159e+02 1.654650000000000091e+03
1.110000000000000014e-01 5.083050000000000068e-01 2.243775000000000119e+01 1.479660000000000082e+02 1.654534999999999854e+03
1.120000000000000023e-01 5.082149999999999723e-01 2.177345000000000041e+01 1.474544999999999959e+02 1.654409999999999854e+03
1.130000000000000032e-01 5.081155000000000532e-01 2.109254999999999924e+01 1.468880000000000052e+02 1.654265000000000100e+03
1.140000000000000041e-01 5.080065000000000275e-01 2.039604999999999890e+01 1.462704999999999984e+02 1.654110000000000127e+03
1.150000000000000050e-01 5.078905000000000225e-01 1.968605000000000160e+01 1.456064999999999827e+02 1.653940000000000055e+03
1.160000000000000059e-01 5.077679999999999971e-01 1.896565000000000012e+01 1.449035000000000082e+02 1.653764999999999873e+03
1.170000000000000068e-01 5.076410000000000089e-01 1.823890000000000100e+01 1.441700000000000159e+02 1.653579999999999927e+03
1.180000000000000077e-01 5.075115000000000043e-01 1.751030000000000086e+01 1.434164999999999850e+02 1.653380000000000109e+03
1.190000000000000085e-01 5.073810000000000819e-01 1.678524999999999778e+01 1.426535000000000082e+02 1.653184999999999945e+03
1.200000000000000094e-01 5.072514999999999663e-01 1.606940000000000168e+01 1.418924999999999841e+02 1.652990000000000009e+03
1.209999999999999964e-01 5.071255000000000068e-01 1.536850000000000094e+01 1.411454999999999984e+02 1.652795000000000073e+03
1.219999999999999973e-01 5.070034999999999403e-01 1.468834999999999980e+01 1.404219999999999970e+02 1.652599999999999909e+03
1.229999999999999982e-01 5.068894999999999929e-01 1.403436999999999912e+01 1.397344999999999970e+02 1.652414999999999964e+03
1.239999999999999991e-01 5.067835000000000534e-01 1.341160499999999978e+01 1.390919999999999845e+02 1.652244999999999891e+03
1.250000000000000000e-01 5.066869999999999985e-01 1.282433500000000137e+01 1.385010000000000048e+02 1.652075000000000045e+03
1.260000000000000009e-01 5.066005000000000091e-01 1.227595999999999954e+01 1.379699999999999989e+02 1.651930000000000064e+03
1.270000000000000018e-01 5.065254999999999619e-01 1.176899999999999835e+01 1.375020000000000095e+02 1.651800000000000182e+03
1.280000000000000027e-01 5.064615000000000089e-01 1.130492500000000078e+01 1.370994999999999777e+02 1.651680000000000064e+03
1.290000000000000036e-01 5.064089999999999980e-01 1.088414999999999999e+01 1.367635000000000218e+02 1.651575000000000045e+03
1.300000000000000044e-01 5.063670000000000115e-01 1.050603999999999871e+01 1.364904999999999973e+02 1.651490000000000009e+03
1.310000000000000053e-01 5.063345000000000207e-01 1.016894500000000079e+01 1.362779999999999916e+02 1.651420000000000073e+03
1.320000000000000062e-01 5.063115000000000254e-01 9.870554999999999524e+00 1.361209999999999809e+02 1.651365000000000009e+03
1.330000000000000071e-01 5.062955000000000094e-01 9.607689999999999841e+00 1.360120000000000005e+02 1.651319999999999936e+03
1.340000000000000080e-01 5.062860000000000138e-01 9.376820000000000377e+00 1.359440000000000168e+02 1.651289999999999964e+03
1.350000000000000089e-01 5.062809999999999810e-01 9.174005000000001075e+00 1.359085000000000036e+02 1.651264999999999873e+03
1.360000000000000098e-01 5.062794999999999934e-01 8.995174999999999699e+00 1.358979999999999961e+02 1.651250000000000000e+03
1.370000000000000107e-01 5.062809999999999810e-01 8.836304999999999410e+00 1.359039999999999964e+02 1.651240000000000009e+03
1.380000000000000115e-01 5.062830000000000386e-01 8.693414999999999893e+00 1.359189999999999827e+02 1.651235000000000127e+03
1.390000000000000124e-01 5.062849999999999850e-01 8.562865000000000393e+00 1.359365000000000236e+02 1.651234999999999900e+03
1.400000000000000133e-01 5.062860000000000138e-01 8.441404999999999603e+00 1.359510000000000218e+02 1.651235000000000127e+03
1.410000000000000142e-01 5.062854999999999439e-01 8.326135000000000730e+00 1.359565000000000055e+02 1.651224999999999909e+03
1.420000000000000151e-01 5.062824999999999687e-01 8.214610000000000412e+00 1.359515000000000100e+02 1.651220000000000027e+03
1.430000000000000160e-01 5.062769999999999770e-01 8.104849999999999000e+00 1.359314999999999998e+02 1.651220000000000027e+03
1.440000000000000169e-01 5.062694999999999279e-01 7.995314999999999728e+00 1.358960000000000150e+02 1.651204999999999927e+03
1.450000000000000178e-01 5.062590000000000146e-01 7.884889999999999510e+00 1.358444999999999823e+02 1.651190000000000055e+03
1.459999999999999909e-01 5.062455000000000149e-01 7.772854999999999848e+00 1.357764999999999986e+02 1.651174999999999955e+03
1.469999999999999918e-01 5.062305000000000277e-01 7.658839999999999648e+00 1.356935000000000002e+02 1.651154999999999973e+03
1.479999999999999927e-01 5.062124999999999542e-01 7.542779999999999596e+00 1.355974999999999966e+02 1.651125000000000000e+03
1.489999999999999936e-01 5.061934999999999629e-01 7.424834999999999852e+00 1.354890000000000043e+02 1.651099999999999909e+03
1.499999999999999944e-01 5.061725000000000252e-01 7.305379999999999541e+00 1.353710000000000093e+02 1.651065000000000055e+03
1.509999999999999953e-01 5.061504999999999477e-01 7.184910000000000352e+00 1.352450000000000045e+02 1.651039999999999964e+03
1.519999999999999962e-01 5.061280000000000223e-01 7.064000000000000057e+00 1.351129999999999995e+02 1.651005000000000109e+03
1.529999999999999971e-01 5.061050000000000271e-01 6.943260000000000431e+00 1.349774999999999920e+02 1.650970000000000027e+03
1.539999999999999980e-01 5.060810000000000031e-01 6.823269999999999946e+00 1.348400000000000034e+02 1.650934999999999945e+03
1.549999999999999989e-01 5.060580000000000078e-01 6.704569999999999474e+00 1.347010000000000218e+02 1.650894999999999982e+03
1.559999999999999998e-01 5.060344999999999427e-01 6.587629999999998986e+00 1.345620000000000118e+02 1.650860000000000127e+03
1.570000000000000007e-01 5.060114999999999474e-01 6.472825000000000273e+00 1.344239999999999782e+02 1.650825000000000045e+03
1.580000000000000016e-01 5.059890000000000221e-01 6.360445000000000348e+00 1.342860000000000014e+02 1.650789999999999964e+03
1.590000000000000024e-01 5.059659999999999158e-01 6.250709999999999766e+00 1.341499999999999773e+02 1.650755000000000109e+03
