# t [s], A [cm^2], U [cm/s], P [cPa], c [cm/s]
1.000000000000000021e-03 1.634300000000000197e-01 2.113474999999999937e-01 9.463169999999999504e+01 1.890849999999999909e+03
2.000000000000000042e-03 1.634065000000000101e-01 1.546633000000000147e+00 9.198009999999999309e+01 1.890634999999999991e+03
3.000000000000000062e-03 1.633129999999999860e-01 3.219594999999999985e+00 8.844710000000000605e+01 1.889855000000000018e+03
4.000000000000000083e-03 1.631704999999999961e-01 5.090208450000000440e+00 8.439099999999999113e+01 1.888680000000000064e+03
5.000000000000000104e-03 1.630039999999999822e-01 7.111575000000000202e+00 8.045494999999999663e+01 1.887325000000000045e+03
6.000000000000000125e-03 1.628324999999999911e-01 9.197040000000001214e+00 7.702715000000000600e+01 1.885934999999999945e+03
7.000000000000000146e-03 1.626659999999999773e-01 1.120589499999999994e+01 7.413339999999999463e+01 1.884605000000000018e+03
8.000000000000000167e-03 1.625079999999999858e-01 1.301441999999999943e+01 7.159645000000000437e+01 1.883365000000000009e+03
9.000000000000001055e-03 1.623614999999999919e-01 1.458482499999999860e+01 6.930715000000000714e+01 1.882224999999999909e+03
1.000000000000000194e-02 1.622290000000000121e-01 1.593820000000000014e+01 6.729215000000000657e+01 1.881210000000000036e+03
1.099999999999999936e-02 1.621134999999999937e-01 1.709624999999999773e+01 6.559239999999999782e+01 1.880335000000000036e+03
1.200000000000000025e-02 1.620149999999999924e-01 1.806940000000000168e+01 6.419899999999999807e+01 1.879595000000000027e+03
1.300000000000000114e-02 1.619325000000000070e-01 1.886424999999999841e+01 6.307104999999999961e+01 1.878980000000000018e+03
1.400000000000000203e-02 1.618645000000000223e-01 1.948389999999999844e+01 6.214820000000000277e+01 1.878480000000000018e+03
1.499999999999999944e-02 1.618065000000000198e-01 1.993260000000000076e+01 6.135829999999999984e+01 1.878059999999999945e+03
1.600000000000000033e-02 1.617584999999999995e-01 2.023315000000000197e+01 6.065919999999999845e+01 1.877720000000000027e+03
1.700000000000000122e-02 1.617184999999999873e-01 2.044249999999999901e+01 6.009359999999999502e+01 1.877440000000000055e+03
1.800000000000000211e-02 1.616900000000000004e-01 2.064509999999999934e+01 5.980114999999999981e+01 1.877244999999999891e+03
1.900000000000000300e-02 1.616775000000000018e-01 2.092479999999999762e+01 5.996309999999999718e+01 1.877170000000000073e+03
2.000000000000000042e-02 1.616859999999999964e-01 2.133204999999999885e+01 6.071045000000000158e+01 1.877240000000000009e+03
2.100000000000000130e-02 1.617164999999999853e-01 2.186460000000000292e+01 6.204895000000000493e+01 1.877480000000000018e+03
2.200000000000000219e-02 1.617664999999999798e-01 2.246950000000000003e+01 6.383764999999999645e+01 1.877865000000000009e+03
2.299999999999999961e-02 1.618304999999999882e-01 2.306264999999999787e+01 6.582484999999999786e+01 1.878355000000000018e+03
2.400000000000000050e-02 1.618999999999999884e-01 2.355624999999999858e+01 6.771979999999999222e+01 1.878890000000000100e+03
2.500000000000000139e-02 1.619654999999999845e-01 2.388279999999999959e+01 6.927025000000000432e+01 1.879394999999999982e+03
2.600000000000000228e-02 1.620205000000000117e-01 2.401064999999999827e+01 7.032124999999999204e+01 1.879835000000000036e+03
2.700000000000000316e-02 1.620614999999999972e-01 2.394624999999999915e+01 7.083825000000000216e+01 1.880164999999999964e+03
2.800000000000000058e-02 1.620864999999999945e-01 2.372585000000000122e+01 7.089535000000000764e+01 1.880375000000000000e+03
2.900000000000000147e-02 1.620985000000000065e-01 2.339999999999999858e+01 7.063479999999999848e+01 1.880484999999999900e+03
3.000000000000000236e-02 1.621009999999999951e-01 2.301699999999999946e+01 7.021529999999999916e+01 1.880514999999999873e+03
3.099999999999999978e-02 1.620975000000000055e-01 2.261005000000000109e+01 6.976529999999999632e+01 1.880494999999999891e+03
3.200000000000000067e-02 1.620909999999999851e-01 2.219169999999999732e+01 6.935425000000000750e+01 1.880450000000000045e+03
3.300000000000000155e-02 1.620830000000000048e-01 2.175545000000000329e+01 6.898644999999999072e+01 1.880390000000000100e+03
3.400000000000000244e-02 1.620729999999999948e-01 2.128314999999999912e+01 6.861599999999999966e+01 1.880315000000000055e+03
3.500000000000000333e-02 1.620599999999999818e-01 2.075540000000000163e+01 6.817484999999999218e+01 1.880224999999999909e+03
3.600000000000000422e-02 1.620429999999999926e-01 2.016114999999999924e+01 6.760470000000000823e+01 1.880099999999999909e+03
3.700000000000000511e-02 1.620205000000000117e-01 1.950515000000000043e+01 6.688344999999999629e+01 1.879934999999999945e+03
3.799999999999999906e-02 1.619929999999999981e-01 1.881034999999999968e+01 6.604014999999999702e+01 1.879730000000000018e+03
3.899999999999999994e-02 1.619619999999999949e-01 1.811545000000000272e+01 6.515449999999999875e+01 1.879500000000000000e+03
4.000000000000000083e-02 1.619309999999999916e-01 1.746819999999999951e+01 6.434239999999999782e+01 1.879264999999999873e+03
4.100000000000000172e-02 1.619029999999999914e-01 1.691594999999999871e+01 6.373104999999999620e+01 1.879054999999999836e+03
4.200000000000000261e-02 1.618829999999999991e-01 1.649640000000000128e+01 6.343099999999999739e+01 1.878894999999999982e+03
4.300000000000000350e-02 1.618740000000000179e-01 1.623024999999999807e+01 6.351130000000000564e+01 1.878820000000000164e+03
4.400000000000000439e-02 1.618779999999999941e-01 1.611739999999999995e+01 6.398470000000000368e+01 1.878839999999999918e+03
4.499999999999999833e-02 1.618950000000000111e-01 1.613759999999999906e+01 6.480429999999999779e+01 1.878960000000000036e+03
4.599999999999999922e-02 1.619224999999999970e-01 1.625390000000000157e+01 6.587184999999999491e+01 1.879159999999999854e+03
4.700000000000000011e-02 1.619590000000000196e-01 1.641904999999999859e+01 6.705504999999999427e+01 1.879424999999999955e+03
4.800000000000000100e-02 1.619984999999999897e-01 1.658265000000000100e+01 6.820830000000000837e+01 1.879720000000000027e+03
4.900000000000000189e-02 1.620375000000000010e-01 1.669760000000000133e+01 6.919370000000000687e+01 1.880014999999999873e+03
5.000000000000000278e-02 1.620710000000000206e-01 1.672500000000000142e+01 6.989820000000000277e+01 1.880275000000000091e+03
5.100000000000000366e-02 1.620960000000000178e-01 1.663710000000000022e+01 7.024379999999999313e+01 1.880460000000000036e+03
5.200000000000000455e-02 1.621080000000000021e-01 1.641840000000000188e+01 7.019194999999999141e+01 1.880565000000000055e+03
5.300000000000000544e-02 1.621075000000000155e-01 1.606435000000000102e+01 6.974060000000000059e+01 1.880565000000000055e+03
5.399999999999999939e-02 1.620929999999999871e-01 1.557964999999999911e+01 6.891740000000000066e+01 1.880464999999999918e+03
5.500000000000000028e-02 1.620650000000000146e-01 1.497555000000000014e+01 6.777055000000000007e+01 1.880255000000000109e+03
5.600000000000000117e-02 1.620250000000000024e-01 1.426725000000000065e+01 6.635904999999999632e+01 1.879954999999999927e+03
5.700000000000000205e-02 1.619744999999999935e-01 1.347220000000000084e+01 6.474514999999999532e+01 1.879574999999999818e+03
5.800000000000000294e-02 1.619154999999999900e-01 1.260865000000000080e+01 6.298899999999999721e+01 1.879130000000000109e+03
5.900000000000000383e-02 1.618495000000000072e-01 1.169544999999999924e+01 6.114574999999999960e+01 1.878630000000000109e+03
6.000000000000000472e-02 1.617794999999999928e-01 1.075204500000000074e+01 5.926630000000000109e+01 1.878099999999999909e+03
6.099999999999999867e-02 1.617065000000000030e-01 9.798840000000000217e+00 5.739820000000000277e+01 1.877545000000000073e+03
6.199999999999999956e-02 1.616329999999999989e-01 8.857635000000000147e+00 5.558820000000000050e+01 1.876984999999999900e+03
6.300000000000000044e-02 1.615604999999999958e-01 7.952125000000000554e+00 5.388455000000000439e+01 1.876434999999999945e+03
6.400000000000000133e-02 1.614915000000000100e-01 7.107554999999999623e+00 5.233785000000000309e+01 1.875909999999999854e+03
6.500000000000000222e-02 1.614284999999999748e-01 6.350410000000000110e+00 5.100150000000000006e+01 1.875420000000000073e+03
6.600000000000000311e-02 1.613724999999999743e-01 5.707470000000000709e+00 4.993025000000000091e+01 1.874989999999999782e+03
6.700000000000000400e-02 1.613264999999999838e-01 5.204715000000000202e+00 4.917799999999999727e+01 1.874630000000000109e+03
6.800000000000000488e-02 1.612925000000000053e-01 4.865969999999999906e+00 4.879470000000000596e+01 1.874365000000000009e+03
6.900000000000000577e-02 1.612729999999999997e-01 4.711645000000000749e+00 4.882295000000000584e+01 1.874204999999999927e+03
7.000000000000000666e-02 1.612689999999999957e-01 4.757540000000000546e+00 4.929550000000000409e+01 1.874159999999999854e+03
7.100000000000000755e-02 1.612819999999999809e-01 5.013980000000000103e+00 5.023220000000000596e+01 1.874244999999999891e+03
7.200000000000000844e-02 1.613124999999999976e-01 5.485224999999999795e+00 5.163880000000000337e+01 1.874470000000000027e+03
7.300000000000000933e-02 1.613620000000000054e-01 6.169349999999999667e+00 5.350665000000000049e+01 1.874829999999999927e+03
7.399999999999999634e-02 1.614289999999999892e-01 7.058405000000000484e+00 5.581295000000000073e+01 1.875325000000000045e+03
7.499999999999999722e-02 1.615145000000000053e-01 8.138999999999999346e+00 5.852240000000000464e+01 1.875954999999999927e+03
7.599999999999999811e-02 1.616155000000000230e-01 9.392994999999999095e+00 6.158940000000000481e+01 1.876719999999999800e+03
7.699999999999999900e-02 1.617315000000000003e-01 1.079868499999999898e+01 6.496084999999999354e+01 1.877590000000000146e+03
7.799999999999999989e-02 1.618609999999999771e-01 1.233171499999999909e+01 6.857914999999999850e+01 1.878565000000000055e+03
7.900000000000000078e-02 1.620010000000000061e-01 1.396634999999999849e+01 7.238524999999999920e+01 1.879630000000000109e+03
8.000000000000000167e-02 1.621500000000000163e-01 1.567680000000000007e+01 7.632165000000000532e+01 1.880759999999999991e+03
8.100000000000000255e-02 1.623054999999999914e-01 1.743785000000000096e+01 8.033494999999999209e+01 1.881950000000000045e+03
8.200000000000000344e-02 1.624654999999999849e-01 1.922625000000000028e+01 8.437805000000000177e+01 1.883174999999999955e+03
8.300000000000000433e-02 1.626289999999999958e-01 2.102105000000000246e+01 8.841169999999999618e+01 1.884425000000000182e+03
8.400000000000000522e-02 1.627934999999999799e-01 2.280440000000000111e+01 9.240530000000001110e+01 1.885694999999999936e+03
8.500000000000000611e-02 1.629575000000000051e-01 2.456165000000000020e+01 9.633725000000001160e+01 1.886960000000000036e+03
8.600000000000000699e-02 1.631210000000000160e-01 2.628144999999999953e+01 1.001943500000000000e+02 1.888219999999999800e+03
8.700000000000000788e-02 1.632819999999999827e-01 2.795530000000000115e+01 1.039711499999999944e+02 1.889474999999999909e+03
8.800000000000000877e-02 1.634414999999999896e-01 2.957775000000000176e+01 1.076680000000000064e+02 1.890715000000000146e+03
8.899999999999999578e-02 1.635989999999999944e-01 3.114529999999999887e+01 1.112890000000000015e+02 1.891940000000000055e+03
8.999999999999999667e-02 1.637534999999999963e-01 3.265614999999999668e+01 1.148419999999999987e+02 1.893144999999999982e+03
9.099999999999999756e-02 1.639059999999999961e-01 3.410960000000000036e+01 1.183344999999999914e+02 1.894335000000000036e+03
9.199999999999999845e-02 1.640564999999999940e-01 3.550534999999999997e+01 1.217729999999999961e+02 1.895514999999999873e+03
9.299999999999999933e-02 1.642049999999999899e-01 3.684355000000000047e+01 1.251624999999999943e+02 1.896680000000000064e+03
9.400000000000000022e-02 1.643519999999999981e-01 3.812380000000000280e+01 1.285049999999999955e+02 1.897829999999999927e+03
9.500000000000000111e-02 1.644970000000000043e-01 3.934525000000000006e+01 1.317990000000000066e+02 1.898965000000000146e+03
9.600000000000000200e-02 1.646394999999999942e-01 4.050645000000000095e+01 1.350405000000000086e+02 1.900089999999999918e+03
9.700000000000000289e-02 1.647804999999999964e-01 4.160540000000000305e+01 1.382214999999999918e+02 1.901199999999999818e+03
9.800000000000000377e-02 1.649185000000000234e-01 4.263915000000000077e+01 1.413315000000000055e+02 1.902289999999999964e+03
9.900000000000000466e-02 1.650540000000000063e-01 4.360444999999999993e+01 1.443580000000000041e+02 1.903360000000000127e+03
1.000000000000000056e-01 1.651859999999999995e-01 4.449750000000000227e+01 1.472860000000000014e+02 1.904404999999999973e+03
1.010000000000000064e-01 1.653145000000000031e-01 4.531395000000000550e+01 1.501014999999999873e+02 1.905414999999999964e+03
1.020000000000000073e-01 1.654375000000000151e-01 4.604970000000000141e+01 1.527884999999999991e+02 1.906394999999999982e+03
1.030000000000000082e-01 1.655564999999999953e-01 4.670024999999999693e+01 1.553319999999999936e+02 1.907335000000000036e+03
1.040000000000000091e-01 1.656690000000000107e-01 4.726149999999999807e+01 1.577164999999999964e+02 1.908235000000000127e+03
1.050000000000000100e-01 1.657750000000000057e-01 4.772944999999999993e+01 1.599294999999999902e+02 1.909074999999999818e+03
1.059999999999999970e-01 1.658744999999999803e-01 4.810070000000000334e+01 1.619585000000000150e+02 1.909875000000000000e+03
1.069999999999999979e-01 1.659669999999999757e-01 4.837234999999999729e+01 1.637920000000000016e+02 1.910610000000000127e+03
1.079999999999999988e-01 1.660515000000000185e-01 4.854240000000000066e+01 1.654234999999999900e+02 1.911280000000000200e+03
1.089999999999999997e-01 1.661274999999999835e-01 4.860975000000000534e+01 1.668455000000000155e+02 1.911889999999999873e+03
1.100000000000000006e-01 1.661949999999999816e-01 4.857434999999999548e+01 1.680554999999999950e+02 1.912440000000000055e+03
1.110000000000000014e-01 1.662540000000000129e-01 4.843750000000000000e+01 1.690540000000000020e+02 1.912910000000000082e+03
1.120000000000000023e-01 1.663044999999999940e-01 4.820165000000000077e+01 1.698425000000000011e+02 1.913320000000000164e+03
1.130000000000000032e-01 1.663454999999999795e-01 4.787075000000000102e+01 1.704279999999999973e+02 1.913660000000000082e+03
1.140000000000000041e-01 1.663789999999999991e-01 4.745000000000000284e+01 1.708195000000000050e+02 1.913929999999999836e+03
1.150000000000000050e-01 1.664045000000000107e-01 4.694585000000000008e+01 1.710294999999999845e+02 1.914140000000000100e+03
1.160000000000000059e-01 1.664215000000000000e-01 4.636599999999999966e+01 1.710724999999999909e+02 1.914289999999999964e+03
1.170000000000000068e-01 1.664315000000000100e-01 4.571894999999999953e+01 1.709655000000000200e+02 1.914380000000000109e+03
1.180000000000000077e-01 1.664349999999999996e-01 4.501399999999999579e+01 1.707270000000000039e+02 1.914409999999999854e+03
1.190000000000000085e-01 1.664335000000000120e-01 4.426089999999999947e+01 1.703759999999999764e+02 1.914404999999999973e+03
1.200000000000000094e-01 1.664260000000000184e-01 4.346934999999999860e+01 1.699334999999999809e+02 1.914355000000000018e+03
1.209999999999999964e-01 1.664140000000000064e-01 4.264929999999999666e+01 1.694170000000000016e+02 1.914269999999999982e+03
1.219999999999999973e-01 1.663985000000000047e-01 4.180995000000000061e+01 1.688449999999999989e+02 1.914150000000000091e+03
1.229999999999999982e-01 1.663804999999999867e-01 4.095989999999999753e+01 1.682345000000000255e+02 1.914005000000000109e+03
1.239999999999999991e-01 1.663600000000000079e-01 4.010710000000000264e+01 1.675995000000000061e+02 1.913849999999999909e+03
1.250000000000000000e-01 1.663379999999999859e-01 3.925820000000000221e+01 1.669519999999999982e+02 1.913675000000000182e+03
1.260000000000000009e-01 1.663145000000000040e-01 3.841890000000000072e+01 1.663009999999999877e+02 1.913490000000000009e+03
1.270000000000000018e-01 1.662899999999999934e-01 3.759359999999999502e+01 1.656524999999999750e+02 1.913299999999999955e+03
1.280000000000000027e-01 1.662649999999999961e-01 3.678534999999999400e+01 1.650120000000000005e+02 1.913099999999999909e+03
1.290000000000000036e-01 1.662399999999999989e-01 3.599604999999999677e+01 1.643789999999999907e+02 1.912905000000000200e+03
1.300000000000000044e-01 1.662150000000000016e-01 3.522639999999999816e+01 1.637535000000000025e+02 1.912704999999999927e+03
1.310000000000000053e-01 1.661900000000000044e-01 3.447605000000000075e+01 1.631324999999999932e+02 1.912505000000000109e+03
1.320000000000000062e-01 1.661644999999999928e-01 3.374344999999999573e+01 1.625105000000000075e+02 1.912300000000000182e+03
1.330000000000000071e-01 1.661384999999999945e-01 3.302649999999999864e+01 1.618810000000000002e+02 1.912090000000000146e+03
1.340000000000000080e-01 1.661124999999999963e-01 3.232219999999999516e+01 1.612369999999999948e+02 1.911880000000000109e+03
1.350000000000000089e-01 1.660849999999999826e-01 3.162729999999999819e+01 1.605699999999999932e+02 1.911664999999999964e+03
1.360000000000000098e-01 1.660570000000000102e-01 3.093800000000000239e+01 1.598720000000000141e+02 1.911445000000000164e+03
1.370000000000000107e-01 1.660274999999999945e-01 3.025054999999999694e+01 1.591349999999999909e+02 1.911210000000000036e+03
1.380000000000000115e-01 1.659964999999999913e-01 2.956129999999999924e+01 1.583509999999999991e+02 1.910965000000000146e+03
1.390000000000000124e-01 1.659640000000000004e-01 2.886670000000000158e+01 1.575140000000000100e+02 1.910704999999999927e+03
1.400000000000000133e-01 1.659285000000000065e-01 2.816394999999999982e+01 1.566184999999999832e+02 1.910425000000000182e+03
1.410000000000000142e-01 1.658910000000000107e-01 2.745049999999999812e+01 1.556610000000000014e+02 1.910130000000000109e+03
1.420000000000000151e-01 1.658514999999999850e-01 2.672465000000000046e+01 1.546394999999999982e+02 1.909815000000000055e+03
1.430000000000000160e-01 1.658094999999999986e-01 2.598554999999999993e+01 1.535529999999999973e+02 1.909485000000000127e+03
1.440000000000000169e-01 1.657644999999999813e-01 2.523320000000000007e+01 1.524050000000000011e+02 1.909130000000000109e+03
1.450000000000000178e-01 1.657170000000000032e-01 2.446849999999999881e+01 1.511990000000000123e+02 1.908755000000000109e+03
1.459999999999999909e-01 1.656674999999999953e-01 2.369340000000000046e+01 1.499415000000000191e+02 1.908365000000000009e+03
1.469999999999999918e-01 1.656154999999999988e-01 2.291055000000000064e+01 1.486399999999999864e+02 1.907960000000000036e+03
1.479999999999999927e-01 1.655619999999999870e-01 2.212364999999999782e+01 1.473050000000000068e+02 1.907534999999999854e+03
1.489999999999999936e-01 1.655070000000000152e-01 2.133684999999999832e+01 1.459474999999999909e+02 1.907105000000000018e+03
1.499999999999999944e-01 1.654505000000000003e-01 2.055519999999999925e+01 1.445799999999999841e+02 1.906659999999999854e+03
1.509999999999999953e-01 1.653939999999999855e-01 1.978390000000000271e+01 1.432155000000000200e+02 1.906215000000000146e+03
1.519999999999999962e-01 1.653370000000000117e-01 1.902834999999999965e+01 1.418675000000000068e+02 1.905764999999999873e+03
1.529999999999999971e-01 1.652804999999999969e-01 1.829420000000000002e+01 1.405484999999999900e+02 1.905325000000000045e+03
1.539999999999999980e-01 1.652250000000000107e-01 1.758680000000000021e+01 1.392715000000000032e+02 1.904884999999999991e+03
1.549999999999999989e-01 1.651710000000000123e-01 1.691114999999999924e+01 1.380475000000000136e+02 1.904460000000000036e+03
1.559999999999999998e-01 1.651190000000000158e-01 1.627169999999999916e+01 1.368865000000000123e+02 1.904045000000000073e+03
1.570000000000000007e-01 1.650689999999999935e-01 1.567225000000000179e+01 1.357969999999999970e+02 1.903654999999999973e+03
1.580000000000000016e-01 1.650214999999999876e-01 1.511589999999999989e+01 1.347855000000000132e+02 1.903279999999999973e+03
1.590000000000000024e-01 1.649774999999999991e-01 1.460479999999999912e+01 1.338550000000000182e+02 1.902930000000000064e+03
