# t [s], A [cm^2], U [cm/s], P [cPa], c [cm/s]
1.000000000000000021e-03 6.728450000000000264e-01 6.123000000000003440e-03 1.030414999999999992e+02 1.767320000000000164e+03
2.000000000000000042e-03 6.728385000000000060e-01 8.036899999999999600e-03 1.030125000000000028e+02 1.767315000000000055e+03
3.000000000000000062e-03 6.729160000000000696e-01 1.564877499999999810e-01 1.031895000000000095e+02 1.767355000000000018e+03
4.000000000000000083e-03 6.729410000000000114e-01 2.303935000000000011e-01 1.032740000000000009e+02 1.767375000000000000e+03
5.000000000000000104e-03 6.728659999999999641e-01 1.253879999999999995e-01 1.030420000000000016e+02 1.767324999999999818e+03
6.000000000000000125e-03 6.727849999999999664e-01 -3.404000000000018122e-03 1.026629999999999967e+02 1.767240000000000009e+03
7.000000000000000146e-03 6.726834999999999898e-01 -1.855350000000000055e-01 1.021375000000000028e+02 1.767125000000000000e+03
8.000000000000000167e-03 6.724989999999999579e-01 -5.438250000000000028e-01 1.012823999999999955e+02 1.766934999999999945e+03
9.000000000000001055e-03 6.722314999999999818e-01 -1.076189999999999980e+00 1.000379000000000076e+02 1.766654999999999973e+03
1.000000000000000194e-02 6.718584999999999141e-01 -1.807150000000000034e+00 9.831295000000000073e+01 1.766259999999999991e+03
1.099999999999999936e-02 6.713579999999998993e-01 -2.752844999999999764e+00 9.601460000000000150e+01 1.765735000000000127e+03
1.200000000000000025e-02 6.707849999999999646e-01 -3.779009999999999536e+00 9.326560000000000628e+01 1.765085000000000036e+03
1.300000000000000114e-02 6.702524999999999178e-01 -4.625543000000000404e+00 9.043074999999998909e+01 1.764389999999999873e+03
1.400000000000000203e-02 6.698524999999999618e-01 -5.067700499999999941e+00 8.791190000000000282e+01 1.763735000000000127e+03
1.499999999999999944e-02 6.696029999999999482e-01 -5.032750000000000057e+00 8.593285000000000196e+01 1.763179999999999836e+03
1.600000000000000033e-02 6.694514999999999771e-01 -4.605080000000000062e+00 8.446819999999999595e+01 1.762719999999999800e+03
1.700000000000000122e-02 6.693145000000000344e-01 -3.959075000000000344e+00 8.329959999999999809e+01 1.762329999999999927e+03
1.800000000000000211e-02 6.691184999999999494e-01 -3.271605000000000096e+00 8.213974999999999227e+01 1.761950000000000045e+03
1.900000000000000300e-02 6.688270000000000604e-01 -2.650346383000000028e+00 8.076384999999999081e+01 1.761534999999999854e+03
2.000000000000000042e-02 6.684514999999999763e-01 -2.104389999999999983e+00 7.909414999999999907e+01 1.761059999999999945e+03
2.100000000000000130e-02 6.680365000000000331e-01 -1.567479999999999762e+00 7.720175000000000409e+01 1.760535000000000082e+03
2.200000000000000219e-02 6.676305000000000156e-01 -9.560800000000000409e-01 7.523679999999998813e+01 1.759985000000000127e+03
2.299999999999999961e-02 6.672590000000000465e-01 -2.271499999999999631e-01 7.333244999999999436e+01 1.759444999999999936e+03
2.400000000000000050e-02 6.669180000000000108e-01 5.905000000000000249e-01 7.153190000000000737e+01 1.758920000000000073e+03
2.500000000000000139e-02 6.665695000000000370e-01 1.397515000000000285e+00 6.976139999999999475e+01 1.758400000000000091e+03
2.600000000000000228e-02 6.661615000000000730e-01 2.050980000000000025e+00 6.784975000000000023e+01 1.757849999999999909e+03
2.700000000000000316e-02 6.656414999999999971e-01 2.405769999999999964e+00 6.558265000000000100e+01 1.757234999999999900e+03
2.800000000000000058e-02 6.649769999999999293e-01 2.358355000000000423e+00 6.277549999999999386e+01 1.756505000000000109e+03
2.900000000000000147e-02 6.641654999999999642e-01 1.879569999999999741e+00 5.934120000000000061e+01 1.755630000000000109e+03
3.000000000000000236e-02 6.632409999999999695e-01 1.024709999999999788e+00 5.533010000000000161e+01 1.754630000000000109e+03
3.099999999999999978e-02 6.622624999999999762e-01 -8.265000000000011227e-02 5.092654999999999887e+01 1.753525000000000091e+03
3.200000000000000067e-02 6.612999999999999989e-01 -1.284200000000000230e+00 4.640840000000000032e+01 1.752384999999999991e+03
3.300000000000000155e-02 6.604220000000000645e-01 -2.423154999999999948e+00 4.208750000000000568e+01 1.751259999999999991e+03
3.400000000000000244e-02 6.596785000000000565e-01 -3.371909999999999741e+00 3.825339999999999918e+01 1.750239999999999782e+03
3.500000000000000333e-02 6.591039999999999122e-01 -4.045150000000000468e+00 3.513239999999999696e+01 1.749369999999999891e+03
3.600000000000000422e-02 6.587119999999999642e-01 -4.400983000000000089e+00 3.286825000000000330e+01 1.748695000000000164e+03
3.700000000000000511e-02 6.585019999999999207e-01 -4.431989999999999874e+00 3.152134999999999820e+01 1.748239999999999782e+03
3.799999999999999906e-02 6.584630000000000205e-01 -4.152235000000000120e+00 3.108384999999999820e+01 1.748009999999999991e+03
3.899999999999999994e-02 6.585814999999999308e-01 -3.583759999999999835e+00 3.150244999999999962e+01 1.748000000000000000e+03
4.000000000000000083e-02 6.588419999999999277e-01 -2.746737500000000054e+00 3.270264999999999844e+01 1.748194999999999936e+03
4.100000000000000172e-02 6.592329999999999579e-01 -1.655430000000000179e+00 3.460600000000000165e+01 1.748589999999999918e+03
4.200000000000000261e-02 6.597439999999999971e-01 -3.201049999999998619e-01 3.713870000000000005e+01 1.749150000000000091e+03
4.300000000000000350e-02 6.603630000000000333e-01 1.247265000000000068e+00 4.023089999999999833e+01 1.749869999999999891e+03
4.400000000000000439e-02 6.610780000000000545e-01 3.026549999999999851e+00 4.381034999999999968e+01 1.750730000000000018e+03
4.499999999999999833e-02 6.618709999999999871e-01 4.985314999999999941e+00 4.779554999999999865e+01 1.751704999999999927e+03
4.599999999999999922e-02 6.627214999999999634e-01 7.077810000000000379e+00 5.209205000000000041e+01 1.752775000000000091e+03
4.700000000000000011e-02 6.636060000000000292e-01 9.248233000000000814e+00 5.659300000000000352e+01 1.753909999999999854e+03
4.800000000000000100e-02 6.644999999999999796e-01 1.143573499999999932e+01 6.118505000000000393e+01 1.755090000000000146e+03
4.900000000000000189e-02 6.653805000000000414e-01 1.358078500000000055e+01 6.575659999999999172e+01 1.756275000000000091e+03
5.000000000000000278e-02 6.662295000000000300e-01 1.563128499999999832e+01 7.020805000000000007e+01 1.757454999999999927e+03
5.100000000000000366e-02 6.670335000000000569e-01 1.754650000000000176e+01 7.445919999999999561e+01 1.758599999999999909e+03
5.200000000000000455e-02 6.677845000000000031e-01 1.929930000000000234e+01 7.845550000000000068e+01 1.759690000000000055e+03
5.300000000000000544e-02 6.684810000000001029e-01 2.087644999999999840e+01 8.216984999999999673e+01 1.760724999999999909e+03
5.399999999999999939e-02 6.691264999999999574e-01 2.227690000000000126e+01 8.560130000000000905e+01 1.761690000000000055e+03
5.500000000000000028e-02 6.697265000000000024e-01 2.350945000000000107e+01 8.877119999999999322e+01 1.762590000000000146e+03
5.600000000000000117e-02 6.702909999999999702e-01 2.459019999999999939e+01 9.171840000000000259e+01 1.763440000000000055e+03
5.700000000000000205e-02 6.708290000000000086e-01 2.553999999999999915e+01 9.449309999999999832e+01 1.764240000000000009e+03
5.800000000000000294e-02 6.713534999999999364e-01 2.638255000000000194e+01 9.715129999999999200e+01 1.765009999999999991e+03
5.900000000000000383e-02 6.718735000000000124e-01 2.714235000000000042e+01 9.975055000000000405e+01 1.765755000000000109e+03
6.000000000000000472e-02 6.723989999999999689e-01 2.784315000000000140e+01 1.023439999999999941e+02 1.766494999999999891e+03
6.099999999999999867e-02 6.729384999999999950e-01 2.850590000000000046e+01 1.049774999999999920e+02 1.767244999999999891e+03
6.199999999999999956e-02 6.734970000000000123e-01 2.914750000000000085e+01 1.076850000000000023e+02 1.768000000000000000e+03
6.300000000000000044e-02 6.740764999999999674e-01 2.977874999999999872e+01 1.104840000000000089e+02 1.768780000000000200e+03
6.400000000000000133e-02 6.746745000000000658e-01 3.040370000000000061e+01 1.133770000000000095e+02 1.769579999999999927e+03
6.500000000000000222e-02 6.752875000000000405e-01 3.101919999999999789e+01 1.163485000000000014e+02 1.770394999999999982e+03
6.600000000000000311e-02 6.759070000000000356e-01 3.161545000000000272e+01 1.193650000000000091e+02 1.771224999999999909e+03
6.700000000000000400e-02 6.765229999999999855e-01 3.217699999999999960e+01 1.223810000000000002e+02 1.772059999999999945e+03
6.800000000000000488e-02 6.771224999999999605e-01 3.268480000000000274e+01 1.253400000000000034e+02 1.772880000000000109e+03
6.900000000000000577e-02 6.776944999999999775e-01 3.311775000000000091e+01 1.281819999999999879e+02 1.773674999999999955e+03
7.000000000000000666e-02 6.782270000000000243e-01 3.345544999999999902e+01 1.308460000000000036e+02 1.774425000000000182e+03
7.100000000000000755e-02 6.787090000000000067e-01 3.367914999999999992e+01 1.332754999999999939e+02 1.775119999999999891e+03
7.200000000000000844e-02 6.791325000000000278e-01 3.377400000000000091e+01 1.354230000000000018e+02 1.775750000000000000e+03
7.300000000000000933e-02 6.794910000000000672e-01 3.372939999999999827e+01 1.372529999999999859e+02 1.776300000000000182e+03
7.399999999999999634e-02 6.797815000000000385e-01 3.354019999999999868e+01 1.387420000000000186e+02 1.776764999999999873e+03
7.499999999999999722e-02 6.800040000000000529e-01 3.320655000000000001e+01 1.398810000000000002e+02 1.777134999999999991e+03
7.599999999999999811e-02 6.801589999999999581e-01 3.273389999999999844e+01 1.406765000000000043e+02 1.777409999999999854e+03
7.699999999999999900e-02 6.802519999999999678e-01 3.213260000000000360e+01 1.411440000000000055e+02 1.777599999999999909e+03
7.799999999999999989e-02 6.802889999999999215e-01 3.141749999999999687e+01 1.413145000000000095e+02 1.777704999999999927e+03
7.900000000000000078e-02 6.802775000000000905e-01 3.060685000000000144e+01 1.412249999999999943e+02 1.777740000000000009e+03
8.000000000000000167e-02 6.802265000000000672e-01 2.972165000000000035e+01 1.409205000000000041e+02 1.777715000000000146e+03
8.100000000000000255e-02 6.801459999999999173e-01 2.878450000000000131e+01 1.404490000000000123e+02 1.777630000000000109e+03
8.200000000000000344e-02 6.800450000000000106e-01 2.781835000000000235e+01 1.398614999999999782e+02 1.777509999999999991e+03
8.300000000000000433e-02 6.799334999999999685e-01 2.684575000000000244e+01 1.392060000000000173e+02 1.777364999999999782e+03
8.400000000000000522e-02 6.798195000000000210e-01 2.588739999999999952e+01 1.385289999999999964e+02 1.777204999999999927e+03
8.500000000000000611e-02 6.797104999999999952e-01 2.496139999999999759e+01 1.378704999999999927e+02 1.777045000000000073e+03
8.600000000000000699e-02 6.796119999999999939e-01 2.408225000000000193e+01 1.372620000000000005e+02 1.776885000000000218e+03
8.700000000000000788e-02 6.795275000000000620e-01 2.326040000000000063e+01 1.367274999999999920e+02 1.776740000000000009e+03
8.800000000000000877e-02 6.794594999999999940e-01 2.250184999999999746e+01 1.362819999999999823e+02 1.776610000000000127e+03
8.899999999999999578e-02 6.794084999999999708e-01 2.180805000000000149e+01 1.359304999999999950e+02 1.776505000000000109e+03
8.999999999999999667e-02 6.793730000000000047e-01 2.117645000000000266e+01 1.356680000000000064e+02 1.776420000000000073e+03
9.099999999999999756e-02 6.793495000000000505e-01 2.060034999999999883e+01 1.354834999999999923e+02 1.776355000000000018e+03
9.199999999999999845e-02 6.793344999999999523e-01 2.007010000000000005e+01 1.353569999999999993e+02 1.776304999999999836e+03
9.299999999999999933e-02 6.793229999999998991e-01 1.957365000000000066e+01 1.352655000000000030e+02 1.776269999999999982e+03
9.400000000000000022e-02 6.793089999999999407e-01 1.909740000000000038e+01 1.351814999999999998e+02 1.776230000000000018e+03
9.500000000000000111e-02 6.792875000000000441e-01 1.862695000000000078e+01 1.350755000000000052e+02 1.776195000000000164e+03
9.600000000000000200e-02 6.792529999999999957e-01 1.814835000000000065e+01 1.349205000000000041e+02 1.776144999999999982e+03
9.700000000000000289e-02 6.792004999999999848e-01 1.764864999999999995e+01 1.346904999999999859e+02 1.776085000000000036e+03
9.800000000000000377e-02 6.791274999999999951e-01 1.711679999999999779e+01 1.343645000000000209e+02 1.776000000000000000e+03
9.900000000000000466e-02 6.790300000000000225e-01 1.654455000000000098e+01 1.339254999999999995e+02 1.775884999999999991e+03
1.000000000000000056e-01 6.789074999999999971e-01 1.592665000000000042e+01 1.333644999999999925e+02 1.775744999999999891e+03
1.010000000000000064e-01 6.787609999999999477e-01 1.526144999999999996e+01 1.326800000000000068e+02 1.775570000000000164e+03
1.020000000000000073e-01 6.785909999999999442e-01 1.455124999999999957e+01 1.318759999999999764e+02 1.775369999999999891e+03
1.030000000000000082e-01 6.784014999999999906e-01 1.380153499999999944e+01 1.309675000000000011e+02 1.775139999999999873e+03
1.040000000000000091e-01 6.781975000000000087e-01 1.302150999999999925e+01 1.299739999999999895e+02 1.774884999999999991e+03
1.050000000000000100e-01 6.779840000000000311e-01 1.222305500000000045e+01 1.289209999999999923e+02 1.774615000000000009e+03
1.059999999999999970e-01 6.777674999999999672e-01 1.142006999999999906e+01 1.278389999999999986e+02 1.774329999999999927e+03
1.069999999999999979e-01 6.775545000000000595e-01 1.062785000000000046e+01 1.267605000000000075e+02 1.774045000000000073e+03
1.079999999999999988e-01 6.773514999999999953e-01 9.862175000000000580e+00 1.257189999999999941e+02 1.773760000000000218e+03
1.089999999999999997e-01 6.771654999999999758e-01 9.138225000000000264e+00 1.247479999999999905e+02 1.773500000000000000e+03
1.100000000000000006e-01 6.770015000000000338e-01 8.469894999999999285e+00 1.238755000000000024e+02 1.773255000000000109e+03
1.110000000000000014e-01 6.768635000000000623e-01 7.868915000000000326e+00 1.231274999999999977e+02 1.773039999999999964e+03
1.120000000000000023e-01 6.767549999999999955e-01 7.344435000000000713e+00 1.225215000000000032e+02 1.772860000000000127e+03
1.130000000000000032e-01 6.766775000000000428e-01 6.902284999999999116e+00 1.220705000000000098e+02 1.772715000000000146e+03
1.140000000000000041e-01 6.766315000000000524e-01 6.545054999999999623e+00 1.217785000000000082e+02 1.772610000000000127e+03
1.150000000000000050e-01 6.766160000000001062e-01 6.271959999999999980e+00 1.216430000000000007e+02 1.772549999999999955e+03
1.160000000000000059e-01 6.766284999999999661e-01 6.079089999999999883e+00 1.216550000000000011e+02 1.772525000000000091e+03
1.170000000000000068e-01 6.766649999999999610e-01 5.959810000000000052e+00 1.217984999999999900e+02 1.772539999999999964e+03
1.180000000000000077e-01 6.767214999999999758e-01 5.905224999999999724e+00 1.220540000000000020e+02 1.772579999999999927e+03
1.190000000000000085e-01 6.767944999999999656e-01 5.904840000000000089e+00 1.223990000000000009e+02 1.772650000000000091e+03
1.200000000000000094e-01 6.768769999999999509e-01 5.947124999999999773e+00 1.228075000000000045e+02 1.772740000000000009e+03
1.209999999999999964e-01 6.769654999999999978e-01 6.020160000000000622e+00 1.232545000000000073e+02 1.772840000000000146e+03
1.219999999999999973e-01 6.770549999999999624e-01 6.112204999999999444e+00 1.237164999999999964e+02 1.772950000000000045e+03
1.229999999999999982e-01 6.771409999999999929e-01 6.212175000000000225e+00 1.241715000000000089e+02 1.773065000000000055e+03
1.239999999999999991e-01 6.772205000000000030e-01 6.310075000000000323e+00 1.245985000000000014e+02 1.773175000000000182e+03
1.250000000000000000e-01 6.772905000000000175e-01 6.397275000000000489e+00 1.249830000000000041e+02 1.773275000000000091e+03
1.260000000000000009e-01 6.773495000000000488e-01 6.466744999999999521e+00 1.253125000000000000e+02 1.773365000000000009e+03
1.270000000000000018e-01 6.773955000000000393e-01 6.513175000000000381e+00 1.255790000000000077e+02 1.773445000000000164e+03
1.280000000000000027e-01 6.774290000000000589e-01 6.532989999999999853e+00 1.257785000000000082e+02 1.773500000000000000e+03
1.290000000000000036e-01 6.774489999999999679e-01 6.524359999999999715e+00 1.259095000000000084e+02 1.773545000000000073e+03
1.300000000000000044e-01 6.774569999999999759e-01 6.487054999999999794e+00 1.259759999999999991e+02 1.773575000000000045e+03
1.310000000000000053e-01 6.774545000000000705e-01 6.422309999999999519e+00 1.259830000000000041e+02 1.773585000000000036e+03
1.320000000000000062e-01 6.774415000000000298e-01 6.332625000000000171e+00 1.259370000000000118e+02 1.773579999999999927e+03
1.330000000000000071e-01 6.774219999999999686e-01 6.221515000000000128e+00 1.258479999999999990e+02 1.773570000000000164e+03
1.340000000000000080e-01 6.773964999999999570e-01 6.093249999999999389e+00 1.257265000000000015e+02 1.773545000000000073e+03
1.350000000000000089e-01 6.773685000000000400e-01 5.952569999999999695e+00 1.255819999999999936e+02 1.773509999999999991e+03
1.360000000000000098e-01 6.773385000000000655e-01 5.804380000000000095e+00 1.254244999999999948e+02 1.773474999999999909e+03
1.370000000000000107e-01 6.773084999999999800e-01 5.653434999999999988e+00 1.252639999999999958e+02 1.773434999999999945e+03
1.380000000000000115e-01 6.772810000000000219e-01 5.504125000000000156e+00 1.251090000000000089e+02 1.773400000000000091e+03
1.390000000000000124e-01 6.772555000000000103e-01 5.360205000000000553e+00 1.249650000000000034e+02 1.773359999999999900e+03
1.400000000000000133e-01 6.772344999999999615e-01 5.224634999999999252e+00 1.248375000000000057e+02 1.773329999999999927e+03
1.410000000000000142e-01 6.772164999999999990e-01 5.099465000000000359e+00 1.247274999999999920e+02 1.773299999999999955e+03
1.420000000000000151e-01 6.772024999999999295e-01 4.985795000000000421e+00 1.246359999999999957e+02 1.773275000000000091e+03
1.430000000000000160e-01 6.771914999999999463e-01 4.883844999999999992e+00 1.245614999999999952e+02 1.773255000000000109e+03
1.440000000000000169e-01 6.771830000000000904e-01 4.792995000000000339e+00 1.245004999999999882e+02 1.773235000000000127e+03
1.450000000000000178e-01 6.771750000000000824e-01 4.711965000000000181e+00 1.244480000000000075e+02 1.773220000000000027e+03
1.459999999999999909e-01 6.771679999999999922e-01 4.639005000000000045e+00 1.243990000000000009e+02 1.773204999999999927e+03
1.469999999999999918e-01 6.771590000000000664e-01 4.572074999999999889e+00 1.243464999999999918e+02 1.773190000000000055e+03
1.479999999999999927e-01 6.771484999999999310e-01 4.509039999999999715e+00 1.242865000000000038e+02 1.773175000000000182e+03
1.489999999999999936e-01 6.771344999999999725e-01 4.447869999999999990e+00 1.242120000000000033e+02 1.773155000000000200e+03
1.499999999999999944e-01 6.771164999999998990e-01 4.386765000000000470e+00 1.241194999999999879e+02 1.773125000000000000e+03
1.509999999999999953e-01 6.770929999999999449e-01 4.324320000000000164e+00 1.240065000000000026e+02 1.773094999999999800e+03
1.519999999999999962e-01 6.770659999999999457e-01 4.259565000000000268e+00 1.238700000000000045e+02 1.773059999999999945e+03
1.529999999999999971e-01 6.770339999999999137e-01 4.192040000000000433e+00 1.237109999999999985e+02 1.773019999999999982e+03
1.539999999999999980e-01 6.769965000000000011e-01 4.121800000000000352e+00 1.235294999999999987e+02 1.772970000000000027e+03
1.549999999999999989e-01 6.769564999999999610e-01 4.049430000000000085e+00 1.233290000000000077e+02 1.772920000000000073e+03
1.559999999999999998e-01 6.769129999999999869e-01 3.975979999999999848e+00 1.231129999999999995e+02 1.772865000000000009e+03
1.570000000000000007e-01 6.768680000000000252e-01 3.902930000000000454e+00 1.228864999999999981e+02 1.772799999999999955e+03
1.580000000000000016e-01 6.768220000000000347e-01 3.832125000000000448e+00 1.226544999999999987e+02 1.772740000000000009e+03
1.590000000000000024e-01 6.767765000000000031e-01 3.765674999999999883e+00 1.224244999999999948e+02 1.772675000000000182e+03
