# t [s], A [cm^2], U [cm/s], P [cPa], c [cm/s]
1.000000000000000021e-03 1.906490000000000129e-01 2.820211999999999719e-01 1.036604999999999990e+02 2.238170000000000073e+03
2.000000000000000042e-03 1.905904999999999960e-01 1.863446000000000158e+00 1.000137000000000000e+02 2.237704999999999927e+03
3.000000000000000062e-03 1.904414999999999858e-01 3.868306999999999718e+00 9.476380000000000337e+01 2.236585000000000036e+03
4.000000000000000083e-03 1.902439999999999964e-01 6.158316999999999375e+00 8.903380000000001360e+01 2.235114999999999782e+03
5.000000000000000104e-03 1.900379999999999847e-01 8.630554999999999310e+00 8.394259999999999877e+01 2.233599999999999909e+03
6.000000000000000125e-03 1.898440000000000127e-01 1.103743000000000052e+01 7.978050000000000352e+01 2.232195000000000164e+03
7.000000000000000146e-03 1.896645000000000136e-01 1.310960000000000036e+01 7.616409999999999059e+01 2.230925000000000182e+03
8.000000000000000167e-03 1.895030000000000048e-01 1.479621500000000012e+01 7.291384999999999650e+01 2.229804999999999836e+03
9.000000000000001055e-03 1.893664999999999932e-01 1.616195000000000093e+01 7.018444999999999823e+01 2.228864999999999782e+03
1.000000000000000194e-02 1.892555000000000209e-01 1.724244999999999806e+01 6.803659999999999286e+01 2.228114999999999782e+03
1.099999999999999936e-02 1.891690000000000038e-01 1.806674999999999898e+01 6.642574999999999363e+01 2.227534999999999854e+03
1.200000000000000025e-02 1.891034999999999799e-01 1.865460000000000207e+01 6.525875000000000625e+01 2.227110000000000127e+03
1.300000000000000114e-02 1.890534999999999854e-01 1.900460000000000349e+01 6.435210000000000719e+01 2.226784999999999854e+03
1.400000000000000203e-02 1.890140000000000153e-01 1.915980000000000061e+01 6.358164999999999623e+01 2.226539999999999964e+03
1.499999999999999944e-02 1.889870000000000161e-01 1.927154999999999774e+01 6.313609999999999900e+01 2.226375000000000000e+03
1.600000000000000033e-02 1.889855000000000007e-01 1.955300000000000082e+01 6.350529999999999831e+01 2.226375000000000000e+03
1.700000000000000122e-02 1.890204999999999802e-01 2.015005000000000024e+01 6.513694999999999879e+01 2.226614999999999782e+03
1.800000000000000211e-02 1.890954999999999997e-01 2.104139999999999944e+01 6.805420000000000869e+01 2.227130000000000109e+03
1.900000000000000300e-02 1.892004999999999937e-01 2.203985000000000127e+01 7.173229999999999507e+01 2.227849999999999909e+03
2.000000000000000042e-02 1.893124999999999947e-01 2.288165000000000049e+01 7.529354999999999620e+01 2.228630000000000109e+03
2.100000000000000130e-02 1.894085000000000074e-01 2.334430000000000049e+01 7.787825000000000841e+01 2.229314999999999600e+03
2.200000000000000219e-02 1.894695000000000129e-01 2.333350000000000080e+01 7.898454999999999870e+01 2.229775000000000091e+03
2.299999999999999961e-02 1.894905000000000062e-01 2.290480000000000160e+01 7.862640000000000384e+01 2.229945000000000164e+03
2.400000000000000050e-02 1.894770000000000065e-01 2.222025000000000006e+01 7.725974999999999682e+01 2.229880000000000109e+03
2.500000000000000139e-02 1.894434999999999869e-01 2.146685000000000088e+01 7.553815000000000168e+01 2.229659999999999854e+03
2.600000000000000228e-02 1.894055000000000044e-01 2.077874999999999872e+01 7.402504999999999313e+01 2.229399999999999636e+03
2.700000000000000316e-02 1.893735000000000002e-01 2.019454999999999956e+01 7.299099999999999966e+01 2.229170000000000073e+03
2.800000000000000058e-02 1.893485000000000029e-01 1.966104999999999947e+01 7.236320000000000618e+01 2.228994999999999891e+03
2.900000000000000147e-02 1.893274999999999819e-01 1.907350000000000279e+01 7.182034999999999059e+01 2.228845000000000255e+03
3.000000000000000236e-02 1.893004999999999827e-01 1.833259999999999934e+01 7.097485000000000355e+01 2.228659999999999854e+03
3.099999999999999978e-02 1.892590000000000106e-01 1.739644999999999797e+01 6.956659999999999400e+01 2.228380000000000109e+03
3.200000000000000067e-02 1.892014999999999947e-01 1.630904999999999916e+01 6.759799999999999898e+01 2.227994999999999891e+03
3.300000000000000155e-02 1.891340000000000243e-01 1.519614999999999938e+01 6.536345000000000027e+01 2.227534999999999854e+03
3.400000000000000244e-02 1.890670000000000128e-01 1.422830000000000084e+01 6.336239999999999384e+01 2.227065000000000055e+03
3.500000000000000333e-02 1.890160000000000173e-01 1.356729999999999947e+01 6.213259999999999650e+01 2.226704999999999927e+03
3.600000000000000422e-02 1.889945000000000097e-01 1.331504999999999939e+01 6.206864999999999810e+01 2.226534999999999854e+03
3.700000000000000511e-02 1.890094999999999970e-01 1.348369999999999891e+01 6.329229999999999734e+01 2.226609999999999673e+03
3.799999999999999906e-02 1.890594999999999914e-01 1.399385000000000012e+01 6.561485000000000412e+01 2.226934999999999945e+03
3.899999999999999994e-02 1.891369999999999996e-01 1.469725000000000037e+01 6.859155000000001223e+01 2.227449999999999818e+03
4.000000000000000083e-02 1.892260000000000053e-01 1.541420000000000101e+01 7.163859999999999673e+01 2.228059999999999945e+03
4.100000000000000172e-02 1.893110000000000070e-01 1.597205000000000119e+01 7.417029999999999745e+01 2.228650000000000091e+03
4.200000000000000261e-02 1.893750000000000155e-01 1.623594999999999899e+01 7.571805000000000518e+01 2.229110000000000127e+03
4.300000000000000350e-02 1.894079999999999930e-01 1.612630000000000052e+01 7.600485000000000468e+01 2.229349999999999909e+03
4.400000000000000439e-02 1.894025000000000014e-01 1.562175000000000047e+01 7.496569999999999823e+01 2.229329999999999927e+03
4.499999999999999833e-02 1.893575000000000119e-01 1.474944999999999951e+01 7.271969999999998890e+01 2.229039999999999964e+03
4.599999999999999922e-02 1.892790000000000028e-01 1.356879999999999953e+01 6.950919999999999277e+01 2.228510000000000218e+03
4.700000000000000011e-02 1.891714999999999924e-01 1.215363499999999952e+01 6.562980000000000302e+01 2.227780000000000200e+03
4.800000000000000100e-02 1.890445000000000042e-01 1.057816000000000045e+01 6.136865000000000236e+01 2.226904999999999745e+03
4.900000000000000189e-02 1.889055000000000040e-01 8.908789999999999765e+00 5.696654999999999802e+01 2.225945000000000164e+03
5.000000000000000278e-02 1.887610000000000121e-01 7.202340000000000408e+00 5.260519999999999641e+01 2.224944999999999709e+03
5.100000000000000366e-02 1.886170000000000069e-01 5.508655000000000079e+00 4.841549999999999443e+01 2.223940000000000055e+03
5.200000000000000455e-02 1.884775000000000200e-01 3.875420650000000133e+00 4.449855000000000160e+01 2.222965000000000146e+03
5.300000000000000544e-02 1.883460000000000134e-01 2.352184999999999970e+00 4.094729999999999848e+01 2.222045000000000073e+03
5.399999999999999939e-02 1.882270000000000054e-01 9.925100000000000033e-01 3.786319999999999908e+01 2.221215000000000146e+03
5.500000000000000028e-02 1.881245000000000001e-01 -1.468750000000000888e-01 3.536205000000000354e+01 2.220489999999999782e+03
5.600000000000000117e-02 1.880425000000000013e-01 -1.009528500000000051e+00 3.356860000000000355e+01 2.219904999999999745e+03
5.700000000000000205e-02 1.879850000000000132e-01 -1.544441000000000175e+00 3.260370000000000346e+01 2.219489999999999782e+03
5.800000000000000294e-02 1.879565000000000263e-01 -1.711574999999999847e+00 3.256705000000000183e+01 2.219269999999999982e+03
5.900000000000000383e-02 1.879595000000000016e-01 -1.486538499999999985e+00 3.352120000000000033e+01 2.219265000000000327e+03
6.000000000000000472e-02 1.879959999999999964e-01 -8.634290000000000020e-01 3.548015000000000185e+01 2.219489999999999782e+03
6.099999999999999867e-02 1.880649999999999822e-01 1.444450000000000456e-01 3.840529999999999688e+01 2.219944999999999709e+03
6.199999999999999956e-02 1.881659999999999999e-01 1.505840000000000067e+00 4.220819999999999794e+01 2.220619999999999891e+03
6.300000000000000044e-02 1.882955000000000045e-01 3.174430500000000155e+00 4.675844999999999629e+01 2.221494999999999891e+03
6.400000000000000133e-02 1.884485000000000188e-01 5.092430000000000234e+00 5.189589999999999748e+01 2.222545000000000073e+03
6.500000000000000222e-02 1.886214999999999975e-01 7.194715000000000416e+00 5.744320000000000448e+01 2.223735000000000127e+03
6.600000000000000311e-02 1.888070000000000026e-01 9.413025000000001086e+00 6.321885000000000332e+01 2.225014999999999873e+03
6.700000000000000400e-02 1.890005000000000157e-01 1.167977499999999935e+01 6.904904999999999404e+01 2.226359999999999673e+03
6.800000000000000488e-02 1.891964999999999897e-01 1.393233000000000033e+01 7.477824999999999989e+01 2.227730000000000018e+03
6.900000000000000577e-02 1.893894999999999884e-01 1.611609999999999943e+01 8.027850000000000819e+01 2.229079999999999927e+03
7.000000000000000666e-02 1.895760000000000223e-01 1.818765000000000143e+01 8.545624999999999716e+01 2.230389999999999873e+03
7.100000000000000755e-02 1.897524999999999906e-01 2.011659999999999826e+01 9.025704999999999245e+01 2.231635000000000218e+03
7.200000000000000844e-02 1.899180000000000035e-01 2.188669999999999760e+01 9.466620000000000346e+01 2.232809999999999945e+03
7.300000000000000933e-02 1.900720000000000187e-01 2.349495000000000289e+01 9.870534999999999570e+01 2.233904999999999745e+03
7.399999999999999634e-02 1.902154999999999818e-01 2.494989999999999952e+01 1.024275499999999965e+02 2.234925000000000182e+03
7.499999999999999722e-02 1.903495000000000048e-01 2.626915000000000333e+01 1.059047500000000070e+02 2.235885000000000218e+03
7.599999999999999811e-02 1.904770000000000074e-01 2.747569999999999979e+01 1.092210000000000036e+02 2.236795000000000073e+03
7.699999999999999900e-02 1.905994999999999773e-01 2.859479999999999933e+01 1.124569999999999936e+02 2.237670000000000073e+03
7.799999999999999989e-02 1.907200000000000006e-01 2.965055000000000263e+01 1.156844999999999999e+02 2.238529999999999745e+03
7.900000000000000078e-02 1.908400000000000096e-01 3.066365000000000052e+01 1.189569999999999936e+02 2.239385000000000218e+03
8.000000000000000167e-02 1.909620000000000206e-01 3.164945000000000164e+01 1.223079999999999927e+02 2.240250000000000000e+03
8.100000000000000255e-02 1.910850000000000048e-01 3.261710000000000065e+01 1.257460000000000093e+02 2.241130000000000109e+03
8.200000000000000344e-02 1.912110000000000198e-01 3.356949999999999790e+01 1.292609999999999957e+02 2.242024999999999636e+03
8.300000000000000433e-02 1.913380000000000081e-01 3.450355000000000416e+01 1.328229999999999791e+02 2.242930000000000291e+03
8.400000000000000522e-02 1.914659999999999973e-01 3.541065000000000396e+01 1.363890000000000100e+02 2.243835000000000036e+03
8.500000000000000611e-02 1.915930000000000133e-01 3.627819999999999823e+01 1.399050000000000011e+02 2.244739999999999782e+03
8.600000000000000699e-02 1.917179999999999995e-01 3.709029999999999916e+01 1.433109999999999786e+02 2.245630000000000109e+03
8.700000000000000788e-02 1.918385000000000229e-01 3.782909999999999684e+01 1.465465000000000089e+02 2.246489999999999782e+03
8.800000000000000877e-02 1.919520000000000115e-01 3.847610000000000241e+01 1.495514999999999759e+02 2.247305000000000291e+03
8.899999999999999578e-02 1.920580000000000065e-01 3.901335000000000264e+01 1.522715000000000032e+02 2.248059999999999945e+03
8.999999999999999667e-02 1.921535000000000049e-01 3.942435000000000400e+01 1.546580000000000155e+02 2.248744999999999891e+03
9.099999999999999756e-02 1.922375000000000056e-01 3.969539999999999935e+01 1.566745000000000232e+02 2.249355000000000018e+03
9.199999999999999845e-02 1.923084999999999933e-01 3.981655000000000655e+01 1.582934999999999945e+02 2.249864999999999782e+03
9.299999999999999933e-02 1.923664999999999958e-01 3.978225000000000477e+01 1.595014999999999930e+02 2.250289999999999964e+03
9.400000000000000022e-02 1.924099999999999977e-01 3.959199999999999875e+01 1.603000000000000114e+02 2.250614999999999782e+03
9.500000000000000111e-02 1.924399999999999999e-01 3.925055000000000405e+01 1.607040000000000077e+02 2.250835000000000036e+03
9.600000000000000200e-02 1.924565000000000026e-01 3.876774999999999949e+01 1.607400000000000091e+02 2.250965000000000146e+03
9.700000000000000289e-02 1.924615000000000076e-01 3.815800000000000125e+01 1.604495000000000005e+02 2.251010000000000218e+03
9.800000000000000377e-02 1.924549999999999872e-01 3.743970000000000198e+01 1.598810000000000002e+02 2.250969999999999800e+03
9.900000000000000466e-02 1.924385000000000123e-01 3.663380000000000081e+01 1.590900000000000034e+02 2.250869999999999891e+03
1.000000000000000056e-01 1.924155000000000171e-01 3.576299999999999812e+01 1.581340000000000146e+02 2.250710000000000036e+03
1.010000000000000064e-01 1.923865000000000158e-01 3.485060000000000002e+01 1.570724999999999909e+02 2.250505000000000109e+03
1.020000000000000073e-01 1.923529999999999962e-01 3.391910000000000025e+01 1.559590000000000032e+02 2.250279999999999745e+03
1.030000000000000082e-01 1.923185000000000033e-01 3.298964999999999748e+01 1.548439999999999941e+02 2.250034999999999854e+03
1.040000000000000091e-01 1.922834999999999961e-01 3.208055000000000234e+01 1.537685000000000173e+02 2.249784999999999854e+03
1.050000000000000100e-01 1.922484999999999888e-01 3.120724999999999838e+01 1.527665000000000077e+02 2.249539999999999964e+03
1.059999999999999970e-01 1.922165000000000123e-01 3.038134999999999764e+01 1.518594999999999970e+02 2.249305000000000291e+03
1.069999999999999979e-01 1.921869999999999967e-01 2.961025000000000063e+01 1.510620000000000118e+02 2.249090000000000146e+03
1.079999999999999988e-01 1.921599999999999975e-01 2.889719999999999800e+01 1.503735000000000070e+02 2.248899999999999636e+03
1.089999999999999997e-01 1.921370000000000022e-01 2.824105000000000132e+01 1.497870000000000061e+02 2.248730000000000018e+03
1.100000000000000006e-01 1.921160000000000090e-01 2.763674999999999926e+01 1.492835000000000036e+02 2.248579999999999927e+03
1.110000000000000014e-01 1.920975000000000044e-01 2.707549999999999812e+01 1.488354999999999961e+02 2.248444999999999709e+03
1.120000000000000023e-01 1.920810000000000017e-01 2.654570000000000007e+01 1.484110000000000014e+02 2.248319999999999709e+03
1.130000000000000032e-01 1.920640000000000125e-01 2.603369999999999962e+01 1.479710000000000036e+02 2.248194999999999709e+03
1.140000000000000041e-01 1.920465000000000089e-01 2.552465000000000117e+01 1.474780000000000086e+02 2.248074999999999818e+03
1.150000000000000050e-01 1.920264999999999889e-01 2.500365000000000038e+01 1.468935000000000173e+02 2.247925000000000182e+03
1.160000000000000059e-01 1.920034999999999936e-01 2.445680000000000121e+01 1.461814999999999998e+02 2.247765000000000327e+03
1.170000000000000068e-01 1.919764999999999944e-01 2.387205000000000155e+01 1.453160000000000025e+02 2.247569999999999709e+03
1.180000000000000077e-01 1.919434999999999891e-01 2.324009999999999820e+01 1.442750000000000057e+02 2.247340000000000146e+03
1.190000000000000085e-01 1.919049999999999923e-01 2.255509999999999948e+01 1.430489999999999782e+02 2.247070000000000164e+03
1.200000000000000094e-01 1.918604999999999894e-01 2.181499999999999773e+01 1.416370000000000005e+02 2.246755000000000109e+03
1.209999999999999964e-01 1.918099999999999805e-01 2.102185000000000059e+01 1.400509999999999877e+02 2.246400000000000091e+03
1.219999999999999973e-01 1.917534999999999934e-01 2.018155000000000143e+01 1.383120000000000118e+02 2.246005000000000109e+03
1.229999999999999982e-01 1.916924999999999879e-01 1.930389999999999873e+01 1.364509999999999934e+02 2.245574999999999818e+03
1.239999999999999991e-01 1.916280000000000205e-01 1.840174999999999983e+01 1.345060000000000002e+02 2.245119999999999891e+03
1.250000000000000000e-01 1.915604999999999947e-01 1.749030000000000129e+01 1.325215000000000032e+02 2.244644999999999982e+03
1.260000000000000009e-01 1.914919999999999956e-01 1.658635000000000304e+01 1.305440000000000111e+02 2.244159999999999854e+03
1.270000000000000018e-01 1.914239999999999831e-01 1.570734999999999992e+01 1.286200000000000045e+02 2.243675000000000182e+03
1.280000000000000027e-01 1.913584999999999869e-01 1.487004999999999910e+01 1.267950000000000017e+02 2.243210000000000036e+03
1.290000000000000036e-01 1.912960000000000216e-01 1.409025000000000105e+01 1.251089999999999947e+02 2.242765000000000327e+03
1.300000000000000044e-01 1.912380000000000191e-01 1.338124999999999964e+01 1.235949999999999989e+02 2.242349999999999909e+03
1.310000000000000053e-01 1.911859999999999948e-01 1.275394999999999968e+01 1.222779999999999916e+02 2.241980000000000018e+03
1.320000000000000062e-01 1.911400000000000043e-01 1.221590000000000131e+01 1.211754999999999995e+02 2.241654999999999745e+03
1.330000000000000071e-01 1.911019999999999941e-01 1.177130000000000010e+01 1.202944999999999993e+02 2.241375000000000000e+03
1.340000000000000080e-01 1.910709999999999908e-01 1.142109999999999914e+01 1.196329999999999956e+02 2.241144999999999982e+03
1.350000000000000089e-01 1.910469999999999946e-01 1.116302999999999912e+01 1.191819999999999879e+02 2.240970000000000255e+03
1.360000000000000098e-01 1.910294999999999910e-01 1.099202999999999975e+01 1.189249999999999972e+02 2.240844999999999800e+03
1.370000000000000107e-01 1.910189999999999944e-01 1.090064999999999884e+01 1.188425000000000011e+02 2.240760000000000218e+03
1.380000000000000115e-01 1.910145000000000037e-01 1.087974999999999959e+01 1.189080000000000013e+02 2.240720000000000255e+03
1.390000000000000124e-01 1.910145000000000037e-01 1.091844999999999999e+01 1.190949999999999989e+02 2.240715000000000146e+03
1.400000000000000133e-01 1.910189999999999944e-01 1.100560000000000116e+01 1.193750000000000000e+02 2.240739999999999782e+03
1.410000000000000142e-01 1.910264999999999880e-01 1.112930000000000064e+01 1.197205000000000013e+02 2.240789999999999964e+03
1.420000000000000151e-01 1.910359999999999836e-01 1.127805000000000035e+01 1.201049999999999898e+02 2.240855000000000018e+03
1.430000000000000160e-01 1.910474999999999812e-01 1.144085000000000107e+01 1.205039999999999907e+02 2.240929999999999836e+03
1.440000000000000169e-01 1.910594999999999932e-01 1.160764999999999958e+01 1.208960000000000008e+02 2.241014999999999873e+03
1.450000000000000178e-01 1.910709999999999908e-01 1.176954999999999885e+01 1.212624999999999886e+02 2.241094999999999800e+03
1.459999999999999909e-01 1.910824999999999885e-01 1.191929999999999978e+01 1.215905000000000058e+02 2.241175000000000182e+03
1.469999999999999918e-01 1.910930000000000129e-01 1.205105000000000004e+01 1.218685000000000116e+02 2.241244999999999891e+03
1.479999999999999927e-01 1.911015000000000075e-01 1.216094999999999970e+01 1.220914999999999964e+02 2.241309999999999945e+03
1.489999999999999936e-01 1.911085000000000145e-01 1.224680000000000035e+01 1.222574999999999932e+02 2.241355000000000018e+03
1.499999999999999944e-01 1.911140000000000061e-01 1.230825000000000102e+01 1.223689999999999998e+02 2.241394999999999982e+03
1.509999999999999953e-01 1.911174999999999957e-01 1.234639999999999915e+01 1.224309999999999974e+02 2.241425000000000182e+03
1.519999999999999962e-01 1.911194999999999977e-01 1.236374999999999957e+01 1.224530000000000030e+02 2.241444999999999709e+03
1.529999999999999971e-01 1.911204999999999987e-01 1.236374999999999957e+01 1.224455000000000098e+02 2.241449999999999818e+03
1.539999999999999980e-01 1.911209999999999853e-01 1.235075000000000145e+01 1.224194999999999993e+02 2.241460000000000036e+03
1.549999999999999989e-01 1.911204999999999987e-01 1.232929999999999993e+01 1.223884999999999934e+02 2.241454999999999927e+03
1.559999999999999998e-01 1.911204999999999987e-01 1.230389999999999873e+01 1.223619999999999948e+02 2.241454999999999927e+03
1.570000000000000007e-01 1.911204999999999987e-01 1.227875000000000050e+01 1.223515000000000015e+02 2.241454999999999927e+03
1.580000000000000016e-01 1.911209999999999853e-01 1.225730000000000075e+01 1.223629999999999995e+02 2.241460000000000036e+03
1.590000000000000024e-01 1.911220000000000141e-01 1.224230000000000018e+01 1.224020000000000010e+02 2.241465000000000146e+03
