# t [s], A [cm^2], U [cm/s], P [cPa], c [cm/s]
1.000000000000000021e-03 6.222914999999999974e-01 6.795499999999995988e-03 9.303954999999999131e+01 1.751779999999999973e+03
2.000000000000000042e-03 6.222795000000000964e-01 -5.345235000000000264e-03 9.300235000000000696e+01 1.751769999999999982e+03
3.000000000000000062e-03 6.223294999999999799e-01 9.506070000000001186e-02 9.311775000000000091e+01 1.751795000000000073e+03
4.000000000000000083e-03 6.223745000000000527e-01 1.994512300000000071e-01 9.325079999999999814e+01 1.751829999999999927e+03
5.000000000000000104e-03 6.223400000000000043e-01 1.638061000000000100e-01 9.316174999999999784e+01 1.751809999999999945e+03
6.000000000000000125e-03 6.222719999999999363e-01 5.695650000000002100e-02 9.289619999999999322e+01 1.751750000000000000e+03
7.000000000000000146e-03 6.222190000000000776e-01 -3.014000000000000012e-02 9.259309999999999263e+01 1.751675000000000182e+03
8.000000000000000167e-03 6.221290000000000431e-01 -2.049699999999999855e-01 9.213349999999999795e+01 1.751565000000000055e+03
9.000000000000001055e-03 6.219805000000000472e-01 -5.147450000000000081e-01 9.142574999999999363e+01 1.751404999999999973e+03
1.000000000000000194e-02 6.217730000000000201e-01 -9.611549999999999816e-01 9.042770000000000152e+01 1.751170000000000073e+03
1.099999999999999936e-02 6.214794999999999625e-01 -1.581910000000000149e+00 8.904525000000001000e+01 1.750845000000000027e+03
1.200000000000000025e-02 6.210990000000000677e-01 -2.364799999999999791e+00 8.723904999999999177e+01 1.750414999999999964e+03
1.300000000000000114e-02 6.206875000000000586e-01 -3.175559999999999938e+00 8.515139999999999532e+01 1.749900000000000091e+03
1.400000000000000203e-02 6.203224999999999989e-01 -3.820121000000000322e+00 8.305679999999999552e+01 1.749365000000000009e+03
1.499999999999999944e-02 6.200540000000001051e-01 -4.158310000000000173e+00 8.120425000000000182e+01 1.748869999999999891e+03
1.600000000000000033e-02 6.198799999999999866e-01 -4.162015000000000242e+00 7.970134999999999081e+01 1.748434999999999945e+03
1.700000000000000122e-02 6.197589999999999488e-01 -3.901730000000000143e+00 7.849729999999999563e+01 1.748059999999999945e+03
1.800000000000000211e-02 6.196345000000000880e-01 -3.495064999999999866e+00 7.743704999999999927e+01 1.747714999999999918e+03
1.900000000000000300e-02 6.194634999999999447e-01 -3.050780000000000047e+00 7.634389999999999077e+01 1.747365000000000009e+03
2.000000000000000042e-02 6.192280000000000006e-01 -2.629286500000000082e+00 7.509319999999999595e+01 1.746985000000000127e+03
2.100000000000000130e-02 6.189390000000000169e-01 -2.230100999999999889e+00 7.365280000000001337e+01 1.746565000000000055e+03
2.200000000000000219e-02 6.186255000000000503e-01 -1.807165000000000132e+00 7.207949999999999591e+01 1.746109999999999900e+03
2.299999999999999961e-02 6.183214999999999684e-01 -1.302150000000000141e+00 7.047790000000000532e+01 1.745650000000000091e+03
2.400000000000000050e-02 6.180459999999999843e-01 -6.791249999999997566e-01 6.894575000000000387e+01 1.745194999999999936e+03
2.500000000000000139e-02 6.178019999999999623e-01 5.326999999999992852e-02 6.752789999999998827e+01 1.744759999999999991e+03
2.600000000000000228e-02 6.175684999999999647e-01 8.376550000000000384e-01 6.619490000000000407e+01 1.744345000000000027e+03
2.700000000000000316e-02 6.173135000000000705e-01 1.579879999999999951e+00 6.484725000000000250e+01 1.743934999999999945e+03
2.800000000000000058e-02 6.169994999999999230e-01 2.172085000000000043e+00 6.334250000000000114e+01 1.743490000000000009e+03
2.900000000000000147e-02 6.165959999999999219e-01 2.520714999999999595e+00 6.153714999999999691e+01 1.742985000000000127e+03
3.000000000000000236e-02 6.160935000000000716e-01 2.572224999999999984e+00 5.933185000000000286e+01 1.742389999999999873e+03
3.099999999999999978e-02 6.154990000000000183e-01 2.328005000000000102e+00 5.670629999999999882e+01 1.741699999999999818e+03
3.200000000000000067e-02 6.148454999999999337e-01 1.842804999999999804e+00 5.373080000000000211e+01 1.740930000000000064e+03
3.300000000000000155e-02 6.141729999999999690e-01 1.207825000000000149e+00 5.055145000000000266e+01 1.740099999999999909e+03
3.400000000000000244e-02 6.135275000000000034e-01 5.265549999999992181e-01 4.735614999999999952e+01 1.739250000000000000e+03
3.500000000000000333e-02 6.129459999999999908e-01 -1.072649999999999437e-01 4.433744999999999692e+01 1.738434999999999945e+03
3.600000000000000422e-02 6.124555000000000415e-01 -6.237149999999997974e-01 4.166120000000000090e+01 1.737690000000000055e+03
3.700000000000000511e-02 6.120689999999999742e-01 -9.813450000000001339e-01 3.944825000000000159e+01 1.737055000000000064e+03
3.799999999999999906e-02 6.117900000000000560e-01 -1.164285000000000014e+00 3.776895000000000380e+01 1.736545000000000073e+03
3.899999999999999994e-02 6.116155000000000896e-01 -1.174640000000000128e+00 3.664784999999999826e+01 1.736175000000000182e+03
4.000000000000000083e-02 6.115375000000000671e-01 -1.023071499999999912e+00 3.607614999999999839e+01 1.735945000000000164e+03
4.100000000000000172e-02 6.115490000000000093e-01 -7.200469999999999926e-01 3.602644999999999698e+01 1.735860000000000127e+03
4.200000000000000261e-02 6.116455000000000641e-01 -2.699850000000000305e-01 3.646685000000000088e+01 1.735914999999999964e+03
4.300000000000000350e-02 6.118244999999999933e-01 3.305500000000001215e-01 3.737019999999999698e+01 1.736095000000000027e+03
4.400000000000000439e-02 6.120859999999999079e-01 1.090665000000000218e+00 3.871730000000000160e+01 1.736394999999999982e+03
4.499999999999999833e-02 6.124290000000000012e-01 2.020120000000000360e+00 4.049380000000000024e+01 1.736815000000000055e+03
4.599999999999999922e-02 6.128525000000000222e-01 3.123704999999999288e+00 4.268380000000000507e+01 1.737355000000000018e+03
4.700000000000000011e-02 6.133509999999999796e-01 4.396749999999999936e+00 4.526319999999999766e+01 1.738000000000000000e+03
4.800000000000000100e-02 6.139155000000000584e-01 5.823085000000000733e+00 4.819440000000000168e+01 1.738744999999999891e+03
4.900000000000000189e-02 6.145329999999999959e-01 7.375469499999999456e+00 5.142479999999999762e+01 1.739575000000000045e+03
5.000000000000000278e-02 6.151880000000000681e-01 9.018200000000000216e+00 5.488834999999999553e+01 1.740480000000000018e+03
5.100000000000000366e-02 6.158660000000000245e-01 1.071122499999999889e+01 5.851059999999999661e+01 1.741434999999999945e+03
5.200000000000000455e-02 6.165510000000000712e-01 1.241422000000000025e+01 6.221479999999999677e+01 1.742424999999999955e+03
5.300000000000000544e-02 6.172299999999999454e-01 1.409074999999999989e+01 6.592855000000000132e+01 1.743430000000000064e+03
5.399999999999999939e-02 6.178924999999999557e-01 1.571074999999999910e+01 6.958969999999999345e+01 1.744434999999999945e+03
5.500000000000000028e-02 6.185324999999999296e-01 1.725219999999999843e+01 7.315044999999999220e+01 1.745420000000000073e+03
5.600000000000000117e-02 6.191465000000000440e-01 1.870114999999999839e+01 7.657895000000000607e+01 1.746384999999999991e+03
5.700000000000000205e-02 6.197334999999999372e-01 2.005105000000000004e+01 7.985929999999999040e+01 1.747315000000000055e+03
5.800000000000000294e-02 6.202950000000000408e-01 2.130130000000000123e+01 8.298980000000000246e+01 1.748215000000000146e+03
5.900000000000000383e-02 6.208350000000000257e-01 2.245564999999999856e+01 8.598000000000000398e+01 1.749075000000000045e+03
6.000000000000000472e-02 6.213570000000000482e-01 2.352080000000000126e+01 8.884759999999999991e+01 1.749904999999999973e+03
6.099999999999999867e-02 6.218654999999999600e-01 2.450489999999999924e+01 9.161514999999999986e+01 1.750710000000000036e+03
6.199999999999999956e-02 6.223644999999999872e-01 2.541660000000000252e+01 9.430639999999999645e+01 1.751490000000000009e+03
6.300000000000000044e-02 6.228584999999999816e-01 2.626364999999999839e+01 9.694440000000000168e+01 1.752259999999999991e+03
6.400000000000000133e-02 6.233489999999999309e-01 2.705255000000000010e+01 9.954749999999999943e+01 1.753014999999999873e+03
6.500000000000000222e-02 6.238384999999999625e-01 2.778750000000000142e+01 1.021281500000000051e+02 1.753764999999999873e+03
6.600000000000000311e-02 6.243259999999999366e-01 2.846990000000000265e+01 1.046916500000000099e+02 1.754505000000000109e+03
6.700000000000000400e-02 6.248099999999999765e-01 2.909864999999999924e+01 1.072349999999999994e+02 1.755240000000000009e+03
6.800000000000000488e-02 6.252874999999999961e-01 2.966989999999999839e+01 1.097464999999999975e+02 1.755965000000000146e+03
6.900000000000000577e-02 6.257550000000000612e-01 3.017804999999999893e+01 1.122100000000000080e+02 1.756680000000000064e+03
7.000000000000000666e-02 6.262075000000000280e-01 3.061609999999999943e+01 1.146024999999999920e+02 1.757375000000000000e+03
7.100000000000000755e-02 6.266395000000000159e-01 3.097695000000000221e+01 1.168990000000000009e+02 1.758049999999999955e+03
7.200000000000000844e-02 6.270474999999999799e-01 3.125359999999999872e+01 1.190734999999999957e+02 1.758690000000000055e+03
7.300000000000000933e-02 6.274260000000000392e-01 3.144055000000000177e+01 1.211015000000000015e+02 1.759295000000000073e+03
7.399999999999999634e-02 6.277719999999999967e-01 3.153359999999999985e+01 1.229625000000000057e+02 1.759849999999999909e+03
7.499999999999999722e-02 6.280835000000000168e-01 3.153024999999999878e+01 1.246384999999999934e+02 1.760365000000000009e+03
7.599999999999999811e-02 6.283570000000000544e-01 3.142974999999999852e+01 1.261175000000000068e+02 1.760819999999999936e+03
7.699999999999999900e-02 6.285935000000000272e-01 3.123320000000000007e+01 1.273909999999999911e+02 1.761220000000000027e+03
7.799999999999999989e-02 6.287914999999999477e-01 3.094340000000000046e+01 1.284565000000000055e+02 1.761559999999999945e+03
7.900000000000000078e-02 6.289519999999999555e-01 3.056455000000000055e+01 1.293154999999999859e+02 1.761849999999999909e+03
8.000000000000000167e-02 6.290754999999998986e-01 3.010270000000000223e+01 1.299739999999999895e+02 1.762079999999999927e+03
8.100000000000000255e-02 6.291655000000000442e-01 2.956530000000000058e+01 1.304435000000000002e+02 1.762250000000000000e+03
8.200000000000000344e-02 6.292245000000000754e-01 2.896135000000000304e+01 1.307375000000000114e+02 1.762375000000000000e+03
8.300000000000000433e-02 6.292550000000000088e-01 2.830125000000000313e+01 1.308729999999999905e+02 1.762454999999999927e+03
8.400000000000000522e-02 6.292619999999999880e-01 2.759659999999999869e+01 1.308714999999999975e+02 1.762485000000000127e+03
8.500000000000000611e-02 6.292489999999999473e-01 2.685965000000000202e+01 1.307545000000000073e+02 1.762485000000000127e+03
8.600000000000000699e-02 6.292204999999999604e-01 2.610309999999999775e+01 1.305465000000000089e+02 1.762454999999999927e+03
8.700000000000000788e-02 6.291815000000000602e-01 2.533954999999999913e+01 1.302710000000000150e+02 1.762400000000000091e+03
8.800000000000000877e-02 6.291360000000000285e-01 2.458064999999999856e+01 1.299524999999999864e+02 1.762329999999999927e+03
8.899999999999999578e-02 6.290864999999999929e-01 2.383675000000000210e+01 1.296105000000000018e+02 1.762250000000000000e+03
8.999999999999999667e-02 6.290374999999999162e-01 2.311645000000000039e+01 1.292649999999999864e+02 1.762159999999999854e+03
9.099999999999999756e-02 6.289905000000000079e-01 2.242605000000000004e+01 1.289300000000000068e+02 1.762070000000000164e+03
9.199999999999999845e-02 6.289470000000000338e-01 2.176934999999999931e+01 1.286150000000000091e+02 1.761985000000000127e+03
9.299999999999999933e-02 6.289074999999999527e-01 2.114789999999999992e+01 1.283255000000000052e+02 1.761900000000000091e+03
9.400000000000000022e-02 6.288715000000000277e-01 2.056080000000000041e+01 1.280629999999999882e+02 1.761824999999999818e+03
9.500000000000000111e-02 6.288374999999999382e-01 2.000489999999999924e+01 1.278234999999999957e+02 1.761750000000000000e+03
9.600000000000000200e-02 6.288055000000000172e-01 1.947560000000000002e+01 1.276005000000000109e+02 1.761680000000000064e+03
9.700000000000000289e-02 6.287715000000000387e-01 1.896685000000000088e+01 1.273839999999999861e+02 1.761610000000000127e+03
9.800000000000000377e-02 6.287344999999999740e-01 1.847180000000000177e+01 1.271629999999999967e+02 1.761545000000000073e+03
9.900000000000000466e-02 6.286914999999999587e-01 1.798304999999999865e+01 1.269240000000000066e+02 1.761474999999999909e+03
1.000000000000000056e-01 6.286410000000000053e-01 1.749319999999999808e+01 1.266539999999999964e+02 1.761394999999999982e+03
1.010000000000000064e-01 6.285795000000000687e-01 1.699540000000000006e+01 1.263425000000000011e+02 1.761304999999999836e+03
1.020000000000000073e-01 6.285074999999999967e-01 1.648349999999999937e+01 1.259774999999999920e+02 1.761204999999999927e+03
1.030000000000000082e-01 6.284224999999999950e-01 1.595265000000000022e+01 1.255515000000000043e+02 1.761090000000000146e+03
1.040000000000000091e-01 6.283235000000000348e-01 1.539925000000000033e+01 1.250595000000000141e+02 1.760954999999999927e+03
1.050000000000000100e-01 6.282114999999999227e-01 1.482164999999999999e+01 1.244989999999999952e+02 1.760809999999999945e+03
1.059999999999999970e-01 6.280870000000000619e-01 1.421989999999999910e+01 1.238725000000000023e+02 1.760639999999999873e+03
1.069999999999999979e-01 6.279514999999999958e-01 1.359620999999999924e+01 1.231845000000000141e+02 1.760454999999999927e+03
1.079999999999999988e-01 6.278070000000000039e-01 1.295435000000000159e+01 1.224449999999999932e+02 1.760255000000000109e+03
1.089999999999999997e-01 6.276569999999999094e-01 1.229999499999999912e+01 1.216659999999999968e+02 1.760045000000000073e+03
1.100000000000000006e-01 6.275034999999999918e-01 1.164004500000000064e+01 1.208635000000000019e+02 1.759825000000000045e+03
1.110000000000000014e-01 6.273505000000000331e-01 1.098256499999999924e+01 1.200540000000000020e+02 1.759599999999999909e+03
1.120000000000000023e-01 6.272010000000000085e-01 1.033615499999999976e+01 1.192560000000000002e+02 1.759380000000000109e+03
1.130000000000000032e-01 6.270594999999999919e-01 9.709669999999999135e+00 1.184874999999999972e+02 1.759164999999999964e+03
1.140000000000000041e-01 6.269289999999999585e-01 9.111620000000000275e+00 1.177674999999999983e+02 1.758954999999999927e+03
1.150000000000000050e-01 6.268114999999999659e-01 8.549849999999999284e+00 1.171110000000000042e+02 1.758769999999999982e+03
1.160000000000000059e-01 6.267104999999999482e-01 8.031040000000000845e+00 1.165330000000000013e+02 1.758599999999999909e+03
1.170000000000000068e-01 6.266270000000000451e-01 7.560559999999999725e+00 1.160440000000000111e+02 1.758450000000000045e+03
1.180000000000000077e-01 6.265614999999999934e-01 7.142140000000000377e+00 1.156504999999999939e+02 1.758324999999999818e+03
1.190000000000000085e-01 6.265155000000000030e-01 6.777710000000000790e+00 1.153569999999999993e+02 1.758230000000000018e+03
1.200000000000000094e-01 6.264874999999999750e-01 6.467425000000000423e+00 1.151634999999999991e+02 1.758155000000000200e+03
1.209999999999999964e-01 6.264775000000000205e-01 6.209744999999999848e+00 1.150645000000000095e+02 1.758115000000000009e+03
1.219999999999999973e-01 6.264819999999999833e-01 6.001590000000000202e+00 1.150540000000000020e+02 1.758090000000000146e+03
1.229999999999999982e-01 6.265009999999999746e-01 5.838625000000000398e+00 1.151209999999999951e+02 1.758090000000000146e+03
1.239999999999999991e-01 6.265304999999999902e-01 5.715535000000000032e+00 1.152539999999999907e+02 1.758115000000000009e+03
1.250000000000000000e-01 6.265685000000000837e-01 5.626364999999999839e+00 1.154399999999999977e+02 1.758150000000000091e+03
1.260000000000000009e-01 6.266125000000000167e-01 5.564859999999999474e+00 1.156649999999999920e+02 1.758200000000000045e+03
1.270000000000000018e-01 6.266595000000000359e-01 5.524754999999999860e+00 1.159149999999999920e+02 1.758259999999999991e+03
1.280000000000000027e-01 6.267085000000000017e-01 5.500024999999999942e+00 1.161769999999999925e+02 1.758325000000000045e+03
1.290000000000000036e-01 6.267559999999999798e-01 5.485104999999999897e+00 1.164399999999999977e+02 1.758389999999999873e+03
1.300000000000000044e-01 6.268015000000000114e-01 5.475004999999999455e+00 1.166945000000000050e+02 1.758454999999999927e+03
1.310000000000000053e-01 6.268430000000000391e-01 5.465455000000000396e+00 1.169325000000000045e+02 1.758519999999999982e+03
1.320000000000000062e-01 6.268799999999999928e-01 5.452885000000000204e+00 1.171469999999999914e+02 1.758579999999999927e+03
1.330000000000000071e-01 6.269119999999999138e-01 5.434504999999999697e+00 1.173345000000000056e+02 1.758630000000000109e+03
1.340000000000000080e-01 6.269384999999999541e-01 5.408260000000000289e+00 1.174925000000000068e+02 1.758680000000000064e+03
1.350000000000000089e-01 6.269590000000000440e-01 5.372780000000000555e+00 1.176189999999999998e+02 1.758715000000000146e+03
1.360000000000000098e-01 6.269744999999999902e-01 5.327374999999999972e+00 1.177155000000000058e+02 1.758744999999999891e+03
1.370000000000000107e-01 6.269850000000000145e-01 5.271950000000000358e+00 1.177824999999999989e+02 1.758764999999999873e+03
1.380000000000000115e-01 6.269910000000000760e-01 5.206939999999999458e+00 1.178239999999999981e+02 1.758780000000000200e+03
1.390000000000000124e-01 6.269934999999999814e-01 5.133239999999999803e+00 1.178414999999999964e+02 1.758789999999999964e+03
1.400000000000000133e-01 6.269919999999999938e-01 5.052069999999999617e+00 1.178395000000000010e+02 1.758795000000000073e+03
1.410000000000000142e-01 6.269884999999999486e-01 4.964909999999999712e+00 1.178220000000000027e+02 1.758795000000000073e+03
1.420000000000000151e-01 6.269834999999999159e-01 4.873334999999999972e+00 1.177920000000000016e+02 1.758789999999999964e+03
1.430000000000000160e-01 6.269770000000000065e-01 4.778945000000000221e+00 1.177535000000000025e+02 1.758784999999999854e+03
1.440000000000000169e-01 6.269700000000000273e-01 4.683195000000000441e+00 1.177090000000000032e+02 1.758775000000000091e+03
1.450000000000000178e-01 6.269624999999999782e-01 4.587340000000000195e+00 1.176610000000000014e+02 1.758764999999999873e+03
1.459999999999999909e-01 6.269545000000000812e-01 4.492329999999999934e+00 1.176115000000000066e+02 1.758750000000000000e+03
1.469999999999999918e-01 6.269470000000000320e-01 4.398785000000000167e+00 1.175610000000000070e+02 1.758740000000000009e+03
1.479999999999999927e-01 6.269389999999999130e-01 4.306964999999999932e+00 1.175090000000000003e+02 1.758724999999999909e+03
1.489999999999999936e-01 6.269309999999999050e-01 4.216820000000000235e+00 1.174544999999999959e+02 1.758710000000000036e+03
1.499999999999999944e-01 6.269215000000000204e-01 4.128014999999999546e+00 1.173959999999999866e+02 1.758695000000000164e+03
1.509999999999999953e-01 6.269105000000000372e-01 4.040055000000000618e+00 1.173315000000000055e+02 1.758680000000000064e+03
1.519999999999999962e-01 6.268979999999999553e-01 3.952329999999999899e+00 1.172584999999999980e+02 1.758654999999999973e+03
1.529999999999999971e-01 6.268829999999999680e-01 3.864284999999999748e+00 1.171740000000000066e+02 1.758634999999999991e+03
1.539999999999999980e-01 6.268655000000000754e-01 3.775464999999999627e+00 1.170780000000000030e+02 1.758610000000000127e+03
1.549999999999999989e-01 6.268454999999999444e-01 3.685624999999999929e+00 1.169669999999999987e+02 1.758585000000000036e+03
1.559999999999999998e-01 6.268219999999999903e-01 3.594784999999999897e+00 1.168410000000000082e+02 1.758549999999999955e+03
1.570000000000000007e-01 6.267955000000000609e-01 3.503249999999999975e+00 1.166995000000000005e+02 1.758509999999999991e+03
1.580000000000000016e-01 6.267669999999999630e-01 3.411649999999999849e+00 1.165439999999999969e+02 1.758465000000000146e+03
1.590000000000000024e-01 6.267359999999999598e-01 3.320879999999999832e+00 1.163750000000000000e+02 1.758420000000000073e+03
