# t [s], A [cm^2], U [cm/s], P [cPa], c [cm/s]
1.000000000000000021e-03 1.652870000000000172e-01 1.907335000000000003e-01 8.947769999999999868e+01 2.205345000000000255e+03
2.000000000000000042e-03 1.652500000000000080e-01 1.449704000000000104e+00 8.660970000000000368e+01 2.204934999999999945e+03
3.000000000000000062e-03 1.651485000000000036e-01 3.063641000000000059e+00 8.246035000000000537e+01 2.203855000000000018e+03
4.000000000000000083e-03 1.650085000000000024e-01 4.911237300000000694e+00 7.779080000000000439e+01 2.202385000000000218e+03
5.000000000000000104e-03 1.648584999999999912e-01 6.930000000000000604e+00 7.350135000000000218e+01 2.200835000000000036e+03
6.000000000000000125e-03 1.647155000000000147e-01 8.956995000000000928e+00 6.996059999999999945e+01 2.199369999999999891e+03
7.000000000000000146e-03 1.645820000000000061e-01 1.076325999999999894e+01 6.693810000000000571e+01 2.198029999999999745e+03
8.000000000000000167e-03 1.644589999999999941e-01 1.225505499999999870e+01 6.419254999999999711e+01 2.196824999999999818e+03
9.000000000000001055e-03 1.643525000000000125e-01 1.347334999999999994e+01 6.180230000000000246e+01 2.195795000000000073e+03
1.000000000000000194e-02 1.642640000000000211e-01 1.445570000000000022e+01 5.986495000000000744e+01 2.194940000000000055e+03
1.099999999999999936e-02 1.641920000000000046e-01 1.522204999999999941e+01 5.837089999999999890e+01 2.194269999999999982e+03
1.200000000000000025e-02 1.641374999999999917e-01 1.578824999999999967e+01 5.726264999999999361e+01 2.193760000000000218e+03
1.300000000000000114e-02 1.640949999999999909e-01 1.615030000000000143e+01 5.641129999999999711e+01 2.193369999999999891e+03
1.400000000000000203e-02 1.640604999999999980e-01 1.631235000000000213e+01 5.565955000000000297e+01 2.193059999999999945e+03
1.499999999999999944e-02 1.640314999999999968e-01 1.635184999999999889e+01 5.501749999999999829e+01 2.192819999999999709e+03
1.600000000000000033e-02 1.640155000000000085e-01 1.643059999999999832e+01 5.478355000000000530e+01 2.192679999999999836e+03
1.700000000000000122e-02 1.640220000000000011e-01 1.671804999999999808e+01 5.540054999999999552e+01 2.192750000000000000e+03
1.800000000000000211e-02 1.640575000000000228e-01 1.729090000000000060e+01 5.714660000000000650e+01 2.193095000000000255e+03
1.900000000000000300e-02 1.641225000000000045e-01 1.808375000000000199e+01 5.990229999999999677e+01 2.193715000000000146e+03
2.000000000000000042e-02 1.642060000000000186e-01 1.891789999999999949e+01 6.314569999999999794e+01 2.194519999999999982e+03
2.100000000000000130e-02 1.642925000000000080e-01 1.958160000000000167e+01 6.615559999999999263e+01 2.195364999999999782e+03
2.200000000000000219e-02 1.643644999999999967e-01 1.991604999999999848e+01 6.829435000000000855e+01 2.196095000000000255e+03
2.299999999999999961e-02 1.644114999999999882e-01 1.986789999999999878e+01 6.923154999999999859e+01 2.196585000000000036e+03
2.400000000000000050e-02 1.644299999999999928e-01 1.949374999999999858e+01 6.902180000000001314e+01 2.196795000000000073e+03
2.500000000000000139e-02 1.644240000000000146e-01 1.892130000000000223e+01 6.802760000000000673e+01 2.196765000000000327e+03
2.600000000000000228e-02 1.644039999999999946e-01 1.829075000000000273e+01 6.673850000000000193e+01 2.196590000000000146e+03
2.700000000000000316e-02 1.643800000000000261e-01 1.770169999999999888e+01 6.557365000000000066e+01 2.196355000000000018e+03
2.800000000000000058e-02 1.643589999999999773e-01 1.718410000000000082e+01 6.474394999999999811e+01 2.196144999999999982e+03
2.900000000000000147e-02 1.643419999999999881e-01 1.670040000000000191e+01 6.421370000000000289e+01 2.195980000000000018e+03
3.000000000000000236e-02 1.643270000000000008e-01 1.617295000000000016e+01 6.375965000000000060e+01 2.195824999999999818e+03
3.099999999999999978e-02 1.643074999999999952e-01 1.552270000000000039e+01 6.309175000000000466e+01 2.195650000000000091e+03
3.200000000000000067e-02 1.642790000000000084e-01 1.470789999999999864e+01 6.198900000000000432e+01 2.195380000000000109e+03
3.300000000000000155e-02 1.642385000000000095e-01 1.374790000000000134e+01 6.040484999999999616e+01 2.194994999999999891e+03
3.400000000000000244e-02 1.641880000000000006e-01 1.272560000000000002e+01 5.850704999999999956e+01 2.194514999999999873e+03
3.500000000000000333e-02 1.641350000000000031e-01 1.176706000000000074e+01 5.663835000000000264e+01 2.193994999999999891e+03
3.600000000000000422e-02 1.640889999999999849e-01 1.100504499999999908e+01 5.521354999999999791e+01 2.193539999999999964e+03
3.700000000000000511e-02 1.640590000000000104e-01 1.054121500000000111e+01 5.459109999999999729e+01 2.193239999999999782e+03
3.799999999999999906e-02 1.640530000000000044e-01 1.041826499999999989e+01 5.496535000000000082e+01 2.193150000000000091e+03
3.899999999999999994e-02 1.640735000000000110e-01 1.061050000000000004e+01 5.631189999999999429e+01 2.193324999999999818e+03
4.000000000000000083e-02 1.641164999999999985e-01 1.103270000000000017e+01 5.839719999999999800e+01 2.193715000000000146e+03
4.100000000000000172e-02 1.641749999999999876e-01 1.156230000000000047e+01 6.084024999999999750e+01 2.194269999999999982e+03
4.200000000000000261e-02 1.642385000000000095e-01 1.206610000000000049e+01 6.320255000000000223e+01 2.194885000000000218e+03
4.300000000000000350e-02 1.642965000000000120e-01 1.242575000000000074e+01 6.507920000000000016e+01 2.195449999999999818e+03
4.400000000000000439e-02 1.643390000000000128e-01 1.255515000000000114e+01 6.616939999999999600e+01 2.195880000000000109e+03
4.499999999999999833e-02 1.643600000000000061e-01 1.240874999999999950e+01 6.631470000000000198e+01 2.196099999999999909e+03
4.599999999999999922e-02 1.643560000000000021e-01 1.198005000000000031e+01 6.550124999999999886e+01 2.196074999999999818e+03
4.700000000000000011e-02 1.643270000000000008e-01 1.129312000000000005e+01 6.383274999999999721e+01 2.195809999999999945e+03
4.800000000000000100e-02 1.642764999999999920e-01 1.039040999999999926e+01 6.148659999999999570e+01 2.195329999999999927e+03
4.900000000000000189e-02 1.642069999999999919e-01 9.321400000000000574e+00 5.866615000000000180e+01 2.194670000000000073e+03
5.000000000000000278e-02 1.641249999999999931e-01 8.133874999999999744e+00 5.556269999999999953e+01 2.193885000000000218e+03
5.100000000000000366e-02 1.640349999999999864e-01 6.869415000000000049e+00 5.233305000000000007e+01 2.193010000000000218e+03
5.200000000000000455e-02 1.639400000000000024e-01 5.563584999999999781e+00 4.909375000000000000e+01 2.192085000000000036e+03
5.300000000000000544e-02 1.638439999999999896e-01 4.248255000000000337e+00 4.592924999999999613e+01 2.191150000000000091e+03
5.399999999999999939e-02 1.637494999999999923e-01 2.955455500000000235e+00 4.290709999999999980e+01 2.190219999999999800e+03
5.500000000000000028e-02 1.636579999999999979e-01 1.720569999999999933e+00 4.009360000000000213e+01 2.189335000000000036e+03
5.600000000000000117e-02 1.635734999999999828e-01 5.838899999999999091e-01 3.756555000000000177e+01 2.188500000000000000e+03
5.700000000000000205e-02 1.634975000000000178e-01 -4.098050000000000859e-01 3.541474999999999795e+01 2.187750000000000000e+03
5.800000000000000294e-02 1.634339999999999959e-01 -1.213699000000000083e+00 3.374494999999999578e+01 2.187119999999999891e+03
5.900000000000000383e-02 1.633855000000000168e-01 -1.782718500000000095e+00 3.266254999999999598e+01 2.186635000000000218e+03
6.000000000000000472e-02 1.633554999999999868e-01 -2.077764999999999862e+00 3.226404999999999745e+01 2.186315000000000055e+03
6.099999999999999867e-02 1.633459999999999912e-01 -2.069675000000000153e+00 3.262369999999999948e+01 2.186204999999999927e+03
6.199999999999999956e-02 1.633594999999999908e-01 -1.742060999999999860e+00 3.378294999999999959e+01 2.186309999999999945e+03
6.300000000000000044e-02 1.633970000000000145e-01 -1.092797999999999936e+00 3.574504999999999910e+01 2.186639999999999873e+03
6.400000000000000133e-02 1.634579999999999922e-01 -1.340400000000001590e-01 3.847370000000000090e+01 2.187210000000000036e+03
6.500000000000000222e-02 1.635409999999999919e-01 1.108989999999999920e+00 4.189659999999999940e+01 2.188000000000000000e+03
6.600000000000000311e-02 1.636444999999999983e-01 2.600170499999999940e+00 4.591219999999999857e+01 2.188985000000000127e+03
6.700000000000000400e-02 1.637655000000000083e-01 4.295266499999999432e+00 5.039799999999999613e+01 2.190140000000000327e+03
6.800000000000000488e-02 1.638999999999999901e-01 6.145015000000000782e+00 5.522095000000000198e+01 2.191440000000000055e+03
6.900000000000000577e-02 1.640445000000000098e-01 8.098259999999999792e+00 6.024654999999999916e+01 2.192845000000000255e+03
7.000000000000000666e-02 1.641954999999999942e-01 1.010529499999999992e+01 6.534839999999999804e+01 2.194320000000000164e+03
7.100000000000000755e-02 1.643494999999999817e-01 1.212031499999999973e+01 7.041584999999999184e+01 2.195819999999999709e+03
7.200000000000000844e-02 1.645024999999999959e-01 1.410425000000000040e+01 7.536079999999999757e+01 2.197324999999999818e+03
7.300000000000000933e-02 1.646529999999999938e-01 1.602615000000000123e+01 8.012119999999998754e+01 2.198815000000000055e+03
7.399999999999999634e-02 1.647990000000000010e-01 1.786414999999999864e+01 8.466284999999999172e+01 2.200260000000000218e+03
7.499999999999999722e-02 1.649400000000000033e-01 1.960549999999999926e+01 8.897794999999999277e+01 2.201659999999999854e+03
7.599999999999999811e-02 1.650749999999999995e-01 2.124559999999999960e+01 9.308135000000000048e+01 2.203010000000000218e+03
7.699999999999999900e-02 1.652049999999999907e-01 2.278640000000000043e+01 9.700354999999998995e+01 2.204300000000000182e+03
7.799999999999999989e-02 1.653299999999999770e-01 2.423454999999999870e+01 1.007862000000000080e+02 2.205559999999999945e+03
7.900000000000000078e-02 1.654519999999999880e-01 2.559924999999999784e+01 1.044719000000000051e+02 2.206774999999999636e+03
8.000000000000000167e-02 1.655714999999999826e-01 2.689029999999999987e+01 1.080999999999999943e+02 2.207975000000000364e+03
8.100000000000000255e-02 1.656890000000000029e-01 2.811659999999999826e+01 1.117015000000000100e+02 2.209154999999999745e+03
8.200000000000000344e-02 1.658060000000000089e-01 2.928500000000000014e+01 1.152950000000000017e+02 2.210324999999999818e+03
8.300000000000000433e-02 1.659220000000000139e-01 3.039959999999999951e+01 1.188864999999999981e+02 2.211494999999999891e+03
8.400000000000000522e-02 1.660384999999999778e-01 3.146150000000000091e+01 1.224705000000000013e+02 2.212659999999999854e+03
8.500000000000000611e-02 1.661535000000000095e-01 3.246909999999999741e+01 1.260305000000000035e+02 2.213819999999999709e+03
8.600000000000000699e-02 1.662675000000000125e-01 3.341809999999999548e+01 1.295409999999999968e+02 2.214969999999999800e+03
8.700000000000000788e-02 1.663800000000000001e-01 3.430230000000000246e+01 1.329710000000000036e+02 2.216099999999999909e+03
8.800000000000000877e-02 1.664889999999999981e-01 3.511355000000000359e+01 1.362864999999999895e+02 2.217204999999999927e+03
8.899999999999999578e-02 1.665945000000000065e-01 3.584295000000000186e+01 1.394499999999999886e+02 2.218264999999999873e+03
8.999999999999999667e-02 1.666949999999999821e-01 3.648064999999999714e+01 1.424259999999999877e+02 2.219284999999999854e+03
9.099999999999999756e-02 1.667899999999999938e-01 3.701664999999999850e+01 1.451795000000000186e+02 2.220244999999999891e+03
9.199999999999999845e-02 1.668775000000000119e-01 3.744149999999999778e+01 1.476779999999999973e+02 2.221130000000000109e+03
9.299999999999999933e-02 1.669565000000000077e-01 3.774640000000000128e+01 1.498930000000000007e+02 2.221945000000000164e+03
9.400000000000000022e-02 1.670274999999999954e-01 3.792430000000000234e+01 1.518009999999999877e+02 2.222664999999999964e+03
9.500000000000000111e-02 1.670885000000000009e-01 3.797019999999999840e+01 1.533855000000000075e+02 2.223295000000000073e+03
9.600000000000000200e-02 1.671400000000000108e-01 3.788179999999999836e+01 1.546379999999999768e+02 2.223824999999999818e+03
9.700000000000000289e-02 1.671814999999999829e-01 3.765970000000000084e+01 1.555564999999999998e+02 2.224250000000000000e+03
9.800000000000000377e-02 1.672124999999999861e-01 3.730805000000000149e+01 1.561499999999999773e+02 2.224579999999999927e+03
9.900000000000000466e-02 1.672334999999999794e-01 3.683424999999999727e+01 1.564364999999999952e+02 2.224809999999999945e+03
1.000000000000000056e-01 1.672454999999999914e-01 3.624895000000000067e+01 1.564415000000000191e+02 2.224944999999999709e+03
1.010000000000000064e-01 1.672490000000000088e-01 3.556544999999999845e+01 1.561984999999999957e+02 2.224985000000000127e+03
1.020000000000000073e-01 1.672449999999999770e-01 3.479950000000000188e+01 1.557454999999999927e+02 2.224960000000000036e+03
1.030000000000000082e-01 1.672345000000000081e-01 3.396784999999999854e+01 1.551245000000000118e+02 2.224864999999999782e+03
1.040000000000000091e-01 1.672190000000000065e-01 3.308830000000000382e+01 1.543779999999999859e+02 2.224715000000000146e+03
1.050000000000000100e-01 1.671989999999999865e-01 3.217855000000000132e+01 1.535480000000000018e+02 2.224525000000000091e+03
1.059999999999999970e-01 1.671769999999999923e-01 3.125545000000000329e+01 1.526730000000000018e+02 2.224300000000000182e+03
1.069999999999999979e-01 1.671529999999999960e-01 3.033445000000000036e+01 1.517884999999999991e+02 2.224064999999999600e+03
1.079999999999999988e-01 1.671279999999999988e-01 2.942900000000000205e+01 1.509240000000000066e+02 2.223819999999999709e+03
1.089999999999999997e-01 1.671035000000000159e-01 2.855040000000000333e+01 1.501005000000000109e+02 2.223569999999999709e+03
1.100000000000000006e-01 1.670804999999999929e-01 2.770704999999999885e+01 1.493360000000000127e+02 2.223329999999999927e+03
1.110000000000000014e-01 1.670579999999999843e-01 2.690449999999999875e+01 1.486370000000000005e+02 2.223099999999999909e+03
1.120000000000000023e-01 1.670369999999999910e-01 2.614524999999999721e+01 1.480055000000000121e+02 2.222894999999999982e+03
1.130000000000000032e-01 1.670179999999999998e-01 2.542889999999999873e+01 1.474350000000000023e+02 2.222694999999999709e+03
1.140000000000000041e-01 1.670004999999999962e-01 2.475229999999999819e+01 1.469130000000000109e+02 2.222514999999999873e+03
1.150000000000000050e-01 1.669840000000000213e-01 2.410970000000000013e+01 1.464225000000000136e+02 2.222340000000000146e+03
1.160000000000000059e-01 1.669680000000000053e-01 2.349360000000000070e+01 1.459399999999999977e+02 2.222175000000000182e+03
1.170000000000000068e-01 1.669515000000000027e-01 2.289484999999999815e+01 1.454410000000000025e+02 2.222010000000000218e+03
1.180000000000000077e-01 1.669344999999999857e-01 2.230364999999999753e+01 1.449000000000000057e+02 2.221840000000000146e+03
1.190000000000000085e-01 1.669160000000000088e-01 2.171000000000000085e+01 1.442905000000000086e+02 2.221650000000000091e+03
1.200000000000000094e-01 1.668959999999999888e-01 2.110444999999999993e+01 1.435914999999999964e+02 2.221444999999999709e+03
1.209999999999999964e-01 1.668725000000000069e-01 2.047865000000000180e+01 1.427819999999999823e+02 2.221210000000000036e+03
1.219999999999999973e-01 1.668459999999999943e-01 1.982614999999999839e+01 1.418489999999999895e+02 2.220939999999999600e+03
1.229999999999999982e-01 1.668155000000000054e-01 1.914239999999999853e+01 1.407839999999999918e+02 2.220639999999999873e+03
1.239999999999999991e-01 1.667810000000000126e-01 1.842555000000000121e+01 1.395869999999999891e+02 2.220295000000000073e+03
1.250000000000000000e-01 1.667434999999999889e-01 1.767644999999999911e+01 1.382649999999999864e+02 2.219914999999999964e+03
1.260000000000000009e-01 1.667015000000000025e-01 1.689845000000000041e+01 1.368310000000000173e+02 2.219500000000000000e+03
1.270000000000000018e-01 1.666569999999999996e-01 1.609769999999999968e+01 1.353050000000000068e+02 2.219054999999999836e+03
1.280000000000000027e-01 1.666094999999999937e-01 1.528245000000000076e+01 1.337130000000000223e+02 2.218579999999999927e+03
1.290000000000000036e-01 1.665605000000000002e-01 1.446279999999999788e+01 1.320840000000000032e+02 2.218090000000000146e+03
1.300000000000000044e-01 1.665099999999999913e-01 1.365010000000000012e+01 1.304515000000000100e+02 2.217585000000000036e+03
1.310000000000000053e-01 1.664599999999999969e-01 1.285624999999999929e+01 1.288480000000000132e+02 2.217085000000000036e+03
1.320000000000000062e-01 1.664105000000000167e-01 1.209312500000000057e+01 1.273044999999999902e+02 2.216590000000000146e+03
1.330000000000000071e-01 1.663634999999999975e-01 1.137184500000000043e+01 1.258509999999999991e+02 2.216109999999999673e+03
1.340000000000000080e-01 1.663189999999999946e-01 1.070232500000000009e+01 1.245124999999999886e+02 2.215664999999999964e+03
1.350000000000000089e-01 1.662775000000000225e-01 1.009259499999999932e+01 1.233085000000000093e+02 2.215244999999999891e+03
1.360000000000000098e-01 1.662399999999999989e-01 9.548814999999999387e+00 1.222520000000000095e+02 2.214864999999999782e+03
1.370000000000000107e-01 1.662069999999999936e-01 9.074730000000000629e+00 1.213504999999999967e+02 2.214529999999999745e+03
1.380000000000000115e-01 1.661785000000000068e-01 8.671929999999999694e+00 1.206055000000000064e+02 2.214239999999999782e+03
1.390000000000000124e-01 1.661544999999999828e-01 8.339669999999999916e+00 1.200125000000000028e+02 2.213989999999999782e+03
1.400000000000000133e-01 1.661350000000000049e-01 8.075355000000000061e+00 1.195619999999999976e+02 2.213789999999999964e+03
1.410000000000000142e-01 1.661199999999999899e-01 7.874615000000000364e+00 1.192415000000000020e+02 2.213630000000000109e+03
1.420000000000000151e-01 1.661084999999999923e-01 7.731714999999999449e+00 1.190345000000000084e+02 2.213510000000000218e+03
1.430000000000000160e-01 1.661004999999999843e-01 7.639865000000000350e+00 1.189244999999999948e+02 2.213420000000000073e+03
1.440000000000000169e-01 1.660955000000000070e-01 7.591575000000000628e+00 1.188915000000000077e+02 2.213360000000000127e+03
1.450000000000000178e-01 1.660925000000000040e-01 7.578974999999999795e+00 1.189175000000000040e+02 2.213329999999999927e+03
1.459999999999999909e-01 1.660915000000000030e-01 7.594120000000000203e+00 1.189849999999999994e+02 2.213315000000000055e+03
1.469999999999999918e-01 1.660925000000000040e-01 7.629279999999999617e+00 1.190769999999999982e+02 2.213315000000000055e+03
1.479999999999999927e-01 1.660935000000000050e-01 7.677120000000000388e+00 1.191779999999999973e+02 2.213324999999999818e+03
1.489999999999999936e-01 1.660949999999999926e-01 7.730960000000000498e+00 1.192750000000000057e+02 2.213340000000000146e+03
1.499999999999999944e-01 1.660964999999999803e-01 7.784924999999999429e+00 1.193569999999999993e+02 2.213355000000000018e+03
1.509999999999999953e-01 1.660979999999999956e-01 7.834084999999999965e+00 1.194145000000000039e+02 2.213369999999999891e+03
1.519999999999999962e-01 1.660989999999999966e-01 7.874539999999999651e+00 1.194424999999999955e+02 2.213380000000000109e+03
1.529999999999999971e-01 1.660989999999999966e-01 7.903489999999999682e+00 1.194369999999999976e+02 2.213375000000000000e+03
1.539999999999999980e-01 1.660979999999999956e-01 7.919245000000000090e+00 1.193970000000000056e+02 2.213369999999999891e+03
1.549999999999999989e-01 1.660964999999999803e-01 7.921155000000000612e+00 1.193239999999999981e+02 2.213355000000000018e+03
1.559999999999999998e-01 1.660939999999999916e-01 7.909525000000000361e+00 1.192205000000000013e+02 2.213329999999999927e+03
1.570000000000000007e-01 1.660905000000000020e-01 7.885469999999999757e+00 1.190914999999999964e+02 2.213300000000000182e+03
1.580000000000000016e-01 1.660864999999999980e-01 7.850719999999999921e+00 1.189430000000000121e+02 2.213260000000000218e+03
1.590000000000000024e-01 1.660820000000000074e-01 7.807394999999999641e+00 1.187814999999999941e+02 2.213215000000000146e+03
