# t [s], A [cm^2], U [cm/s], P [cPa], c [cm/s]
1.000000000000000021e-03 1.254484999999999906e-01 4.416255000000000042e-01 9.350475000000000136e+01 2.014115000000000009e+03
2.000000000000000042e-03 1.254155000000000131e-01 2.055371500000000129e+00 8.993760000000000332e+01 2.013715000000000146e+03
3.000000000000000062e-03 1.253249999999999920e-01 3.978993000000000002e+00 8.529820000000000846e+01 2.012664999999999964e+03
4.000000000000000083e-03 1.252010000000000067e-01 6.112211000000000283e+00 8.054380000000000450e+01 2.011244999999999891e+03
5.000000000000000104e-03 1.250684999999999991e-01 8.373255000000000337e+00 7.649535000000000196e+01 2.009744999999999891e+03
6.000000000000000125e-03 1.249399999999999955e-01 1.056930000000000014e+01 7.326624999999999943e+01 2.008300000000000182e+03
7.000000000000000146e-03 1.248189999999999994e-01 1.250870499999999907e+01 7.050495000000000800e+01 2.006965000000000146e+03
8.000000000000000167e-03 1.247069999999999984e-01 1.415056500000000028e+01 6.801224999999999454e+01 2.005755000000000109e+03
9.000000000000001055e-03 1.246084999999999970e-01 1.554325000000000045e+01 6.586445000000000505e+01 2.004695000000000164e+03
1.000000000000000194e-02 1.245239999999999958e-01 1.671219999999999928e+01 6.410484999999999900e+01 2.003795000000000073e+03
1.099999999999999936e-02 1.244530000000000081e-01 1.766485000000000127e+01 6.267645000000000266e+01 2.003049999999999955e+03
1.200000000000000025e-02 1.243944999999999912e-01 1.841080000000000183e+01 6.150455000000000183e+01 2.002440000000000055e+03
1.300000000000000114e-02 1.243449999999999972e-01 1.895615000000000094e+01 6.049970000000000425e+01 2.001940000000000055e+03
1.400000000000000203e-02 1.243035000000000112e-01 1.932305000000000206e+01 5.958879999999999910e+01 2.001519999999999982e+03
1.499999999999999944e-02 1.242685000000000040e-01 1.958824999999999861e+01 5.883360000000000412e+01 2.001175000000000182e+03
1.600000000000000033e-02 1.242439999999999933e-01 1.988400000000000034e+01 5.849099999999999966e+01 2.000934999999999945e+03
1.700000000000000122e-02 1.242354999999999987e-01 2.034210000000000207e+01 5.889914999999999878e+01 2.000860000000000127e+03
1.800000000000000211e-02 1.242489999999999983e-01 2.102239999999999753e+01 6.025750000000000028e+01 2.001009999999999991e+03
1.900000000000000300e-02 1.242844999999999922e-01 2.187600000000000122e+01 6.246325000000000216e+01 2.001389999999999873e+03
2.000000000000000042e-02 1.243374999999999897e-01 2.276324999999999932e+01 6.510614999999999952e+01 2.001950000000000045e+03
2.100000000000000130e-02 1.243970000000000076e-01 2.350979999999999848e+01 6.761060000000000514e+01 2.002594999999999800e+03
2.200000000000000219e-02 1.244524999999999937e-01 2.397070000000000078e+01 6.944050000000000011e+01 2.003194999999999936e+03
2.299999999999999961e-02 1.244929999999999926e-01 2.407580000000000098e+01 7.027295000000000869e+01 2.003644999999999982e+03
2.400000000000000050e-02 1.245134999999999992e-01 2.384295000000000186e+01 7.007819999999999538e+01 2.003894999999999982e+03
2.500000000000000139e-02 1.245149999999999868e-01 2.335835000000000150e+01 6.908650000000000091e+01 2.003924999999999955e+03
2.600000000000000228e-02 1.245005000000000139e-01 2.273675000000000068e+01 6.767089999999998895e+01 2.003789999999999964e+03
2.700000000000000316e-02 1.244774999999999909e-01 2.207945000000000135e+01 6.620044999999998936e+01 2.003559999999999945e+03
2.800000000000000058e-02 1.244515000000000066e-01 2.144549999999999912e+01 6.492320000000000846e+01 2.003285000000000082e+03
2.900000000000000147e-02 1.244264999999999954e-01 2.084469999999999956e+01 6.391450000000000387e+01 2.003029999999999973e+03
3.000000000000000236e-02 1.244040000000000146e-01 2.024880000000000280e+01 6.309664999999999679e+01 2.002789999999999964e+03
3.099999999999999978e-02 1.243825000000000069e-01 1.961534999999999940e+01 6.230859999999999843e+01 2.002559999999999945e+03
3.200000000000000067e-02 1.243589999999999973e-01 1.891290000000000049e+01 6.139355000000000473e+01 2.002309999999999945e+03
3.300000000000000155e-02 1.243314999999999976e-01 1.814010000000000034e+01 6.027394999999999925e+01 2.002025000000000091e+03
3.400000000000000244e-02 1.243005000000000082e-01 1.733310000000000173e+01 5.899224999999999852e+01 2.001700000000000045e+03
3.500000000000000333e-02 1.242675000000000030e-01 1.655979999999999919e+01 5.770664999999999623e+01 2.001345000000000027e+03
3.600000000000000422e-02 1.242360000000000131e-01 1.590310000000000024e+01 5.664764999999999873e+01 2.001009999999999991e+03
3.700000000000000511e-02 1.242109999999999881e-01 1.543904999999999994e+01 5.604925000000000068e+01 2.000740000000000009e+03
3.799999999999999906e-02 1.241975000000000162e-01 1.521550000000000047e+01 5.607835000000000036e+01 2.000589999999999918e+03
3.899999999999999994e-02 1.241990000000000038e-01 1.523930000000000007e+01 5.678359999999999985e+01 2.000590000000000146e+03
4.000000000000000083e-02 1.242150000000000060e-01 1.547289999999999921e+01 5.807649999999999579e+01 2.000750000000000000e+03
4.100000000000000172e-02 1.242429999999999923e-01 1.584224999999999994e+01 5.974755000000000393e+01 2.001039999999999964e+03
4.200000000000000261e-02 1.242800000000000016e-01 1.625039999999999907e+01 6.150910000000000366e+01 2.001414999999999964e+03
4.300000000000000350e-02 1.243184999999999985e-01 1.659515000000000029e+01 6.305125000000000313e+01 2.001815000000000055e+03
4.400000000000000439e-02 1.243520000000000042e-01 1.678515000000000157e+01 6.409619999999999607e+01 2.002170000000000073e+03
4.499999999999999833e-02 1.243740000000000123e-01 1.675104999999999933e+01 6.443960000000001287e+01 2.002414999999999964e+03
4.599999999999999922e-02 1.243810000000000054e-01 1.645234999999999914e+01 6.397245000000000203e+01 2.002494999999999891e+03
4.700000000000000011e-02 1.243695000000000078e-01 1.587744999999999962e+01 6.268325000000000102e+01 2.002384999999999991e+03
4.800000000000000100e-02 1.243389999999999912e-01 1.503999999999999915e+01 6.064365000000000094e+01 2.002065000000000055e+03
4.900000000000000189e-02 1.242904999999999982e-01 1.397279999999999944e+01 5.798359999999999559e+01 2.001559999999999945e+03
5.000000000000000278e-02 1.242260000000000031e-01 1.272070500000000060e+01 5.486525000000000318e+01 2.000880000000000109e+03
5.100000000000000366e-02 1.241490000000000093e-01 1.133468000000000053e+01 5.145879999999999654e+01 2.000070000000000164e+03
5.200000000000000455e-02 1.240640000000000076e-01 9.867729999999999890e+00 4.792645000000000266e+01 1.999170000000000073e+03
5.300000000000000544e-02 1.239734999999999865e-01 8.372505000000000308e+00 4.441429999999999723e+01 1.998210000000000036e+03
5.399999999999999939e-02 1.238819999999999921e-01 6.900505000000000777e+00 4.105075000000000074e+01 1.997235000000000127e+03
5.500000000000000028e-02 1.237919999999999993e-01 5.502060000000000173e+00 3.795000000000000284e+01 1.996279999999999973e+03
5.600000000000000117e-02 1.237074999999999980e-01 4.226752499999999912e+00 3.521665000000000134e+01 1.995375000000000000e+03
5.700000000000000205e-02 1.236315000000000053e-01 3.123054999999999914e+00 3.294915000000000305e+01 1.994559999999999945e+03
5.800000000000000294e-02 1.235660000000000092e-01 2.237501500000000032e+00 3.124099999999999966e+01 1.993860000000000127e+03
5.900000000000000383e-02 1.235149999999999859e-01 1.613028499999999976e+00 3.017880000000000251e+01 1.993305000000000064e+03
6.000000000000000472e-02 1.234800000000000064e-01 1.286798499999999956e+00 2.983804999999999907e+01 1.992925000000000182e+03
6.099999999999999867e-02 1.234635000000000038e-01 1.287830500000000100e+00 3.027710000000000079e+01 1.992730000000000018e+03
6.199999999999999956e-02 1.234674999999999939e-01 1.634850000000000136e+00 3.153110000000000213e+01 1.992755000000000109e+03
6.300000000000000044e-02 1.234925000000000050e-01 2.334729999999999972e+00 3.360774999999999579e+01 1.993000000000000000e+03
6.400000000000000133e-02 1.235394999999999965e-01 3.381809999999999761e+00 3.648444999999999538e+01 1.993480000000000018e+03
6.500000000000000222e-02 1.236075000000000090e-01 4.758099999999999774e+00 4.010895000000000010e+01 1.994184999999999945e+03
6.600000000000000311e-02 1.236960000000000004e-01 6.434429999999999872e+00 4.440234999999999843e+01 1.995110000000000127e+03
6.700000000000000400e-02 1.238034999999999969e-01 8.372270000000000323e+00 4.926409999999999911e+01 1.996224999999999909e+03
6.800000000000000488e-02 1.239264999999999950e-01 1.052604499999999987e+01 5.457869999999999777e+01 1.997525000000000091e+03
6.900000000000000577e-02 1.240634999999999932e-01 1.284576000000000029e+01 6.022280000000000655e+01 1.998974999999999909e+03
7.000000000000000666e-02 1.242110000000000020e-01 1.527965000000000018e+01 6.607274999999999920e+01 2.000539999999999964e+03
7.100000000000000755e-02 1.243654999999999899e-01 1.777655000000000030e+01 7.201054999999999495e+01 2.002190000000000055e+03
7.200000000000000844e-02 1.245249999999999968e-01 2.028844999999999743e+01 7.793019999999999925e+01 2.003884999999999991e+03
7.300000000000000933e-02 1.246855000000000047e-01 2.277239999999999753e+01 8.374195000000000277e+01 2.005610000000000127e+03
7.399999999999999634e-02 1.248454999999999981e-01 2.519225000000000136e+01 8.937604999999999222e+01 2.007335000000000036e+03
7.499999999999999722e-02 1.250030000000000030e-01 2.751980000000000004e+01 9.478440000000000509e+01 2.009034999999999854e+03
7.599999999999999811e-02 1.251559999999999895e-01 2.973535000000000394e+01 9.994214999999999804e+01 2.010695000000000164e+03
7.699999999999999900e-02 1.253035000000000121e-01 3.182815000000000083e+01 1.048449999999999989e+02 2.012300000000000182e+03
7.799999999999999989e-02 1.254465000000000163e-01 3.379540000000000077e+01 1.095090000000000003e+02 2.013849999999999909e+03
7.900000000000000078e-02 1.255835000000000146e-01 3.564159999999999684e+01 1.139645000000000010e+02 2.015349999999999909e+03
8.000000000000000167e-02 1.257159999999999944e-01 3.737689999999999912e+01 1.182535000000000025e+02 2.016789999999999964e+03
8.100000000000000255e-02 1.258440000000000114e-01 3.901529999999999632e+01 1.224249999999999972e+02 2.018199999999999818e+03
8.200000000000000344e-02 1.259689999999999976e-01 4.057285000000000252e+01 1.265250000000000057e+02 2.019569999999999936e+03
8.300000000000000433e-02 1.260914999999999953e-01 4.206595000000000084e+01 1.305995000000000061e+02 2.020924999999999955e+03
8.400000000000000522e-02 1.262145000000000072e-01 4.350939999999999941e+01 1.346825000000000045e+02 2.022264999999999873e+03
8.500000000000000611e-02 1.263354999999999895e-01 4.491519999999999868e+01 1.387990000000000066e+02 2.023599999999999909e+03
8.600000000000000699e-02 1.264580000000000148e-01 4.629149999999999920e+01 1.429599999999999795e+02 2.024944999999999936e+03
8.700000000000000788e-02 1.265809999999999991e-01 4.764194999999999425e+01 1.471625000000000227e+02 2.026299999999999955e+03
8.800000000000000877e-02 1.267039999999999833e-01 4.896580000000000155e+01 1.513909999999999911e+02 2.027659999999999854e+03
8.899999999999999578e-02 1.268279999999999963e-01 5.025764999999999816e+01 1.556184999999999832e+02 2.029019999999999982e+03
8.999999999999999667e-02 1.269509999999999805e-01 5.150815000000000055e+01 1.598070000000000164e+02 2.030380000000000109e+03
9.099999999999999756e-02 1.270735000000000059e-01 5.270470000000000255e+01 1.639114999999999895e+02 2.031724999999999909e+03
9.199999999999999845e-02 1.271934999999999871e-01 5.383225000000000193e+01 1.678845000000000027e+02 2.033050000000000182e+03
9.299999999999999933e-02 1.273094999999999921e-01 5.487454999999999927e+01 1.716744999999999948e+02 2.034335000000000036e+03
9.400000000000000022e-02 1.274204999999999921e-01 5.581475000000000364e+01 1.752339999999999804e+02 2.035569999999999936e+03
9.500000000000000111e-02 1.275264999999999871e-01 5.663660000000000139e+01 1.785165000000000077e+02 2.036744999999999891e+03
9.600000000000000200e-02 1.276245000000000018e-01 5.732535000000000025e+01 1.814830000000000041e+02 2.037829999999999927e+03
9.700000000000000289e-02 1.277139999999999942e-01 5.786875000000000568e+01 1.841005000000000109e+02 2.038835000000000036e+03
9.800000000000000377e-02 1.277945000000000053e-01 5.825735000000000241e+01 1.863469999999999800e+02 2.039740000000000009e+03
9.900000000000000466e-02 1.278655000000000208e-01 5.848519999999999897e+01 1.882074999999999818e+02 2.040530000000000200e+03
1.000000000000000056e-01 1.279260000000000119e-01 5.855039999999999623e+01 1.896794999999999902e+02 2.041215000000000146e+03
1.010000000000000064e-01 1.279764999999999930e-01 5.845494999999999663e+01 1.907694999999999936e+02 2.041779999999999973e+03
1.020000000000000073e-01 1.280155000000000043e-01 5.820485000000000042e+01 1.914929999999999950e+02 2.042235000000000127e+03
1.030000000000000082e-01 1.280455000000000065e-01 5.781000000000000227e+01 1.918754999999999882e+02 2.042574999999999818e+03
1.040000000000000091e-01 1.280654999999999988e-01 5.728349999999999653e+01 1.919490000000000123e+02 2.042805000000000064e+03
1.050000000000000100e-01 1.280764999999999820e-01 5.664140000000000441e+01 1.917520000000000095e+02 2.042945000000000164e+03
1.059999999999999970e-01 1.280799999999999994e-01 5.590189999999999770e+01 1.913285000000000196e+02 2.042994999999999891e+03
1.069999999999999979e-01 1.280764999999999820e-01 5.508449999999999847e+01 1.907224999999999966e+02 2.042965000000000146e+03
1.079999999999999988e-01 1.280675000000000008e-01 5.420919999999999561e+01 1.899789999999999850e+02 2.042875000000000000e+03
1.089999999999999997e-01 1.280540000000000012e-01 5.329565000000000197e+01 1.891424999999999841e+02 2.042724999999999909e+03
1.100000000000000006e-01 1.280364999999999975e-01 5.236265000000000214e+01 1.882529999999999859e+02 2.042545000000000073e+03
1.110000000000000014e-01 1.280169999999999919e-01 5.142709999999999582e+01 1.873455000000000155e+02 2.042329999999999927e+03
1.120000000000000023e-01 1.279965000000000130e-01 5.050374999999999659e+01 1.864499999999999886e+02 2.042099999999999909e+03
1.130000000000000032e-01 1.279744999999999910e-01 4.960444999999999993e+01 1.855889999999999986e+02 2.041865000000000009e+03
1.140000000000000041e-01 1.279529999999999834e-01 4.873810000000000286e+01 1.847774999999999750e+02 2.041630000000000109e+03
1.150000000000000050e-01 1.279319999999999902e-01 4.791044999999999732e+01 1.840235000000000127e+02 2.041394999999999982e+03
1.160000000000000059e-01 1.279119999999999979e-01 4.712395000000000067e+01 1.833274999999999864e+02 2.041170000000000073e+03
1.170000000000000068e-01 1.278929999999999789e-01 4.637819999999999965e+01 1.826845000000000141e+02 2.040950000000000045e+03
1.180000000000000077e-01 1.278745000000000021e-01 4.566989999999999839e+01 1.820819999999999936e+02 2.040750000000000000e+03
1.190000000000000085e-01 1.278569999999999984e-01 4.499354999999999905e+01 1.815045000000000073e+02 2.040549999999999955e+03
1.200000000000000094e-01 1.278400000000000092e-01 4.434165000000000134e+01 1.809309999999999832e+02 2.040355000000000018e+03
1.209999999999999964e-01 1.278225000000000056e-01 4.370544999999999902e+01 1.803404999999999916e+02 2.040164999999999964e+03
1.219999999999999973e-01 1.278050000000000019e-01 4.307540000000000191e+01 1.797104999999999961e+02 2.039964999999999918e+03
1.229999999999999982e-01 1.277864999999999973e-01 4.244164999999999566e+01 1.790174999999999841e+02 2.039755000000000109e+03
1.239999999999999991e-01 1.277659999999999907e-01 4.179495000000000005e+01 1.782425000000000068e+02 2.039530000000000200e+03
1.250000000000000000e-01 1.277435000000000098e-01 4.112664999999999793e+01 1.773665000000000020e+02 2.039279999999999973e+03
1.260000000000000009e-01 1.277185000000000126e-01 4.042969999999999686e+01 1.763770000000000095e+02 2.039005000000000109e+03
1.270000000000000018e-01 1.276909999999999989e-01 3.969859999999999900e+01 1.752640000000000100e+02 2.038695000000000164e+03
1.280000000000000027e-01 1.276599999999999957e-01 3.892995000000000516e+01 1.740244999999999891e+02 2.038355000000000018e+03
1.290000000000000036e-01 1.276255000000000028e-01 3.812250000000000227e+01 1.726589999999999918e+02 2.037974999999999909e+03
1.300000000000000044e-01 1.275879999999999792e-01 3.727740000000000009e+01 1.711759999999999877e+02 2.037559999999999945e+03
1.310000000000000053e-01 1.275469999999999937e-01 3.639794999999999447e+01 1.695855000000000246e+02 2.037115000000000009e+03
1.320000000000000062e-01 1.275034999999999918e-01 3.548964999999999748e+01 1.679064999999999941e+02 2.036634999999999991e+03
1.330000000000000071e-01 1.274575000000000014e-01 3.455984999999999729e+01 1.661589999999999918e+02 2.036125000000000000e+03
1.340000000000000080e-01 1.274095000000000089e-01 3.361755000000000138e+01 1.643670000000000186e+02 2.035595000000000027e+03
1.350000000000000089e-01 1.273600000000000010e-01 3.267289999999999850e+01 1.625575000000000045e+02 2.035050000000000182e+03
1.360000000000000098e-01 1.273100000000000065e-01 3.173679999999999879e+01 1.607580000000000098e+02 2.034505000000000109e+03
1.370000000000000107e-01 1.272600000000000120e-01 3.082029999999999603e+01 1.589954999999999927e+02 2.033950000000000045e+03
1.380000000000000115e-01 1.272099999999999898e-01 2.993440000000000367e+01 1.572969999999999970e+02 2.033404999999999973e+03
1.390000000000000124e-01 1.271619999999999973e-01 2.908919999999999817e+01 1.556860000000000070e+02 2.032869999999999891e+03
1.400000000000000133e-01 1.271160000000000068e-01 2.829390000000000072e+01 1.541825000000000045e+02 2.032365000000000009e+03
1.410000000000000142e-01 1.270725000000000049e-01 2.755615000000000236e+01 1.528040000000000020e+02 2.031884999999999991e+03
1.420000000000000151e-01 1.270324999999999926e-01 2.688190000000000168e+01 1.515629999999999882e+02 2.031430000000000064e+03
1.430000000000000160e-01 1.269949999999999968e-01 2.627510000000000190e+01 1.504660000000000082e+02 2.031019999999999982e+03
1.440000000000000169e-01 1.269615000000000049e-01 2.573780000000000001e+01 1.495169999999999959e+02 2.030650000000000091e+03
1.450000000000000178e-01 1.269319999999999893e-01 2.527009999999999934e+01 1.487124999999999773e+02 2.030320000000000164e+03
1.459999999999999909e-01 1.269059999999999910e-01 2.487020000000000053e+01 1.480480000000000018e+02 2.030029999999999973e+03
1.469999999999999918e-01 1.268839999999999968e-01 2.453450000000000131e+01 1.475120000000000005e+02 2.029779999999999973e+03
1.479999999999999927e-01 1.268654999999999922e-01 2.425815000000000055e+01 1.470925000000000011e+02 2.029570000000000164e+03
1.489999999999999936e-01 1.268500000000000183e-01 2.403495000000000203e+01 1.467740000000000009e+02 2.029394999999999982e+03
1.499999999999999944e-01 1.268374999999999919e-01 2.385795000000000243e+01 1.465405000000000086e+02 2.029250000000000000e+03
1.509999999999999953e-01 1.268274999999999819e-01 2.371959999999999980e+01 1.463745000000000118e+02 2.029139999999999873e+03
1.519999999999999962e-01 1.268195000000000017e-01 2.361220000000000141e+01 1.462584999999999980e+02 2.029050000000000182e+03
1.529999999999999971e-01 1.268130000000000090e-01 2.352815000000000012e+01 1.461769999999999925e+02 2.028974999999999909e+03
1.539999999999999980e-01 1.268084999999999907e-01 2.346014999999999873e+01 1.461139999999999759e+02 2.028920000000000073e+03
1.549999999999999989e-01 1.268044999999999867e-01 2.340149999999999864e+01 1.460569999999999879e+02 2.028869999999999891e+03
1.559999999999999998e-01 1.268004999999999827e-01 2.334635000000000105e+01 1.459950000000000045e+02 2.028829999999999927e+03
1.570000000000000007e-01 1.267969999999999930e-01 2.328985000000000127e+01 1.459184999999999945e+02 2.028789999999999964e+03
1.580000000000000016e-01 1.267940000000000178e-01 2.322800000000000153e+01 1.458220000000000027e+02 2.028744999999999891e+03
1.590000000000000024e-01 1.267900000000000138e-01 2.315800000000000125e+01 1.457015000000000100e+02 2.028704999999999927e+03
