# t [s], A [cm^2], U [cm/s], P [cPa], c [cm/s]
1.000000000000000021e-03 7.492655000000000287e-01 4.679950000000002164e-03 1.036280000000000001e+02 1.591360000000000127e+03
2.000000000000000042e-03 7.492539999999999756e-01 -1.389014550000000018e-03 1.036045000000000016e+02 1.591349999999999909e+03
3.000000000000000062e-03 7.493090000000000028e-01 7.669634999999999647e-02 1.036875000000000000e+02 1.591369999999999891e+03
4.000000000000000083e-03 7.493695000000000217e-01 1.685616000000000059e-01 1.038054999999999950e+02 1.591400000000000091e+03
5.000000000000000104e-03 7.493555000000000632e-01 1.633225000000000093e-01 1.037880000000000109e+02 1.591404999999999973e+03
6.000000000000000125e-03 7.492909999999999293e-01 8.335350000000002479e-02 1.036219999999999999e+02 1.591365000000000009e+03
7.000000000000000146e-03 7.492324999999999680e-01 5.400999999999989143e-03 1.033960000000000008e+02 1.591315000000000055e+03
8.000000000000000167e-03 7.491535000000000277e-01 -1.098765000000000436e-01 1.030809999999999889e+02 1.591250000000000000e+03
9.000000000000001055e-03 7.490159999999999041e-01 -3.248250000000000304e-01 1.025909999999999940e+02 1.591144999999999982e+03
1.000000000000000194e-02 7.488099999999999756e-01 -6.530199999999999338e-01 1.018780000000000001e+02 1.590985000000000127e+03
1.099999999999999936e-02 7.485204999999999220e-01 -1.108210000000000139e+00 1.008893500000000074e+02 1.590765000000000100e+03
1.200000000000000025e-02 7.481314999999999493e-01 -1.701029999999999820e+00 9.957224999999999682e+01 1.590470000000000027e+03
1.300000000000000114e-02 7.476585000000000036e-01 -2.389185000000000336e+00 9.793905000000000882e+01 1.590095000000000027e+03
1.400000000000000203e-02 7.471570000000000711e-01 -3.066415000000000113e+00 9.609895000000000209e+01 1.589654999999999973e+03
1.499999999999999944e-02 7.466900000000000759e-01 -3.606605000000000061e+00 9.421905000000000996e+01 1.589190000000000055e+03
1.600000000000000033e-02 7.462984999999999758e-01 -3.918115999999999488e+00 9.245195000000001073e+01 1.588740000000000009e+03
1.700000000000000122e-02 7.459894999999999721e-01 -3.970995499999999900e+00 9.088389999999999702e+01 1.588309999999999945e+03
1.800000000000000211e-02 7.457374999999999421e-01 -3.792776499999999995e+00 8.951935000000000286e+01 1.587920000000000073e+03
1.900000000000000300e-02 7.455050000000000843e-01 -3.445978999999999903e+00 8.829939999999999145e+01 1.587549999999999955e+03
2.000000000000000042e-02 7.452540000000000830e-01 -3.000863600000000186e+00 8.713434999999999775e+01 1.587195000000000164e+03
2.100000000000000130e-02 7.449589999999999268e-01 -2.512398000000000131e+00 8.593930000000000291e+01 1.586829999999999927e+03
2.200000000000000219e-02 7.446150000000000269e-01 -2.007214999999999971e+00 8.466120000000000800e+01 1.586449999999999818e+03
2.299999999999999961e-02 7.442324999999999635e-01 -1.483160000000000034e+00 8.329015000000001123e+01 1.586049999999999955e+03
2.400000000000000050e-02 7.438305000000000611e-01 -9.204449999999999577e-01 8.185255000000000791e+01 1.585630000000000109e+03
2.500000000000000139e-02 7.434285000000000476e-01 -2.985449999999998383e-01 8.039140000000000441e+01 1.585204999999999927e+03
2.600000000000000228e-02 7.430369999999999475e-01 3.882850000000002133e-01 7.894245000000000800e+01 1.584779999999999973e+03
2.700000000000000316e-02 7.426524999999999377e-01 1.122290000000000010e+00 7.751634999999998854e+01 1.584355000000000018e+03
2.800000000000000058e-02 7.422600000000000309e-01 1.861964999999999870e+00 7.609039999999998827e+01 1.583934999999999945e+03
2.900000000000000147e-02 7.418354999999999810e-01 2.549124999999999641e+00 7.461220000000000141e+01 1.583494999999999891e+03
3.000000000000000236e-02 7.413540000000000685e-01 3.120659999999999989e+00 7.301140000000000896e+01 1.583034999999999854e+03
3.099999999999999978e-02 7.407949999999999813e-01 3.521915000000000351e+00 7.121824999999999761e+01 1.582534999999999854e+03
3.200000000000000067e-02 7.401495000000000157e-01 3.718459999999999432e+00 6.918260000000000787e+01 1.581980000000000018e+03
3.300000000000000155e-02 7.394214999999999538e-01 3.703395000000000437e+00 6.688900000000001000e+01 1.581369999999999891e+03
3.400000000000000244e-02 7.386314999999999964e-01 3.498414999999999608e+00 6.436475000000000080e+01 1.580715000000000146e+03
3.500000000000000333e-02 7.378080000000000194e-01 3.148505000000000109e+00 6.167739999999999867e+01 1.580010000000000218e+03
3.600000000000000422e-02 7.369870000000000587e-01 2.712505000000000166e+00 5.892510000000000048e+01 1.579289999999999964e+03
3.700000000000000511e-02 7.362020000000000231e-01 2.252599999999999714e+00 5.622135000000000105e+01 1.578570000000000164e+03
3.799999999999999906e-02 7.354859999999999731e-01 1.825260000000000105e+00 5.367960000000000065e+01 1.577884999999999991e+03
3.899999999999999994e-02 7.348604999999999166e-01 1.475474999999999426e+00 5.140054999999999552e+01 1.577264999999999873e+03
4.000000000000000083e-02 7.343420000000000503e-01 1.234680000000000000e+00 4.946375000000000455e+01 1.576710000000000036e+03
4.100000000000000172e-02 7.339394999999999669e-01 1.121560000000000112e+00 4.792450000000000188e+01 1.576255000000000109e+03
4.200000000000000261e-02 7.336549999999999461e-01 1.145054999999999712e+00 4.681430000000000291e+01 1.575900000000000091e+03
4.300000000000000350e-02 7.334884999999999877e-01 1.308124999999999982e+00 4.614555000000000007e+01 1.575659999999999854e+03
4.400000000000000439e-02 7.334374999999999645e-01 1.611303500000000000e+00 4.591635000000000133e+01 1.575529999999999973e+03
4.499999999999999833e-02 7.334990000000000121e-01 2.055234999999999701e+00 4.611655000000000371e+01 1.575509999999999991e+03
4.599999999999999922e-02 7.336694999999999744e-01 2.641750000000000043e+00 4.673160000000000025e+01 1.575605000000000018e+03
4.700000000000000011e-02 7.339470000000000161e-01 3.373382499999999951e+00 4.774509999999999366e+01 1.575805000000000064e+03
4.800000000000000100e-02 7.343275000000000219e-01 4.251898000000000621e+00 4.913915000000000077e+01 1.576110000000000127e+03
4.900000000000000189e-02 7.348060000000000702e-01 5.276242500000000391e+00 5.089300000000000068e+01 1.576514999999999873e+03
5.000000000000000278e-02 7.353764999999999885e-01 6.440772500000000456e+00 5.298165000000000191e+01 1.577009999999999991e+03
5.100000000000000366e-02 7.360295000000000032e-01 7.734109999999999374e+00 5.537395000000000067e+01 1.577585000000000036e+03
5.200000000000000455e-02 7.367524999999999213e-01 9.138925000000000409e+00 5.803184999999999860e+01 1.578244999999999891e+03
5.300000000000000544e-02 7.375319999999999654e-01 1.063278000000000034e+01 6.091089999999999804e+01 1.578964999999999918e+03
5.399999999999999939e-02 7.383545000000000247e-01 1.218954500000000074e+01 6.396160000000000423e+01 1.579740000000000009e+03
5.500000000000000028e-02 7.392035000000000133e-01 1.378141500000000086e+01 6.713190000000000168e+01 1.580559999999999945e+03
5.600000000000000117e-02 7.400655000000000427e-01 1.538072499999999998e+01 7.036984999999999957e+01 1.581400000000000091e+03
5.700000000000000205e-02 7.409280000000000310e-01 1.696204000000000178e+01 7.362685000000000457e+01 1.582264999999999873e+03
5.800000000000000294e-02 7.417799999999999949e-01 1.850339999999999918e+01 7.686025000000000773e+01 1.583125000000000000e+03
5.900000000000000383e-02 7.426129999999999676e-01 1.998724999999999952e+01 8.003509999999999991e+01 1.583985000000000127e+03
6.000000000000000472e-02 7.434235000000000149e-01 2.140094999999999814e+01 8.312569999999999482e+01 1.584829999999999927e+03
6.099999999999999867e-02 7.442075000000000218e-01 2.273624999999999829e+01 8.611549999999999727e+01 1.585654999999999973e+03
6.199999999999999956e-02 7.449654999999999472e-01 2.398930000000000007e+01 8.899719999999999231e+01 1.586460000000000036e+03
6.300000000000000044e-02 7.456979999999999720e-01 2.515964999999999918e+01 9.177015000000000100e+01 1.587239999999999782e+03
6.400000000000000133e-02 7.464075000000000015e-01 2.624965000000000259e+01 9.444200000000000728e+01 1.587994999999999891e+03
6.500000000000000222e-02 7.470980000000000398e-01 2.726335000000000264e+01 9.702379999999999427e+01 1.588735000000000127e+03
6.600000000000000311e-02 7.477730000000000210e-01 2.820599999999999952e+01 9.952864999999999895e+01 1.589449999999999818e+03
6.700000000000000400e-02 7.484370000000000189e-01 2.908310000000000173e+01 1.019720499999999959e+02 1.590150000000000091e+03
6.800000000000000488e-02 7.490915000000000212e-01 2.989995000000000047e+01 1.043673500000000018e+02 1.590835000000000036e+03
6.900000000000000577e-02 7.497409999999999908e-01 3.066100000000000136e+01 1.067270000000000039e+02 1.591509999999999991e+03
7.000000000000000666e-02 7.503859999999999975e-01 3.136935000000000073e+01 1.090589999999999975e+02 1.592179999999999836e+03
7.100000000000000755e-02 7.510259999999999714e-01 3.202669999999999817e+01 1.113675000000000068e+02 1.592839999999999918e+03
7.200000000000000844e-02 7.516609999999999125e-01 3.263304999999999723e+01 1.136525000000000034e+02 1.593494999999999891e+03
7.300000000000000933e-02 7.522885000000000266e-01 3.318675000000000352e+01 1.159074999999999989e+02 1.594139999999999873e+03
7.399999999999999634e-02 7.529049999999999354e-01 3.368479999999999563e+01 1.181245000000000118e+02 1.594775000000000091e+03
7.499999999999999722e-02 7.535064999999999680e-01 3.412300000000000466e+01 1.202895000000000039e+02 1.595400000000000091e+03
7.599999999999999811e-02 7.540884999999999394e-01 3.449654999999999916e+01 1.223865000000000123e+02 1.596005000000000109e+03
7.699999999999999900e-02 7.546455000000000801e-01 3.480039999999999623e+01 1.243990000000000009e+02 1.596589999999999918e+03
7.799999999999999989e-02 7.551734999999999420e-01 3.502955000000000041e+01 1.263079999999999927e+02 1.597150000000000091e+03
7.900000000000000078e-02 7.556669999999999776e-01 3.517960000000000065e+01 1.280960000000000036e+02 1.597679999999999836e+03
8.000000000000000167e-02 7.561234999999999484e-01 3.524699999999999989e+01 1.297479999999999905e+02 1.598170000000000073e+03
8.100000000000000255e-02 7.565375000000000849e-01 3.522925000000000040e+01 1.312504999999999882e+02 1.598625000000000000e+03
8.200000000000000344e-02 7.569084999999999841e-01 3.512514999999999787e+01 1.325919999999999845e+02 1.599034999999999854e+03
8.300000000000000433e-02 7.572339999999999627e-01 3.493460000000000321e+01 1.337655000000000030e+02 1.599404999999999973e+03
8.400000000000000522e-02 7.575125000000000330e-01 3.465905000000000058e+01 1.347665000000000077e+02 1.599724999999999909e+03
8.500000000000000611e-02 7.577460000000000306e-01 3.430124999999999602e+01 1.355939999999999941e+02 1.600000000000000000e+03
8.600000000000000699e-02 7.579329999999999679e-01 3.386540000000000106e+01 1.362515000000000214e+02 1.600230000000000018e+03
8.700000000000000788e-02 7.580770000000000008e-01 3.335674999999999812e+01 1.367439999999999998e+02 1.600409999999999854e+03
8.800000000000000877e-02 7.581795000000000062e-01 3.278209999999999980e+01 1.370805000000000007e+02 1.600545000000000073e+03
8.899999999999999578e-02 7.582439999999999181e-01 3.214910000000000423e+01 1.372725000000000080e+02 1.600644999999999982e+03
8.999999999999999667e-02 7.582750000000000323e-01 3.146634999999999849e+01 1.373340000000000032e+02 1.600704999999999927e+03
9.099999999999999756e-02 7.582754999999999912e-01 3.074324999999999619e+01 1.372805000000000177e+02 1.600724999999999909e+03
9.199999999999999845e-02 7.582514999999999672e-01 2.998969999999999914e+01 1.371279999999999859e+02 1.600715000000000146e+03
9.299999999999999933e-02 7.582059999999999356e-01 2.921545000000000059e+01 1.368944999999999936e+02 1.600684999999999945e+03
9.400000000000000022e-02 7.581439999999999291e-01 2.843050000000000210e+01 1.365980000000000132e+02 1.600630000000000109e+03
9.500000000000000111e-02 7.580715000000000092e-01 2.764409999999999812e+01 1.362549999999999955e+02 1.600559999999999945e+03
9.600000000000000200e-02 7.579905000000000115e-01 2.686459999999999937e+01 1.358815000000000168e+02 1.600470000000000027e+03
9.700000000000000289e-02 7.579050000000000509e-01 2.609935000000000116e+01 1.354920000000000186e+02 1.600380000000000109e+03
9.800000000000000377e-02 7.578184999999999505e-01 2.535414999999999708e+01 1.350980000000000132e+02 1.600279999999999973e+03
9.900000000000000466e-02 7.577324999999999200e-01 2.463335000000000008e+01 1.347085000000000150e+02 1.600179999999999836e+03
1.000000000000000056e-01 7.576490000000000169e-01 2.393950000000000244e+01 1.343300000000000125e+02 1.600079999999999927e+03
1.010000000000000064e-01 7.575669999999999904e-01 2.327355000000000018e+01 1.339660000000000082e+02 1.599980000000000018e+03
1.020000000000000073e-01 7.574874999999999803e-01 2.263475000000000037e+01 1.336159999999999854e+02 1.599880000000000109e+03
1.030000000000000082e-01 7.574095000000000688e-01 2.202100000000000080e+01 1.332780000000000200e+02 1.599789999999999964e+03
1.040000000000000091e-01 7.573300000000000587e-01 2.142904999999999660e+01 1.329470000000000027e+02 1.599690000000000055e+03
1.050000000000000100e-01 7.572489999999999499e-01 2.085454999999999970e+01 1.326170000000000186e+02 1.599595000000000027e+03
1.059999999999999970e-01 7.571634999999999893e-01 2.029265000000000185e+01 1.322794999999999845e+02 1.599500000000000000e+03
1.069999999999999979e-01 7.570704999999999796e-01 1.973805000000000121e+01 1.319270000000000209e+02 1.599394999999999982e+03
1.079999999999999988e-01 7.569690000000000030e-01 1.918554999999999922e+01 1.315494999999999948e+02 1.599289999999999964e+03
1.089999999999999997e-01 7.568559999999999732e-01 1.863020000000000209e+01 1.311390000000000100e+02 1.599180000000000064e+03
1.100000000000000006e-01 7.567304999999999726e-01 1.806730000000000302e+01 1.306895000000000095e+02 1.599054999999999836e+03
1.110000000000000014e-01 7.565910000000000135e-01 1.749314999999999998e+01 1.301940000000000168e+02 1.598914999999999964e+03
1.120000000000000023e-01 7.564374999999999849e-01 1.690484999999999971e+01 1.296485000000000127e+02 1.598769999999999982e+03
1.130000000000000032e-01 7.562679999999999403e-01 1.630055000000000121e+01 1.290500000000000114e+02 1.598610000000000127e+03
1.140000000000000041e-01 7.560845000000000482e-01 1.567945000000000100e+01 1.284000000000000057e+02 1.598434999999999945e+03
1.150000000000000050e-01 7.558864999999999057e-01 1.504214999999999947e+01 1.276995000000000005e+02 1.598244999999999891e+03
1.160000000000000059e-01 7.556770000000000431e-01 1.439023500000000055e+01 1.269534999999999911e+02 1.598049999999999955e+03
1.170000000000000068e-01 7.554575000000000040e-01 1.372664500000000132e+01 1.261679999999999922e+02 1.597839999999999918e+03
1.180000000000000077e-01 7.552304999999999158e-01 1.305516000000000076e+01 1.253520000000000039e+02 1.597625000000000000e+03
1.190000000000000085e-01 7.549989999999999757e-01 1.238069500000000112e+01 1.245155000000000030e+02 1.597394999999999982e+03
1.200000000000000094e-01 7.547660000000000480e-01 1.170867499999999950e+01 1.236689999999999969e+02 1.597164999999999964e+03
1.209999999999999964e-01 7.545349999999999557e-01 1.104524499999999954e+01 1.228255000000000052e+02 1.596934999999999945e+03
1.219999999999999973e-01 7.543104999999999949e-01 1.039672000000000018e+01 1.219975000000000023e+02 1.596710000000000036e+03
1.229999999999999982e-01 7.540940000000000420e-01 9.769434999999999647e+00 1.211965000000000003e+02 1.596485000000000127e+03
1.239999999999999991e-01 7.538905000000000189e-01 9.169565000000000410e+00 1.204355000000000047e+02 1.596269999999999982e+03
1.250000000000000000e-01 7.537015000000000242e-01 8.602739999999998943e+00 1.197249999999999943e+02 1.596070000000000164e+03
1.260000000000000009e-01 7.535304999999999920e-01 8.074025000000000674e+00 1.190745000000000005e+02 1.595880000000000109e+03
1.270000000000000018e-01 7.533779999999999921e-01 7.587580000000000879e+00 1.184920000000000044e+02 1.595710000000000036e+03
1.280000000000000027e-01 7.532464999999999300e-01 7.146410000000000373e+00 1.179824999999999875e+02 1.595555000000000064e+03
1.290000000000000036e-01 7.531354999999999578e-01 6.752584999999999837e+00 1.175504999999999995e+02 1.595425000000000182e+03
1.300000000000000044e-01 7.530464999999999520e-01 6.406920000000000393e+00 1.171970000000000027e+02 1.595309999999999945e+03
1.310000000000000053e-01 7.529774999999999663e-01 6.109104999999999563e+00 1.169205000000000041e+02 1.595215000000000146e+03
1.320000000000000062e-01 7.529280000000000417e-01 5.857720000000000482e+00 1.167180000000000035e+02 1.595139999999999873e+03
1.330000000000000071e-01 7.528970000000000384e-01 5.650369999999999671e+00 1.165850000000000080e+02 1.595089999999999918e+03
1.340000000000000080e-01 7.528814999999999813e-01 5.483830000000000204e+00 1.165140000000000100e+02 1.595055000000000064e+03
1.350000000000000089e-01 7.528799999999999937e-01 5.354174999999999685e+00 1.164980000000000047e+02 1.595029999999999973e+03
1.360000000000000098e-01 7.528894999999999893e-01 5.257019999999999804e+00 1.165275000000000034e+02 1.595019999999999982e+03
1.370000000000000107e-01 7.529075000000000628e-01 5.187669999999999781e+00 1.165935000000000059e+02 1.595025000000000091e+03
1.380000000000000115e-01 7.529325000000000045e-01 5.141325000000000145e+00 1.166869999999999976e+02 1.595039999999999964e+03
1.390000000000000124e-01 7.529609999999999914e-01 5.113240000000000229e+00 1.167990000000000066e+02 1.595054999999999836e+03
1.400000000000000133e-01 7.529919999999999947e-01 5.098864999999999981e+00 1.169209999999999923e+02 1.595074999999999818e+03
1.410000000000000142e-01 7.530225000000000390e-01 5.093970000000000553e+00 1.170455000000000041e+02 1.595099999999999909e+03
1.420000000000000151e-01 7.530509999999999149e-01 5.094749999999999446e+00 1.171659999999999968e+02 1.595130000000000109e+03
1.430000000000000160e-01 7.530769999999999964e-01 5.097860000000000724e+00 1.172770000000000010e+02 1.595154999999999973e+03
1.440000000000000169e-01 7.530989999999999629e-01 5.100479999999999237e+00 1.173744999999999976e+02 1.595179999999999836e+03
1.450000000000000178e-01 7.531170000000000364e-01 5.100319999999999965e+00 1.174555000000000007e+02 1.595200000000000045e+03
1.459999999999999909e-01 7.531295000000000073e-01 5.095629999999999882e+00 1.175174999999999983e+02 1.595215000000000146e+03
1.469999999999999918e-01 7.531375000000000153e-01 5.085155000000000314e+00 1.175604999999999905e+02 1.595230000000000018e+03
1.479999999999999927e-01 7.531404999999999905e-01 5.068130000000000024e+00 1.175840000000000032e+02 1.595235000000000127e+03
1.489999999999999936e-01 7.531384999999999330e-01 5.044220000000000148e+00 1.175889999999999986e+02 1.595240000000000009e+03
1.499999999999999944e-01 7.531324999999999825e-01 5.013494999999999813e+00 1.175765000000000100e+02 1.595240000000000009e+03
1.509999999999999953e-01 7.531224999999999170e-01 4.976354999999999862e+00 1.175490000000000066e+02 1.595235000000000127e+03
1.519999999999999962e-01 7.531099999999999461e-01 4.933464999999999989e+00 1.175084999999999980e+02 1.595224999999999909e+03
1.529999999999999971e-01 7.530954999999999178e-01 4.885715000000000252e+00 1.174569999999999936e+02 1.595214999999999918e+03
1.539999999999999980e-01 7.530784999999999840e-01 4.834139999999999660e+00 1.173975000000000080e+02 1.595199999999999818e+03
1.549999999999999989e-01 7.530609999999999804e-01 4.779860000000000220e+00 1.173335000000000008e+02 1.595184999999999945e+03
1.559999999999999998e-01 7.530429999999999069e-01 4.724009999999999820e+00 1.172655000000000030e+02 1.595170000000000073e+03
1.570000000000000007e-01 7.530250000000000554e-01 4.667699999999999960e+00 1.171970000000000027e+02 1.595150000000000091e+03
1.580000000000000016e-01 7.530080000000000107e-01 4.611939999999999706e+00 1.171285000000000025e+02 1.595134999999999991e+03
1.590000000000000024e-01 7.529915000000000358e-01 4.557610000000000383e+00 1.170629999999999882e+02 1.595119999999999891e+03
