# t [s], A [cm^2], U [cm/s], P [cPa], c [cm/s]
1.000000000000000021e-03 1.219280000000000086e-01 2.803444999999999965e-01 9.214289999999999736e+01 1.807019999999999982e+03
2.000000000000000042e-03 1.219120000000000065e-01 1.662460500000000119e+00 8.942255000000000109e+01 1.806799999999999955e+03
3.000000000000000062e-03 1.218440000000000079e-01 3.347358499999999903e+00 8.595244999999999891e+01 1.805934999999999945e+03
4.000000000000000083e-03 1.217395000000000005e-01 5.206221500000000724e+00 8.209184999999999377e+01 1.804625000000000000e+03
5.000000000000000104e-03 1.216155000000000014e-01 7.194810000000000372e+00 7.843379999999999086e+01 1.803089999999999918e+03
6.000000000000000125e-03 1.214874999999999983e-01 9.230354999999999421e+00 7.530485000000000184e+01 1.801510000000000218e+03
7.000000000000000146e-03 1.213619999999999977e-01 1.118566500000000019e+01 7.269835000000000491e+01 1.799985000000000127e+03
8.000000000000000167e-03 1.212425000000000030e-01 1.295362499999999883e+01 7.043945000000000789e+01 1.798539999999999964e+03
9.000000000000001055e-03 1.211305000000000021e-01 1.450169500000000156e+01 6.841750000000000398e+01 1.797215000000000146e+03
1.000000000000000194e-02 1.210279999999999967e-01 1.584844999999999970e+01 6.664310000000000400e+01 1.796019999999999982e+03
1.099999999999999936e-02 1.209380000000000038e-01 1.701299999999999812e+01 6.514385000000000048e+01 1.794974999999999909e+03
1.200000000000000025e-02 1.208594999999999947e-01 1.800309999999999988e+01 6.390415000000000134e+01 1.794075000000000045e+03
1.300000000000000114e-02 1.207930000000000115e-01 1.882359999999999900e+01 6.288289999999999935e+01 1.793315000000000055e+03
1.400000000000000203e-02 1.207364999999999966e-01 1.947834999999999894e+01 6.202949999999999875e+01 1.792679999999999836e+03
1.499999999999999944e-02 1.206885000000000041e-01 1.997214999999999918e+01 6.128815000000000168e+01 1.792144999999999982e+03
1.600000000000000033e-02 1.206470000000000042e-01 2.032249999999999801e+01 6.062250000000000227e+01 1.791694999999999936e+03
1.700000000000000122e-02 1.206114999999999965e-01 2.057285000000000252e+01 6.005785000000000196e+01 1.791319999999999936e+03
1.800000000000000211e-02 1.205844999999999972e-01 2.079225000000000279e+01 5.969920000000000471e+01 1.791025000000000091e+03
1.900000000000000300e-02 1.205670000000000075e-01 2.105559999999999832e+01 5.969889999999999475e+01 1.790855000000000018e+03
2.000000000000000042e-02 1.205635000000000040e-01 2.141700000000000159e+01 6.018735000000000213e+01 1.790829999999999927e+03
2.100000000000000130e-02 1.205760000000000165e-01 2.189025000000000176e+01 6.120579999999999643e+01 1.790974999999999909e+03
2.200000000000000219e-02 1.206030000000000019e-01 2.244405000000000072e+01 6.267495000000000260e+01 1.791299999999999955e+03
2.299999999999999961e-02 1.206424999999999997e-01 2.301400000000000290e+01 6.440944999999999254e+01 1.791759999999999991e+03
2.400000000000000050e-02 1.206894999999999912e-01 2.352270000000000039e+01 6.616740000000000066e+01 1.792309999999999945e+03
2.500000000000000139e-02 1.207379999999999981e-01 2.390149999999999864e+01 6.771354999999999791e+01 1.792880000000000109e+03
2.600000000000000228e-02 1.207820000000000005e-01 2.410650000000000048e+01 6.887424999999998931e+01 1.793409999999999854e+03
2.700000000000000316e-02 1.208184999999999953e-01 2.412579999999999814e+01 6.956969999999999743e+01 1.793845000000000027e+03
2.800000000000000058e-02 1.208440000000000070e-01 2.397695000000000221e+01 6.981694999999999141e+01 1.794170000000000073e+03
2.900000000000000147e-02 1.208599999999999952e-01 2.369735000000000014e+01 6.970889999999999986e+01 1.794369999999999891e+03
3.000000000000000236e-02 1.208670000000000022e-01 2.333135000000000048e+01 6.937674999999998704e+01 1.794474999999999909e+03
3.099999999999999978e-02 1.208684999999999898e-01 2.291810000000000258e+01 6.895000000000000284e+01 1.794494999999999891e+03
3.200000000000000067e-02 1.208655000000000007e-01 2.248315000000000197e+01 6.852494999999998981e+01 1.794474999999999909e+03
3.300000000000000155e-02 1.208609999999999962e-01 2.203594999999999970e+01 6.814795000000000869e+01 1.794429999999999836e+03
3.400000000000000244e-02 1.208555000000000046e-01 2.157200000000000273e+01 6.781620000000000914e+01 1.794369999999999891e+03
3.500000000000000333e-02 1.208484999999999976e-01 2.107894999999999897e+01 6.749205000000000609e+01 1.794295000000000073e+03
3.600000000000000422e-02 1.208405000000000035e-01 2.054435000000000144e+01 6.712440000000000850e+01 1.794210000000000036e+03
3.700000000000000511e-02 1.208300000000000068e-01 1.996235000000000070e+01 6.667204999999999870e+01 1.794095000000000027e+03
3.799999999999999906e-02 1.208169999999999938e-01 1.933855000000000146e+01 6.612104999999999677e+01 1.793945000000000164e+03
3.899999999999999994e-02 1.208009999999999917e-01 1.869150000000000134e+01 6.549450000000000216e+01 1.793769999999999982e+03
4.000000000000000083e-02 1.207830000000000015e-01 1.805069999999999908e+01 6.485080000000000666e+01 1.793570000000000164e+03
4.100000000000000172e-02 1.207654999999999978e-01 1.745190000000000197e+01 6.427334999999999354e+01 1.793369999999999891e+03
4.200000000000000261e-02 1.207495000000000096e-01 1.693079999999999785e+01 6.385335000000000605e+01 1.793184999999999945e+03
4.300000000000000350e-02 1.207379999999999981e-01 1.651610000000000156e+01 6.367034999999999911e+01 1.793045000000000073e+03
4.400000000000000439e-02 1.207330000000000070e-01 1.622444999999999737e+01 6.377524999999999977e+01 1.792985000000000127e+03
4.499999999999999833e-02 1.207350000000000090e-01 1.605740000000000123e+01 6.417924999999999613e+01 1.793000000000000000e+03
4.599999999999999922e-02 1.207455000000000056e-01 1.600124999999999886e+01 6.485075000000000500e+01 1.793115000000000009e+03
4.700000000000000011e-02 1.207630000000000092e-01 1.602899999999999991e+01 6.571979999999999222e+01 1.793300000000000182e+03
4.800000000000000100e-02 1.207855000000000040e-01 1.610484999999999900e+01 6.668909999999999627e+01 1.793559999999999945e+03
4.900000000000000189e-02 1.208114999999999883e-01 1.618869999999999720e+01 6.764809999999999945e+01 1.793855000000000018e+03
5.000000000000000278e-02 1.208380000000000010e-01 1.624139999999999873e+01 6.848815000000000452e+01 1.794155000000000200e+03
5.100000000000000366e-02 1.208615000000000106e-01 1.622854999999999848e+01 6.911504999999999654e+01 1.794430000000000064e+03
5.200000000000000455e-02 1.208809999999999885e-01 1.612340000000000018e+01 6.945855000000000246e+01 1.794644999999999982e+03
5.300000000000000544e-02 1.208919999999999995e-01 1.590859999999999985e+01 6.947665000000000646e+01 1.794779999999999973e+03
5.399999999999999939e-02 1.208950000000000025e-01 1.557570000000000121e+01 6.915619999999999834e+01 1.794819999999999936e+03
5.500000000000000028e-02 1.208889999999999965e-01 1.512470000000000070e+01 6.850915000000000532e+01 1.794755000000000109e+03
5.600000000000000117e-02 1.208734999999999948e-01 1.456230000000000047e+01 6.756719999999999970e+01 1.794575000000000045e+03
5.700000000000000205e-02 1.208489999999999842e-01 1.390019999999999989e+01 6.637545000000000073e+01 1.794304999999999836e+03
5.800000000000000294e-02 1.208164999999999933e-01 1.315344999999999942e+01 6.498579999999999757e+01 1.793934999999999945e+03
5.900000000000000383e-02 1.207775000000000098e-01 1.233941500000000069e+01 6.345270000000000721e+01 1.793485000000000127e+03
6.000000000000000472e-02 1.207330000000000070e-01 1.147683999999999926e+01 6.182979999999999876e+01 1.792974999999999909e+03
6.099999999999999867e-02 1.206845000000000001e-01 1.058546999999999905e+01 6.016840000000000543e+01 1.792414999999999964e+03
6.199999999999999956e-02 1.206339999999999912e-01 9.685925000000001006e+00 5.851765000000000327e+01 1.791835000000000036e+03
6.300000000000000044e-02 1.205814999999999942e-01 8.799994999999999123e+00 5.692494999999999550e+01 1.791240000000000009e+03
6.400000000000000133e-02 1.205305000000000126e-01 7.950359999999999872e+00 5.543710000000000093e+01 1.790644999999999982e+03
6.500000000000000222e-02 1.204815000000000053e-01 7.160585000000000200e+00 5.410115000000000407e+01 1.790075000000000045e+03
6.600000000000000311e-02 1.204365000000000019e-01 6.454975000000000129e+00 5.296450000000000102e+01 1.789555000000000064e+03
6.700000000000000400e-02 1.203965000000000035e-01 5.857770000000000366e+00 5.207424999999999926e+01 1.789085000000000036e+03
6.800000000000000488e-02 1.203634999999999983e-01 5.392549999999999955e+00 5.147639999999999816e+01 1.788704999999999927e+03
6.900000000000000577e-02 1.203395000000000020e-01 5.081229999999999691e+00 5.121375000000000455e+01 1.788414999999999964e+03
7.000000000000000666e-02 1.203245000000000009e-01 4.943170000000000286e+00 5.132375000000000398e+01 1.788240000000000009e+03
7.100000000000000755e-02 1.203214999999999979e-01 4.994170000000000442e+00 5.183660000000000423e+01 1.788190000000000055e+03
7.200000000000000844e-02 1.203305000000000069e-01 5.245734999999999815e+00 5.277304999999999779e+01 1.788279999999999973e+03
7.300000000000000933e-02 1.203525000000000011e-01 5.704424999999999635e+00 5.414320000000000022e+01 1.788519999999999982e+03
7.399999999999999634e-02 1.203884999999999955e-01 6.371554999999999858e+00 5.594565000000000055e+01 1.788914999999999964e+03
7.499999999999999722e-02 1.204375000000000029e-01 7.243109999999999715e+00 5.816705000000000325e+01 1.789474999999999909e+03
7.599999999999999811e-02 1.205004999999999965e-01 8.309974999999999667e+00 6.078329999999999700e+01 1.790184999999999945e+03
7.699999999999999900e-02 1.205770000000000036e-01 9.558324999999999960e+00 6.376040000000000418e+01 1.791054999999999836e+03
7.799999999999999989e-02 1.206654999999999950e-01 1.097051000000000087e+01 6.705639999999999645e+01 1.792054999999999836e+03
7.900000000000000078e-02 1.207644999999999968e-01 1.252555500000000066e+01 7.062350000000000705e+01 1.793200000000000045e+03
8.000000000000000167e-02 1.208744999999999958e-01 1.420035000000000025e+01 7.441034999999999400e+01 1.794454999999999927e+03
8.100000000000000255e-02 1.209919999999999884e-01 1.597060000000000102e+01 7.836449999999999250e+01 1.795815000000000055e+03
8.200000000000000344e-02 1.211160000000000014e-01 1.781155000000000044e+01 8.243494999999998640e+01 1.797255000000000109e+03
8.300000000000000433e-02 1.212460000000000065e-01 1.969904999999999973e+01 8.657365000000000066e+01 1.798759999999999991e+03
8.400000000000000522e-02 1.213795000000000013e-01 2.161050000000000182e+01 9.073765000000000214e+01 1.800309999999999945e+03
8.500000000000000611e-02 1.215154999999999985e-01 2.352510000000000190e+01 9.489029999999999632e+01 1.801900000000000091e+03
8.600000000000000699e-02 1.216530000000000111e-01 2.542474999999999952e+01 9.900199999999999534e+01 1.803509999999999991e+03
8.700000000000000788e-02 1.217904999999999960e-01 2.729400000000000048e+01 1.030510500000000036e+02 1.805125000000000000e+03
8.800000000000000877e-02 1.219274999999999942e-01 2.912045000000000172e+01 1.070219000000000023e+02 1.806740000000000009e+03
8.899999999999999578e-02 1.220625000000000043e-01 3.089444999999999908e+01 1.109060000000000059e+02 1.808339999999999918e+03
8.999999999999999667e-02 1.221965000000000134e-01 3.260900000000000176e+01 1.147009999999999934e+02 1.809925000000000182e+03
9.099999999999999756e-02 1.223285000000000067e-01 3.425959999999999894e+01 1.184094999999999942e+02 1.811485000000000127e+03
9.199999999999999845e-02 1.224574999999999969e-01 3.584340000000000259e+01 1.220345000000000084e+02 1.813030000000000200e+03
9.299999999999999933e-02 1.225849999999999995e-01 3.735914999999999964e+01 1.255840000000000032e+02 1.814549999999999955e+03
9.400000000000000022e-02 1.227099999999999858e-01 3.880669999999999931e+01 1.290649999999999977e+02 1.816045000000000073e+03
9.500000000000000111e-02 1.228334999999999982e-01 4.018625000000000114e+01 1.324825000000000159e+02 1.817519999999999982e+03
9.600000000000000200e-02 1.229550000000000087e-01 4.149830000000000041e+01 1.358414999999999964e+02 1.818980000000000018e+03
9.700000000000000289e-02 1.230739999999999890e-01 4.274314999999999998e+01 1.391449999999999818e+02 1.820414999999999964e+03
9.800000000000000377e-02 1.231914999999999955e-01 4.392060000000000031e+01 1.423915000000000077e+02 1.821835000000000036e+03
9.900000000000000466e-02 1.233075000000000004e-01 4.503010000000000446e+01 1.455769999999999982e+02 1.823230000000000018e+03
1.000000000000000056e-01 1.234210000000000029e-01 4.607025000000000148e+01 1.486965000000000146e+02 1.824605000000000018e+03
1.010000000000000064e-01 1.235320000000000029e-01 4.703900000000000148e+01 1.517404999999999973e+02 1.825954999999999927e+03
1.020000000000000073e-01 1.236414999999999875e-01 4.793385000000000673e+01 1.546974999999999909e+02 1.827279999999999973e+03
1.030000000000000082e-01 1.237474999999999964e-01 4.875159999999999627e+01 1.575559999999999832e+02 1.828570000000000164e+03
1.040000000000000091e-01 1.238510000000000028e-01 4.948870000000000147e+01 1.603015000000000043e+02 1.829824999999999818e+03
1.050000000000000100e-01 1.239500000000000046e-01 5.014144999999999897e+01 1.629205000000000041e+02 1.831034999999999854e+03
1.059999999999999970e-01 1.240459999999999896e-01 5.070600000000000307e+01 1.653985000000000127e+02 1.832200000000000045e+03
1.069999999999999979e-01 1.241365000000000107e-01 5.117869999999999919e+01 1.677210000000000036e+02 1.833315000000000055e+03
1.079999999999999988e-01 1.242224999999999996e-01 5.155604999999999905e+01 1.698779999999999859e+02 1.834369999999999891e+03
1.089999999999999997e-01 1.243034999999999973e-01 5.183535000000000537e+01 1.718559999999999945e+02 1.835359999999999900e+03
1.100000000000000006e-01 1.243785000000000029e-01 5.201409999999999911e+01 1.736465000000000032e+02 1.836279999999999973e+03
1.110000000000000014e-01 1.244475000000000026e-01 5.209094999999999942e+01 1.752434999999999832e+02 1.837130000000000109e+03
1.120000000000000023e-01 1.245100000000000096e-01 5.206530000000000058e+01 1.766405000000000030e+02 1.837909999999999854e+03
1.130000000000000032e-01 1.245664999999999967e-01 5.193765000000000498e+01 1.778360000000000127e+02 1.838605000000000018e+03
1.140000000000000041e-01 1.246159999999999907e-01 5.170960000000000178e+01 1.788299999999999841e+02 1.839220000000000027e+03
1.150000000000000050e-01 1.246589999999999920e-01 5.138394999999999868e+01 1.796260000000000048e+02 1.839755000000000109e+03
1.160000000000000059e-01 1.246950000000000003e-01 5.096469999999999345e+01 1.802300000000000182e+02 1.840210000000000036e+03
1.170000000000000068e-01 1.247250000000000025e-01 5.045704999999999529e+01 1.806504999999999939e+02 1.840585000000000036e+03
1.180000000000000077e-01 1.247484999999999983e-01 4.986735000000000184e+01 1.808994999999999891e+02 1.840884999999999991e+03
1.190000000000000085e-01 1.247660000000000019e-01 4.920279999999999632e+01 1.809884999999999877e+02 1.841109999999999900e+03
1.200000000000000094e-01 1.247780000000000000e-01 4.847169999999999845e+01 1.809339999999999975e+02 1.841265000000000100e+03
1.209999999999999964e-01 1.247850000000000070e-01 4.768269999999999698e+01 1.807524999999999977e+02 1.841355000000000018e+03
1.219999999999999973e-01 1.247864999999999946e-01 4.684510000000000218e+01 1.804615000000000009e+02 1.841389999999999873e+03
1.229999999999999982e-01 1.247844999999999926e-01 4.596829999999999927e+01 1.800769999999999982e+02 1.841375000000000000e+03
1.239999999999999991e-01 1.247790000000000010e-01 4.506165000000000020e+01 1.796184999999999832e+02 1.841309999999999945e+03
1.250000000000000000e-01 1.247694999999999915e-01 4.413415000000000532e+01 1.791009999999999991e+02 1.841204999999999927e+03
1.260000000000000009e-01 1.247584999999999944e-01 4.319424999999999670e+01 1.785394999999999754e+02 1.841070000000000164e+03
1.270000000000000018e-01 1.247445000000000082e-01 4.224980000000000047e+01 1.779490000000000123e+02 1.840900000000000091e+03
1.280000000000000027e-01 1.247289999999999927e-01 4.130764999999999532e+01 1.773394999999999868e+02 1.840720000000000027e+03
1.290000000000000036e-01 1.247125000000000039e-01 4.037355000000000160e+01 1.767210000000000036e+02 1.840514999999999873e+03
1.300000000000000044e-01 1.246944999999999998e-01 3.945230000000000103e+01 1.761005000000000109e+02 1.840304999999999836e+03
1.310000000000000053e-01 1.246765000000000095e-01 3.854734999999999445e+01 1.754819999999999993e+02 1.840079999999999927e+03
1.320000000000000062e-01 1.246575000000000044e-01 3.766120000000000090e+01 1.748669999999999902e+02 1.839855000000000018e+03
1.330000000000000071e-01 1.246384999999999993e-01 3.679505000000000337e+01 1.742565000000000168e+02 1.839614999999999782e+03
1.340000000000000080e-01 1.246195000000000080e-01 3.594915000000000305e+01 1.736485000000000127e+02 1.839380000000000109e+03
1.350000000000000089e-01 1.245995000000000019e-01 3.512269999999999470e+01 1.730389999999999873e+02 1.839139999999999873e+03
1.360000000000000098e-01 1.245795000000000097e-01 3.431425000000000125e+01 1.724230000000000018e+02 1.838889999999999873e+03
1.370000000000000107e-01 1.245595000000000036e-01 3.352155000000000484e+01 1.717940000000000111e+02 1.838639999999999873e+03
1.380000000000000115e-01 1.245379999999999959e-01 3.274179999999999779e+01 1.711465000000000032e+02 1.838384999999999991e+03
1.390000000000000124e-01 1.245165000000000022e-01 3.197189999999999799e+01 1.704720000000000084e+02 1.838115000000000009e+03
1.400000000000000133e-01 1.244939999999999936e-01 3.120850000000000080e+01 1.697649999999999864e+02 1.837839999999999918e+03
1.410000000000000142e-01 1.244699999999999973e-01 3.044830000000000325e+01 1.690174999999999841e+02 1.837549999999999955e+03
1.420000000000000151e-01 1.244455000000000144e-01 2.968800000000000239e+01 1.682239999999999895e+02 1.837240000000000009e+03
1.430000000000000160e-01 1.244190000000000018e-01 2.892454999999999998e+01 1.673799999999999955e+02 1.836920000000000073e+03
1.440000000000000169e-01 1.243910000000000016e-01 2.815525000000000233e+01 1.664789999999999850e+02 1.836575000000000045e+03
1.450000000000000178e-01 1.243615000000000137e-01 2.737805000000000177e+01 1.655199999999999818e+02 1.836214999999999918e+03
1.459999999999999909e-01 1.243295000000000095e-01 2.659125000000000227e+01 1.645014999999999930e+02 1.835825000000000045e+03
1.469999999999999918e-01 1.242955000000000032e-01 2.579394999999999882e+01 1.634219999999999970e+02 1.835414999999999964e+03
1.479999999999999927e-01 1.242604999999999960e-01 2.498584999999999923e+01 1.622845000000000084e+02 1.834985000000000127e+03
1.489999999999999936e-01 1.242230000000000001e-01 2.416754999999999853e+01 1.610910000000000082e+02 1.834525000000000091e+03
1.499999999999999944e-01 1.241835000000000022e-01 2.334024999999999750e+01 1.598460000000000036e+02 1.834050000000000182e+03
1.509999999999999953e-01 1.241425000000000028e-01 2.250580000000000069e+01 1.585564999999999998e+02 1.833555000000000064e+03
1.519999999999999962e-01 1.240995000000000015e-01 2.166709999999999781e+01 1.572295000000000016e+02 1.833039999999999964e+03
1.529999999999999971e-01 1.240559999999999996e-01 2.082734999999999914e+01 1.558739999999999952e+02 1.832505000000000109e+03
1.539999999999999980e-01 1.240109999999999962e-01 1.999044999999999916e+01 1.544989999999999952e+02 1.831954999999999927e+03
1.549999999999999989e-01 1.239650000000000057e-01 1.916064999999999685e+01 1.531154999999999973e+02 1.831400000000000091e+03
1.559999999999999998e-01 1.239185000000000147e-01 1.834264999999999901e+01 1.517344999999999970e+02 1.830835000000000036e+03
1.570000000000000007e-01 1.238719999999999960e-01 1.754119999999999990e+01 1.503670000000000186e+02 1.830275000000000091e+03
1.580000000000000016e-01 1.238249999999999906e-01 1.676115000000000066e+01 1.490235000000000127e+02 1.829715000000000146e+03
1.590000000000000024e-01 1.237795000000000006e-01 1.600720000000000098e+01 1.477154999999999916e+02 1.829154999999999973e+03
