# t [s], A [cm^2], U [cm/s], P [cPa], c [cm/s]
1.000000000000000021e-03 2.011560000000000015e-01 2.359380000000000088e-01 9.141665000000000418e+01 2.131184999999999945e+03
2.000000000000000042e-03 2.011140000000000150e-01 1.548323999999999812e+00 8.850910000000000366e+01 2.130864999999999782e+03
3.000000000000000062e-03 2.009924999999999906e-01 3.190907500000000230e+00 8.445504999999999995e+01 2.129974999999999909e+03
4.000000000000000083e-03 2.008230000000000015e-01 5.046134499999999967e+00 7.995165000000000077e+01 2.128744999999999891e+03
5.000000000000000104e-03 2.006370000000000098e-01 7.055674999999999919e+00 7.583015000000000327e+01 2.127414999999999964e+03
6.000000000000000125e-03 2.004565000000000097e-01 9.072199999999998710e+00 7.242650000000000432e+01 2.126130000000000109e+03
7.000000000000000146e-03 2.002869999999999928e-01 1.089575999999999922e+01 6.955134999999999934e+01 2.124949999999999818e+03
8.000000000000000167e-03 2.001300000000000023e-01 1.243215000000000003e+01 6.696904999999999575e+01 2.123875000000000000e+03
9.000000000000001055e-03 1.999910000000000021e-01 1.370730500000000163e+01 6.470875000000000909e+01 2.122944999999999709e+03
1.000000000000000194e-02 1.998735000000000095e-01 1.475665000000000049e+01 6.285790000000000077e+01 2.122159999999999854e+03
1.099999999999999936e-02 1.997774999999999967e-01 1.559459999999999980e+01 6.141115000000000634e+01 2.121525000000000091e+03
1.200000000000000025e-02 1.997009999999999896e-01 1.622889999999999944e+01 6.030404999999999660e+01 2.121029999999999745e+03
1.300000000000000114e-02 1.996400000000000119e-01 1.665820000000000078e+01 5.942764999999999986e+01 2.120639999999999873e+03
1.400000000000000203e-02 1.995899999999999896e-01 1.688915000000000077e+01 5.866015000000000157e+01 2.120329999999999927e+03
1.499999999999999944e-02 1.995485000000000175e-01 1.697875000000000156e+01 5.798989999999999867e+01 2.120074999999999818e+03
1.600000000000000033e-02 1.995195000000000163e-01 1.704804999999999993e+01 5.761204999999999643e+01 2.119904999999999745e+03
1.700000000000000122e-02 1.995124999999999815e-01 1.723859999999999815e+01 5.786190000000000566e+01 2.119869999999999891e+03
1.800000000000000211e-02 1.995350000000000179e-01 1.764095000000000013e+01 5.901274999999999693e+01 2.120025000000000091e+03
1.900000000000000300e-02 1.995905000000000040e-01 1.824765000000000015e+01 6.108639999999999759e+01 2.120399999999999636e+03
2.000000000000000042e-02 1.996735000000000038e-01 1.895575000000000188e+01 6.379640000000000555e+01 2.120954999999999927e+03
2.100000000000000130e-02 1.997714999999999907e-01 1.961224999999999952e+01 6.664310000000000400e+01 2.121614999999999782e+03
2.200000000000000219e-02 1.998665000000000025e-01 2.007309999999999661e+01 6.909329999999999927e+01 2.122269999999999982e+03
2.299999999999999961e-02 1.999464999999999992e-01 2.025099999999999767e+01 7.075649999999998840e+01 2.122819999999999709e+03
2.400000000000000050e-02 2.000000000000000111e-01 2.013499999999999801e+01 7.148919999999999675e+01 2.123210000000000036e+03
2.500000000000000139e-02 2.000270000000000103e-01 1.978020000000000067e+01 7.139889999999999759e+01 2.123409999999999854e+03
2.600000000000000228e-02 2.000310000000000143e-01 1.927619999999999933e+01 7.076169999999999050e+01 2.123460000000000036e+03
2.700000000000000316e-02 2.000204999999999900e-01 1.870955000000000013e+01 6.989714999999999634e+01 2.123400000000000091e+03
2.800000000000000058e-02 2.000024999999999997e-01 1.813439999999999941e+01 6.905169999999999675e+01 2.123284999999999854e+03
2.900000000000000147e-02 1.999829999999999941e-01 1.756190000000000140e+01 6.833150000000000546e+01 2.123154999999999745e+03
3.000000000000000236e-02 1.999624999999999875e-01 1.696654999999999802e+01 6.769890000000000896e+01 2.123019999999999982e+03
3.099999999999999978e-02 1.999394999999999922e-01 1.630645000000000167e+01 6.702280000000000371e+01 2.122864999999999782e+03
3.200000000000000067e-02 1.999110000000000054e-01 1.554775000000000063e+01 6.615694999999999482e+01 2.122680000000000291e+03
3.300000000000000155e-02 1.998729999999999951e-01 1.468445000000000000e+01 6.501695000000000846e+01 2.122430000000000291e+03
3.400000000000000244e-02 1.998269999999999769e-01 1.374920000000000009e+01 6.363115000000000521e+01 2.122125000000000000e+03
3.500000000000000333e-02 1.997745000000000215e-01 1.280959999999999965e+01 6.214965000000000117e+01 2.121774999999999636e+03
3.600000000000000422e-02 1.997224999999999973e-01 1.195299999999999940e+01 6.081015000000000015e+01 2.121425000000000182e+03
3.700000000000000511e-02 1.996795000000000098e-01 1.126506000000000007e+01 5.987335000000000207e+01 2.121135000000000218e+03
3.799999999999999906e-02 1.996525000000000105e-01 1.080741499999999888e+01 5.954935000000000400e+01 2.120940000000000055e+03
3.899999999999999994e-02 1.996479999999999921e-01 1.060300000000000153e+01 5.993904999999999461e+01 2.120894999999999982e+03
4.000000000000000083e-02 1.996669999999999834e-01 1.063100000000000023e+01 6.100625000000000142e+01 2.121010000000000218e+03
4.100000000000000172e-02 1.997070000000000234e-01 1.083264999999999922e+01 6.258545000000000158e+01 2.121260000000000218e+03
4.200000000000000261e-02 1.997619999999999951e-01 1.112444999999999951e+01 6.441890000000000782e+01 2.121619999999999891e+03
4.300000000000000350e-02 1.998230000000000006e-01 1.141414999999999935e+01 6.621014999999999873e+01 2.122020000000000437e+03
4.400000000000000439e-02 1.998805000000000165e-01 1.161655000000000015e+01 6.767884999999999707e+01 2.122409999999999854e+03
4.499999999999999833e-02 1.999269999999999936e-01 1.166474999999999973e+01 6.860444999999999993e+01 2.122720000000000255e+03
4.599999999999999922e-02 1.999535000000000062e-01 1.151624999999999943e+01 6.885204999999999131e+01 2.122909999999999854e+03
4.700000000000000011e-02 1.999575000000000102e-01 1.115354999999999919e+01 6.837749999999999773e+01 2.122949999999999818e+03
4.800000000000000100e-02 1.999370000000000036e-01 1.058029499999999956e+01 6.721565000000001078e+01 2.122820000000000164e+03
4.900000000000000189e-02 1.998929999999999874e-01 9.815324999999999633e+00 6.545750000000001023e+01 2.122529999999999745e+03
5.000000000000000278e-02 1.998280000000000056e-01 8.886340000000000572e+00 6.322395000000000209e+01 2.122099999999999909e+03
5.100000000000000366e-02 1.997455000000000203e-01 7.824290000000000411e+00 6.064269999999999783e+01 2.121555000000000291e+03
5.200000000000000455e-02 1.996494999999999798e-01 6.660540000000000127e+00 5.783220000000000027e+01 2.120909999999999854e+03
5.300000000000000544e-02 1.995434999999999848e-01 5.425349999999999895e+00 5.489450000000000074e+01 2.120204999999999927e+03
5.399999999999999939e-02 1.994314999999999838e-01 4.148524500000000614e+00 5.191570000000000107e+01 2.119449999999999818e+03
5.500000000000000028e-02 1.993165000000000076e-01 2.860644500000000257e+00 4.897124999999999773e+01 2.118675000000000182e+03
5.600000000000000117e-02 1.992025000000000046e-01 1.594440000000000079e+00 4.613309999999999889e+01 2.117909999999999854e+03
5.700000000000000205e-02 1.990915000000000046e-01 3.855150000000000521e-01 4.347565000000000168e+01 2.117154999999999745e+03
5.800000000000000294e-02 1.989874999999999838e-01 -7.278750000000000497e-01 4.107899999999999352e+01 2.116444999999999709e+03
5.900000000000000383e-02 1.988924999999999998e-01 -1.706106000000000122e+00 3.902824999999999989e+01 2.115800000000000182e+03
6.000000000000000472e-02 1.988119999999999887e-01 -2.510299999999999976e+00 3.740949999999999420e+01 2.115244999999999891e+03
6.099999999999999867e-02 1.987475000000000214e-01 -3.104964999999999975e+00 3.630310000000000059e+01 2.114800000000000182e+03
6.199999999999999956e-02 1.987030000000000185e-01 -3.460665000000000102e+00 3.577624999999999744e+01 2.114489999999999782e+03
6.300000000000000044e-02 1.986804999999999821e-01 -3.556315000000000115e+00 3.587630000000000052e+01 2.114319999999999709e+03
6.400000000000000133e-02 1.986815000000000109e-01 -3.380835000000000257e+00 3.662505000000000166e+01 2.114315000000000055e+03
6.500000000000000222e-02 1.987079999999999957e-01 -2.933914999999999829e+00 3.801649999999999352e+01 2.114465000000000146e+03
6.600000000000000311e-02 1.987579999999999902e-01 -2.225948999999999955e+00 4.001675000000000182e+01 2.114789999999999964e+03
6.700000000000000400e-02 1.988314999999999944e-01 -1.277101500000000112e+00 4.256674999999999898e+01 2.115264999999999873e+03
6.800000000000000488e-02 1.989265000000000061e-01 -1.158100000000001906e-01 4.558695000000000164e+01 2.115885000000000218e+03
6.900000000000000577e-02 1.990394999999999803e-01 1.223245000000000138e+00 4.898324999999999818e+01 2.116630000000000109e+03
7.000000000000000666e-02 1.991674999999999973e-01 2.701400500000000093e+00 5.265425000000000466e+01 2.117480000000000018e+03
7.100000000000000755e-02 1.993064999999999976e-01 4.278407999999999767e+00 5.649765000000000015e+01 2.118409999999999854e+03
7.200000000000000844e-02 1.994529999999999914e-01 5.914744999999999919e+00 6.041734999999999900e+01 2.119394999999999982e+03
7.300000000000000933e-02 1.996040000000000036e-01 7.573714999999999975e+00 6.432885000000000275e+01 2.120409999999999854e+03
7.399999999999999634e-02 1.997559999999999891e-01 9.223145000000000593e+00 6.816360000000000241e+01 2.121440000000000055e+03
7.499999999999999722e-02 1.999064999999999870e-01 1.083658499999999947e+01 7.187184999999999491e+01 2.122454999999999927e+03
7.599999999999999811e-02 2.000529999999999808e-01 1.239417500000000061e+01 7.542334999999999923e+01 2.123460000000000036e+03
7.699999999999999900e-02 2.001959999999999851e-01 1.388240000000000052e+01 7.880680000000000973e+01 2.124429999999999836e+03
7.799999999999999989e-02 2.003329999999999833e-01 1.529384999999999906e+01 8.202719999999999345e+01 2.125375000000000000e+03
7.900000000000000078e-02 2.004655000000000187e-01 1.662630000000000052e+01 8.510214999999999463e+01 2.126279999999999745e+03
8.000000000000000167e-02 2.005930000000000213e-01 1.788139999999999930e+01 8.805744999999998868e+01 2.127154999999999745e+03
8.100000000000000255e-02 2.007164999999999921e-01 1.906360000000000099e+01 9.092265000000000441e+01 2.128010000000000218e+03
8.200000000000000344e-02 2.008369999999999878e-01 2.017864999999999753e+01 9.372675000000000978e+01 2.128840000000000146e+03
8.300000000000000433e-02 2.009549999999999947e-01 2.123274999999999935e+01 9.649494999999998868e+01 2.129654999999999745e+03
8.400000000000000522e-02 2.010724999999999874e-01 2.223120000000000118e+01 9.924559999999999604e+01 2.130465000000000146e+03
8.500000000000000611e-02 2.011890000000000067e-01 2.317844999999999800e+01 1.019902000000000015e+02 2.131264999999999873e+03
8.600000000000000699e-02 2.013044999999999973e-01 2.407714999999999961e+01 1.047325000000000017e+02 2.132070000000000164e+03
8.700000000000000788e-02 2.014199999999999879e-01 2.492815000000000225e+01 1.074669999999999987e+02 2.132869999999999891e+03
8.800000000000000877e-02 2.015350000000000197e-01 2.573069999999999879e+01 1.101829999999999927e+02 2.133659999999999854e+03
8.899999999999999578e-02 2.016490000000000227e-01 2.648214999999999719e+01 1.128644999999999925e+02 2.134449999999999818e+03
8.999999999999999667e-02 2.017615000000000103e-01 2.717855000000000132e+01 1.154904999999999973e+02 2.135224999999999909e+03
9.099999999999999756e-02 2.018715000000000093e-01 2.781475000000000009e+01 1.180370000000000061e+02 2.135985000000000127e+03
9.199999999999999845e-02 2.019779999999999909e-01 2.838445000000000107e+01 1.204789999999999992e+02 2.136724999999999909e+03
9.299999999999999933e-02 2.020804999999999962e-01 2.888074999999999903e+01 1.227899999999999920e+02 2.137440000000000055e+03
9.400000000000000022e-02 2.021775000000000100e-01 2.929650000000000176e+01 1.249449999999999932e+02 2.138110000000000127e+03
9.500000000000000111e-02 2.022680000000000033e-01 2.962445000000000306e+01 1.269174999999999898e+02 2.138744999999999891e+03
9.600000000000000200e-02 2.023519999999999763e-01 2.985790000000000077e+01 1.286870000000000118e+02 2.139329999999999927e+03
9.700000000000000289e-02 2.024269999999999958e-01 2.999105000000000132e+01 1.302330000000000041e+02 2.139855000000000018e+03
9.800000000000000377e-02 2.024940000000000073e-01 3.001924999999999955e+01 1.315399999999999920e+02 2.140324999999999818e+03
9.900000000000000466e-02 2.025509999999999811e-01 2.993994999999999962e+01 1.325985000000000014e+02 2.140730000000000018e+03
1.000000000000000056e-01 2.025985000000000147e-01 2.975249999999999773e+01 1.334035000000000082e+02 2.141065000000000055e+03
1.010000000000000064e-01 2.026359999999999828e-01 2.945870000000000033e+01 1.339574999999999818e+02 2.141329999999999927e+03
1.020000000000000073e-01 2.026640000000000108e-01 2.906284999999999741e+01 1.342694999999999936e+02 2.141529999999999745e+03
1.030000000000000082e-01 2.026815000000000144e-01 2.857169999999999987e+01 1.343539999999999850e+02 2.141670000000000073e+03
1.040000000000000091e-01 2.026904999999999957e-01 2.799414999999999765e+01 1.342334999999999923e+02 2.141739999999999782e+03
1.050000000000000100e-01 2.026915000000000244e-01 2.734114999999999895e+01 1.339319999999999879e+02 2.141750000000000000e+03
1.059999999999999970e-01 2.026850000000000041e-01 2.662500000000000000e+01 1.334789999999999850e+02 2.141715000000000146e+03
1.069999999999999979e-01 2.026719999999999910e-01 2.585910000000000153e+01 1.329054999999999893e+02 2.141630000000000109e+03
1.079999999999999988e-01 2.026540000000000008e-01 2.505709999999999837e+01 1.322425000000000068e+02 2.141510000000000218e+03
1.089999999999999997e-01 2.026319999999999788e-01 2.423254999999999981e+01 1.315204999999999984e+02 2.141369999999999891e+03
1.100000000000000006e-01 2.026074999999999959e-01 2.339845000000000041e+01 1.307674999999999841e+02 2.141194999999999709e+03
1.110000000000000014e-01 2.025804999999999967e-01 2.256654999999999944e+01 1.300074999999999932e+02 2.141015000000000327e+03
1.120000000000000023e-01 2.025540000000000118e-01 2.174725000000000108e+01 1.292614999999999839e+02 2.140829999999999927e+03
1.130000000000000032e-01 2.025264999999999982e-01 2.094899999999999807e+01 1.285449999999999875e+02 2.140644999999999982e+03
1.140000000000000041e-01 2.024994999999999989e-01 2.017830000000000013e+01 1.278685000000000116e+02 2.140454999999999927e+03
1.150000000000000050e-01 2.024735000000000007e-01 1.943955000000000055e+01 1.272364999999999924e+02 2.140279999999999745e+03
1.160000000000000059e-01 2.024489999999999901e-01 1.873490000000000322e+01 1.266494999999999891e+02 2.140105000000000018e+03
1.170000000000000068e-01 2.024254999999999804e-01 1.806445000000000078e+01 1.261024999999999920e+02 2.139945000000000164e+03
1.180000000000000077e-01 2.024035000000000140e-01 1.742624999999999957e+01 1.255860000000000127e+02 2.139784999999999854e+03
1.190000000000000085e-01 2.023825000000000207e-01 1.681674999999999898e+01 1.250885000000000105e+02 2.139635000000000218e+03
1.200000000000000094e-01 2.023614999999999997e-01 1.623100000000000165e+01 1.245939999999999941e+02 2.139494999999999891e+03
1.209999999999999964e-01 2.023400000000000198e-01 1.566285000000000061e+01 1.240865000000000009e+02 2.139345000000000255e+03
1.219999999999999973e-01 2.023189999999999988e-01 1.510565000000000069e+01 1.235474999999999994e+02 2.139194999999999709e+03
1.229999999999999982e-01 2.022954999999999892e-01 1.455255000000000010e+01 1.229595000000000056e+02 2.139029999999999745e+03
1.239999999999999991e-01 2.022704999999999920e-01 1.399684999999999846e+01 1.223079999999999927e+02 2.138855000000000018e+03
1.250000000000000000e-01 2.022424999999999917e-01 1.343254999999999910e+01 1.215785000000000053e+02 2.138664999999999964e+03
1.260000000000000009e-01 2.022124999999999895e-01 1.285469999999999935e+01 1.207620000000000005e+02 2.138449999999999818e+03
1.270000000000000018e-01 2.021784999999999832e-01 1.225959999999999894e+01 1.198514999999999873e+02 2.138220000000000255e+03
1.280000000000000027e-01 2.021410000000000151e-01 1.164535499999999857e+01 1.188455000000000013e+02 2.137960000000000036e+03
1.290000000000000036e-01 2.021000000000000019e-01 1.101168499999999995e+01 1.177475000000000023e+02 2.137680000000000291e+03
1.300000000000000044e-01 2.020549999999999846e-01 1.036035500000000020e+01 1.165660000000000025e+02 2.137375000000000000e+03
1.310000000000000053e-01 2.020075000000000065e-01 9.694865000000000066e+00 1.153135000000000048e+02 2.137045000000000073e+03
1.320000000000000062e-01 2.019569999999999976e-01 9.020410000000000039e+00 1.140054999999999978e+02 2.136699999999999818e+03
1.330000000000000071e-01 2.019044999999999868e-01 8.343704999999999927e+00 1.126645000000000039e+02 2.136335000000000036e+03
1.340000000000000080e-01 2.018504999999999883e-01 7.672534999999999883e+00 1.113110000000000070e+02 2.135965000000000146e+03
1.350000000000000089e-01 2.017960000000000031e-01 7.015499999999999403e+00 1.099694999999999965e+02 2.135595000000000255e+03
1.360000000000000098e-01 2.017424999999999913e-01 6.381465000000000387e+00 1.086645000000000039e+02 2.135220000000000255e+03
1.370000000000000107e-01 2.016900000000000082e-01 5.779200000000000337e+00 1.074184999999999945e+02 2.134860000000000127e+03
1.380000000000000115e-01 2.016395000000000270e-01 5.216924999999999812e+00 1.062524999999999977e+02 2.134510000000000218e+03
1.390000000000000124e-01 2.015919999999999934e-01 4.701954999999999885e+00 1.051839999999999975e+02 2.134184999999999945e+03
1.400000000000000133e-01 2.015485000000000193e-01 4.240384999999999849e+00 1.042284999999999968e+02 2.133880000000000109e+03
1.410000000000000142e-01 2.015085000000000071e-01 3.836869999999999781e+00 1.033949999999999960e+02 2.133605000000000018e+03
1.420000000000000151e-01 2.014734999999999998e-01 3.494464999999999932e+00 1.026895000000000095e+02 2.133359999999999673e+03
1.430000000000000160e-01 2.014434999999999976e-01 3.214570000000000149e+00 1.021144999999999925e+02 2.133145000000000437e+03
1.440000000000000169e-01 2.014185000000000003e-01 2.996979999999999755e+00 1.016664999999999992e+02 2.132970000000000255e+03
1.450000000000000178e-01 2.013980000000000214e-01 2.839945000000000164e+00 1.013410000000000082e+02 2.132824999999999818e+03
1.459999999999999909e-01 2.013824999999999921e-01 2.740350000000000286e+00 1.011274999999999977e+02 2.132715000000000146e+03
1.469999999999999918e-01 2.013709999999999944e-01 2.693884999999999863e+00 1.010155000000000030e+02 2.132630000000000109e+03
1.479999999999999927e-01 2.013639999999999874e-01 2.695269999999999833e+00 1.009919999999999902e+02 2.132574999999999818e+03
1.489999999999999936e-01 2.013604999999999978e-01 2.738504999999999967e+00 1.010414999999999992e+02 2.132545000000000073e+03
1.499999999999999944e-01 2.013595000000000246e-01 2.817095000000000127e+00 1.011504999999999939e+02 2.132534999999999854e+03
1.509999999999999953e-01 2.013614999999999988e-01 2.924279999999999990e+00 1.013034999999999997e+02 2.132539999999999964e+03
1.519999999999999962e-01 2.013650000000000162e-01 3.053270000000000373e+00 1.014859999999999900e+02 2.132564999999999600e+03
1.529999999999999971e-01 2.013699999999999934e-01 3.197429999999999772e+00 1.016839999999999975e+02 2.132599999999999909e+03
1.539999999999999980e-01 2.013759999999999994e-01 3.350500000000000256e+00 1.018874999999999886e+02 2.132635000000000218e+03
1.549999999999999989e-01 2.013825000000000198e-01 3.506705000000000183e+00 1.020829999999999984e+02 2.132675000000000182e+03
1.559999999999999998e-01 2.013884999999999981e-01 3.660919999999999952e+00 1.022630000000000052e+02 2.132720000000000255e+03
1.570000000000000007e-01 2.013949999999999907e-01 3.808760000000000367e+00 1.024205000000000041e+02 2.132760000000000218e+03
1.580000000000000016e-01 2.013999999999999957e-01 3.946649999999999991e+00 1.025500000000000114e+02 2.132795000000000073e+03
1.590000000000000024e-01 2.014044999999999863e-01 4.071860000000000035e+00 1.026475000000000080e+02 2.132824999999999818e+03
