# t [s], A [cm^2], U [cm/s], P [cPa], c [cm/s]
1.000000000000000021e-03 7.375000000000000444e-01 7.016499999999994963e-03 1.023439999999999941e+02 1.769929999999999836e+03
2.000000000000000042e-03 7.374894999999999090e-01 1.999500000000000409e-03 1.023089999999999975e+02 1.769920000000000073e+03
3.000000000000000062e-03 7.375680000000000014e-01 1.384719500000000103e-01 1.024714999999999918e+02 1.769949999999999818e+03
4.000000000000000083e-03 7.376049999999999551e-01 2.259685000000000166e-01 1.025755000000000052e+02 1.769974999999999909e+03
5.000000000000000104e-03 7.375305000000000888e-01 1.370700000000000252e-01 1.023780000000000001e+02 1.769934999999999945e+03
6.000000000000000125e-03 7.374434999999999185e-01 1.609899999999997444e-02 1.020289999999999964e+02 1.769869999999999891e+03
7.000000000000000146e-03 7.373505000000000198e-01 -1.290350000000000108e-01 1.015790000000000077e+02 1.769784999999999854e+03
8.000000000000000167e-03 7.371760000000000534e-01 -4.330899999999999750e-01 1.008457999999999970e+02 1.769644999999999982e+03
9.000000000000001055e-03 7.369175000000000031e-01 -9.033399999999999208e-01 9.976200000000000045e+01 1.769440000000000055e+03
1.000000000000000194e-02 7.365580000000000460e-01 -1.554945000000000022e+00 9.825490000000000634e+01 1.769144999999999982e+03
1.099999999999999936e-02 7.360685000000000144e-01 -2.415445000000000064e+00 9.622095000000000198e+01 1.768755000000000109e+03
1.200000000000000025e-02 7.354890000000000594e-01 -3.387175000000000491e+00 9.372970000000000823e+01 1.768259999999999991e+03
1.300000000000000114e-02 7.349295000000000133e-01 -4.241253000000000384e+00 9.108369999999999322e+01 1.767715000000000146e+03
1.400000000000000203e-02 7.344910000000000050e-01 -4.756283500000000330e+00 8.865090000000000714e+01 1.767184999999999945e+03
1.499999999999999944e-02 7.342014999999999514e-01 -4.837815000000000865e+00 8.666495000000000459e+01 1.766730000000000018e+03
1.600000000000000033e-02 7.340195000000000469e-01 -4.537480000000000402e+00 8.513804999999999268e+01 1.766340000000000146e+03
1.700000000000000122e-02 7.338635000000000019e-01 -3.999540000000000095e+00 8.390075000000000216e+01 1.766005000000000109e+03
1.800000000000000211e-02 7.336584999999999912e-01 -3.383824999999999861e+00 8.270600000000000307e+01 1.765684999999999945e+03
1.900000000000000300e-02 7.333614999999999995e-01 -2.798789500000000263e+00 8.134594999999998777e+01 1.765335000000000036e+03
2.000000000000000042e-02 7.329769999999999897e-01 -2.267714999999999925e+00 7.973404999999999632e+01 1.764944999999999936e+03
2.100000000000000130e-02 7.325470000000000592e-01 -1.740400000000000169e+00 7.791989999999999839e+01 1.764514999999999873e+03
2.200000000000000219e-02 7.321214999999999806e-01 -1.140605000000000091e+00 7.603584999999999638e+01 1.764070000000000164e+03
2.299999999999999961e-02 7.317339999999999955e-01 -4.204949999999998411e-01 7.421189999999999998e+01 1.763630000000000109e+03
2.400000000000000050e-02 7.313830000000000053e-01 4.044900000000000162e-01 7.250319999999999254e+01 1.763204999999999927e+03
2.500000000000000139e-02 7.310369999999999369e-01 1.250560000000000116e+00 7.085685000000000855e+01 1.762795000000000073e+03
2.600000000000000228e-02 7.306405000000000260e-01 1.985930000000000195e+00 6.912229999999999563e+01 1.762369999999999891e+03
2.700000000000000316e-02 7.301364999999999661e-01 2.467285000000000394e+00 6.709640000000000271e+01 1.761900000000000091e+03
2.800000000000000058e-02 7.294844999999999802e-01 2.581564999999999888e+00 6.458944999999999936e+01 1.761335000000000036e+03
2.900000000000000147e-02 7.286749999999999616e-01 2.280795000000000350e+00 6.149244999999999806e+01 1.760670000000000073e+03
3.000000000000000236e-02 7.277355000000000906e-01 1.597629999999999661e+00 5.782115000000000293e+01 1.759889999999999873e+03
3.099999999999999978e-02 7.267225000000000490e-01 6.351149999999998741e-01 5.372240000000000038e+01 1.759025000000000091e+03
3.200000000000000067e-02 7.257100000000000772e-01 -4.629500000000001947e-01 4.944084999999999752e+01 1.758105000000000018e+03
3.300000000000000155e-02 7.247675000000000090e-01 -1.547619999999999330e+00 4.526404999999999745e+01 1.757200000000000045e+03
3.400000000000000244e-02 7.239530000000000687e-01 -2.493800000000000239e+00 4.146730000000000160e+01 1.756349999999999909e+03
3.500000000000000333e-02 7.233015000000000416e-01 -3.215130000000000265e+00 3.827179999999999893e+01 1.755610000000000127e+03
3.600000000000000422e-02 7.228295000000000137e-01 -3.666510000000000158e+00 3.582380000000000564e+01 1.755009999999999991e+03
3.700000000000000511e-02 7.225375000000000547e-01 -3.836600000000000232e+00 3.419249999999999545e+01 1.754575000000000045e+03
3.799999999999999906e-02 7.224165000000000170e-01 -3.735289999999999999e+00 3.338259999999999650e+01 1.754315000000000055e+03
3.899999999999999994e-02 7.224520000000000941e-01 -3.380395000000000039e+00 3.335605000000000331e+01 1.754220000000000027e+03
4.000000000000000083e-02 7.226319999999999411e-01 -2.787209999999999965e+00 3.405440000000000111e+01 1.754295000000000073e+03
4.100000000000000172e-02 7.229460000000000885e-01 -1.963519999999999932e+00 3.541689999999999827e+01 1.754519999999999982e+03
4.200000000000000261e-02 7.233870000000000022e-01 -9.107050000000000978e-01 3.738944999999999652e+01 1.754880000000000109e+03
4.300000000000000350e-02 7.239480000000000359e-01 3.706849999999999312e-01 3.992374999999999829e+01 1.755375000000000000e+03
4.400000000000000439e-02 7.246219999999999883e-01 1.873734999999999928e+00 4.297104999999999819e+01 1.755985000000000127e+03
4.499999999999999833e-02 7.253939999999999833e-01 3.579459999999999642e+00 4.647325000000000017e+01 1.756704999999999927e+03
4.599999999999999922e-02 7.262454999999999883e-01 5.454324999999999868e+00 5.035719999999999885e+01 1.757514999999999873e+03
4.700000000000000011e-02 7.271544999999999259e-01 7.451564999999999550e+00 5.453280000000000172e+01 1.758394999999999982e+03
4.800000000000000100e-02 7.280949999999999367e-01 9.515499500000000666e+00 5.889674999999999727e+01 1.759335000000000036e+03
4.900000000000000189e-02 7.290419999999999678e-01 1.158759000000000050e+01 6.333984999999999843e+01 1.760300000000000182e+03
5.000000000000000278e-02 7.299720000000000653e-01 1.361230000000000118e+01 6.775639999999999930e+01 1.761275000000000091e+03
5.100000000000000366e-02 7.308675000000000033e-01 1.554232499999999995e+01 7.205339999999999634e+01 1.762244999999999891e+03
5.200000000000000455e-02 7.317139999999999755e-01 1.734175000000000111e+01 7.615734999999999388e+01 1.763174999999999955e+03
5.300000000000000544e-02 7.325070000000000192e-01 1.898724999999999952e+01 8.001879999999999882e+01 1.764070000000000164e+03
5.399999999999999939e-02 7.332425000000000193e-01 2.046744999999999948e+01 8.361299999999999955e+01 1.764914999999999964e+03
5.500000000000000028e-02 7.339249999999999385e-01 2.178144999999999953e+01 8.693819999999999482e+01 1.765704999999999927e+03
5.600000000000000117e-02 7.345599999999999907e-01 2.293650000000000233e+01 9.001185000000000969e+01 1.766440000000000055e+03
5.700000000000000205e-02 7.351550000000000029e-01 2.394590000000000174e+01 9.286594999999999800e+01 1.767140000000000100e+03
5.800000000000000294e-02 7.357215000000000282e-01 2.482699999999999818e+01 9.554325000000000045e+01 1.767789999999999964e+03
5.900000000000000383e-02 7.362680000000000335e-01 2.559964999999999691e+01 9.809040000000000248e+01 1.768404999999999973e+03
6.000000000000000472e-02 7.368050000000000432e-01 2.628439999999999799e+01 1.005559000000000083e+02 1.769009999999999991e+03
6.099999999999999867e-02 7.373410000000000242e-01 2.690084999999999837e+01 1.029840499999999963e+02 1.769594999999999800e+03
6.199999999999999956e-02 7.378830000000000666e-01 2.746634999999999849e+01 1.054130000000000109e+02 1.770174999999999955e+03
6.300000000000000044e-02 7.384349999999999525e-01 2.799390000000000001e+01 1.078684999999999974e+02 1.770759999999999991e+03
6.400000000000000133e-02 7.389980000000000437e-01 2.849130000000000251e+01 1.103635000000000019e+02 1.771349999999999909e+03
6.500000000000000222e-02 7.395700000000000607e-01 2.896065000000000111e+01 1.128965000000000032e+02 1.771950000000000045e+03
6.600000000000000311e-02 7.401450000000000529e-01 2.939819999999999922e+01 1.154500000000000028e+02 1.772545000000000073e+03
6.700000000000000400e-02 7.407155000000000822e-01 2.979520000000000124e+01 1.179944999999999879e+02 1.773144999999999982e+03
6.800000000000000488e-02 7.412715000000000831e-01 3.013940000000000197e+01 1.204915000000000020e+02 1.773730000000000018e+03
6.900000000000000577e-02 7.418035000000000601e-01 3.041675000000000040e+01 1.228934999999999889e+02 1.774304999999999836e+03
7.000000000000000666e-02 7.423005000000000297e-01 3.061260000000000048e+01 1.251560000000000059e+02 1.774845000000000027e+03
7.100000000000000755e-02 7.427529999999999966e-01 3.071369999999999933e+01 1.272304999999999922e+02 1.775349999999999909e+03
7.200000000000000844e-02 7.431535000000000224e-01 3.070879999999999654e+01 1.290794999999999959e+02 1.775799999999999955e+03
7.300000000000000933e-02 7.434959999999999347e-01 3.058990000000000009e+01 1.306694999999999993e+02 1.776200000000000045e+03
7.399999999999999634e-02 7.437765000000000626e-01 3.035224999999999795e+01 1.319774999999999920e+02 1.776545000000000073e+03
7.499999999999999722e-02 7.439930000000000154e-01 2.999499999999999744e+01 1.329920000000000186e+02 1.776815000000000055e+03
7.599999999999999811e-02 7.441459999999999742e-01 2.952100000000000080e+01 1.337094999999999914e+02 1.777019999999999982e+03
7.699999999999999900e-02 7.442379999999999551e-01 2.893665000000000020e+01 1.341380000000000052e+02 1.777170000000000073e+03
7.799999999999999989e-02 7.442729999999999624e-01 2.825189999999999912e+01 1.342944999999999993e+02 1.777244999999999891e+03
7.900000000000000078e-02 7.442569999999999464e-01 2.747964999999999947e+01 1.342034999999999911e+02 1.777265000000000100e+03
8.000000000000000167e-02 7.441959999999999686e-01 2.663560000000000016e+01 1.338969999999999914e+02 1.777235000000000127e+03
8.100000000000000255e-02 7.440999999999999837e-01 2.573724999999999952e+01 1.334110000000000014e+02 1.777159999999999854e+03
8.200000000000000344e-02 7.439759999999999707e-01 2.480349999999999966e+01 1.327855000000000132e+02 1.777045000000000073e+03
8.300000000000000433e-02 7.438339999999999952e-01 2.385360000000000014e+01 1.320620000000000118e+02 1.776905000000000200e+03
8.400000000000000522e-02 7.436814999999999953e-01 2.290615000000000023e+01 1.312814999999999941e+02 1.776750000000000000e+03
8.500000000000000611e-02 7.435270000000000490e-01 2.197840000000000060e+01 1.304819999999999993e+02 1.776574999999999818e+03
8.600000000000000699e-02 7.433775000000000244e-01 2.108530000000000015e+01 1.296970000000000027e+02 1.776404999999999973e+03
8.700000000000000788e-02 7.432374999999999954e-01 2.023859999999999815e+01 1.289555000000000007e+02 1.776244999999999891e+03
8.800000000000000877e-02 7.431114999999999249e-01 1.944660000000000011e+01 1.282779999999999916e+02 1.776085000000000036e+03
8.899999999999999578e-02 7.430004999999999526e-01 1.871359999999999957e+01 1.276764999999999901e+02 1.775940000000000055e+03
8.999999999999999667e-02 7.429060000000000663e-01 1.804030000000000200e+01 1.271569999999999965e+02 1.775809999999999945e+03
9.099999999999999756e-02 7.428259999999999863e-01 1.742350000000000065e+01 1.267159999999999940e+02 1.775700000000000045e+03
9.199999999999999845e-02 7.427574999999999594e-01 1.685689999999999955e+01 1.263449999999999989e+02 1.775599999999999909e+03
9.299999999999999933e-02 7.426980000000000803e-01 1.633164999999999978e+01 1.260275000000000034e+02 1.775519999999999982e+03
9.400000000000000022e-02 7.426414999999999544e-01 1.583670000000000044e+01 1.257439999999999998e+02 1.775440000000000055e+03
9.500000000000000111e-02 7.425835000000000630e-01 1.535989999999999966e+01 1.254710000000000036e+02 1.775365000000000009e+03
9.600000000000000200e-02 7.425189999999999291e-01 1.488860000000000028e+01 1.251855000000000047e+02 1.775289999999999964e+03
9.700000000000000289e-02 7.424439999999999928e-01 1.441019999999999968e+01 1.248624999999999972e+02 1.775215000000000146e+03
9.800000000000000377e-02 7.423530000000000406e-01 1.391345000000000098e+01 1.244809999999999945e+02 1.775125000000000000e+03
9.900000000000000466e-02 7.422425000000000272e-01 1.338860000000000028e+01 1.240225000000000080e+02 1.775025000000000091e+03
1.000000000000000056e-01 7.421105000000000063e-01 1.282829999999999870e+01 1.234724999999999966e+02 1.774900000000000091e+03
1.010000000000000064e-01 7.419565000000000188e-01 1.222796500000000108e+01 1.228220000000000027e+02 1.774755000000000109e+03
1.020000000000000073e-01 7.417795000000000361e-01 1.158625500000000130e+01 1.220709999999999980e+02 1.774595000000000027e+03
1.030000000000000082e-01 7.415825000000000333e-01 1.090520499999999871e+01 1.212235000000000014e+02 1.774409999999999854e+03
1.040000000000000091e-01 7.413684999999999858e-01 1.018990499999999955e+01 1.202895000000000039e+02 1.774204999999999927e+03
1.050000000000000100e-01 7.411425000000000374e-01 9.448584999999999567e+00 1.192884999999999991e+02 1.773984999999999900e+03
1.059999999999999970e-01 7.409084999999999699e-01 8.691884999999999195e+00 1.182419999999999902e+02 1.773755000000000109e+03
1.069999999999999979e-01 7.406734999999999847e-01 7.932320000000000704e+00 1.171765000000000043e+02 1.773519999999999982e+03
1.079999999999999988e-01 7.404444999999999499e-01 7.183580000000000076e+00 1.161204999999999927e+02 1.773279999999999973e+03
1.089999999999999997e-01 7.402265000000000095e-01 6.459720000000000795e+00 1.151045000000000016e+02 1.773049999999999955e+03
1.100000000000000006e-01 7.400264999999999205e-01 5.774380000000000734e+00 1.141555000000000035e+02 1.772829999999999927e+03
1.110000000000000014e-01 7.398495000000000488e-01 5.139994999999999870e+00 1.133010000000000019e+02 1.772630000000000109e+03
1.120000000000000023e-01 7.396994999999999543e-01 4.567159999999999442e+00 1.125619999999999976e+02 1.772454999999999927e+03
1.130000000000000032e-01 7.395800000000000152e-01 4.064059999999999562e+00 1.119549999999999983e+02 1.772304999999999836e+03
1.140000000000000041e-01 7.394920000000000382e-01 3.636135000000000339e+00 1.114904999999999973e+02 1.772179999999999836e+03
1.150000000000000050e-01 7.394365000000000521e-01 3.285860000000000003e+00 1.111730000000000018e+02 1.772090000000000146e+03
1.160000000000000059e-01 7.394114999999999993e-01 3.012735000000000163e+00 1.110010000000000048e+02 1.772029999999999973e+03
1.170000000000000068e-01 7.394150000000000444e-01 2.813464999999999883e+00 1.109650000000000034e+02 1.772000000000000000e+03
1.180000000000000077e-01 7.394430000000000724e-01 2.682279999999999998e+00 1.110519999999999925e+02 1.772000000000000000e+03
1.190000000000000085e-01 7.394924999999999971e-01 2.611374999999999780e+00 1.112444999999999879e+02 1.772025000000000091e+03
1.200000000000000094e-01 7.395579999999999377e-01 2.591429999999999900e+00 1.115215000000000032e+02 1.772069999999999936e+03
1.209999999999999964e-01 7.396344999999999725e-01 2.612155000000000005e+00 1.118605000000000018e+02 1.772130000000000109e+03
1.219999999999999973e-01 7.397164999999999990e-01 2.662849999999999717e+00 1.122385000000000019e+02 1.772204999999999927e+03
1.229999999999999982e-01 7.398010000000000419e-01 2.732864999999999878e+00 1.126329999999999956e+02 1.772279999999999973e+03
1.239999999999999991e-01 7.398824999999999985e-01 2.812120000000000175e+00 1.130234999999999985e+02 1.772364999999999782e+03
1.250000000000000000e-01 7.399575000000000458e-01 2.891370000000000218e+00 1.133915000000000077e+02 1.772440000000000055e+03
1.260000000000000009e-01 7.400229999999999864e-01 2.962565000000000115e+00 1.137210000000000036e+02 1.772509999999999991e+03
1.270000000000000018e-01 7.400769999999999849e-01 3.018994999999999873e+00 1.140019999999999953e+02 1.772579999999999927e+03
1.280000000000000027e-01 7.401185000000000125e-01 3.055425000000000058e+00 1.142239999999999895e+02 1.772630000000000109e+03
1.290000000000000036e-01 7.401459999999999706e-01 3.068139999999999645e+00 1.143824999999999932e+02 1.772670000000000073e+03
1.300000000000000044e-01 7.401595000000000812e-01 3.054924999999999891e+00 1.144749999999999943e+02 1.772700000000000045e+03
1.310000000000000053e-01 7.401594999999999702e-01 3.015005000000000379e+00 1.145035000000000025e+02 1.772710000000000036e+03
1.320000000000000062e-01 7.401480000000000281e-01 2.948914999999999953e+00 1.144714999999999918e+02 1.772710000000000036e+03
1.330000000000000071e-01 7.401240000000000041e-01 2.858369999999999855e+00 1.143845000000000027e+02 1.772700000000000045e+03
1.340000000000000080e-01 7.400919999999999721e-01 2.746049999999999880e+00 1.142485000000000070e+02 1.772675000000000182e+03
1.350000000000000089e-01 7.400519999999999321e-01 2.615404999999999980e+00 1.140730000000000075e+02 1.772644999999999982e+03
1.360000000000000098e-01 7.400065000000000115e-01 2.470410000000000217e+00 1.138675000000000068e+02 1.772605000000000018e+03
1.370000000000000107e-01 7.399575000000000458e-01 2.315315000000000012e+00 1.136394999999999982e+02 1.772559999999999945e+03
1.380000000000000115e-01 7.399065000000000225e-01 2.154414999999999747e+00 1.133984999999999985e+02 1.772505000000000109e+03
1.390000000000000124e-01 7.398554999999999993e-01 1.991789999999999949e+00 1.131519999999999868e+02 1.772454999999999927e+03
1.400000000000000133e-01 7.398050000000000459e-01 1.831142500000000117e+00 1.129069999999999965e+02 1.772404999999999973e+03
1.410000000000000142e-01 7.397569999999999979e-01 1.675582499999999975e+00 1.126680000000000064e+02 1.772349999999999909e+03
1.420000000000000151e-01 7.397110000000000074e-01 1.527537499999999993e+00 1.124385000000000048e+02 1.772299999999999955e+03
1.430000000000000160e-01 7.396674999999999223e-01 1.388679500000000067e+00 1.122205000000000013e+02 1.772244999999999891e+03
1.440000000000000169e-01 7.396270000000000344e-01 1.259918000000000093e+00 1.120139999999999958e+02 1.772200000000000045e+03
1.450000000000000178e-01 7.395880000000000232e-01 1.141453000000000051e+00 1.118174999999999955e+02 1.772160000000000082e+03
1.459999999999999909e-01 7.395499999999999297e-01 1.032871499999999942e+00 1.116280000000000001e+02 1.772110000000000127e+03
1.469999999999999918e-01 7.395125000000000171e-01 9.332920000000000105e-01 1.114424999999999955e+02 1.772070000000000164e+03
1.479999999999999927e-01 7.394739999999999647e-01 8.415170000000000705e-01 1.112570000000000050e+02 1.772025000000000091e+03
1.489999999999999936e-01 7.394344999999999946e-01 7.562095000000000899e-01 1.110660000000000025e+02 1.771980000000000018e+03
1.499999999999999944e-01 7.393925000000000081e-01 6.760454999999999659e-01 1.108669999999999902e+02 1.771934999999999945e+03
1.509999999999999953e-01 7.393475000000000463e-01 5.998540999999999457e-01 1.106564999999999941e+02 1.771884999999999991e+03
1.519999999999999962e-01 7.392989999999999284e-01 5.267079999999999540e-01 1.104325000000000045e+02 1.771829999999999927e+03
1.529999999999999971e-01 7.392469999999999875e-01 4.560074999999999545e-01 1.101929999999999978e+02 1.771775000000000091e+03
1.539999999999999980e-01 7.391915000000000013e-01 3.875045000000000295e-01 1.099380000000000024e+02 1.771719999999999800e+03
1.549999999999999989e-01 7.391324999999999701e-01 3.213050000000000628e-01 1.096694999999999993e+02 1.771654999999999973e+03
1.559999999999999998e-01 7.390710000000000335e-01 2.578420000000000156e-01 1.093884999999999934e+02 1.771595000000000027e+03
1.570000000000000007e-01 7.390079999999999982e-01 1.978429999999999911e-01 1.090985000000000014e+02 1.771525000000000091e+03
1.580000000000000016e-01 7.389440000000000452e-01 1.422995000000000232e-01 1.088045000000000044e+02 1.771460000000000036e+03
1.590000000000000024e-01 7.388795000000000224e-01 9.241899999999997339e-02 1.085084999999999980e+02 1.771389999999999873e+03
