# t [s], A [cm^2], U [cm/s], P [cPa], c [cm/s]
1.000000000000000021e-03 1.958909999999999818e-01 3.229167500000000302e-01 9.798509999999998854e+01 2.228150000000000091e+03
2.000000000000000042e-03 1.958290000000000031e-01 1.883062499999999861e+00 9.434215000000000373e+01 2.227675000000000182e+03
3.000000000000000062e-03 1.956775000000000042e-01 3.827650499999999845e+00 8.919480000000000075e+01 2.226564999999999600e+03
4.000000000000000083e-03 1.954799999999999871e-01 6.037327499999999958e+00 8.373269999999999413e+01 2.225135000000000218e+03
5.000000000000000104e-03 1.952780000000000071e-01 8.406090000000000728e+00 7.903034999999999854e+01 2.223680000000000291e+03
6.000000000000000125e-03 1.950890000000000124e-01 1.067214000000000063e+01 7.525614999999999100e+01 2.222345000000000255e+03
7.000000000000000146e-03 1.949150000000000049e-01 1.258401999999999887e+01 7.196734999999999616e+01 2.221145000000000437e+03
8.000000000000000167e-03 1.947605000000000031e-01 1.412314499999999917e+01 6.903235000000000809e+01 2.220095000000000255e+03
9.000000000000001055e-03 1.946309999999999985e-01 1.535839999999999961e+01 6.661924999999999386e+01 2.219224999999999909e+03
1.000000000000000194e-02 1.945270000000000055e-01 1.632014999999999816e+01 6.476094999999999402e+01 2.218539999999999964e+03
1.099999999999999936e-02 1.944469999999999810e-01 1.703434999999999988e+01 6.339615000000000578e+01 2.218019999999999982e+03
1.200000000000000025e-02 1.943870000000000042e-01 1.751535000000000153e+01 6.241514999999999702e+01 2.217640000000000327e+03
1.300000000000000114e-02 1.943409999999999860e-01 1.776355000000000217e+01 6.163110000000000355e+01 2.217355000000000018e+03
1.400000000000000203e-02 1.943050000000000055e-01 1.784219999999999828e+01 6.097254999999999825e+01 2.217135000000000218e+03
1.499999999999999944e-02 1.942834999999999979e-01 1.792770000000000152e+01 6.072169999999999845e+01 2.217014999999999873e+03
1.600000000000000033e-02 1.942909999999999915e-01 1.823704999999999998e+01 6.142360000000000042e+01 2.217070000000000164e+03
1.700000000000000122e-02 1.943389999999999840e-01 1.888795000000000002e+01 6.348105000000000331e+01 2.217394999999999982e+03
1.800000000000000211e-02 1.944285000000000041e-01 1.981305000000000049e+01 6.678579999999999472e+01 2.217989999999999782e+03
1.900000000000000300e-02 1.945445000000000091e-01 2.078434999999999988e+01 7.066599999999999682e+01 2.218775000000000091e+03
2.000000000000000042e-02 1.946630000000000027e-01 2.152154999999999774e+01 7.415739999999999554e+01 2.219590000000000146e+03
2.100000000000000130e-02 1.947579999999999867e-01 2.181479999999999819e+01 7.641284999999999172e+01 2.220250000000000000e+03
2.200000000000000219e-02 1.948110000000000119e-01 2.160334999999999894e+01 7.703350000000000364e+01 2.220640000000000327e+03
2.299999999999999961e-02 1.948199999999999932e-01 2.098120000000000118e+01 7.617830000000000723e+01 2.220734999999999673e+03
2.400000000000000050e-02 1.947944999999999816e-01 2.013649999999999807e+01 7.442690000000000339e+01 2.220585000000000036e+03
2.500000000000000139e-02 1.947504999999999931e-01 1.926154999999999973e+01 7.248760000000000048e+01 2.220300000000000182e+03
2.600000000000000228e-02 1.947059999999999902e-01 1.847659999999999769e+01 7.089914999999999168e+01 2.220000000000000000e+03
2.700000000000000316e-02 1.946694999999999953e-01 1.779765000000000086e+01 6.985419999999999163e+01 2.219744999999999891e+03
2.800000000000000058e-02 1.946414999999999951e-01 1.715330000000000155e+01 6.919419999999999504e+01 2.219550000000000182e+03
2.900000000000000147e-02 1.946154999999999968e-01 1.643430000000000035e+01 6.854775000000000773e+01 2.219375000000000000e+03
3.000000000000000236e-02 1.945824999999999916e-01 1.555414999999999992e+01 6.753594999999999970e+01 2.219149999999999636e+03
3.099999999999999978e-02 1.945344999999999991e-01 1.449640000000000128e+01 6.596305000000000973e+01 2.218835000000000036e+03
3.200000000000000067e-02 1.944724999999999926e-01 1.333404999999999951e+01 6.392534999999999457e+01 2.218425000000000182e+03
3.300000000000000155e-02 1.944035000000000069e-01 1.221317499999999967e+01 6.179975000000000307e+01 2.217960000000000036e+03
3.400000000000000244e-02 1.943415000000000004e-01 1.130782499999999935e+01 6.012104999999999677e+01 2.217534999999999854e+03
3.500000000000000333e-02 1.943010000000000015e-01 1.076367499999999922e+01 5.939589999999999748e+01 2.217250000000000000e+03
3.600000000000000422e-02 1.942949999999999955e-01 1.065149999999999864e+01 5.992799999999999727e+01 2.217180000000000291e+03
3.700000000000000511e-02 1.943265000000000131e-01 1.094614999999999938e+01 6.171535000000000082e+01 2.217375000000000000e+03
3.799999999999999906e-02 1.943929999999999825e-01 1.153470000000000084e+01 6.444735000000000014e+01 2.217800000000000182e+03
3.899999999999999994e-02 1.944815000000000016e-01 1.224610000000000021e+01 6.758965000000000600e+01 2.218390000000000327e+03
4.000000000000000083e-02 1.945760000000000267e-01 1.289184999999999981e+01 7.051879999999999882e+01 2.219019999999999982e+03
4.100000000000000172e-02 1.946574999999999833e-01 1.330369999999999919e+01 7.266225000000000023e+01 2.219574999999999818e+03
4.200000000000000261e-02 1.947105000000000086e-01 1.336139999999999972e+01 7.360644999999999527e+01 2.219949999999999818e+03
4.300000000000000350e-02 1.947249999999999814e-01 1.300469999999999970e+01 7.315360000000001151e+01 2.220070000000000164e+03
4.400000000000000439e-02 1.946970000000000089e-01 1.223179999999999978e+01 7.132140000000001123e+01 2.219899999999999636e+03
4.499999999999999833e-02 1.946269999999999945e-01 1.108645500000000084e+01 6.829879999999999995e+01 2.219440000000000055e+03
4.599999999999999922e-02 1.945215000000000138e-01 9.640074999999999505e+00 6.437680000000000291e+01 2.218735000000000127e+03
4.700000000000000011e-02 1.943880000000000052e-01 7.974980000000000402e+00 5.987715000000000032e+01 2.217845000000000255e+03
4.800000000000000100e-02 1.942364999999999786e-01 6.171784999999999854e+00 5.509805000000000064e+01 2.216824999999999818e+03
4.900000000000000189e-02 1.940749999999999975e-01 4.303569099999999814e+00 5.028464999999999918e+01 2.215735000000000127e+03
5.000000000000000278e-02 1.939119999999999733e-01 2.435430000000000206e+00 4.562484999999999502e+01 2.214625000000000000e+03
5.100000000000000366e-02 1.937519999999999798e-01 6.274650000000001615e-01 4.126215000000000543e+01 2.213539999999999964e+03
5.200000000000000455e-02 1.936019999999999963e-01 -1.061430000000000096e+00 3.731660000000000110e+01 2.212514999999999873e+03
5.300000000000000544e-02 1.934649999999999981e-01 -2.570907000000000053e+00 3.390344999999999942e+01 2.211574999999999818e+03
5.399999999999999939e-02 1.933475000000000055e-01 -3.839134999999999742e+00 3.114334999999999809e+01 2.210764999999999873e+03
5.500000000000000028e-02 1.932530000000000081e-01 -4.805324999999999847e+00 2.916190000000000282e+01 2.210110000000000127e+03
5.600000000000000117e-02 1.931864999999999832e-01 -5.414324999999999832e+00 2.808019999999999783e+01 2.209640000000000327e+03
5.700000000000000205e-02 1.931515000000000037e-01 -5.622114999999999974e+00 2.799924999999999997e+01 2.209380000000000109e+03
5.800000000000000294e-02 1.931519999999999904e-01 -5.400745000000000573e+00 2.898395000000000010e+01 2.209355000000000018e+03
5.900000000000000383e-02 1.931889999999999996e-01 -4.741724999999999746e+00 3.105065000000000097e+01 2.209579999999999927e+03
6.000000000000000472e-02 1.932635000000000047e-01 -3.657264999999999766e+00 3.416124999999999545e+01 2.210059999999999945e+03
6.099999999999999867e-02 1.933725000000000027e-01 -2.179311500000000290e+00 3.822444999999999737e+01 2.210775000000000091e+03
6.199999999999999956e-02 1.935144999999999782e-01 -3.567899999999999405e-01 4.310374999999999801e+01 2.211710000000000036e+03
6.300000000000000044e-02 1.936835000000000084e-01 1.748215000000000074e+00 4.862910000000000110e+01 2.212840000000000146e+03
6.400000000000000133e-02 1.938750000000000195e-01 4.064858499999999708e+00 5.461074999999999591e+01 2.214125000000000000e+03
6.500000000000000222e-02 1.940820000000000045e-01 6.517939999999999401e+00 6.085275000000000034e+01 2.215519999999999982e+03
6.600000000000000311e-02 1.942979999999999985e-01 9.032180000000000319e+00 6.716570000000000107e+01 2.216984999999999673e+03
6.700000000000000400e-02 1.945169999999999955e-01 1.153638000000000119e+01 7.337760000000000105e+01 2.218475000000000364e+03
6.800000000000000488e-02 1.947329999999999894e-01 1.396703000000000117e+01 7.934335000000000093e+01 2.219960000000000036e+03
6.900000000000000577e-02 1.949420000000000042e-01 1.627169999999999916e+01 8.495250000000000057e+01 2.221394999999999982e+03
7.000000000000000666e-02 1.951404999999999945e-01 1.841140000000000043e+01 9.013439999999999941e+01 2.222755000000000109e+03
7.100000000000000755e-02 1.953254999999999852e-01 2.036220000000000141e+01 9.486045000000000016e+01 2.224034999999999854e+03
7.200000000000000844e-02 1.954960000000000031e-01 2.211514999999999986e+01 9.914334999999999809e+01 2.225225000000000364e+03
7.300000000000000933e-02 1.956530000000000213e-01 2.367520000000000024e+01 1.030301499999999919e+02 2.226319999999999709e+03
7.399999999999999634e-02 1.957984999999999864e-01 2.505850000000000222e+01 1.065944999999999965e+02 2.227335000000000036e+03
7.499999999999999722e-02 1.959335000000000104e-01 2.628954999999999842e+01 1.099274999999999949e+02 2.228275000000000091e+03
7.599999999999999811e-02 1.960614999999999997e-01 2.739690000000000225e+01 1.131225000000000023e+02 2.229175000000000182e+03
7.699999999999999900e-02 1.961859999999999993e-01 2.841009999999999991e+01 1.162680000000000007e+02 2.230039999999999964e+03
7.799999999999999989e-02 1.963084999999999969e-01 2.935614999999999952e+01 1.194344999999999999e+02 2.230900000000000091e+03
7.900000000000000078e-02 1.964309999999999945e-01 3.025710000000000122e+01 1.226734999999999900e+02 2.231755000000000109e+03
8.000000000000000167e-02 1.965560000000000085e-01 3.112845000000000084e+01 1.260095000000000027e+02 2.232625000000000000e+03
8.100000000000000255e-02 1.966835000000000111e-01 3.197834999999999894e+01 1.294430000000000121e+02 2.233510000000000218e+03
8.200000000000000344e-02 1.968135000000000023e-01 3.280764999999999532e+01 1.329505000000000052e+02 2.234420000000000073e+03
8.300000000000000433e-02 1.969445000000000223e-01 3.361034999999999684e+01 1.364915000000000020e+02 2.235335000000000036e+03
8.400000000000000522e-02 1.970760000000000012e-01 3.437470000000000425e+01 1.400090000000000146e+02 2.236244999999999891e+03
8.500000000000000611e-02 1.972059999999999924e-01 3.508444999999999681e+01 1.434375000000000000e+02 2.237150000000000091e+03
8.600000000000000699e-02 1.973320000000000074e-01 3.572055000000000291e+01 1.467080000000000268e+02 2.238025000000000091e+03
8.700000000000000788e-02 1.974515000000000020e-01 3.626214999999999833e+01 1.497500000000000000e+02 2.238860000000000127e+03
8.800000000000000877e-02 1.975620000000000154e-01 3.668885000000000218e+01 1.524995000000000118e+02 2.239635000000000218e+03
8.899999999999999578e-02 1.976624999999999910e-01 3.698144999999999527e+01 1.548990000000000009e+02 2.240340000000000146e+03
8.999999999999999667e-02 1.977499999999999813e-01 3.712364999999999782e+01 1.569035000000000082e+02 2.240960000000000036e+03
9.099999999999999756e-02 1.978239999999999998e-01 3.710330000000000439e+01 1.584780000000000086e+02 2.241484999999999673e+03
9.199999999999999845e-02 1.978825000000000167e-01 3.691284999999999883e+01 1.596055000000000064e+02 2.241899999999999636e+03
9.299999999999999933e-02 1.979255000000000042e-01 3.655039999999999623e+01 1.602830000000000155e+02 2.242210000000000036e+03
9.400000000000000022e-02 1.979529999999999901e-01 3.601999999999999602e+01 1.605229999999999961e+02 2.242409999999999854e+03
9.500000000000000111e-02 1.979644999999999877e-01 3.533119999999999550e+01 1.603545000000000016e+02 2.242505000000000109e+03
9.600000000000000200e-02 1.979619999999999991e-01 3.449904999999999688e+01 1.598179999999999836e+02 2.242505000000000109e+03
9.700000000000000289e-02 1.979474999999999985e-01 3.354299999999999926e+01 1.589660000000000082e+02 2.242409999999999854e+03
9.800000000000000377e-02 1.979210000000000136e-01 3.248624999999999829e+01 1.578580000000000041e+02 2.242239999999999782e+03
9.900000000000000466e-02 1.978860000000000063e-01 3.135415000000000063e+01 1.565585000000000093e+02 2.242005000000000109e+03
1.000000000000000056e-01 1.978440000000000198e-01 3.017309999999999803e+01 1.551320000000000050e+02 2.241720000000000255e+03
1.010000000000000064e-01 1.977975000000000150e-01 2.896950000000000003e+01 1.536415000000000077e+02 2.241404999999999745e+03
1.020000000000000073e-01 1.977484999999999937e-01 2.776845000000000141e+01 1.521460000000000150e+02 2.241064999999999600e+03
1.030000000000000082e-01 1.976984999999999992e-01 2.659259999999999735e+01 1.506955000000000098e+02 2.240715000000000146e+03
1.040000000000000091e-01 1.976499999999999924e-01 2.546134999999999948e+01 1.493315000000000055e+02 2.240380000000000109e+03
1.050000000000000100e-01 1.976034999999999875e-01 2.439034999999999798e+01 1.480865000000000009e+02 2.240054999999999836e+03
1.059999999999999970e-01 1.975609999999999866e-01 2.339045000000000130e+01 1.469784999999999968e+02 2.239760000000000218e+03
1.069999999999999979e-01 1.975224999999999898e-01 2.246784999999999854e+01 1.460155000000000030e+02 2.239484999999999673e+03
1.079999999999999988e-01 1.974885000000000113e-01 2.162359999999999971e+01 1.451935000000000002e+02 2.239244999999999891e+03
1.089999999999999997e-01 1.974584999999999813e-01 2.085425000000000040e+01 1.444960000000000093e+02 2.239029999999999745e+03
1.100000000000000006e-01 1.974325000000000108e-01 2.015169999999999817e+01 1.438969999999999914e+02 2.238845000000000255e+03
1.110000000000000014e-01 1.974090000000000011e-01 1.950424999999999898e+01 1.433619999999999948e+02 2.238675000000000182e+03
1.120000000000000023e-01 1.973874999999999935e-01 1.889714999999999989e+01 1.428509999999999991e+02 2.238519999999999982e+03
1.130000000000000032e-01 1.973665000000000003e-01 1.831400000000000006e+01 1.423205000000000098e+02 2.238369999999999891e+03
1.140000000000000041e-01 1.973440000000000194e-01 1.773760000000000048e+01 1.417255000000000109e+02 2.238210000000000036e+03
1.150000000000000050e-01 1.973199999999999954e-01 1.715135000000000076e+01 1.410264999999999986e+02 2.238039999999999964e+03
1.160000000000000059e-01 1.972915000000000085e-01 1.653995000000000104e+01 1.401875000000000000e+02 2.237845000000000255e+03
1.170000000000000068e-01 1.972579999999999889e-01 1.589095000000000013e+01 1.391804999999999950e+02 2.237614999999999782e+03
1.180000000000000077e-01 1.972190000000000054e-01 1.519535000000000124e+01 1.379884999999999877e+02 2.237345000000000255e+03
1.190000000000000085e-01 1.971739999999999882e-01 1.444824999999999804e+01 1.366059999999999945e+02 2.237030000000000200e+03
1.200000000000000094e-01 1.971225000000000060e-01 1.364894999999999925e+01 1.350384999999999991e+02 2.236675000000000182e+03
1.209999999999999964e-01 1.970649999999999902e-01 1.280160000000000053e+01 1.333039999999999736e+02 2.236279999999999745e+03
1.219999999999999973e-01 1.970014999999999961e-01 1.191426500000000033e+01 1.314314999999999998e+02 2.235844999999999800e+03
1.229999999999999982e-01 1.969339999999999979e-01 1.099906999999999968e+01 1.294584999999999866e+02 2.235380000000000109e+03
1.239999999999999991e-01 1.968630000000000102e-01 1.007098000000000049e+01 1.274294999999999902e+02 2.234890000000000327e+03
1.250000000000000000e-01 1.967904999999999793e-01 9.147080000000000766e+00 1.253934999999999889e+02 2.234389999999999873e+03
1.260000000000000009e-01 1.967180000000000040e-01 8.245435000000000514e+00 1.233995000000000033e+02 2.233889999999999873e+03
1.270000000000000018e-01 1.966475000000000029e-01 7.384199999999999875e+00 1.214954999999999927e+02 2.233399999999999636e+03
1.280000000000000027e-01 1.965795000000000181e-01 6.580299999999999372e+00 1.197265000000000015e+02 2.232930000000000291e+03
1.290000000000000036e-01 1.965169999999999972e-01 5.848709999999999631e+00 1.181285000000000025e+02 2.232489999999999782e+03
1.300000000000000044e-01 1.964595000000000091e-01 5.201649999999999885e+00 1.167299999999999898e+02 2.232095000000000255e+03
1.310000000000000053e-01 1.964095000000000146e-01 4.648010000000000197e+00 1.155500000000000114e+02 2.231735000000000127e+03
1.320000000000000062e-01 1.963664999999999994e-01 4.193099999999999383e+00 1.145990000000000038e+02 2.231434999999999945e+03
1.330000000000000071e-01 1.963314999999999921e-01 3.838494999999999990e+00 1.138750000000000000e+02 2.231184999999999945e+03
1.340000000000000080e-01 1.963040000000000063e-01 3.582209999999999894e+00 1.133695000000000022e+02 2.230989999999999782e+03
1.350000000000000089e-01 1.962840000000000140e-01 3.419004999999999850e+00 1.130649999999999977e+02 2.230845000000000255e+03
1.360000000000000098e-01 1.962710000000000010e-01 3.340810000000000279e+00 1.129385000000000048e+02 2.230750000000000000e+03
1.370000000000000107e-01 1.962639999999999940e-01 3.337295000000000122e+00 1.129609999999999985e+02 2.230690000000000055e+03
1.380000000000000115e-01 1.962619999999999920e-01 3.396460000000000257e+00 1.131030000000000086e+02 2.230670000000000073e+03
1.390000000000000124e-01 1.962645000000000084e-01 3.505264999999999631e+00 1.133309999999999889e+02 2.230680000000000291e+03
1.400000000000000133e-01 1.962700000000000000e-01 3.650224999999999831e+00 1.136140000000000043e+02 2.230720000000000255e+03
1.410000000000000142e-01 1.962774999999999936e-01 3.817994999999999806e+00 1.139205000000000041e+02 2.230760000000000218e+03
1.420000000000000151e-01 1.962860000000000160e-01 3.995834999999999582e+00 1.142240000000000038e+02 2.230819999999999709e+03
1.430000000000000160e-01 1.962944999999999829e-01 4.172094999999999665e+00 1.144989999999999952e+02 2.230875000000000000e+03
1.440000000000000169e-01 1.963019999999999765e-01 4.336545000000000094e+00 1.147255000000000109e+02 2.230925000000000182e+03
1.450000000000000178e-01 1.963084999999999969e-01 4.480665000000000120e+00 1.148880000000000052e+02 2.230970000000000255e+03
1.459999999999999909e-01 1.963130000000000153e-01 4.597830000000000084e+00 1.149745000000000061e+02 2.231000000000000000e+03
1.469999999999999918e-01 1.963145000000000029e-01 4.683424999999999727e+00 1.149789999999999992e+02 2.231015000000000327e+03
1.479999999999999927e-01 1.963135000000000019e-01 4.734844999999999970e+00 1.149004999999999939e+02 2.231010000000000218e+03
1.489999999999999936e-01 1.963104999999999989e-01 4.751450000000000173e+00 1.147409999999999997e+02 2.230994999999999891e+03
1.499999999999999944e-01 1.963044999999999929e-01 4.734384999999999621e+00 1.145070000000000050e+02 2.230954999999999927e+03
1.509999999999999953e-01 1.962964999999999849e-01 4.686365000000000336e+00 1.142085000000000008e+02 2.230894999999999982e+03
1.519999999999999962e-01 1.962855000000000016e-01 4.611359999999999459e+00 1.138569999999999993e+02 2.230824999999999818e+03
1.529999999999999971e-01 1.962734999999999896e-01 4.514264999999999972e+00 1.134664999999999964e+02 2.230744999999999891e+03
1.539999999999999980e-01 1.962599999999999900e-01 4.400495000000000267e+00 1.130504999999999995e+02 2.230654999999999745e+03
1.549999999999999989e-01 1.962455000000000171e-01 4.275599999999999845e+00 1.126225000000000023e+02 2.230555000000000291e+03
1.559999999999999998e-01 1.962305000000000021e-01 4.144915000000000127e+00 1.121945000000000050e+02 2.230454999999999927e+03
1.570000000000000007e-01 1.962160000000000015e-01 4.013250000000000206e+00 1.117775000000000034e+02 2.230355000000000018e+03
1.580000000000000016e-01 1.962010000000000143e-01 3.884599999999999831e+00 1.113780000000000001e+02 2.230250000000000000e+03
1.590000000000000024e-01 1.961875000000000147e-01 3.762035000000000018e+00 1.110014999999999930e+02 2.230159999999999854e+03
