# t [s], A [cm^2], U [cm/s], P [cPa], c [cm/s]
1.000000000000000021e-03 5.126859999999999751e-01 3.006500000000002226e-03 1.004279999999999973e+02 1.468860000000000127e+03
2.000000000000000042e-03 5.126800000000000246e-01 3.274649999999998742e-04 1.004134999999999991e+02 1.468855000000000018e+03
3.000000000000000062e-03 5.127049999999999663e-01 4.839749999999999608e-02 1.004574999999999960e+02 1.468869999999999891e+03
4.000000000000000083e-03 5.127485000000000515e-01 1.287274499999999933e-01 1.005548500000000018e+02 1.468900000000000091e+03
5.000000000000000104e-03 5.127585000000000059e-01 1.510489999999999888e-01 1.005876999999999981e+02 1.468914999999999964e+03
6.000000000000000125e-03 5.127334999999999532e-01 1.060335000000000027e-01 1.005144999999999982e+02 1.468904999999999973e+03
7.000000000000000146e-03 5.127010000000000733e-01 4.391499999999998183e-02 1.003750000000000000e+02 1.468865000000000009e+03
8.000000000000000167e-03 5.126684999999999715e-01 -2.218249999999999389e-02 1.001910000000000025e+02 1.468820000000000164e+03
9.000000000000001055e-03 5.126155000000000017e-01 -1.343189999999999662e-01 9.991875000000000284e+01 1.468750000000000000e+03
1.000000000000000194e-02 5.125269999999999548e-01 -3.216799999999999660e-01 9.951140000000000896e+01 1.468644999999999982e+03
1.099999999999999936e-02 5.123984999999999790e-01 -5.932350000000000678e-01 9.893514999999999304e+01 1.468490000000000009e+03
1.200000000000000025e-02 5.122204999999999675e-01 -9.597649999999999793e-01 9.815359999999999729e+01 1.468275000000000091e+03
1.300000000000000114e-02 5.119869999999999699e-01 -1.423399999999999999e+00 9.713779999999999859e+01 1.467985000000000127e+03
1.400000000000000203e-02 5.117064999999999531e-01 -1.953455000000000163e+00 9.589570000000000505e+01 1.467630000000000109e+03
1.499999999999999944e-02 5.114020000000000232e-01 -2.483600000000000030e+00 9.448845000000000027e+01 1.467220000000000027e+03
1.600000000000000033e-02 5.111044999999999616e-01 -2.934085000000000054e+00 9.301054999999999495e+01 1.466764999999999873e+03
1.700000000000000122e-02 5.108354999999999979e-01 -3.239724999999999966e+00 9.155734999999999957e+01 1.466309999999999945e+03
1.800000000000000211e-02 5.106045000000000167e-01 -3.367181500000000050e+00 9.019665000000000532e+01 1.465860000000000127e+03
1.900000000000000300e-02 5.104055000000000675e-01 -3.317354500000000428e+00 8.895625000000001137e+01 1.465424999999999955e+03
2.000000000000000042e-02 5.102265000000000272e-01 -3.117089499999999624e+00 8.782579999999998677e+01 1.465014999999999873e+03
2.100000000000000130e-02 5.100510000000000321e-01 -2.806238000000000010e+00 8.676855000000000473e+01 1.464615000000000009e+03
2.200000000000000219e-02 5.098635000000000250e-01 -2.424704000000000192e+00 8.573709999999999809e+01 1.464219999999999800e+03
2.299999999999999961e-02 5.096549999999999692e-01 -2.002575000000000216e+00 8.468854999999999222e+01 1.463815000000000055e+03
2.400000000000000050e-02 5.094239999999999879e-01 -1.555164999999999909e+00 8.359539999999999793e+01 1.463405000000000200e+03
2.500000000000000139e-02 5.091729999999999867e-01 -1.083614999999999773e+00 8.244984999999999786e+01 1.462970000000000027e+03
2.600000000000000228e-02 5.089099999999999735e-01 -5.800499999999999545e-01 8.126120000000000232e+01 1.462525000000000091e+03
2.700000000000000316e-02 5.086429999999999563e-01 -3.519499999999986528e-02 8.004800000000000182e+01 1.462074999999999818e+03
2.800000000000000058e-02 5.083759999999999390e-01 5.544599999999997308e-01 7.882869999999999777e+01 1.461619999999999891e+03
2.900000000000000147e-02 5.081100000000000616e-01 1.181905000000000205e+00 7.761305000000000121e+01 1.461159999999999854e+03
3.000000000000000236e-02 5.078405000000000280e-01 1.828374999999999861e+00 7.639770000000000039e+01 1.460699999999999818e+03
3.099999999999999978e-02 5.075609999999999289e-01 2.465354999999999741e+00 7.516509999999999536e+01 1.460235000000000127e+03
3.200000000000000067e-02 5.072624999999999496e-01 3.059030000000000360e+00 7.388710000000000377e+01 1.459759999999999991e+03
3.300000000000000155e-02 5.069354999999999833e-01 3.576060000000000461e+00 7.253114999999999668e+01 1.459255000000000109e+03
3.400000000000000244e-02 5.065740000000000798e-01 3.989329999999999821e+00 7.106794999999999618e+01 1.458730000000000018e+03
3.500000000000000333e-02 5.061765000000000292e-01 4.282734999999999737e+00 6.947860000000000014e+01 1.458170000000000073e+03
3.600000000000000422e-02 5.057454999999999590e-01 4.453619999999999912e+00 6.776075000000000159e+01 1.457579999999999927e+03
3.700000000000000511e-02 5.052900000000000169e-01 4.513185000000000002e+00 6.593084999999999241e+01 1.456954999999999927e+03
3.799999999999999906e-02 5.048205000000000053e-01 4.484024999999999928e+00 6.402375000000000682e+01 1.456309999999999945e+03
3.899999999999999994e-02 5.043524999999999814e-01 4.396514999999999063e+00 6.208889999999999532e+01 1.455650000000000091e+03
4.000000000000000083e-02 5.039000000000000146e-01 4.284245000000000303e+00 6.018489999999999895e+01 1.455000000000000000e+03
4.100000000000000172e-02 5.034769999999999524e-01 4.179739999999999789e+00 5.837299999999999756e+01 1.454369999999999891e+03
4.200000000000000261e-02 5.030959999999999877e-01 4.111674999999999969e+00 5.671184999999999832e+01 1.453784999999999854e+03
4.300000000000000350e-02 5.027665000000000051e-01 4.103080000000000283e+00 5.525265000000000271e+01 1.453259999999999991e+03
4.400000000000000439e-02 5.024944999999999551e-01 4.170885000000000176e+00 5.403719999999999857e+01 1.452799999999999955e+03
4.499999999999999833e-02 5.022854999999999404e-01 4.326715499999999714e+00 5.309649999999999892e+01 1.452425000000000182e+03
4.599999999999999922e-02 5.021420000000000883e-01 4.578160000000000451e+00 5.245159999999999911e+01 1.452144999999999982e+03
4.700000000000000011e-02 5.020654999999999424e-01 4.930215000000000458e+00 5.211500000000000199e+01 1.451960000000000036e+03
4.800000000000000100e-02 5.020559999999999468e-01 5.386635000000000062e+00 5.209244999999999948e+01 1.451880000000000109e+03
4.900000000000000189e-02 5.021145000000000191e-01 5.950775000000000148e+00 5.238504999999999967e+01 1.451900000000000091e+03
5.000000000000000278e-02 5.022405000000000896e-01 6.625869999999999926e+00 5.299049999999999727e+01 1.452019999999999982e+03
5.100000000000000366e-02 5.024334999999999773e-01 7.414819999999999744e+00 5.390394999999999470e+01 1.452255000000000109e+03
5.200000000000000455e-02 5.026920000000000277e-01 8.319539999999999935e+00 5.511825000000000330e+01 1.452585000000000036e+03
5.300000000000000544e-02 5.030144999999999200e-01 9.340030000000000499e+00 5.662359999999999616e+01 1.453019999999999982e+03
5.399999999999999939e-02 5.033980000000000121e-01 1.047376500000000021e+01 5.840680000000000405e+01 1.453550000000000182e+03
5.500000000000000028e-02 5.038390000000000368e-01 1.171498500000000043e+01 6.045100000000000051e+01 1.454170000000000073e+03
5.600000000000000117e-02 5.043320000000000025e-01 1.305468000000000117e+01 6.273519999999999186e+01 1.454875000000000000e+03
5.700000000000000205e-02 5.048710000000000697e-01 1.448048000000000002e+01 6.523425000000000296e+01 1.455654999999999973e+03
5.800000000000000294e-02 5.054490000000000371e-01 1.597754499999999922e+01 6.791949999999999932e+01 1.456515000000000100e+03
5.900000000000000383e-02 5.060590000000000366e-01 1.752908000000000044e+01 7.075985000000000014e+01 1.457429999999999836e+03
6.000000000000000472e-02 5.066935000000000189e-01 1.911744999999999806e+01 7.372249999999999659e+01 1.458394999999999982e+03
6.099999999999999867e-02 5.073455000000000048e-01 2.072490000000000165e+01 7.677469999999999573e+01 1.459400000000000091e+03
6.199999999999999956e-02 5.080084999999999740e-01 2.233480000000000132e+01 7.988519999999999754e+01 1.460440000000000055e+03
6.300000000000000044e-02 5.086770000000000458e-01 2.393175000000000097e+01 8.302535000000000309e+01 1.461494999999999891e+03
6.400000000000000133e-02 5.093449999999999367e-01 2.550285000000000224e+01 8.616974999999999341e+01 1.462565000000000055e+03
6.500000000000000222e-02 5.100099999999999634e-01 2.703709999999999880e+01 8.929804999999998927e+01 1.463639999999999873e+03
6.600000000000000311e-02 5.106680000000000108e-01 2.852629999999999910e+01 9.239390000000000214e+01 1.464715000000000146e+03
6.700000000000000400e-02 5.113179999999999392e-01 2.996420000000000172e+01 9.544554999999999723e+01 1.465785000000000082e+03
6.800000000000000488e-02 5.119584999999999830e-01 3.134669999999999845e+01 9.844589999999999463e+01 1.466840000000000146e+03
6.900000000000000577e-02 5.125899999999999901e-01 3.267140000000000555e+01 1.013917000000000002e+02 1.467884999999999991e+03
7.000000000000000666e-02 5.132120000000000015e-01 3.393715000000000259e+01 1.042819000000000074e+02 1.468914999999999964e+03
7.100000000000000755e-02 5.138249999999999762e-01 3.514365000000000094e+01 1.071191500000000048e+02 1.469940000000000055e+03
7.200000000000000844e-02 5.144299999999999429e-01 3.629135000000000133e+01 1.099060000000000059e+02 1.470944999999999936e+03
7.300000000000000933e-02 5.150270000000000126e-01 3.738060000000000116e+01 1.126469999999999914e+02 1.471934999999999945e+03
7.399999999999999634e-02 5.156180000000000208e-01 3.841179999999999950e+01 1.153439999999999941e+02 1.472909999999999854e+03
7.499999999999999722e-02 5.162010000000000209e-01 3.938500000000000512e+01 1.180014999999999930e+02 1.473880000000000109e+03
7.599999999999999811e-02 5.167779999999999596e-01 4.029975000000000307e+01 1.206184999999999974e+02 1.474835000000000036e+03
7.699999999999999900e-02 5.173465000000000424e-01 4.115489999999999782e+01 1.231955000000000098e+02 1.475779999999999973e+03
7.799999999999999989e-02 5.179074999999999651e-01 4.194894999999999641e+01 1.257295000000000016e+02 1.476710000000000036e+03
7.900000000000000078e-02 5.184575000000000156e-01 4.267954999999999899e+01 1.282154999999999916e+02 1.477625000000000000e+03
8.000000000000000167e-02 5.189965000000000828e-01 4.334414999999999907e+01 1.306465000000000032e+02 1.478519999999999982e+03
8.100000000000000255e-02 5.195214999999999694e-01 4.393970000000000198e+01 1.330149999999999864e+02 1.479400000000000091e+03
8.200000000000000344e-02 5.200314999999999799e-01 4.446314999999999884e+01 1.353104999999999905e+02 1.480259999999999991e+03
8.300000000000000433e-02 5.205224999999999991e-01 4.491150000000000375e+01 1.375240000000000009e+02 1.481085000000000036e+03
8.400000000000000522e-02 5.209930000000000394e-01 4.528199999999999648e+01 1.396440000000000055e+02 1.481884999999999991e+03
8.500000000000000611e-02 5.214415000000000022e-01 4.557240000000000180e+01 1.416605000000000132e+02 1.482650000000000091e+03
8.600000000000000699e-02 5.218654999999999822e-01 4.578085000000000093e+01 1.435659999999999741e+02 1.483384999999999991e+03
8.700000000000000788e-02 5.222630000000000328e-01 4.590644999999999953e+01 1.453489999999999895e+02 1.484070000000000164e+03
8.800000000000000877e-02 5.226334999999999731e-01 4.594875000000000398e+01 1.470055000000000121e+02 1.484714999999999918e+03
8.899999999999999578e-02 5.229749999999999677e-01 4.590834999999999866e+01 1.485285000000000082e+02 1.485320000000000164e+03
8.999999999999999667e-02 5.232875000000000165e-01 4.578659999999999997e+01 1.499139999999999873e+02 1.485875000000000000e+03
9.099999999999999756e-02 5.235704999999999387e-01 4.558565000000000111e+01 1.511625000000000227e+02 1.486380000000000109e+03
9.199999999999999845e-02 5.238245000000000262e-01 4.530834999999999724e+01 1.522715000000000032e+02 1.486840000000000146e+03
9.299999999999999933e-02 5.240495000000000569e-01 4.495850000000000080e+01 1.532450000000000045e+02 1.487250000000000000e+03
9.400000000000000022e-02 5.242459999999999898e-01 4.454054999999999609e+01 1.540854999999999961e+02 1.487615000000000009e+03
9.500000000000000111e-02 5.244155000000000344e-01 4.405955000000000155e+01 1.547980000000000018e+02 1.487929999999999836e+03
9.600000000000000200e-02 5.245589999999999975e-01 4.352115000000000578e+01 1.553899999999999864e+02 1.488199999999999818e+03
9.700000000000000289e-02 5.246794999999999654e-01 4.293160000000000309e+01 1.558679999999999950e+02 1.488434999999999945e+03
9.800000000000000377e-02 5.247775000000000079e-01 4.229744999999999777e+01 1.562425000000000068e+02 1.488619999999999891e+03
9.900000000000000466e-02 5.248555000000000303e-01 4.162560000000000571e+01 1.565215000000000032e+02 1.488775000000000091e+03
1.000000000000000056e-01 5.249154999999999793e-01 4.092300000000000182e+01 1.567160000000000082e+02 1.488894999999999982e+03
1.010000000000000064e-01 5.249595000000000233e-01 4.019674999999999443e+01 1.568365000000000009e+02 1.488985000000000127e+03
1.020000000000000073e-01 5.249905000000000266e-01 3.945364999999999611e+01 1.568940000000000055e+02 1.489045000000000073e+03
1.030000000000000082e-01 5.250095000000000178e-01 3.870024999999999693e+01 1.568974999999999795e+02 1.489085000000000036e+03
1.040000000000000091e-01 5.250194999999999723e-01 3.794259999999999877e+01 1.568575000000000159e+02 1.489105000000000018e+03
1.050000000000000100e-01 5.250215000000000298e-01 3.718605000000000160e+01 1.567830000000000155e+02 1.489110000000000127e+03
1.059999999999999970e-01 5.250170000000000670e-01 3.643520000000000181e+01 1.566809999999999832e+02 1.489099999999999909e+03
1.069999999999999979e-01 5.250074999999999603e-01 3.569379999999999598e+01 1.565584999999999809e+02 1.489075000000000045e+03
1.079999999999999988e-01 5.249939999999999607e-01 3.496464999999999890e+01 1.564205000000000041e+02 1.489039999999999964e+03
1.089999999999999997e-01 5.249770000000000270e-01 3.424960000000000093e+01 1.562710000000000150e+02 1.489000000000000000e+03
1.100000000000000006e-01 5.249570000000000070e-01 3.354950000000000188e+01 1.561109999999999900e+02 1.488954999999999927e+03
1.110000000000000014e-01 5.249334999999999418e-01 3.286435000000000173e+01 1.559424999999999955e+02 1.488904999999999973e+03
1.120000000000000023e-01 5.249064999999999426e-01 3.219335000000000235e+01 1.557635000000000218e+02 1.488849999999999909e+03
1.130000000000000032e-01 5.248749999999999805e-01 3.153494999999999848e+01 1.555724999999999909e+02 1.488784999999999854e+03
1.140000000000000041e-01 5.248395000000000143e-01 3.088704999999999856e+01 1.553670000000000186e+02 1.488715000000000146e+03
1.150000000000000050e-01 5.247985000000000566e-01 3.024734999999999729e+01 1.551430000000000007e+02 1.488639999999999873e+03
1.160000000000000059e-01 5.247509999999999675e-01 2.961305000000000121e+01 1.548975000000000080e+02 1.488550000000000182e+03
1.170000000000000068e-01 5.246969999999999690e-01 2.898124999999999929e+01 1.546250000000000000e+02 1.488460000000000036e+03
1.180000000000000077e-01 5.246345000000000036e-01 2.834929999999999950e+01 1.543229999999999791e+02 1.488355000000000018e+03
1.190000000000000085e-01 5.245640000000000303e-01 2.771464999999999890e+01 1.539875000000000114e+02 1.488240000000000009e+03
1.200000000000000094e-01 5.244845000000000201e-01 2.707485000000000142e+01 1.536150000000000091e+02 1.488110000000000127e+03
1.209999999999999964e-01 5.243959999999999733e-01 2.642810000000000059e+01 1.532035000000000196e+02 1.487974999999999909e+03
1.219999999999999973e-01 5.242975000000000829e-01 2.577289999999999992e+01 1.527520000000000095e+02 1.487819999999999936e+03
1.229999999999999982e-01 5.241894999999999749e-01 2.510820000000000007e+01 1.522595000000000027e+02 1.487650000000000091e+03
1.239999999999999991e-01 5.240725000000000522e-01 2.443384999999999962e+01 1.517259999999999991e+02 1.487469999999999800e+03
1.250000000000000000e-01 5.239469999999999406e-01 2.374980000000000047e+01 1.511539999999999964e+02 1.487275000000000091e+03
1.260000000000000009e-01 5.238134999999999319e-01 2.305715000000000003e+01 1.505455000000000041e+02 1.487070000000000164e+03
1.270000000000000018e-01 5.236730000000000551e-01 2.235709999999999908e+01 1.499044999999999845e+02 1.486849999999999909e+03
1.280000000000000027e-01 5.235260000000000469e-01 2.165165000000000006e+01 1.492355000000000018e+02 1.486619999999999891e+03
1.290000000000000036e-01 5.233744999999999647e-01 2.094334999999999880e+01 1.485434999999999945e+02 1.486384999999999991e+03
1.300000000000000044e-01 5.232200000000000184e-01 2.023505000000000109e+01 1.478340000000000032e+02 1.486139999999999873e+03
1.310000000000000053e-01 5.230630000000000557e-01 1.953005000000000280e+01 1.471145000000000209e+02 1.485884999999999991e+03
1.320000000000000062e-01 5.229059999999999819e-01 1.883200000000000074e+01 1.463915000000000077e+02 1.485634999999999991e+03
1.330000000000000071e-01 5.227500000000000480e-01 1.814450000000000074e+01 1.456714999999999804e+02 1.485380000000000109e+03
1.340000000000000080e-01 5.225969999999999782e-01 1.747149999999999892e+01 1.449625000000000057e+02 1.485130000000000109e+03
1.350000000000000089e-01 5.224480000000000235e-01 1.681670000000000087e+01 1.442704999999999984e+02 1.484884999999999991e+03
1.360000000000000098e-01 5.223050000000000193e-01 1.618369999999999820e+01 1.436024999999999920e+02 1.484644999999999982e+03
1.370000000000000107e-01 5.221685000000000354e-01 1.557594999999999885e+01 1.429644999999999868e+02 1.484414999999999964e+03
1.380000000000000115e-01 5.220400000000000595e-01 1.499634999999999962e+01 1.423615000000000066e+02 1.484195000000000164e+03
1.390000000000000124e-01 5.219205000000000094e-01 1.444750000000000156e+01 1.417984999999999900e+02 1.483980000000000018e+03
1.400000000000000133e-01 5.218104999999999549e-01 1.393134999999999835e+01 1.412779999999999916e+02 1.483784999999999854e+03
1.410000000000000142e-01 5.217100000000000071e-01 1.344940499999999872e+01 1.408025000000000091e+02 1.483599999999999909e+03
1.420000000000000151e-01 5.216195000000000137e-01 1.300249999999999950e+01 1.403734999999999786e+02 1.483434999999999945e+03
1.430000000000000160e-01 5.215400000000000036e-01 1.259091000000000093e+01 1.399914999999999736e+02 1.483284999999999854e+03
1.440000000000000169e-01 5.214689999999999603e-01 1.221435999999999922e+01 1.396550000000000011e+02 1.483144999999999982e+03
1.450000000000000178e-01 5.214075000000000237e-01 1.187193500000000057e+01 1.393625000000000114e+02 1.483025000000000091e+03
1.459999999999999909e-01 5.213544999999999430e-01 1.156234000000000073e+01 1.391109999999999900e+02 1.482914999999999964e+03
1.469999999999999918e-01 5.213099999999999401e-01 1.128391500000000036e+01 1.388980000000000246e+02 1.482824999999999818e+03
1.479999999999999927e-01 5.212714999999999987e-01 1.103455999999999904e+01 1.387189999999999941e+02 1.482739999999999782e+03
1.489999999999999936e-01 5.212394999999999667e-01 1.081207000000000029e+01 1.385690000000000168e+02 1.482675000000000182e+03
1.499999999999999944e-01 5.212124999999999675e-01 1.061398499999999956e+01 1.384449999999999932e+02 1.482610000000000127e+03
1.509999999999999953e-01 5.211890000000000134e-01 1.043789499999999926e+01 1.383420000000000130e+02 1.482559999999999945e+03
1.519999999999999962e-01 5.211694999999999522e-01 1.028133500000000033e+01 1.382560000000000002e+02 1.482514999999999873e+03
1.529999999999999971e-01 5.211525000000000185e-01 1.014197000000000060e+01 1.381825000000000045e+02 1.482474999999999909e+03
1.539999999999999980e-01 5.211369999999999614e-01 1.001762499999999889e+01 1.381185000000000116e+02 1.482440000000000055e+03
1.549999999999999989e-01 5.211225000000000440e-01 9.906179999999999097e+00 1.380609999999999786e+02 1.482409999999999854e+03
1.559999999999999998e-01 5.211090000000000444e-01 9.805844999999999700e+00 1.380070000000000050e+02 1.482380000000000109e+03
1.570000000000000007e-01 5.210954999999999337e-01 9.714884999999998882e+00 1.379540000000000077e+02 1.482355000000000018e+03
1.580000000000000016e-01 5.210825000000000040e-01 9.631834999999998814e+00 1.379014999999999986e+02 1.482329999999999927e+03
1.590000000000000024e-01 5.210684999999999345e-01 9.555495000000000516e+00 1.378474999999999966e+02 1.482299999999999955e+03
