# t [s], A [cm^2], U [cm/s], P [cPa], c [cm/s]
1.000000000000000021e-03 1.361884999999999901e-01 2.541069999999999718e-01 9.563509999999999422e+01 1.849384999999999991e+03
2.000000000000000042e-03 1.361715000000000009e-01 1.627966000000000024e+00 9.288845000000000596e+01 1.849164999999999964e+03
3.000000000000000062e-03 1.360965000000000091e-01 3.322629499999999680e+00 8.935114999999998986e+01 1.848289999999999964e+03
4.000000000000000083e-03 1.359814999999999774e-01 5.203146499999999897e+00 8.536084999999999923e+01 1.846960000000000036e+03
5.000000000000000104e-03 1.358435000000000059e-01 7.223749999999999893e+00 8.152224999999999966e+01 1.845389999999999873e+03
6.000000000000000125e-03 1.357005000000000017e-01 9.302770000000000650e+00 7.818765000000000498e+01 1.843775000000000091e+03
7.000000000000000146e-03 1.355594999999999994e-01 1.131279500000000127e+01 7.537434999999999263e+01 1.842200000000000045e+03
8.000000000000000167e-03 1.354250000000000176e-01 1.314270499999999942e+01 7.291740000000000066e+01 1.840710000000000036e+03
9.000000000000001055e-03 1.352980000000000016e-01 1.475490999999999886e+01 7.070474999999999000e+01 1.839340000000000146e+03
1.000000000000000194e-02 1.351829999999999976e-01 1.616489999999999938e+01 6.874559999999999604e+01 1.838095000000000027e+03
1.099999999999999936e-02 1.350800000000000056e-01 1.739164999999999850e+01 6.707085000000000719e+01 1.837000000000000000e+03
1.200000000000000025e-02 1.349905000000000133e-01 1.844320000000000093e+01 6.566974999999999341e+01 1.836059999999999945e+03
1.300000000000000114e-02 1.349140000000000061e-01 1.932380000000000209e+01 6.450245000000001028e+01 1.835260000000000218e+03
1.400000000000000203e-02 1.348484999999999823e-01 2.003589999999999804e+01 6.351485000000000269e+01 1.834585000000000036e+03
1.499999999999999944e-02 1.347925000000000095e-01 2.058294999999999675e+01 6.264560000000000173e+01 1.834009999999999991e+03
1.600000000000000033e-02 1.347440000000000027e-01 2.098274999999999935e+01 6.185584999999999667e+01 1.833519999999999982e+03
1.700000000000000122e-02 1.347019999999999884e-01 2.128074999999999761e+01 6.117324999999999591e+01 1.833105000000000018e+03
1.800000000000000211e-02 1.346684999999999965e-01 2.154760000000000275e+01 6.070830000000000126e+01 1.832779999999999973e+03
1.900000000000000300e-02 1.346475000000000033e-01 2.185889999999999844e+01 6.061764999999999759e+01 1.832574999999999818e+03
2.000000000000000042e-02 1.346410000000000107e-01 2.226804999999999879e+01 6.103244999999999720e+01 1.832519999999999982e+03
2.100000000000000130e-02 1.346514999999999795e-01 2.278709999999999880e+01 6.199084999999999468e+01 1.832644999999999982e+03
2.200000000000000219e-02 1.346789999999999932e-01 2.338390000000000057e+01 6.340885000000000105e+01 1.832944999999999936e+03
2.299999999999999961e-02 1.347200000000000064e-01 2.399439999999999884e+01 6.509730000000000416e+01 1.833380000000000109e+03
2.400000000000000050e-02 1.347689999999999999e-01 2.454315000000000069e+01 6.681374999999999886e+01 1.833904999999999973e+03
2.500000000000000139e-02 1.348189999999999944e-01 2.496470000000000056e+01 6.832550000000000523e+01 1.834445000000000164e+03
2.600000000000000228e-02 1.348644999999999983e-01 2.521835000000000093e+01 6.946330000000000382e+01 1.834950000000000045e+03
2.700000000000000316e-02 1.349015000000000075e-01 2.529464999999999719e+01 7.015115000000000123e+01 1.835360000000000127e+03
2.800000000000000058e-02 1.349285000000000068e-01 2.521164999999999878e+01 7.040810000000000457e+01 1.835664999999999964e+03
2.900000000000000147e-02 1.349449999999999816e-01 2.500580000000000069e+01 7.032464999999999122e+01 1.835860000000000127e+03
3.000000000000000236e-02 1.349520000000000164e-01 2.471845000000000070e+01 7.002620000000000289e+01 1.835954999999999927e+03
3.099999999999999978e-02 1.349535000000000040e-01 2.438510000000000133e+01 6.963370000000000459e+01 1.835980000000000018e+03
3.200000000000000067e-02 1.349509999999999876e-01 2.402765000000000128e+01 6.923400000000000887e+01 1.835965000000000146e+03
3.300000000000000155e-02 1.349460000000000104e-01 2.365245000000000175e+01 6.886574999999999136e+01 1.835914999999999964e+03
3.400000000000000244e-02 1.349400000000000044e-01 2.325339999999999918e+01 6.852139999999999986e+01 1.835855000000000018e+03
3.500000000000000333e-02 1.349319999999999964e-01 2.281824999999999903e+01 6.816249999999999432e+01 1.835779999999999973e+03
3.600000000000000422e-02 1.349219999999999864e-01 2.233585000000000065e+01 6.774150000000000205e+01 1.835679999999999836e+03
3.700000000000000511e-02 1.349094999999999878e-01 2.180274999999999963e+01 6.722364999999999213e+01 1.835549999999999955e+03
3.799999999999999906e-02 1.348924999999999985e-01 2.122715000000000174e+01 6.660375000000000512e+01 1.835384999999999991e+03
3.899999999999999994e-02 1.348734999999999795e-01 2.062995000000000090e+01 6.591315000000000168e+01 1.835179999999999836e+03
4.000000000000000083e-02 1.348519999999999996e-01 2.004200000000000159e+01 6.521699999999999875e+01 1.834960000000000036e+03
4.100000000000000172e-02 1.348314999999999930e-01 1.949889999999999901e+01 6.460184999999999889e+01 1.834744999999999891e+03
4.200000000000000261e-02 1.348130000000000162e-01 1.903470000000000084e+01 6.415810000000000457e+01 1.834549999999999955e+03
4.300000000000000350e-02 1.348000000000000032e-01 1.867540000000000333e+01 6.396054999999999779e+01 1.834404999999999973e+03
4.400000000000000439e-02 1.347935000000000105e-01 1.843444999999999823e+01 6.405295000000000982e+01 1.834335000000000036e+03
4.499999999999999833e-02 1.347959999999999992e-01 1.831044999999999945e+01 6.443859999999999388e+01 1.834349999999999909e+03
4.599999999999999922e-02 1.348060000000000092e-01 1.828750000000000142e+01 6.507909999999999684e+01 1.834450000000000045e+03
4.700000000000000011e-02 1.348234999999999850e-01 1.833814999999999884e+01 6.590084999999999127e+01 1.834625000000000000e+03
4.800000000000000100e-02 1.348464999999999803e-01 1.842745000000000033e+01 6.680635000000000900e+01 1.834859999999999900e+03
4.900000000000000189e-02 1.348725000000000063e-01 1.851794999999999902e+01 6.768915000000001214e+01 1.835130000000000109e+03
5.000000000000000278e-02 1.348984999999999768e-01 1.857389999999999830e+01 6.844755000000000678e+01 1.835400000000000091e+03
5.100000000000000366e-02 1.349204999999999988e-01 1.856520000000000081e+01 6.899665000000000248e+01 1.835639999999999873e+03
5.200000000000000455e-02 1.349380000000000024e-01 1.846934999999999860e+01 6.927559999999999718e+01 1.835819999999999936e+03
5.300000000000000544e-02 1.349480000000000124e-01 1.827234999999999943e+01 6.925084999999999980e+01 1.835929999999999836e+03
5.399999999999999939e-02 1.349495000000000000e-01 1.796825000000000117e+01 6.891495000000000459e+01 1.835944999999999936e+03
5.500000000000000028e-02 1.349409999999999776e-01 1.755815000000000126e+01 6.828244999999999720e+01 1.835869999999999891e+03
5.600000000000000117e-02 1.349239999999999884e-01 1.704860000000000042e+01 6.738410000000000366e+01 1.835690000000000055e+03
5.700000000000000205e-02 1.348989999999999911e-01 1.644985000000000142e+01 6.626075000000000159e+01 1.835424999999999955e+03
5.800000000000000294e-02 1.348650000000000126e-01 1.577464999999999939e+01 6.495785000000000764e+01 1.835079999999999927e+03
5.900000000000000383e-02 1.348254999999999870e-01 1.503734999999999999e+01 6.352179999999999893e+01 1.834654999999999973e+03
6.000000000000000472e-02 1.347804999999999975e-01 1.425334999999999930e+01 6.199765000000000015e+01 1.834179999999999836e+03
6.099999999999999867e-02 1.347304999999999753e-01 1.343925000000000125e+01 6.042900000000000205e+01 1.833664999999999964e+03
6.199999999999999956e-02 1.346789999999999932e-01 1.261272500000000107e+01 5.885795000000000243e+01 1.833115000000000009e+03
6.300000000000000044e-02 1.346259999999999957e-01 1.179295499999999919e+01 5.732690000000000197e+01 1.832555000000000064e+03
6.400000000000000133e-02 1.345735000000000126e-01 1.100044499999999914e+01 5.587919999999999732e+01 1.832000000000000000e+03
6.500000000000000222e-02 1.345224999999999893e-01 1.025722500000000004e+01 5.456019999999999470e+01 1.831460000000000036e+03
6.600000000000000311e-02 1.344750000000000112e-01 9.586185000000000400e+00 5.341694999999999993e+01 1.830954999999999927e+03
6.700000000000000400e-02 1.344335000000000113e-01 9.010794999999999888e+00 5.249739999999999895e+01 1.830509999999999991e+03
6.800000000000000488e-02 1.343975000000000031e-01 8.553924999999999557e+00 5.184895000000000209e+01 1.830125000000000000e+03
6.900000000000000577e-02 1.343705000000000038e-01 8.237000000000000099e+00 5.151604999999999990e+01 1.829835000000000036e+03
7.000000000000000666e-02 1.343540000000000012e-01 8.079135000000000844e+00 5.153815000000000168e+01 1.829644999999999982e+03
7.100000000000000755e-02 1.343485000000000096e-01 8.095990000000000464e+00 5.194715000000000060e+01 1.829579999999999927e+03
7.200000000000000844e-02 1.343555000000000166e-01 8.299084999999999823e+00 5.276545000000000130e+01 1.829644999999999982e+03
7.300000000000000933e-02 1.343769999999999964e-01 8.695230000000000459e+00 5.400459999999999638e+01 1.829849999999999909e+03
7.399999999999999634e-02 1.344115000000000171e-01 9.286229999999999762e+00 5.566465000000000174e+01 1.830200000000000045e+03
7.499999999999999722e-02 1.344605000000000106e-01 1.006878999999999991e+01 5.773395000000000010e+01 1.830710000000000036e+03
7.599999999999999811e-02 1.345234999999999903e-01 1.103494999999999848e+01 6.019010000000000105e+01 1.831365000000000009e+03
7.699999999999999900e-02 1.346010000000000262e-01 1.217243999999999993e+01 6.300130000000000052e+01 1.832164999999999964e+03
7.799999999999999989e-02 1.346904999999999908e-01 1.346530000000000094e+01 6.612815000000000509e+01 1.833105000000000018e+03
7.900000000000000078e-02 1.347920000000000229e-01 1.489489999999999981e+01 6.952594999999999459e+01 1.834164999999999964e+03
8.000000000000000167e-02 1.349035000000000095e-01 1.644069999999999965e+01 7.314715000000001055e+01 1.835345000000000027e+03
8.100000000000000255e-02 1.350244999999999918e-01 1.808129999999999882e+01 7.694360000000000355e+01 1.836619999999999891e+03
8.200000000000000344e-02 1.351525000000000087e-01 1.979504999999999981e+01 8.086865000000000236e+01 1.837980000000000018e+03
8.300000000000000433e-02 1.352865000000000040e-01 2.156135000000000090e+01 8.487940000000000396e+01 1.839409999999999854e+03
8.400000000000000522e-02 1.354250000000000176e-01 2.336070000000000135e+01 8.893799999999998818e+01 1.840884999999999991e+03
8.500000000000000611e-02 1.355664999999999787e-01 2.517579999999999885e+01 9.301259999999999195e+01 1.842404999999999973e+03
8.600000000000000699e-02 1.357105000000000117e-01 2.699145000000000039e+01 9.707819999999999538e+01 1.843945000000000164e+03
8.700000000000000788e-02 1.358550000000000035e-01 2.879489999999999839e+01 1.011158999999999963e+02 1.845509999999999991e+03
8.800000000000000877e-02 1.360010000000000108e-01 3.057604999999999862e+01 1.051139499999999884e+02 1.847075000000000045e+03
8.899999999999999578e-02 1.361459999999999892e-01 3.232675000000000409e+01 1.090649999999999977e+02 1.848644999999999982e+03
8.999999999999999667e-02 1.362904999999999811e-01 3.404090000000000060e+01 1.129664999999999964e+02 1.850215000000000146e+03
9.099999999999999756e-02 1.364339999999999997e-01 3.571424999999999983e+01 1.168189999999999884e+02 1.851775000000000091e+03
9.199999999999999845e-02 1.365764999999999896e-01 3.734335000000000093e+01 1.206239999999999952e+02 1.853329999999999927e+03
9.299999999999999933e-02 1.367180000000000062e-01 3.892584999999999695e+01 1.243840000000000003e+02 1.854869999999999891e+03
9.400000000000000022e-02 1.368579999999999797e-01 4.045974999999999966e+01 1.281005000000000109e+02 1.856404999999999973e+03
9.500000000000000111e-02 1.369970000000000077e-01 4.194310000000000116e+01 1.317740000000000009e+02 1.857930000000000064e+03
9.600000000000000200e-02 1.371350000000000069e-01 4.337375000000000114e+01 1.354014999999999986e+02 1.859445000000000164e+03
9.700000000000000289e-02 1.372705000000000175e-01 4.474930000000000518e+01 1.389795000000000016e+02 1.860944999999999936e+03
9.800000000000000377e-02 1.374055000000000137e-01 4.606685000000000230e+01 1.425009999999999764e+02 1.862430000000000064e+03
9.900000000000000466e-02 1.375379999999999936e-01 4.732309999999999661e+01 1.459555000000000007e+02 1.863889999999999873e+03
1.000000000000000056e-01 1.376684999999999992e-01 4.851409999999999911e+01 1.493329999999999984e+02 1.865340000000000146e+03
1.010000000000000064e-01 1.377964999999999884e-01 4.963575000000000159e+01 1.526200000000000045e+02 1.866755000000000109e+03
1.020000000000000073e-01 1.379215000000000024e-01 5.068345000000000056e+01 1.558019999999999925e+02 1.868139999999999873e+03
1.030000000000000082e-01 1.380425000000000124e-01 5.165270000000000294e+01 1.588650000000000091e+02 1.869490000000000009e+03
1.040000000000000091e-01 1.381600000000000050e-01 5.253865000000000407e+01 1.617939999999999827e+02 1.870800000000000182e+03
1.050000000000000100e-01 1.382730000000000070e-01 5.333695000000000164e+01 1.645745000000000005e+02 1.872059999999999945e+03
1.059999999999999970e-01 1.383810000000000040e-01 5.404314999999999714e+01 1.671924999999999955e+02 1.873264999999999873e+03
1.069999999999999979e-01 1.384835000000000094e-01 5.465350000000000108e+01 1.696360000000000241e+02 1.874414999999999964e+03
1.079999999999999988e-01 1.385799999999999810e-01 5.516474999999999795e+01 1.718940000000000055e+02 1.875494999999999891e+03
1.089999999999999997e-01 1.386700000000000155e-01 5.557424999999999926e+01 1.739574999999999818e+02 1.876509999999999991e+03
1.100000000000000006e-01 1.387530000000000152e-01 5.588029999999999831e+01 1.758185000000000002e+02 1.877445000000000164e+03
1.110000000000000014e-01 1.388294999999999946e-01 5.608200000000000074e+01 1.774724999999999966e+02 1.878309999999999945e+03
1.120000000000000023e-01 1.388985000000000081e-01 5.617960000000000065e+01 1.789180000000000064e+02 1.879095000000000027e+03
1.130000000000000032e-01 1.389600000000000002e-01 5.617439999999999856e+01 1.801539999999999964e+02 1.879795000000000073e+03
1.140000000000000041e-01 1.390149999999999997e-01 5.606895000000000095e+01 1.811839999999999975e+02 1.880414999999999964e+03
1.150000000000000050e-01 1.390620000000000189e-01 5.586674999999999613e+01 1.820140000000000100e+02 1.880954999999999927e+03
1.160000000000000059e-01 1.391014999999999890e-01 5.557274999999999920e+01 1.826519999999999868e+02 1.881414999999999964e+03
1.170000000000000068e-01 1.391344999999999943e-01 5.519279999999999831e+01 1.831080000000000041e+02 1.881785000000000082e+03
1.180000000000000077e-01 1.391605000000000203e-01 5.473375000000000057e+01 1.833960000000000150e+02 1.882094999999999800e+03
1.190000000000000085e-01 1.391804999999999848e-01 5.420319999999999538e+01 1.835300000000000011e+02 1.882325000000000045e+03
1.200000000000000094e-01 1.391944999999999988e-01 5.360944999999999538e+01 1.835260000000000105e+02 1.882490000000000009e+03
1.209999999999999964e-01 1.392029999999999934e-01 5.296115000000000350e+01 1.834014999999999986e+02 1.882595000000000027e+03
1.219999999999999973e-01 1.392065000000000108e-01 5.226709999999999923e+01 1.831725000000000136e+02 1.882644999999999982e+03
1.229999999999999982e-01 1.392059999999999964e-01 5.153614999999999924e+01 1.828559999999999945e+02 1.882650000000000091e+03
1.239999999999999991e-01 1.392014999999999780e-01 5.077660000000000196e+01 1.824694999999999823e+02 1.882605000000000018e+03
1.250000000000000000e-01 1.391939999999999844e-01 4.999660000000000082e+01 1.820260000000000105e+02 1.882529999999999973e+03
1.260000000000000009e-01 1.391840000000000022e-01 4.920329999999999870e+01 1.815389999999999873e+02 1.882420000000000073e+03
1.270000000000000018e-01 1.391709999999999892e-01 4.840324999999999989e+01 1.810210000000000150e+02 1.882284999999999854e+03
1.280000000000000027e-01 1.391570000000000029e-01 4.760190000000000055e+01 1.804795000000000016e+02 1.882125000000000000e+03
1.290000000000000036e-01 1.391415000000000013e-01 4.680384999999999707e+01 1.799230000000000018e+02 1.881949999999999818e+03
1.300000000000000044e-01 1.391244999999999843e-01 4.601265000000000072e+01 1.793559999999999945e+02 1.881764999999999873e+03
1.310000000000000053e-01 1.391065000000000218e-01 4.523064999999999714e+01 1.787804999999999893e+02 1.881565000000000055e+03
1.320000000000000062e-01 1.390885000000000038e-01 4.445935000000000059e+01 1.781985000000000241e+02 1.881360000000000127e+03
1.330000000000000071e-01 1.390689999999999982e-01 4.369930000000000092e+01 1.776080000000000041e+02 1.881139999999999873e+03
1.340000000000000080e-01 1.390494999999999925e-01 4.295019999999999527e+01 1.770070000000000050e+02 1.880914999999999964e+03
1.350000000000000089e-01 1.390284999999999993e-01 4.221094999999999686e+01 1.763915000000000077e+02 1.880684999999999945e+03
1.360000000000000098e-01 1.390069999999999917e-01 4.147990000000000066e+01 1.757570000000000050e+02 1.880444999999999936e+03
1.370000000000000107e-01 1.389849999999999974e-01 4.075490000000000634e+01 1.750980000000000132e+02 1.880200000000000045e+03
1.380000000000000115e-01 1.389620000000000022e-01 4.003354999999999819e+01 1.744089999999999918e+02 1.879934999999999945e+03
1.390000000000000124e-01 1.389370000000000049e-01 3.931300000000000239e+01 1.736834999999999809e+02 1.879664999999999964e+03
1.400000000000000133e-01 1.389115000000000211e-01 3.859069999999999823e+01 1.729164999999999850e+02 1.879375000000000000e+03
1.410000000000000142e-01 1.388840000000000074e-01 3.786379999999999768e+01 1.721025000000000205e+02 1.879065000000000055e+03
1.420000000000000151e-01 1.388555000000000206e-01 3.713004999999999711e+01 1.712369999999999948e+02 1.878744999999999891e+03
1.430000000000000160e-01 1.388250000000000040e-01 3.638725000000000165e+01 1.703174999999999955e+02 1.878400000000000091e+03
1.440000000000000169e-01 1.387919999999999987e-01 3.563374999999999915e+01 1.693405000000000200e+02 1.878039999999999964e+03
1.450000000000000178e-01 1.387575000000000058e-01 3.486854999999999905e+01 1.683059999999999832e+02 1.877654999999999973e+03
1.459999999999999909e-01 1.387209999999999832e-01 3.409104999999999563e+01 1.672144999999999868e+02 1.877244999999999891e+03
1.469999999999999918e-01 1.386830000000000007e-01 3.330150000000000432e+01 1.660679999999999836e+02 1.876815000000000055e+03
1.479999999999999927e-01 1.386419999999999875e-01 3.250079999999999814e+01 1.648695000000000164e+02 1.876365000000000009e+03
1.489999999999999936e-01 1.386000000000000010e-01 3.169055000000000177e+01 1.636254999999999882e+02 1.875894999999999982e+03
1.499999999999999944e-01 1.385554999999999981e-01 3.087304999999999922e+01 1.623410000000000082e+02 1.875409999999999854e+03
1.509999999999999953e-01 1.385099999999999942e-01 3.005134999999999934e+01 1.610255000000000223e+02 1.874900000000000091e+03
1.519999999999999962e-01 1.384635000000000171e-01 2.922885000000000133e+01 1.596879999999999882e+02 1.874384999999999991e+03
1.529999999999999971e-01 1.384154999999999969e-01 2.840960000000000107e+01 1.583380000000000223e+02 1.873855000000000018e+03
1.539999999999999980e-01 1.383675000000000044e-01 2.759790000000000276e+01 1.569859999999999900e+02 1.873315000000000055e+03
1.549999999999999989e-01 1.383190000000000253e-01 2.679830000000000112e+01 1.556440000000000055e+02 1.872775000000000091e+03
1.559999999999999998e-01 1.382704999999999906e-01 2.601539999999999964e+01 1.543209999999999980e+02 1.872235000000000127e+03
1.570000000000000007e-01 1.382224999999999981e-01 2.525365000000000038e+01 1.530289999999999964e+02 1.871699999999999818e+03
1.580000000000000016e-01 1.381749999999999923e-01 2.451735000000000042e+01 1.517769999999999868e+02 1.871174999999999955e+03
1.590000000000000024e-01 1.381284999999999874e-01 2.381040000000000134e+01 1.505734999999999957e+02 1.870659999999999854e+03
