# t [s], A [cm^2], U [cm/s], P [cPa], c [cm/s]
1.000000000000000021e-03 7.990660000000000540e-01 5.659499999999997866e-03 1.009325000000000045e+02 1.751144999999999982e+03
2.000000000000000042e-03 7.990595000000000336e-01 9.957650000000001916e-03 1.009050000000000011e+02 1.751139999999999873e+03
3.000000000000000062e-03 7.991555000000000186e-01 1.654702500000000132e-01 1.010866499999999917e+02 1.751179999999999836e+03
4.000000000000000083e-03 7.991814999999999891e-01 2.351024999999999920e-01 1.011602000000000032e+02 1.751199999999999818e+03
5.000000000000000104e-03 7.990844999999999754e-01 1.208275000000000321e-01 1.009069999999999965e+02 1.751150000000000091e+03
6.000000000000000125e-03 7.989819999999999700e-01 -1.456100000000004613e-02 1.005074999999999932e+02 1.751065000000000055e+03
7.000000000000000146e-03 7.988485000000000724e-01 -2.163349999999999440e-01 9.994304999999999950e+01 1.750944999999999936e+03
8.000000000000000167e-03 7.986079999999999846e-01 -6.080249999999999266e-01 9.902625000000000455e+01 1.750755000000000109e+03
9.000000000000001055e-03 7.982639999999999736e-01 -1.180479999999999752e+00 9.770265000000000555e+01 1.750480000000000018e+03
1.000000000000000194e-02 7.977895000000000403e-01 -1.957409999999999872e+00 9.588255000000000905e+01 1.750095000000000027e+03
1.099999999999999936e-02 7.971584999999999921e-01 -2.951375000000000082e+00 9.347804999999999609e+01 1.749574999999999818e+03
1.200000000000000025e-02 7.964430000000000121e-01 -4.016849999999999810e+00 9.062754999999999939e+01 1.748950000000000045e+03
1.300000000000000114e-02 7.957859999999999934e-01 -4.880838500000000302e+00 8.771760000000000446e+01 1.748279999999999973e+03
1.400000000000000203e-02 7.953004999999999658e-01 -5.312195499999999626e+00 8.516620000000000346e+01 1.747659999999999854e+03
1.499999999999999944e-02 7.950070000000000192e-01 -5.240915000000000212e+00 8.320149999999999579e+01 1.747144999999999982e+03
1.600000000000000033e-02 7.948379999999999335e-01 -4.761370000000000324e+00 8.178905000000000314e+01 1.746724999999999909e+03
1.700000000000000122e-02 7.946870000000000323e-01 -4.061749999999999972e+00 8.069200000000000728e+01 1.746375000000000000e+03
1.800000000000000211e-02 7.944605000000000139e-01 -3.331995000000000040e+00 7.960204999999999131e+01 1.746034999999999854e+03
1.900000000000000300e-02 7.941119999999999290e-01 -2.687028499999999820e+00 7.827924999999999045e+01 1.745660000000000082e+03
2.000000000000000042e-02 7.936575000000000157e-01 -2.135284999999999656e+00 7.664230000000000587e+01 1.745224999999999909e+03
2.100000000000000130e-02 7.931540000000000257e-01 -1.605059999999999931e+00 7.476875000000001137e+01 1.744740000000000009e+03
2.200000000000000219e-02 7.926619999999999777e-01 -1.008589999999999876e+00 7.281709999999999638e+01 1.744240000000000009e+03
2.299999999999999961e-02 7.922135000000000149e-01 -3.041000000000000369e-01 7.092279999999999518e+01 1.743740000000000009e+03
2.400000000000000050e-02 7.917980000000000018e-01 4.722499999999998366e-01 6.912229999999999563e+01 1.743255000000000109e+03
2.500000000000000139e-02 7.913654999999999440e-01 1.210115000000000274e+00 6.732694999999999652e+01 1.742769999999999982e+03
2.600000000000000228e-02 7.908479999999999954e-01 1.755630000000000024e+00 6.534735000000000582e+01 1.742250000000000000e+03
2.700000000000000316e-02 7.901795000000000346e-01 1.956579999999999764e+00 6.295380000000000109e+01 1.741654999999999973e+03
2.800000000000000058e-02 7.893200000000000216e-01 1.709070000000000089e+00 5.995459999999999923e+01 1.740934999999999945e+03
2.900000000000000147e-02 7.882715000000000138e-01 9.911249999999993676e-01 5.626735000000000042e+01 1.740069999999999936e+03
3.000000000000000236e-02 7.870785000000000142e-01 -1.287500000000001421e-01 5.195834999999999582e+01 1.739075000000000045e+03
3.099999999999999978e-02 7.858205000000000329e-01 -1.511030000000000761e+00 4.723550000000000182e+01 1.737980000000000018e+03
3.200000000000000067e-02 7.845880000000000631e-01 -2.981884999999999231e+00 4.240250000000000341e+01 1.736840000000000146e+03
3.300000000000000155e-02 7.834659999999999958e-01 -4.372205000000000119e+00 3.779455000000000098e+01 1.735730000000000018e+03
3.400000000000000244e-02 7.825204999999999522e-01 -5.545785000000000409e+00 3.371909999999999741e+01 1.734720000000000027e+03
3.500000000000000333e-02 7.817910000000000137e-01 -6.412885499999999794e+00 3.041275000000000261e+01 1.733860000000000127e+03
3.600000000000000422e-02 7.812959999999999905e-01 -6.930085000000000051e+00 2.802205000000000013e+01 1.733199999999999818e+03
3.700000000000000511e-02 7.810319999999999485e-01 -7.091025000000000134e+00 2.660415000000000063e+01 1.732750000000000000e+03
3.799999999999999906e-02 7.809850000000000403e-01 -6.912139999999999951e+00 2.614300000000000068e+01 1.732525000000000091e+03
3.899999999999999994e-02 7.811350000000000238e-01 -6.418625000000000469e+00 2.657469999999999999e+01 1.732519999999999982e+03
4.000000000000000083e-02 7.814624999999999488e-01 -5.634389999999999787e+00 2.781250000000000000e+01 1.732710000000000036e+03
4.100000000000000172e-02 7.819484999999999353e-01 -4.578134999999999621e+00 2.976545000000000130e+01 1.733079999999999927e+03
4.200000000000000261e-02 7.825779999999999959e-01 -3.265645000000000131e+00 3.234649999999999892e+01 1.733614999999999782e+03
4.300000000000000350e-02 7.833339999999999748e-01 -1.715514999999999901e+00 3.547205000000000297e+01 1.734289999999999964e+03
4.400000000000000439e-02 7.841974999999999918e-01 4.443999999999981299e-02 3.905570000000000164e+01 1.735085000000000036e+03
4.499999999999999833e-02 7.851440000000000641e-01 1.973370000000000068e+00 4.300145000000000550e+01 1.735980000000000018e+03
4.599999999999999922e-02 7.861439999999999539e-01 4.017395000000000493e+00 4.720114999999999839e+01 1.736954999999999927e+03
4.700000000000000011e-02 7.871669999999999501e-01 6.113184999999999647e+00 5.153589999999999804e+01 1.737974999999999909e+03
4.800000000000000100e-02 7.881825000000000081e-01 8.194148000000000209e+00 5.588299999999999557e+01 1.739014999999999873e+03
4.900000000000000189e-02 7.891610000000000014e-01 1.019710000000000072e+01 6.012550000000000239e+01 1.740049999999999955e+03
5.000000000000000278e-02 7.900810000000000333e-01 1.206827999999999967e+01 6.416185000000000116e+01 1.741049999999999955e+03
5.100000000000000366e-02 7.909269999999999357e-01 1.376763000000000048e+01 6.791429999999999723e+01 1.742000000000000000e+03
5.200000000000000455e-02 7.916924999999999102e-01 1.527058500000000052e+01 7.133424999999999727e+01 1.742880000000000109e+03
5.300000000000000544e-02 7.923769999999999980e-01 1.656784999999999997e+01 7.440330000000000155e+01 1.743684999999999945e+03
5.399999999999999939e-02 7.929859999999999687e-01 1.766319999999999979e+01 7.713094999999999857e+01 1.744414999999999964e+03
5.500000000000000028e-02 7.935309999999999864e-01 1.857110000000000127e+01 7.955049999999999955e+01 1.745079999999999927e+03
5.600000000000000117e-02 7.940255000000000507e-01 1.931370000000000076e+01 8.171299999999999386e+01 1.745675000000000182e+03
5.700000000000000205e-02 7.944849999999999968e-01 1.991835000000000022e+01 8.368104999999999905e+01 1.746219999999999800e+03
5.800000000000000294e-02 7.949250000000001037e-01 2.041544999999999987e+01 8.552330000000000609e+01 1.746735000000000127e+03
5.900000000000000383e-02 7.953619999999999024e-01 2.083660000000000068e+01 8.730934999999999491e+01 1.747224999999999909e+03
6.000000000000000472e-02 7.958100000000000174e-01 2.121265000000000001e+01 8.910495000000000232e+01 1.747710000000000036e+03
6.099999999999999867e-02 7.962810000000000166e-01 2.157179999999999964e+01 9.096744999999999948e+01 1.748204999999999927e+03
6.199999999999999956e-02 7.967850000000000765e-01 2.193764999999999787e+01 9.294150000000000489e+01 1.748720000000000027e+03
6.300000000000000044e-02 7.973270000000000080e-01 2.232695000000000007e+01 9.505559999999999832e+01 1.749264999999999873e+03
6.400000000000000133e-02 7.979055000000000453e-01 2.274835000000000207e+01 9.731919999999999504e+01 1.749840000000000146e+03
6.500000000000000222e-02 7.985165000000000735e-01 2.320169999999999888e+01 9.972129999999999939e+01 1.750445000000000164e+03
6.600000000000000311e-02 7.991505000000000969e-01 2.367814999999999870e+01 1.022320500000000010e+02 1.751075000000000045e+03
6.700000000000000400e-02 7.997944999999999638e-01 2.416159999999999997e+01 1.048040000000000020e+02 1.751724999999999909e+03
6.800000000000000488e-02 8.004320000000000324e-01 2.463029999999999831e+01 1.073769999999999953e+02 1.752375000000000000e+03
6.900000000000000577e-02 8.010469999999999535e-01 2.505930000000000035e+01 1.098830000000000098e+02 1.753014999999999873e+03
7.000000000000000666e-02 8.016225000000000156e-01 2.542295000000000016e+01 1.122519999999999953e+02 1.753630000000000109e+03
7.100000000000000755e-02 8.021430000000000504e-01 2.569695000000000107e+01 1.144180000000000064e+02 1.754194999999999936e+03
7.200000000000000844e-02 8.025960000000000871e-01 2.586034999999999684e+01 1.163220000000000027e+02 1.754704999999999927e+03
7.300000000000000933e-02 8.029720000000000191e-01 2.589699999999999847e+01 1.179180000000000064e+02 1.755144999999999982e+03
7.399999999999999634e-02 8.032645000000000479e-01 2.579650000000000176e+01 1.191740000000000066e+02 1.755505000000000109e+03
7.499999999999999722e-02 8.034715000000000051e-01 2.555454999999999899e+01 1.200739999999999981e+02 1.755779999999999973e+03
7.599999999999999811e-02 8.035944999999999894e-01 2.517314999999999969e+01 1.206184999999999974e+02 1.755970000000000027e+03
7.699999999999999900e-02 8.036380000000000745e-01 2.466029999999999944e+01 1.208215000000000003e+02 1.756079999999999927e+03
7.799999999999999989e-02 8.036100000000000465e-01 2.402924999999999756e+01 1.207125000000000057e+02 1.756105000000000018e+03
7.900000000000000078e-02 8.035209999999999297e-01 2.329775000000000063e+01 1.203305000000000007e+02 1.756059999999999945e+03
8.000000000000000167e-02 8.033814999999999706e-01 2.248724999999999952e+01 1.197240000000000038e+02 1.755954999999999927e+03
8.100000000000000255e-02 8.032055000000000167e-01 2.162134999999999962e+01 1.189470000000000027e+02 1.755799999999999955e+03
8.200000000000000344e-02 8.030064999999999564e-01 2.072480000000000189e+01 1.180554999999999950e+02 1.755610000000000127e+03
8.300000000000000433e-02 8.027969999999999828e-01 1.982215000000000060e+01 1.171069999999999993e+02 1.755400000000000091e+03
8.400000000000000522e-02 8.025889999999999969e-01 1.893649999999999878e+01 1.161525000000000034e+02 1.755175000000000182e+03
8.500000000000000611e-02 8.023929999999999119e-01 1.808840000000000003e+01 1.152400000000000091e+02 1.754960000000000036e+03
8.600000000000000699e-02 8.022175000000000278e-01 1.729455000000000098e+01 1.144099999999999966e+02 1.754750000000000000e+03
8.700000000000000788e-02 8.020689999999999209e-01 1.656759999999999877e+01 1.136905000000000001e+02 1.754565000000000055e+03
8.800000000000000877e-02 8.019509999999999694e-01 1.591530000000000022e+01 1.131020000000000039e+02 1.754409999999999854e+03
8.899999999999999578e-02 8.018644999999999801e-01 1.534045000000000059e+01 1.126520000000000010e+02 1.754279999999999973e+03
8.999999999999999667e-02 8.018080000000000762e-01 1.484100000000000108e+01 1.123404999999999916e+02 1.754184999999999945e+03
9.099999999999999756e-02 8.017775000000000318e-01 1.441060000000000052e+01 1.121539999999999964e+02 1.754115000000000009e+03
9.199999999999999845e-02 8.017689999999999539e-01 1.403885000000000005e+01 1.120749999999999886e+02 1.754075000000000045e+03
9.299999999999999933e-02 8.017750000000000155e-01 1.371235000000000070e+01 1.120759999999999934e+02 1.754054999999999836e+03
9.400000000000000022e-02 8.017889999999999739e-01 1.341560000000000130e+01 1.121254999999999882e+02 1.754045000000000073e+03
9.500000000000000111e-02 8.018015000000000558e-01 1.313185000000000002e+01 1.121904999999999859e+02 1.754050000000000182e+03
9.600000000000000200e-02 8.018060000000000187e-01 1.284414999999999907e+01 1.122365000000000066e+02 1.754055000000000064e+03
9.700000000000000289e-02 8.017935000000000478e-01 1.253634999999999877e+01 1.122309999999999945e+02 1.754050000000000182e+03
9.800000000000000377e-02 8.017594999999999583e-01 1.219425500000000007e+01 1.121454999999999984e+02 1.754025000000000091e+03
9.900000000000000466e-02 8.016985000000000916e-01 1.180645999999999951e+01 1.119565000000000055e+02 1.753974999999999909e+03
1.000000000000000056e-01 8.016075000000000284e-01 1.136497999999999919e+01 1.116490000000000009e+02 1.753909999999999854e+03
1.010000000000000064e-01 8.014860000000000317e-01 1.086578000000000088e+01 1.112145000000000010e+02 1.753809999999999945e+03
1.020000000000000073e-01 8.013350000000000195e-01 1.030916500000000013e+01 1.106550000000000011e+02 1.753684999999999945e+03
1.030000000000000082e-01 8.011574999999999669e-01 9.699684999999998780e+00 1.099789999999999992e+02 1.753530000000000200e+03
1.040000000000000091e-01 8.009600000000000053e-01 9.045954999999999302e+00 1.092059999999999889e+02 1.753349999999999909e+03
1.050000000000000100e-01 8.007484999999999742e-01 8.360025000000000261e+00 1.083610000000000042e+02 1.753154999999999973e+03
1.059999999999999970e-01 8.005305000000000337e-01 7.656765000000000043e+00 1.074754999999999967e+02 1.752945000000000164e+03
1.069999999999999979e-01 8.003149999999999986e-01 6.952939999999999898e+00 1.065840000000000032e+02 1.752730000000000018e+03
1.079999999999999988e-01 8.001115000000000865e-01 6.266284999999999883e+00 1.057239999999999895e+02 1.752519999999999982e+03
1.089999999999999997e-01 7.999279999999999724e-01 5.614335000000000520e+00 1.049309000000000083e+02 1.752320000000000164e+03
1.100000000000000006e-01 7.997724999999999973e-01 5.013494999999999813e+00 1.042400999999999982e+02 1.752139999999999873e+03
1.110000000000000014e-01 7.996505000000000418e-01 4.478094999999999715e+00 1.036794000000000011e+02 1.751994999999999891e+03
1.120000000000000023e-01 7.995680000000000565e-01 4.019589999999999996e+00 1.032725000000000080e+02 1.751875000000000000e+03
1.130000000000000032e-01 7.995269999999999877e-01 3.645999999999999908e+00 1.030345000000000084e+02 1.751800000000000182e+03
1.140000000000000041e-01 7.995285000000000863e-01 3.361549999999999816e+00 1.029729999999999990e+02 1.751759999999999991e+03
1.150000000000000050e-01 7.995715000000001016e-01 3.166604999999999670e+00 1.030869999999999891e+02 1.751769999999999982e+03
1.160000000000000059e-01 7.996525000000000993e-01 3.057789999999999786e+00 1.033675000000000068e+02 1.751809999999999945e+03
1.170000000000000068e-01 7.997684999999999933e-01 3.028364999999999974e+00 1.037974999999999994e+02 1.751894999999999982e+03
1.180000000000000077e-01 7.999119999999999564e-01 3.068719999999999892e+00 1.043555000000000064e+02 1.752009999999999991e+03
1.190000000000000085e-01 8.000769999999999271e-01 3.167040000000000077e+00 1.050140000000000100e+02 1.752150000000000091e+03
1.200000000000000094e-01 8.002564999999999262e-01 3.309965000000000046e+00 1.057450000000000045e+02 1.752315000000000055e+03
1.209999999999999964e-01 8.004424999999999457e-01 3.483340000000000103e+00 1.065165000000000077e+02 1.752490000000000009e+03
1.219999999999999973e-01 8.006284999999999652e-01 3.672864999999999824e+00 1.072990000000000066e+02 1.752674999999999955e+03
1.229999999999999982e-01 8.008079999999999643e-01 3.864764999999999784e+00 1.080635000000000048e+02 1.752860000000000127e+03
1.239999999999999991e-01 8.009744999999999227e-01 4.046319999999999695e+00 1.087849999999999966e+02 1.753039999999999964e+03
1.250000000000000000e-01 8.011249999999999760e-01 4.206335000000000157e+00 1.094405000000000001e+02 1.753199999999999818e+03
1.260000000000000009e-01 8.012539999999999107e-01 4.335504999999999498e+00 1.100130000000000052e+02 1.753349999999999909e+03
1.270000000000000018e-01 8.013595000000000024e-01 4.426630000000000287e+00 1.104904999999999973e+02 1.753480000000000018e+03
1.280000000000000027e-01 8.014409999999999590e-01 4.474814999999999543e+00 1.108650000000000091e+02 1.753585000000000036e+03
1.290000000000000036e-01 8.014970000000000150e-01 4.477444999999999453e+00 1.111340000000000003e+02 1.753660000000000082e+03
1.300000000000000044e-01 8.015295000000000059e-01 4.434150000000000702e+00 1.112994999999999948e+02 1.753719999999999800e+03
1.310000000000000053e-01 8.015399999999999192e-01 4.346664999999999779e+00 1.113659999999999997e+02 1.753750000000000000e+03
1.320000000000000062e-01 8.015305000000000346e-01 4.218580000000000219e+00 1.113449999999999989e+02 1.753759999999999991e+03
1.330000000000000071e-01 8.015045000000000641e-01 4.055069999999999730e+00 1.112464999999999975e+02 1.753750000000000000e+03
1.340000000000000080e-01 8.014649999999999830e-01 3.862515000000000143e+00 1.110859999999999985e+02 1.753724999999999909e+03
1.350000000000000089e-01 8.014164999999999761e-01 3.648134999999999906e+00 1.108774999999999977e+02 1.753684999999999945e+03
1.360000000000000098e-01 8.013614999999999489e-01 3.419550000000000090e+00 1.106370000000000005e+02 1.753634999999999991e+03
1.370000000000000107e-01 8.013045000000000861e-01 3.184390000000000054e+00 1.103789999999999907e+02 1.753579999999999927e+03
1.380000000000000115e-01 8.012470000000000425e-01 2.949875000000000025e+00 1.101175000000000068e+02 1.753525000000000091e+03
1.390000000000000124e-01 8.011935000000000029e-01 2.722469999999999946e+00 1.098635000000000019e+02 1.753460000000000036e+03
1.400000000000000133e-01 8.011445000000000372e-01 2.507589999999999986e+00 1.096260000000000048e+02 1.753409999999999854e+03
1.410000000000000142e-01 8.011004999999999932e-01 2.309359999999999857e+00 1.094110000000000014e+02 1.753355000000000018e+03
1.420000000000000151e-01 8.010639999999999983e-01 2.130539999999999878e+00 1.092229999999999990e+02 1.753304999999999836e+03
1.430000000000000160e-01 8.010329999999999950e-01 1.972450000000000037e+00 1.090605000000000047e+02 1.753264999999999873e+03
1.440000000000000169e-01 8.010074999999999834e-01 1.835094999999999921e+00 1.089224999999999994e+02 1.753224999999999909e+03
1.450000000000000178e-01 8.009850000000000581e-01 1.717279999999999918e+00 1.088034999999999997e+02 1.753195000000000164e+03
1.459999999999999909e-01 8.009650000000000380e-01 1.616835000000000022e+00 1.086970000000000027e+02 1.753164999999999964e+03
1.469999999999999918e-01 8.009450000000000180e-01 1.530895000000000117e+00 1.085960000000000036e+02 1.753134999999999991e+03
1.479999999999999927e-01 8.009230000000000516e-01 1.456164999999999932e+00 1.084909999999999997e+02 1.753105000000000018e+03
1.489999999999999936e-01 8.008969999999999700e-01 1.389197999999999933e+00 1.083755000000000024e+02 1.753070000000000164e+03
1.499999999999999944e-01 8.008659999999999668e-01 1.326650499999999955e+00 1.082409999999999997e+02 1.753035000000000082e+03
1.509999999999999953e-01 8.008280000000000953e-01 1.265489499999999934e+00 1.080829999999999984e+02 1.753000000000000000e+03
1.519999999999999962e-01 8.007819999999999938e-01 1.203171500000000060e+00 1.078954999999999984e+02 1.752949999999999818e+03
1.529999999999999971e-01 8.007284999999999542e-01 1.137759500000000035e+00 1.076765000000000043e+02 1.752894999999999982e+03
1.539999999999999980e-01 8.006664999999999477e-01 1.068017999999999912e+00 1.074254999999999995e+02 1.752835000000000036e+03
1.549999999999999989e-01 8.005970000000000031e-01 9.934479999999999977e-01 1.071435000000000031e+02 1.752769999999999982e+03
1.559999999999999998e-01 8.005204999999999682e-01 9.143002000000000073e-01 1.068340000000000032e+02 1.752690000000000055e+03
1.570000000000000007e-01 8.004385000000000527e-01 8.315540000000000154e-01 1.065010000000000048e+02 1.752605000000000018e+03
1.580000000000000016e-01 8.003530000000000921e-01 7.468799999999999883e-01 1.061514999999999986e+02 1.752525000000000091e+03
1.590000000000000024e-01 8.002655000000000740e-01 6.625415000000000054e-01 1.057920000000000016e+02 1.752430000000000064e+03
