# t [s], A [cm^2], U [cm/s], P [cPa], c [cm/s]
1.000000000000000021e-03 6.721680000000000987e-01 5.076500000000004620e-03 9.970140000000000668e+01 1.702699999999999818e+03
2.000000000000000042e-03 6.721624999999999961e-01 8.737099999999997646e-03 9.967470000000000141e+01 1.702694999999999936e+03
3.000000000000000062e-03 6.722420000000000062e-01 1.572870000000000101e-01 9.984290000000000020e+01 1.702734999999999900e+03
4.000000000000000083e-03 6.722695000000000753e-01 2.313040000000000096e-01 9.992535000000000878e+01 1.702750000000000000e+03
5.000000000000000104e-03 6.721945000000000281e-01 1.292060000000000153e-01 9.970840000000001169e+01 1.702710000000000036e+03
6.000000000000000125e-03 6.721084999999999976e-01 -5.712500000000009237e-03 9.933629999999999427e+01 1.702625000000000000e+03
7.000000000000000146e-03 6.720025000000000581e-01 -1.907999999999999696e-01 9.882104999999999961e+01 1.702514999999999873e+03
8.000000000000000167e-03 6.718109999999999360e-01 -5.496950000000000447e-01 9.798794999999999789e+01 1.702329999999999927e+03
9.000000000000001055e-03 6.715339999999999643e-01 -1.080839999999999801e+00 9.677719999999999345e+01 1.702065000000000055e+03
1.000000000000000194e-02 6.711544999999999872e-01 -1.796045000000000114e+00 9.511984999999999957e+01 1.701694999999999936e+03
1.099999999999999936e-02 6.706465000000000343e-01 -2.718644999999999978e+00 9.292349999999999000e+01 1.701195000000000164e+03
1.200000000000000025e-02 6.700479999999999769e-01 -3.747959999999999514e+00 9.026075000000000159e+01 1.700579999999999927e+03
1.300000000000000114e-02 6.694664999999999644e-01 -4.647346999999999895e+00 8.744180000000000064e+01 1.699904999999999973e+03
1.400000000000000203e-02 6.690045000000000019e-01 -5.179819000000000173e+00 8.485970000000000368e+01 1.699250000000000000e+03
1.499999999999999944e-02 6.687030000000000474e-01 -5.235030000000000072e+00 8.278440000000000509e+01 1.698684999999999945e+03
1.600000000000000033e-02 6.685259999999999536e-01 -4.859204999999999330e+00 8.125970000000000937e+01 1.698224999999999909e+03
1.700000000000000122e-02 6.683959999999999901e-01 -4.207659999999999734e+00 8.012319999999999709e+01 1.697845000000000027e+03
1.800000000000000211e-02 6.682304999999999495e-01 -3.465885000000000105e+00 7.910394999999999754e+01 1.697500000000000000e+03
1.900000000000000300e-02 6.679749999999999854e-01 -2.773446999999999996e+00 7.794610000000000127e+01 1.697134999999999991e+03
2.000000000000000042e-02 6.676225000000000076e-01 -2.178378499999999995e+00 7.650990000000000180e+01 1.696719999999999800e+03
2.100000000000000130e-02 6.672069999999999945e-01 -1.640580000000000149e+00 7.480555000000001087e+01 1.696244999999999891e+03
2.200000000000000219e-02 6.667779999999999818e-01 -1.078405000000000058e+00 7.295175000000000409e+01 1.695740000000000009e+03
2.299999999999999961e-02 6.663729999999999931e-01 -4.282400000000001761e-01 7.108965000000000600e+01 1.695224999999999909e+03
2.400000000000000050e-02 6.660010000000000652e-01 3.135099999999999554e-01 6.930270000000000152e+01 1.694720000000000027e+03
2.500000000000000139e-02 6.656390000000000917e-01 1.079139999999999766e+00 6.757220000000000937e+01 1.694224999999999909e+03
2.600000000000000228e-02 6.652390000000000247e-01 1.746130000000000182e+00 6.577674999999999272e+01 1.693715000000000146e+03
2.700000000000000316e-02 6.647484999999999644e-01 2.171544999999999614e+00 6.372890000000000299e+01 1.693150000000000091e+03
2.800000000000000058e-02 6.641224999999999490e-01 2.233594999999999775e+00 6.123574999999999591e+01 1.692500000000000000e+03
2.900000000000000147e-02 6.633439999999999337e-01 1.868689999999999962e+00 5.816590000000000060e+01 1.691724999999999909e+03
3.000000000000000236e-02 6.624285000000000867e-01 1.092495000000000438e+00 5.450105000000000643e+01 1.690819999999999936e+03
3.099999999999999978e-02 6.614229999999999832e-01 -2.700000000000812861e-03 5.035479999999999734e+01 1.689799999999999955e+03
3.200000000000000067e-02 6.603965000000000529e-01 -1.271620000000000417e+00 4.595400000000000063e+01 1.688710000000000036e+03
3.300000000000000155e-02 6.594219999999999526e-01 -2.550144999999999662e+00 4.159230000000000160e+01 1.687615000000000009e+03
3.400000000000000244e-02 6.585644999999999971e-01 -3.686964999999999826e+00 3.757500000000000284e+01 1.686570000000000164e+03
3.500000000000000333e-02 6.578730000000000411e-01 -4.564804999999999779e+00 3.417145000000000010e+01 1.685660000000000082e+03
3.600000000000000422e-02 6.573769999999999891e-01 -5.109064499999999676e+00 3.158305000000000007e+01 1.684924999999999955e+03
3.700000000000000511e-02 6.570890000000000342e-01 -5.285635000000000083e+00 2.993014999999999759e+01 1.684394999999999982e+03
3.799999999999999906e-02 6.570059999999999789e-01 -5.091635000000000133e+00 2.925560000000000116e+01 1.684105000000000018e+03
3.899999999999999994e-02 6.571160000000000334e-01 -4.543025000000000091e+00 2.953995000000000104e+01 1.684054999999999836e+03
4.000000000000000083e-02 6.574039999999999884e-01 -3.663014500000000062e+00 3.072314999999999685e+01 1.684224999999999909e+03
4.100000000000000172e-02 6.578539999999999388e-01 -2.474345000000000017e+00 3.272514999999999930e+01 1.684625000000000000e+03
4.200000000000000261e-02 6.584505000000000496e-01 -9.968800000000004324e-01 3.546014999999999873e+01 1.685210000000000036e+03
4.300000000000000350e-02 6.591795000000000293e-01 7.499950000000001893e-01 3.884304999999999808e+01 1.685985000000000127e+03
4.400000000000000439e-02 6.600245000000000140e-01 2.742325000000000124e+00 4.278844999999999743e+01 1.686904999999999973e+03
4.499999999999999833e-02 6.609670000000000822e-01 4.946614999999999540e+00 4.720595000000000141e+01 1.687965000000000146e+03
4.599999999999999922e-02 6.619850000000000456e-01 7.317440000000000389e+00 5.199579999999999558e+01 1.689130000000000109e+03
4.700000000000000011e-02 6.630514999999999048e-01 9.797940000000000538e+00 5.704710000000000036e+01 1.690389999999999873e+03
4.800000000000000100e-02 6.641414999999999402e-01 1.232352000000000025e+01 6.224089999999999634e+01 1.691695000000000164e+03
4.900000000000000189e-02 6.652264999999999429e-01 1.482754500000000064e+01 6.745619999999999550e+01 1.693025000000000091e+03
5.000000000000000278e-02 6.662835000000000285e-01 1.724717000000000056e+01 7.257850000000000534e+01 1.694360000000000127e+03
5.100000000000000366e-02 6.672919999999999963e-01 1.952880000000000038e+01 7.750854999999999961e+01 1.695660000000000082e+03
5.200000000000000455e-02 6.682394999999999863e-01 2.163175000000000026e+01 8.216944999999999766e+01 1.696909999999999854e+03
5.300000000000000544e-02 6.691190000000000193e-01 2.352955000000000041e+01 8.651069999999999993e+01 1.698094999999999800e+03
5.399999999999999939e-02 6.699279999999999680e-01 2.520994999999999919e+01 9.050980000000001269e+01 1.699200000000000045e+03
5.500000000000000028e-02 6.706704999999999472e-01 2.667320000000000135e+01 9.417029999999999745e+01 1.700230000000000018e+03
5.600000000000000117e-02 6.713554999999999939e-01 2.792965000000000231e+01 9.751615000000001032e+01 1.701184999999999945e+03
5.700000000000000205e-02 6.719904999999999351e-01 2.899745000000000061e+01 1.005899000000000001e+02 1.702069999999999936e+03
5.800000000000000294e-02 6.725889999999999924e-01 2.989990000000000236e+01 1.034441500000000076e+02 1.702900000000000091e+03
5.900000000000000383e-02 6.731624999999999970e-01 3.066394999999999982e+01 1.061384999999999934e+02 1.703679999999999836e+03
6.000000000000000472e-02 6.737235000000000307e-01 3.131835000000000235e+01 1.087349999999999994e+02 1.704430000000000064e+03
6.099999999999999867e-02 6.742835000000000356e-01 3.189179999999999993e+01 1.112920000000000016e+02 1.705170000000000073e+03
6.199999999999999956e-02 6.748529999999999252e-01 3.241154999999999831e+01 1.138619999999999948e+02 1.705900000000000091e+03
6.300000000000000044e-02 6.754400000000000404e-01 3.290124999999999744e+01 1.164874999999999972e+02 1.706639999999999873e+03
6.400000000000000133e-02 6.760479999999999823e-01 3.337899999999999778e+01 1.191980000000000075e+02 1.707389999999999873e+03
6.500000000000000222e-02 6.766790000000000305e-01 3.385629999999999740e+01 1.220065000000000026e+02 1.708164999999999964e+03
6.600000000000000311e-02 6.773294999999999177e-01 3.433639999999999759e+01 1.249085000000000036e+02 1.708960000000000036e+03
6.700000000000000400e-02 6.779939999999999856e-01 3.481494999999999607e+01 1.278799999999999955e+02 1.709769999999999982e+03
6.800000000000000488e-02 6.786624999999999464e-01 3.528009999999999735e+01 1.308845000000000027e+02 1.710590000000000146e+03
6.900000000000000577e-02 6.793215000000000225e-01 3.571434999999999604e+01 1.338689999999999998e+02 1.711404999999999973e+03
7.000000000000000666e-02 6.799589999999999801e-01 3.609640000000000271e+01 1.367740000000000009e+02 1.712204999999999927e+03
7.100000000000000755e-02 6.805600000000000538e-01 3.640305000000000035e+01 1.395344999999999800e+02 1.712970000000000027e+03
7.200000000000000844e-02 6.811130000000000795e-01 3.661199999999999477e+01 1.420885000000000105e+02 1.713690000000000055e+03
7.300000000000000933e-02 6.816050000000000164e-01 3.670300000000000296e+01 1.443790000000000191e+02 1.714345000000000027e+03
7.399999999999999634e-02 6.820275000000000087e-01 3.665980000000000416e+01 1.463574999999999875e+02 1.714924999999999955e+03
7.499999999999999722e-02 6.823744999999999949e-01 3.647115000000000151e+01 1.479890000000000043e+02 1.715414999999999964e+03
7.599999999999999811e-02 6.826419999999999710e-01 3.613134999999999764e+01 1.492534999999999741e+02 1.715815000000000055e+03
7.699999999999999900e-02 6.828309999999999658e-01 3.564065000000000083e+01 1.501440000000000055e+02 1.716119999999999891e+03
7.799999999999999989e-02 6.829434999999999256e-01 3.500495000000000090e+01 1.506689999999999827e+02 1.716329999999999927e+03
7.900000000000000078e-02 6.829849999999999532e-01 3.423574999999999591e+01 1.508499999999999943e+02 1.716444999999999936e+03
8.000000000000000167e-02 6.829625000000000279e-01 3.334900000000000375e+01 1.507210000000000036e+02 1.716474999999999909e+03
8.100000000000000255e-02 6.828864999999999519e-01 3.236469999999999914e+01 1.503234999999999957e+02 1.716429999999999836e+03
8.200000000000000344e-02 6.827670000000000128e-01 3.130584999999999951e+01 1.497085000000000150e+02 1.716320000000000164e+03
8.300000000000000433e-02 6.826160000000000005e-01 3.019689999999999941e+01 1.489289999999999736e+02 1.716160000000000082e+03
8.400000000000000522e-02 6.824440000000000506e-01 2.906329999999999814e+01 1.480420000000000016e+02 1.715960000000000036e+03
8.500000000000000611e-02 6.822630000000000638e-01 2.792944999999999922e+01 1.470994999999999777e+02 1.715735000000000127e+03
8.600000000000000699e-02 6.820829999999999949e-01 2.681824999999999903e+01 1.461530000000000200e+02 1.715505000000000109e+03
8.700000000000000788e-02 6.819129999999999914e-01 2.574954999999999927e+01 1.452470000000000141e+02 1.715275000000000091e+03
8.800000000000000877e-02 6.817584999999999340e-01 2.473955000000000126e+01 1.444175000000000182e+02 1.715054999999999836e+03
8.899999999999999578e-02 6.816265000000000240e-01 2.380004999999999882e+01 1.436915000000000191e+02 1.714855000000000018e+03
8.999999999999999667e-02 6.815189999999999859e-01 2.293795000000000073e+01 1.430865000000000009e+02 1.714684999999999945e+03
9.099999999999999756e-02 6.814359999999999307e-01 2.215530000000000044e+01 1.426090000000000089e+02 1.714534999999999854e+03
9.199999999999999845e-02 6.813774999999999693e-01 2.144954999999999856e+01 1.422549999999999955e+02 1.714425000000000182e+03
9.299999999999999933e-02 6.813390000000000279e-01 2.081354999999999933e+01 1.420129999999999768e+02 1.714340000000000146e+03
9.400000000000000022e-02 6.813164999999999916e-01 2.023669999999999902e+01 1.418625000000000114e+02 1.714275000000000091e+03
9.500000000000000111e-02 6.813040000000000207e-01 1.970540000000000092e+01 1.417780000000000200e+02 1.714235000000000127e+03
9.600000000000000200e-02 6.812955000000000538e-01 1.920390000000000086e+01 1.417280000000000086e+02 1.714199999999999818e+03
9.700000000000000289e-02 6.812829999999999719e-01 1.871549999999999869e+01 1.416800000000000068e+02 1.714174999999999955e+03
9.800000000000000377e-02 6.812610000000000054e-01 1.822334999999999994e+01 1.416005000000000109e+02 1.714144999999999982e+03
9.900000000000000466e-02 6.812225000000000641e-01 1.771154999999999902e+01 1.414585000000000150e+02 1.714099999999999909e+03
1.000000000000000056e-01 6.811614999999999753e-01 1.716579999999999728e+01 1.412259999999999991e+02 1.714035000000000082e+03
1.010000000000000064e-01 6.810754999999999448e-01 1.657469999999999999e+01 1.408810000000000002e+02 1.713950000000000045e+03
1.020000000000000073e-01 6.809605000000000796e-01 1.592995000000000161e+01 1.404074999999999989e+02 1.713835000000000036e+03
1.030000000000000082e-01 6.808159999999999767e-01 1.522715000000000174e+01 1.397969999999999970e+02 1.713684999999999945e+03
1.040000000000000091e-01 6.806429999999999980e-01 1.446590000000000131e+01 1.390500000000000114e+02 1.713500000000000000e+03
1.050000000000000100e-01 6.804440000000000488e-01 1.364987999999999957e+01 1.381745000000000232e+02 1.713279999999999973e+03
1.059999999999999970e-01 6.802224999999999522e-01 1.278657000000000110e+01 1.371860000000000070e+02 1.713034999999999854e+03
1.069999999999999979e-01 6.799850000000000616e-01 1.188701999999999970e+01 1.361075000000000159e+02 1.712764999999999873e+03
1.079999999999999988e-01 6.797370000000000356e-01 1.096499500000000005e+01 1.349675000000000011e+02 1.712474999999999909e+03
1.089999999999999997e-01 6.794854999999999645e-01 1.003645500000000013e+01 1.337975000000000136e+02 1.712175000000000182e+03
1.100000000000000006e-01 6.792385000000000783e-01 9.118324999999998681e+00 1.326334999999999980e+02 1.711869999999999891e+03
1.110000000000000014e-01 6.790034999999999821e-01 8.227985000000000326e+00 1.315079999999999814e+02 1.711575000000000045e+03
1.120000000000000023e-01 6.787864999999999593e-01 7.381994999999999862e+00 1.304560000000000173e+02 1.711289999999999964e+03
1.130000000000000032e-01 6.785930000000000017e-01 6.595219999999999416e+00 1.295049999999999955e+02 1.711029999999999973e+03
1.140000000000000041e-01 6.784289999999999488e-01 5.880304999999999893e+00 1.286809999999999832e+02 1.710800000000000182e+03
1.150000000000000050e-01 6.782969999999999278e-01 5.246820000000000483e+00 1.280004999999999882e+02 1.710599999999999909e+03
1.160000000000000059e-01 6.781980000000000786e-01 4.700919999999999987e+00 1.274759999999999991e+02 1.710434999999999945e+03
1.170000000000000068e-01 6.781330000000000968e-01 4.245180000000000398e+00 1.271085000000000065e+02 1.710315000000000055e+03
1.180000000000000077e-01 6.780999999999999250e-01 3.878594999999999793e+00 1.268960000000000150e+02 1.710230000000000018e+03
1.190000000000000085e-01 6.780960000000000321e-01 3.596820000000000128e+00 1.268255000000000052e+02 1.710184999999999945e+03
1.200000000000000094e-01 6.781169999999999698e-01 3.392579999999999707e+00 1.268820000000000050e+02 1.710170000000000073e+03
1.209999999999999964e-01 6.781580000000000386e-01 3.256199999999999761e+00 1.270425000000000040e+02 1.710190000000000055e+03
1.219999999999999973e-01 6.782135000000000247e-01 3.176229999999999887e+00 1.272835000000000036e+02 1.710224999999999909e+03
1.229999999999999982e-01 6.782785000000000064e-01 3.140100000000000335e+00 1.275769999999999982e+02 1.710284999999999854e+03
1.239999999999999991e-01 6.783460000000000045e-01 3.134759999999999991e+00 1.278975000000000080e+02 1.710349999999999909e+03
1.250000000000000000e-01 6.784120000000000150e-01 3.147299999999999986e+00 1.282180000000000177e+02 1.710420000000000073e+03
1.260000000000000009e-01 6.784710000000000463e-01 3.165485000000000326e+00 1.285155000000000030e+02 1.710494999999999891e+03
1.270000000000000018e-01 6.785189999999999833e-01 3.178209999999999980e+00 1.287685000000000173e+02 1.710554999999999836e+03
1.280000000000000027e-01 6.785535000000000316e-01 3.175854999999999873e+00 1.289600000000000080e+02 1.710610000000000127e+03
1.290000000000000036e-01 6.785714999999999941e-01 3.150554999999999772e+00 1.290780000000000030e+02 1.710639999999999873e+03
1.300000000000000044e-01 6.785714999999999941e-01 3.096365000000000034e+00 1.291125000000000114e+02 1.710655000000000200e+03
1.310000000000000053e-01 6.785525000000000029e-01 3.009310000000000151e+00 1.290595000000000141e+02 1.710650000000000091e+03
1.320000000000000062e-01 6.785159999999998970e-01 2.887410000000000032e+00 1.289184999999999945e+02 1.710619999999999891e+03
1.330000000000000071e-01 6.784615000000000506e-01 2.730570000000000164e+00 1.286924999999999955e+02 1.710569999999999936e+03
1.340000000000000080e-01 6.783909999999999663e-01 2.540440000000000254e+00 1.283880000000000052e+02 1.710500000000000000e+03
1.350000000000000089e-01 6.783075000000000632e-01 2.320225499999999830e+00 1.280144999999999982e+02 1.710414999999999964e+03
1.360000000000000098e-01 6.782124999999999959e-01 2.074429499999999926e+00 1.275819999999999936e+02 1.710309999999999945e+03
1.370000000000000107e-01 6.781090000000000728e-01 1.808570000000000011e+00 1.271039999999999992e+02 1.710195000000000164e+03
1.380000000000000115e-01 6.779999999999999361e-01 1.528883390000000064e+00 1.265930000000000035e+02 1.710065000000000055e+03
1.390000000000000124e-01 6.778880000000000461e-01 1.241979500000000014e+00 1.260625000000000000e+02 1.709934999999999945e+03
1.400000000000000133e-01 6.777755000000000862e-01 9.545319999999999361e-01 1.255250000000000057e+02 1.709795000000000073e+03
1.410000000000000142e-01 6.776649999999999618e-01 6.729159999999999586e-01 1.249935000000000116e+02 1.709654999999999973e+03
1.420000000000000151e-01 6.775595000000000923e-01 4.029535000000000200e-01 1.244765000000000015e+02 1.709519999999999982e+03
1.430000000000000160e-01 6.774590000000000334e-01 1.496049999999999880e-01 1.239844999999999970e+02 1.709389999999999873e+03
1.440000000000000169e-01 6.773649999999999949e-01 -8.318999999999998618e-02 1.235210000000000008e+02 1.709264999999999873e+03
1.450000000000000178e-01 6.772789999999999644e-01 -2.927159999999999762e-01 1.230914999999999964e+02 1.709144999999999982e+03
1.459999999999999909e-01 6.772000000000000242e-01 -4.774869999999999948e-01 1.226965000000000003e+02 1.709035000000000082e+03
1.469999999999999918e-01 6.771270000000000344e-01 -6.372800000000000686e-01 1.223340000000000032e+02 1.708934999999999945e+03
1.479999999999999927e-01 6.770599999999999952e-01 -7.730489999999999862e-01 1.220004999999999882e+02 1.708839999999999918e+03
1.489999999999999936e-01 6.769975000000000298e-01 -8.867810000000000414e-01 1.216910000000000025e+02 1.708750000000000000e+03
1.499999999999999944e-01 6.769374999999999698e-01 -9.813174999999999537e-01 1.213979999999999961e+02 1.708664999999999964e+03
1.509999999999999953e-01 6.768790000000000084e-01 -1.060121000000000091e+00 1.211140000000000043e+02 1.708579999999999927e+03
1.519999999999999962e-01 6.768184999999999896e-01 -1.127024500000000096e+00 1.208299999999999983e+02 1.708500000000000000e+03
1.529999999999999971e-01 6.767564999999999831e-01 -1.185999000000000025e+00 1.205384999999999991e+02 1.708414999999999964e+03
1.539999999999999980e-01 6.766894999999999438e-01 -1.240887499999999921e+00 1.202319999999999993e+02 1.708335000000000036e+03
1.549999999999999989e-01 6.766174999999999828e-01 -1.295197500000000002e+00 1.199039999999999964e+02 1.708240000000000009e+03
1.559999999999999998e-01 6.765390000000000015e-01 -1.351906000000000052e+00 1.195494999999999948e+02 1.708144999999999982e+03
1.570000000000000007e-01 6.764544999999999586e-01 -1.413285000000000124e+00 1.191649999999999920e+02 1.708039999999999964e+03
1.580000000000000016e-01 6.763624999999999776e-01 -1.480813500000000005e+00 1.187494999999999976e+02 1.707930000000000064e+03
1.590000000000000024e-01 6.762639999999999763e-01 -1.555074499999999915e+00 1.183040000000000020e+02 1.707809999999999945e+03
