# t [s], A [cm^2], U [cm/s], P [cPa], c [cm/s]
1.000000000000000021e-03 6.237475000000000103e-01 7.027300000000000213e-03 9.597065000000000623e+01 1.756675000000000182e+03
2.000000000000000042e-03 6.237349999999999284e-01 -5.404444999999999909e-03 9.593375000000000341e+01 1.756664999999999964e+03
3.000000000000000062e-03 6.237844999999999640e-01 9.151550000000001350e-02 9.604669999999998709e+01 1.756690000000000055e+03
4.000000000000000083e-03 6.238295000000000368e-01 1.952969499999999969e-01 9.618129999999999313e+01 1.756719999999999800e+03
5.000000000000000104e-03 6.237975000000000048e-01 1.634635949999999893e-01 9.610024999999998840e+01 1.756704999999999927e+03
6.000000000000000125e-03 6.237310000000000354e-01 5.911999999999995037e-02 9.584215000000000373e+01 1.756650000000000091e+03
7.000000000000000146e-03 6.236800000000000122e-01 -2.337600000000000788e-02 9.554945000000000732e+01 1.756589999999999918e+03
8.000000000000000167e-03 6.235954999999999693e-01 -1.868100000000000316e-01 9.511060000000000514e+01 1.756500000000000000e+03
9.000000000000001055e-03 6.234534999999999938e-01 -4.826299999999998924e-01 9.443004999999999427e+01 1.756360000000000127e+03
1.000000000000000194e-02 6.232520000000000282e-01 -9.139299999999999091e-01 9.346385000000000787e+01 1.756159999999999854e+03
1.099999999999999936e-02 6.229685000000000361e-01 -1.515435000000000088e+00 9.212144999999999584e+01 1.755884999999999991e+03
1.200000000000000025e-02 6.226000000000000423e-01 -2.275514999999999954e+00 9.036320000000000618e+01 1.755515000000000100e+03
1.300000000000000114e-02 6.221974999999999589e-01 -3.067765000000000075e+00 8.831969999999999743e+01 1.755074999999999818e+03
1.400000000000000203e-02 6.218365000000000142e-01 -3.707836499999999536e+00 8.624850000000000705e+01 1.754610000000000127e+03
1.499999999999999944e-02 6.215630000000000877e-01 -4.060043999999999542e+00 8.438604999999999734e+01 1.754174999999999955e+03
1.600000000000000033e-02 6.213779999999999859e-01 -4.093140500000000515e+00 8.283844999999999459e+01 1.753780000000000200e+03
1.700000000000000122e-02 6.212419999999999609e-01 -3.868619999999999948e+00 8.156395000000000550e+01 1.753440000000000055e+03
1.800000000000000211e-02 6.211039999999999894e-01 -3.493149999999999977e+00 8.042295000000000016e+01 1.753115000000000009e+03
1.900000000000000300e-02 6.209234999999999616e-01 -3.066861499999999907e+00 7.925405000000000655e+01 1.752795000000000073e+03
2.000000000000000042e-02 6.206829999999999847e-01 -2.646785399999999733e+00 7.794184999999998809e+01 1.752450000000000045e+03
2.100000000000000130e-02 6.203929999999999723e-01 -2.234575500000000048e+00 7.645490000000000919e+01 1.752065000000000055e+03
2.200000000000000219e-02 6.200784999999999769e-01 -1.789709999999999912e+00 7.484369999999999834e+01 1.751650000000000091e+03
2.299999999999999961e-02 6.197715000000000307e-01 -1.259814999999999907e+00 7.320365000000001032e+01 1.751230000000000018e+03
2.400000000000000050e-02 6.194899999999999851e-01 -6.131249999999999201e-01 7.162404999999999688e+01 1.750819999999999936e+03
2.500000000000000139e-02 6.192349999999999799e-01 1.402950000000000585e-01 7.014490000000000691e+01 1.750420000000000073e+03
2.600000000000000228e-02 6.189875000000000238e-01 9.444800000000002083e-01 6.873640000000000327e+01 1.750039999999999964e+03
2.700000000000000316e-02 6.187169999999999614e-01 1.708974999999999689e+00 6.730334999999999468e+01 1.749654999999999973e+03
2.800000000000000058e-02 6.183879999999999377e-01 2.330985000000000085e+00 6.571134999999999593e+01 1.749240000000000009e+03
2.900000000000000147e-02 6.179729999999999945e-01 2.722085000000000310e+00 6.382655000000000456e+01 1.748780000000000200e+03
3.000000000000000236e-02 6.174629999999999841e-01 2.832320000000000171e+00 6.155865000000000009e+01 1.748240000000000009e+03
3.099999999999999978e-02 6.168670000000000542e-01 2.663894999999999680e+00 5.889305000000000234e+01 1.747614999999999782e+03
3.200000000000000067e-02 6.162155000000000271e-01 2.269194999999999851e+00 5.590064999999999884e+01 1.746925000000000182e+03
3.300000000000000155e-02 6.155494999999999717e-01 1.734675000000000189e+00 5.272334999999999638e+01 1.746190000000000055e+03
3.400000000000000244e-02 6.149100000000000676e-01 1.157904999999999962e+00 4.954189999999999827e+01 1.745440000000000055e+03
3.500000000000000333e-02 6.143340000000000467e-01 6.267350000000004862e-01 4.653995000000000459e+01 1.744724999999999909e+03
3.600000000000000422e-02 6.138460000000000027e-01 2.061100000000002375e-01 4.387494999999999834e+01 1.744065000000000055e+03
3.700000000000000511e-02 6.134580000000000588e-01 -6.586500000000006239e-02 4.166094999999999970e+01 1.743505000000000109e+03
3.799999999999999906e-02 6.131729999999999681e-01 -1.749000000000000554e-01 3.996394999999999698e+01 1.743049999999999955e+03
3.899999999999999994e-02 6.129890000000000061e-01 -1.228749999999998455e-01 3.880769999999999698e+01 1.742715000000000146e+03
4.000000000000000083e-02 6.128985000000000127e-01 8.132499999999998064e-02 3.818565000000000254e+01 1.742505000000000109e+03
4.100000000000000172e-02 6.128964999999999552e-01 4.300275000000000070e-01 3.807535000000000025e+01 1.742420000000000073e+03
4.200000000000000261e-02 6.129784999999999817e-01 9.220730000000000315e-01 3.845175000000000409e+01 1.742450000000000045e+03
4.300000000000000350e-02 6.131450000000000511e-01 1.564084499999999878e+00 3.929519999999999413e+01 1.742590000000000146e+03
4.400000000000000439e-02 6.133954999999999824e-01 2.367929999999999868e+00 4.059340000000000259e+01 1.742845000000000027e+03
4.499999999999999833e-02 6.137325000000000141e-01 3.345690000000000275e+00 4.233830000000000382e+01 1.743210000000000036e+03
4.599999999999999922e-02 6.141535000000000188e-01 4.504044999999999632e+00 4.451914999999999623e+01 1.743679999999999836e+03
4.700000000000000011e-02 6.146544999999999925e-01 5.840021000000000129e+00 4.711610000000000298e+01 1.744255000000000109e+03
4.800000000000000100e-02 6.152264999999998984e-01 7.338897999999999477e+00 5.009459999999999980e+01 1.744920000000000073e+03
4.900000000000000189e-02 6.158580000000000165e-01 8.974740000000000606e+00 5.340465000000000373e+01 1.745664999999999964e+03
5.000000000000000278e-02 6.165344999999999853e-01 1.071298499999999976e+01 5.698199999999999932e+01 1.746490000000000009e+03
5.100000000000000366e-02 6.172389999999999821e-01 1.251438000000000095e+01 6.075300000000000011e+01 1.747360000000000127e+03
5.200000000000000455e-02 6.179574999999999374e-01 1.433896499999999996e+01 6.464099999999999113e+01 1.748280000000000200e+03
5.300000000000000544e-02 6.186760000000000037e-01 1.615017500000000084e+01 6.857285000000000252e+01 1.749215000000000146e+03
5.399999999999999939e-02 6.193840000000000456e-01 1.791740000000000066e+01 7.248480000000000700e+01 1.750154999999999973e+03
5.500000000000000028e-02 6.200749999999999318e-01 1.961739999999999995e+01 7.632620000000000005e+01 1.751089999999999918e+03
5.600000000000000117e-02 6.207439999999999625e-01 2.123479999999999990e+01 8.006199999999999761e+01 1.752009999999999991e+03
5.700000000000000205e-02 6.213904999999999568e-01 2.276115000000000066e+01 8.367244999999999777e+01 1.752909999999999854e+03
5.800000000000000294e-02 6.220155000000000545e-01 2.419389999999999930e+01 8.715170000000000528e+01 1.753780000000000200e+03
5.900000000000000383e-02 6.226199999999999513e-01 2.553470000000000084e+01 9.050505000000001132e+01 1.754625000000000000e+03
6.000000000000000472e-02 6.232090000000000130e-01 2.678819999999999979e+01 9.374600000000000932e+01 1.755450000000000045e+03
6.099999999999999867e-02 6.237850000000000339e-01 2.796059999999999945e+01 9.689365000000000805e+01 1.756250000000000000e+03
6.199999999999999956e-02 6.243529999999999358e-01 2.905865000000000009e+01 9.996819999999999595e+01 1.757034999999999854e+03
6.300000000000000044e-02 6.249149999999999983e-01 3.008859999999999957e+01 1.029892499999999984e+02 1.757799999999999955e+03
6.400000000000000133e-02 6.254739999999999744e-01 3.105550000000000210e+01 1.059737999999999971e+02 1.758559999999999945e+03
6.500000000000000222e-02 6.260299999999999754e-01 3.196220000000000283e+01 1.089314999999999998e+02 1.759315000000000055e+03
6.600000000000000311e-02 6.265844999999999887e-01 3.280940000000000367e+01 1.118665000000000020e+02 1.760059999999999945e+03
6.700000000000000400e-02 6.271339999999999693e-01 3.359499999999999886e+01 1.147750000000000057e+02 1.760799999999999955e+03
6.800000000000000488e-02 6.276759999999999007e-01 3.431499999999999773e+01 1.176460000000000008e+02 1.761535000000000082e+03
6.900000000000000577e-02 6.282065000000000010e-01 3.496330000000000382e+01 1.204615000000000009e+02 1.762250000000000000e+03
7.000000000000000666e-02 6.287215000000000442e-01 3.553324999999999534e+01 1.232010000000000076e+02 1.762954999999999927e+03
7.100000000000000755e-02 6.292154999999999276e-01 3.601775000000000659e+01 1.258389999999999986e+02 1.763630000000000109e+03
7.200000000000000844e-02 6.296844999999999803e-01 3.641060000000000230e+01 1.283520000000000039e+02 1.764284999999999854e+03
7.300000000000000933e-02 6.301244999999999763e-01 3.670650000000000546e+01 1.307155000000000200e+02 1.764900000000000091e+03
7.399999999999999634e-02 6.305324999999999402e-01 3.690184999999999604e+01 1.329110000000000014e+02 1.765480000000000018e+03
7.499999999999999722e-02 6.309050000000000491e-01 3.699465000000000003e+01 1.349209999999999923e+02 1.766014999999999873e+03
7.599999999999999811e-02 6.312409999999999410e-01 3.698440000000000083e+01 1.367334999999999923e+02 1.766505000000000109e+03
7.699999999999999900e-02 6.315390000000000725e-01 3.687229999999999563e+01 1.383414999999999964e+02 1.766940000000000055e+03
7.799999999999999989e-02 6.317995000000000694e-01 3.666075000000000017e+01 1.397409999999999854e+02 1.767324999999999818e+03
7.900000000000000078e-02 6.320220000000000837e-01 3.635370000000000346e+01 1.409325000000000045e+02 1.767660000000000082e+03
8.000000000000000167e-02 6.322069999999999634e-01 3.595645000000000380e+01 1.419205000000000041e+02 1.767950000000000045e+03
8.100000000000000255e-02 6.323574999999999058e-01 3.547589999999999577e+01 1.427135000000000105e+02 1.768184999999999945e+03
8.200000000000000344e-02 6.324754999999999683e-01 3.492045000000000243e+01 1.433245000000000005e+02 1.768375000000000000e+03
8.300000000000000433e-02 6.325629999999999864e-01 3.429979999999999762e+01 1.437669999999999959e+02 1.768525000000000091e+03
8.400000000000000522e-02 6.326249999999999929e-01 3.362534999999999741e+01 1.440615000000000236e+02 1.768630000000000109e+03
8.500000000000000611e-02 6.326644999999999630e-01 3.290919999999999845e+01 1.442280000000000086e+02 1.768704999999999927e+03
8.600000000000000699e-02 6.326864999999999295e-01 3.216400000000000148e+01 1.442889999999999873e+02 1.768750000000000000e+03
8.700000000000000788e-02 6.326950000000000074e-01 3.140249999999999986e+01 1.442680000000000007e+02 1.768765000000000100e+03
8.800000000000000877e-02 6.326940000000000897e-01 3.063684999999999903e+01 1.441879999999999882e+02 1.768764999999999873e+03
8.899999999999999578e-02 6.326869999999999994e-01 2.987770000000000081e+01 1.440689999999999884e+02 1.768750000000000000e+03
8.999999999999999667e-02 6.326775000000000038e-01 2.913414999999999822e+01 1.439304999999999950e+02 1.768730000000000018e+03
9.099999999999999756e-02 6.326670000000000904e-01 2.841295000000000215e+01 1.437855000000000132e+02 1.768704999999999927e+03
9.199999999999999845e-02 6.326570000000000249e-01 2.771855000000000047e+01 1.436444999999999936e+02 1.768674999999999955e+03
9.299999999999999933e-02 6.326480000000000992e-01 2.705284999999999940e+01 1.435124999999999886e+02 1.768644999999999982e+03
9.400000000000000022e-02 6.326395000000000213e-01 2.641539999999999822e+01 1.433894999999999982e+02 1.768610000000000127e+03
9.500000000000000111e-02 6.326304999999999845e-01 2.580385000000000062e+01 1.432735000000000127e+02 1.768579999999999927e+03
9.600000000000000200e-02 6.326190000000000424e-01 2.521405000000000030e+01 1.431560000000000059e+02 1.768549999999999955e+03
9.700000000000000289e-02 6.326035000000000963e-01 2.464079999999999870e+01 1.430280000000000200e+02 1.768519999999999982e+03
9.800000000000000377e-02 6.325819999999999776e-01 2.407779999999999987e+01 1.428785000000000025e+02 1.768480000000000018e+03
9.900000000000000466e-02 6.325509999999999744e-01 2.351870000000000260e+01 1.426949999999999932e+02 1.768434999999999945e+03
1.000000000000000056e-01 6.325095000000000578e-01 2.295689999999999742e+01 1.424650000000000034e+02 1.768380000000000109e+03
1.010000000000000064e-01 6.324555000000000593e-01 2.238644999999999996e+01 1.421779999999999973e+02 1.768309999999999945e+03
1.020000000000000073e-01 6.323874999999999913e-01 2.180194999999999794e+01 1.418240000000000123e+02 1.768224999999999909e+03
1.030000000000000082e-01 6.323039999999999772e-01 2.119935000000000258e+01 1.413954999999999984e+02 1.768125000000000000e+03
1.040000000000000091e-01 6.322050000000000169e-01 2.057560000000000144e+01 1.408890000000000100e+02 1.768005000000000109e+03
1.050000000000000100e-01 6.320904999999999996e-01 1.992950000000000088e+01 1.403029999999999973e+02 1.767869999999999891e+03
1.059999999999999970e-01 6.319615000000000649e-01 1.926144999999999996e+01 1.396394999999999982e+02 1.767710000000000036e+03
1.069999999999999979e-01 6.318194999999999784e-01 1.857349999999999923e+01 1.389039999999999964e+02 1.767539999999999964e+03
1.079999999999999988e-01 6.316665000000000196e-01 1.786945000000000050e+01 1.381059999999999945e+02 1.767344999999999800e+03
1.089999999999999997e-01 6.315049999999999830e-01 1.715480000000000160e+01 1.372574999999999932e+02 1.767150000000000091e+03
1.100000000000000006e-01 6.313385000000000247e-01 1.643605000000000160e+01 1.363739999999999952e+02 1.766934999999999945e+03
1.110000000000000014e-01 6.311695000000000499e-01 1.572090000000000032e+01 1.354714999999999918e+02 1.766714999999999918e+03
1.120000000000000023e-01 6.310024999999999107e-01 1.501754999999999995e+01 1.345674999999999955e+02 1.766494999999999891e+03
1.130000000000000032e-01 6.308400000000000674e-01 1.433454000000000050e+01 1.336814999999999998e+02 1.766275000000000091e+03
1.140000000000000041e-01 6.306855000000000100e-01 1.368001500000000092e+01 1.328299999999999841e+02 1.766065000000000055e+03
1.150000000000000050e-01 6.305425000000000058e-01 1.306170499999999990e+01 1.320305000000000177e+02 1.765860000000000127e+03
1.160000000000000059e-01 6.304130000000000011e-01 1.248631999999999920e+01 1.312964999999999804e+02 1.765674999999999955e+03
1.170000000000000068e-01 6.302989999999999426e-01 1.195933499999999938e+01 1.306399999999999864e+02 1.765500000000000000e+03
1.180000000000000077e-01 6.302014999999999700e-01 1.148473999999999862e+01 1.300695000000000050e+02 1.765349999999999909e+03
1.190000000000000085e-01 6.301204999999999723e-01 1.106489000000000011e+01 1.295900000000000034e+02 1.765220000000000027e+03
1.200000000000000094e-01 6.300574999999999370e-01 1.070056500000000099e+01 1.292030000000000030e+02 1.765110000000000127e+03
1.209999999999999964e-01 6.300099999999999589e-01 1.039078500000000105e+01 1.289064999999999941e+02 1.765019999999999982e+03
1.219999999999999973e-01 6.299784999999999968e-01 1.013318999999999903e+01 1.286949999999999932e+02 1.764954999999999927e+03
1.229999999999999982e-01 6.299595000000000056e-01 9.924125000000000085e+00 1.285610000000000070e+02 1.764900000000000091e+03
1.239999999999999991e-01 6.299525000000000263e-01 9.758855000000000501e+00 1.284944999999999879e+02 1.764875000000000000e+03
1.250000000000000000e-01 6.299544999999999728e-01 9.632054999999999367e+00 1.284850000000000136e+02 1.764855000000000018e+03
1.260000000000000009e-01 6.299635000000000096e-01 9.537839999999999208e+00 1.285194999999999936e+02 1.764849999999999909e+03
1.270000000000000018e-01 6.299770000000000092e-01 9.470319999999999183e+00 1.285865000000000009e+02 1.764855000000000018e+03
1.280000000000000027e-01 6.299935000000000951e-01 9.423729999999999052e+00 1.286740000000000066e+02 1.764869999999999891e+03
1.290000000000000036e-01 6.300105000000000288e-01 9.392509999999999692e+00 1.287715000000000032e+02 1.764884999999999991e+03
1.300000000000000044e-01 6.300270000000000037e-01 9.371710000000000207e+00 1.288704999999999927e+02 1.764900000000000091e+03
1.310000000000000053e-01 6.300415000000000321e-01 9.356984999999999886e+00 1.289619999999999891e+02 1.764920000000000073e+03
1.320000000000000062e-01 6.300529999999999742e-01 9.344559999999999533e+00 1.290414999999999850e+02 1.764934999999999945e+03
1.330000000000000071e-01 6.300615000000000521e-01 9.331379999999999342e+00 1.291039999999999850e+02 1.764945000000000164e+03
1.340000000000000080e-01 6.300660000000000149e-01 9.315059999999999008e+00 1.291469999999999914e+02 1.764960000000000036e+03
1.350000000000000089e-01 6.300670000000000437e-01 9.293949999999998823e+00 1.291690000000000111e+02 1.764960000000000036e+03
1.360000000000000098e-01 6.300645000000000273e-01 9.266950000000001353e+00 1.291709999999999923e+02 1.764965000000000146e+03
1.370000000000000107e-01 6.300584999999999658e-01 9.233634999999999593e+00 1.291535000000000082e+02 1.764960000000000036e+03
1.380000000000000115e-01 6.300489999999999702e-01 9.194060000000000343e+00 1.291195000000000164e+02 1.764954999999999927e+03
1.390000000000000124e-01 6.300379999999999869e-01 9.148835000000000051e+00 1.290709999999999980e+02 1.764944999999999936e+03
1.400000000000000133e-01 6.300254999999999050e-01 9.098974999999999369e+00 1.290124999999999886e+02 1.764924999999999955e+03
1.410000000000000142e-01 6.300125000000000863e-01 9.045754999999999768e+00 1.289474999999999909e+02 1.764914999999999964e+03
1.420000000000000151e-01 6.299995000000000456e-01 8.990770000000001261e+00 1.288799999999999955e+02 1.764900000000000091e+03
1.430000000000000160e-01 6.299870000000000747e-01 8.935469999999998691e+00 1.288139999999999930e+02 1.764884999999999991e+03
1.440000000000000169e-01 6.299759999999999804e-01 8.881420000000000314e+00 1.287540000000000191e+02 1.764869999999999891e+03
1.450000000000000178e-01 6.299665000000000958e-01 8.829990000000000450e+00 1.287010000000000218e+02 1.764860000000000127e+03
1.459999999999999909e-01 6.299600000000000755e-01 8.782204999999999373e+00 1.286585000000000036e+02 1.764849999999999909e+03
1.469999999999999918e-01 6.299550000000000427e-01 8.738714999999999122e+00 1.286270000000000095e+02 1.764840000000000146e+03
1.479999999999999927e-01 6.299529999999999852e-01 8.699875000000000469e+00 1.286069999999999993e+02 1.764835000000000036e+03
1.489999999999999936e-01 6.299525000000000263e-01 8.665490000000000137e+00 1.285985000000000014e+02 1.764829999999999927e+03
1.499999999999999944e-01 6.299540000000000139e-01 8.635049999999999670e+00 1.285989999999999895e+02 1.764829999999999927e+03
1.509999999999999953e-01 6.299559999999999604e-01 8.607810000000000628e+00 1.286065000000000111e+02 1.764829999999999927e+03
1.519999999999999962e-01 6.299589999999999357e-01 8.582665000000000433e+00 1.286169999999999902e+02 1.764829999999999927e+03
1.529999999999999971e-01 6.299609999999999932e-01 8.558495000000000630e+00 1.286284999999999741e+02 1.764835000000000036e+03
1.539999999999999980e-01 6.299624999999999808e-01 8.534190000000000609e+00 1.286374999999999886e+02 1.764835000000000036e+03
1.549999999999999989e-01 6.299630000000000507e-01 8.508765000000000356e+00 1.286405000000000030e+02 1.764835000000000036e+03
1.559999999999999998e-01 6.299615000000000631e-01 8.481465000000000032e+00 1.286359999999999957e+02 1.764840000000000146e+03
1.570000000000000007e-01 6.299584999999999768e-01 8.451850000000000307e+00 1.286209999999999809e+02 1.764835000000000036e+03
1.580000000000000016e-01 6.299529999999999852e-01 8.419840000000000657e+00 1.285960000000000036e+02 1.764825000000000045e+03
1.590000000000000024e-01 6.299449999999999772e-01 8.385709999999999553e+00 1.285604999999999905e+02 1.764815000000000055e+03
