# t [s], A [cm^2], U [cm/s], P [cPa], c [cm/s]
1.000000000000000021e-03 6.019870000000000498e-01 2.883600000000000052e-03 9.005285000000000650e+01 1.517184999999999945e+03
2.000000000000000042e-03 6.019795000000000007e-01 1.406415000000000269e-03 9.003029999999999688e+01 1.517174999999999955e+03
3.000000000000000062e-03 6.020384999999999209e-01 1.080278999999999962e-01 9.013264999999999816e+01 1.517200000000000045e+03
4.000000000000000083e-03 6.020844999999999114e-01 1.995235499999999940e-01 9.023830000000000950e+01 1.517230000000000018e+03
5.000000000000000104e-03 6.020545000000000480e-01 1.647143000000000079e-01 9.017175000000000296e+01 1.517220000000000027e+03
6.000000000000000125e-03 6.019870000000000498e-01 5.745650000000002144e-02 8.994894999999999641e+01 1.517170000000000073e+03
7.000000000000000146e-03 6.019209999999999283e-01 -5.708249999999992497e-02 8.964724999999999966e+01 1.517095000000000027e+03
8.000000000000000167e-03 6.018149999999999888e-01 -2.512900000000000134e-01 8.919630000000000791e+01 1.516985000000000127e+03
9.000000000000001055e-03 6.016424999999999690e-01 -5.774649999999998951e-01 8.850900000000000034e+01 1.516815000000000055e+03
1.000000000000000194e-02 6.014025000000000620e-01 -1.030555000000000110e+00 8.755124999999999602e+01 1.516579999999999927e+03
1.099999999999999936e-02 6.010815000000000463e-01 -1.621370000000000200e+00 8.627590000000000714e+01 1.516255000000000109e+03
1.200000000000000025e-02 6.006639999999999757e-01 -2.357890000000000263e+00 8.463519999999999754e+01 1.515835000000000036e+03
1.300000000000000114e-02 6.001714999999999689e-01 -3.179689999999999461e+00 8.266415000000000646e+01 1.515315000000000055e+03
1.400000000000000203e-02 5.996660000000000323e-01 -3.947785000000000100e+00 8.051800000000000068e+01 1.514735000000000127e+03
1.499999999999999944e-02 5.992169999999999996e-01 -4.504179500000000225e+00 7.841904999999999859e+01 1.514139999999999873e+03
1.600000000000000033e-02 5.988679999999999559e-01 -4.742079999999999629e+00 7.656279999999999575e+01 1.513585000000000036e+03
1.700000000000000122e-02 5.986230000000000162e-01 -4.639865499999999976e+00 7.505010000000000048e+01 1.513105000000000018e+03
1.800000000000000211e-02 5.984504999999999963e-01 -4.254195000000000171e+00 7.386785000000000423e+01 1.512684999999999945e+03
1.900000000000000300e-02 5.983015000000000416e-01 -3.688645000000000174e+00 7.291214999999999691e+01 1.512325000000000045e+03
2.000000000000000042e-02 5.981300000000000505e-01 -3.054319000000000006e+00 7.203509999999999991e+01 1.511990000000000009e+03
2.100000000000000130e-02 5.979045000000000609e-01 -2.434900999999999982e+00 7.109819999999999141e+01 1.511644999999999982e+03
2.200000000000000219e-02 5.976160000000000361e-01 -1.866530000000000022e+00 7.001489999999999725e+01 1.511269999999999982e+03
2.299999999999999961e-02 5.972784999999999345e-01 -1.338710000000000067e+00 6.876744999999999663e+01 1.510865000000000009e+03
2.400000000000000050e-02 5.969170000000000309e-01 -8.138350000000003082e-01 6.739494999999999436e+01 1.510420000000000073e+03
2.500000000000000139e-02 5.965540000000000287e-01 -2.545350000000001778e-01 6.596139999999999759e+01 1.509965000000000146e+03
2.600000000000000228e-02 5.962020000000000097e-01 3.532500000000000639e-01 6.452020000000000266e+01 1.509500000000000000e+03
2.700000000000000316e-02 5.958569999999999700e-01 9.888650000000001050e-01 6.308809999999999718e+01 1.509029999999999973e+03
2.800000000000000058e-02 5.955000000000000293e-01 1.598225000000000229e+00 6.163499999999999801e+01 1.508554999999999836e+03
2.900000000000000147e-02 5.951035000000000075e-01 2.105179999999999829e+00 6.008920000000000528e+01 1.508059999999999945e+03
3.000000000000000236e-02 5.946384999999999588e-01 2.428739999999999899e+00 5.835555000000000092e+01 1.507509999999999991e+03
3.099999999999999978e-02 5.940824999999999578e-01 2.501885000000000137e+00 5.634035000000000082e+01 1.506904999999999973e+03
3.200000000000000067e-02 5.934245000000000214e-01 2.287614999999999732e+00 5.397854999999999848e+01 1.506210000000000036e+03
3.300000000000000155e-02 5.926715000000000177e-01 1.788374999999999826e+00 5.125445000000000562e+01 1.505424999999999955e+03
3.400000000000000244e-02 5.918464999999999421e-01 1.046619999999999884e+00 4.821179999999999666e+01 1.504554999999999836e+03
3.500000000000000333e-02 5.909839999999999538e-01 1.367499999999992610e-01 4.495074999999999932e+01 1.503619999999999891e+03
3.600000000000000422e-02 5.901269999999999571e-01 -8.486449999999994276e-01 4.161370000000000147e+01 1.502659999999999854e+03
3.700000000000000511e-02 5.893184999999999674e-01 -1.813805000000000334e+00 3.836404999999999887e+01 1.501704999999999927e+03
3.799999999999999906e-02 5.885945000000000205e-01 -2.672404999999999475e+00 3.536480000000000246e+01 1.500805000000000064e+03
3.899999999999999994e-02 5.879860000000000086e-01 -3.355955000000000243e+00 3.275965000000000060e+01 1.499994999999999891e+03
4.000000000000000083e-02 5.875120000000000342e-01 -3.817470000000000141e+00 3.066080000000000183e+01 1.499309999999999945e+03
4.100000000000000172e-02 5.871830000000000105e-01 -4.030793000000000070e+00 2.914244999999999663e+01 1.498779999999999973e+03
4.200000000000000261e-02 5.870005000000000361e-01 -3.986939999999999706e+00 2.824115000000000109e+01 1.498410000000000082e+03
4.300000000000000350e-02 5.869619999999999838e-01 -3.689110000000000333e+00 2.796090000000000231e+01 1.498220000000000027e+03
4.400000000000000439e-02 5.870595000000000674e-01 -3.147529999999999717e+00 2.828025000000000233e+01 1.498195000000000164e+03
4.499999999999999833e-02 5.872840000000000282e-01 -2.375381500000000035e+00 2.916179999999999950e+01 1.498345000000000027e+03
4.599999999999999922e-02 5.876239999999999242e-01 -1.386619999999999964e+00 3.055850000000000222e+01 1.498644999999999982e+03
4.700000000000000011e-02 5.880705000000000515e-01 -1.955700000000000216e-01 3.241935000000000144e+01 1.499090000000000146e+03
4.800000000000000100e-02 5.886114999999999542e-01 1.181930000000000369e+00 3.469120000000000203e+01 1.499670000000000073e+03
4.900000000000000189e-02 5.892349999999999532e-01 2.726794999999999636e+00 3.731940000000000168e+01 1.500360000000000127e+03
5.000000000000000278e-02 5.899280000000000079e-01 4.415044999999999220e+00 4.024649999999999750e+01 1.501144999999999982e+03
5.100000000000000366e-02 5.906755000000000200e-01 6.217209999999999681e+00 4.341190000000000282e+01 1.502019999999999982e+03
5.200000000000000455e-02 5.914614999999999734e-01 8.098754999999998816e+00 4.675114999999999554e+01 1.502954999999999927e+03
5.300000000000000544e-02 5.922695000000000043e-01 1.002145600000000059e+01 5.019745000000000346e+01 1.503944999999999936e+03
5.399999999999999939e-02 5.930819999999999981e-01 1.194577000000000133e+01 5.368390000000000128e+01 1.504949999999999818e+03
5.500000000000000028e-02 5.938849999999999962e-01 1.383351500000000023e+01 5.714650000000000318e+01 1.505970000000000027e+03
5.600000000000000117e-02 5.946644999999999293e-01 1.565029499999999985e+01 6.052774999999999750e+01 1.506985000000000127e+03
5.700000000000000205e-02 5.954105000000000647e-01 1.736749999999999972e+01 6.377974999999999994e+01 1.507969999999999800e+03
5.800000000000000294e-02 5.961170000000000080e-01 1.896390000000000242e+01 6.686660000000000537e+01 1.508924999999999955e+03
5.900000000000000383e-02 5.967789999999999484e-01 2.042595000000000027e+01 6.976585000000000036e+01 1.509835000000000036e+03
6.000000000000000472e-02 5.973975000000000257e-01 2.174765000000000015e+01 7.246895000000000664e+01 1.510695000000000164e+03
6.099999999999999867e-02 5.979744999999999644e-01 2.293019999999999925e+01 7.498005000000000564e+01 1.511509999999999991e+03
6.199999999999999956e-02 5.985139999999999905e-01 2.398035000000000139e+01 7.731459999999999866e+01 1.512269999999999982e+03
6.300000000000000044e-02 5.990244999999999598e-01 2.490970000000000084e+01 7.949710000000000321e+01 1.512994999999999891e+03
6.400000000000000133e-02 5.995120000000000449e-01 2.573295000000000243e+01 8.155844999999999345e+01 1.513679999999999836e+03
6.500000000000000222e-02 5.999854999999999494e-01 2.646730000000000160e+01 8.353350000000000364e+01 1.514335000000000036e+03
6.600000000000000311e-02 6.004534999999999734e-01 2.713094999999999857e+01 8.545884999999999820e+01 1.514974999999999909e+03
6.700000000000000400e-02 6.009229999999999849e-01 2.774220000000000041e+01 8.737014999999999532e+01 1.515605000000000018e+03
6.800000000000000488e-02 6.014019999999999921e-01 2.831869999999999976e+01 8.930060000000000286e+01 1.516235000000000127e+03
6.900000000000000577e-02 6.018965000000000565e-01 2.887644999999999840e+01 9.127859999999999729e+01 1.516875000000000000e+03
7.000000000000000666e-02 6.024104999999999599e-01 2.942900000000000205e+01 9.332670000000000243e+01 1.517529999999999973e+03
7.100000000000000755e-02 6.029465000000000519e-01 2.998635000000000161e+01 9.545990000000000464e+01 1.518210000000000036e+03
7.200000000000000844e-02 6.035064999999999458e-01 3.055475000000000207e+01 9.768485000000001151e+01 1.518904999999999973e+03
7.300000000000000933e-02 6.040870000000000406e-01 3.113609999999999900e+01 9.999819999999999709e+01 1.519634999999999991e+03
7.399999999999999634e-02 6.046854999999999869e-01 3.172769999999999868e+01 1.023893500000000074e+02 1.520380000000000109e+03
7.499999999999999722e-02 6.052960000000000562e-01 3.232260000000000133e+01 1.048379999999999939e+02 1.521140000000000100e+03
7.599999999999999811e-02 6.059114999999999363e-01 3.291029999999999944e+01 1.073155000000000001e+02 1.521910000000000082e+03
7.699999999999999900e-02 6.065229999999999233e-01 3.347724999999999795e+01 1.097899999999999920e+02 1.522684999999999945e+03
7.799999999999999989e-02 6.071214999999999806e-01 3.400804999999999723e+01 1.122235000000000014e+02 1.523450000000000045e+03
7.900000000000000078e-02 6.076979999999999604e-01 3.448635000000000161e+01 1.145769999999999982e+02 1.524199999999999818e+03
8.000000000000000167e-02 6.082425000000000193e-01 3.489615000000000578e+01 1.168119999999999976e+02 1.524920000000000073e+03
8.100000000000000255e-02 6.087480000000000668e-01 3.522240000000000038e+01 1.188925000000000125e+02 1.525599999999999909e+03
8.200000000000000344e-02 6.092070000000000540e-01 3.545244999999999891e+01 1.207884999999999991e+02 1.526224999999999909e+03
8.300000000000000433e-02 6.096144999999999481e-01 3.557599999999999341e+01 1.224735000000000014e+02 1.526795000000000073e+03
8.400000000000000522e-02 6.099660000000000082e-01 3.558615000000000350e+01 1.239290000000000020e+02 1.527295000000000073e+03
8.500000000000000611e-02 6.102600000000000247e-01 3.547939999999999827e+01 1.251444999999999936e+02 1.527730000000000018e+03
8.600000000000000699e-02 6.104970000000000674e-01 3.525574999999999903e+01 1.261175000000000068e+02 1.528090000000000146e+03
8.700000000000000788e-02 6.106774999999999842e-01 3.491870000000000118e+01 1.268514999999999873e+02 1.528380000000000109e+03
8.800000000000000877e-02 6.108059999999999601e-01 3.447499999999999432e+01 1.273580000000000041e+02 1.528605000000000018e+03
8.899999999999999578e-02 6.108850000000000113e-01 3.393424999999999869e+01 1.276550000000000011e+02 1.528759999999999991e+03
8.999999999999999667e-02 6.109219999999999651e-01 3.330870000000000175e+01 1.277649999999999864e+02 1.528855000000000018e+03
9.099999999999999756e-02 6.109230000000001048e-01 3.261234999999999928e+01 1.277150000000000034e+02 1.528894999999999982e+03
9.199999999999999845e-02 6.108945000000000070e-01 3.186045000000000016e+01 1.275349999999999966e+02 1.528894999999999982e+03
9.299999999999999933e-02 6.108434999999999837e-01 3.106929999999999836e+01 1.272545000000000073e+02 1.528855000000000018e+03
9.400000000000000022e-02 6.107780000000000431e-01 3.025515000000000043e+01 1.269054999999999893e+02 1.528784999999999854e+03
9.500000000000000111e-02 6.107039999999999136e-01 2.943365000000000009e+01 1.265174999999999983e+02 1.528699999999999818e+03
9.600000000000000200e-02 6.106289999999999774e-01 2.861955000000000027e+01 1.261179999999999950e+02 1.528605000000000018e+03
9.700000000000000289e-02 6.105570000000000164e-01 2.782584999999999908e+01 1.257319999999999993e+02 1.528500000000000000e+03
9.800000000000000377e-02 6.104929999999999524e-01 2.706360000000000099e+01 1.253789999999999907e+02 1.528409999999999854e+03
9.900000000000000466e-02 6.104404999999999415e-01 2.634134999999999849e+01 1.250765000000000100e+02 1.528315000000000055e+03
1.000000000000000056e-01 6.104015000000000413e-01 2.566499999999999915e+01 1.248329999999999984e+02 1.528244999999999891e+03
1.010000000000000064e-01 6.103764999999999885e-01 2.503779999999999717e+01 1.246560000000000059e+02 1.528179999999999836e+03
1.020000000000000073e-01 6.103665000000000340e-01 2.446020000000000039e+01 1.245450000000000159e+02 1.528139999999999873e+03
1.030000000000000082e-01 6.103690000000000504e-01 2.393005000000000138e+01 1.244960000000000093e+02 1.528115000000000009e+03
1.040000000000000091e-01 6.103814999999999102e-01 2.344290000000000163e+01 1.245010000000000048e+02 1.528099999999999909e+03
1.050000000000000100e-01 6.104020000000000001e-01 2.299235000000000184e+01 1.245469999999999970e+02 1.528105000000000018e+03
1.059999999999999970e-01 6.104264999999999830e-01 2.257025000000000148e+01 1.246189999999999998e+02 1.528110000000000127e+03
1.069999999999999979e-01 6.104505000000000070e-01 2.216754999999999853e+01 1.247005000000000052e+02 1.528125000000000000e+03
1.079999999999999988e-01 6.104700000000000681e-01 2.177445000000000164e+01 1.247729999999999961e+02 1.528139999999999873e+03
1.089999999999999997e-01 6.104800000000000226e-01 2.138100000000000023e+01 1.248189999999999884e+02 1.528150000000000091e+03
1.100000000000000006e-01 6.104779999999999651e-01 2.097769999999999868e+01 1.248209999999999980e+02 1.528150000000000091e+03
1.110000000000000014e-01 6.104604999999999615e-01 2.055579999999999785e+01 1.247634999999999934e+02 1.528130000000000109e+03
1.120000000000000023e-01 6.104235000000000078e-01 2.010780000000000101e+01 1.246334999999999980e+02 1.528095000000000027e+03
1.130000000000000032e-01 6.103665000000000340e-01 1.962770000000000081e+01 1.244199999999999875e+02 1.528039999999999964e+03
1.140000000000000041e-01 6.102870000000000239e-01 1.911159999999999926e+01 1.241184999999999974e+02 1.527954999999999927e+03
1.150000000000000050e-01 6.101855000000000473e-01 1.855734999999999957e+01 1.237239999999999895e+02 1.527845000000000027e+03
1.160000000000000059e-01 6.100624999999999520e-01 1.796525000000000105e+01 1.232399999999999949e+02 1.527710000000000036e+03
1.170000000000000068e-01 6.099194999999999478e-01 1.733749999999999858e+01 1.226700000000000017e+02 1.527550000000000182e+03
1.180000000000000077e-01 6.097595000000000098e-01 1.667855000000000132e+01 1.220240000000000009e+02 1.527369999999999891e+03
1.190000000000000085e-01 6.095854999999998913e-01 1.599465000000000003e+01 1.213144999999999953e+02 1.527164999999999964e+03
1.200000000000000094e-01 6.094014999999999294e-01 1.529380000000000095e+01 1.205559999999999974e+02 1.526944999999999936e+03
1.209999999999999964e-01 6.092115000000000169e-01 1.458510499999999865e+01 1.197669999999999959e+02 1.526714999999999918e+03
1.219999999999999973e-01 6.090210000000000345e-01 1.387877999999999901e+01 1.189664999999999964e+02 1.526480000000000018e+03
1.229999999999999982e-01 6.088335000000000274e-01 1.318538000000000032e+01 1.181744999999999948e+02 1.526235000000000127e+03
1.239999999999999991e-01 6.086544999999999872e-01 1.251561000000000057e+01 1.174095000000000084e+02 1.526005000000000109e+03
1.250000000000000000e-01 6.084880000000000289e-01 1.187970499999999952e+01 1.166914999999999907e+02 1.525779999999999973e+03
1.260000000000000009e-01 6.083380000000000454e-01 1.128702000000000005e+01 1.160379999999999967e+02 1.525574999999999818e+03
1.270000000000000018e-01 6.082085000000000408e-01 1.074580500000000072e+01 1.154619999999999891e+02 1.525384999999999991e+03
1.280000000000000027e-01 6.081010000000000026e-01 1.026260999999999868e+01 1.149774999999999920e+02 1.525224999999999909e+03
1.290000000000000036e-01 6.080170000000000297e-01 9.842309999999999448e+00 1.145914999999999964e+02 1.525085000000000036e+03
1.300000000000000044e-01 6.079579999999999984e-01 9.487840000000000273e+00 1.143094999999999999e+02 1.524980000000000018e+03
1.310000000000000053e-01 6.079240000000000199e-01 9.200065000000000381e+00 1.141320000000000050e+02 1.524900000000000091e+03
1.320000000000000062e-01 6.079134999999999955e-01 8.977934999999998666e+00 1.140570000000000022e+02 1.524849999999999909e+03
1.330000000000000071e-01 6.079250000000000487e-01 8.818474999999999397e+00 1.140780000000000030e+02 1.524835000000000036e+03
1.340000000000000080e-01 6.079559999999999409e-01 8.717230000000000700e+00 1.141860000000000070e+02 1.524840000000000146e+03
1.350000000000000089e-01 6.080045000000000588e-01 8.668179999999999552e+00 1.143704999999999927e+02 1.524869999999999891e+03
1.360000000000000098e-01 6.080659999999999954e-01 8.664310000000000400e+00 1.146179999999999950e+02 1.524920000000000073e+03
1.370000000000000107e-01 6.081380000000000674e-01 8.697794999999999277e+00 1.149145000000000039e+02 1.524990000000000009e+03
1.380000000000000115e-01 6.082164999999999377e-01 8.760390000000001010e+00 1.152439999999999998e+02 1.525074999999999818e+03
1.390000000000000124e-01 6.082980000000000054e-01 8.843720000000001136e+00 1.155925000000000011e+02 1.525164999999999964e+03
1.400000000000000133e-01 6.083800000000000319e-01 8.939595000000000624e+00 1.159465000000000003e+02 1.525260000000000218e+03
1.410000000000000142e-01 6.084585000000000132e-01 9.040285000000000792e+00 1.162920000000000016e+02 1.525355000000000018e+03
1.420000000000000151e-01 6.085315000000000030e-01 9.138729999999998910e+00 1.166175000000000068e+02 1.525449999999999818e+03
1.430000000000000160e-01 6.085975000000000135e-01 9.228760000000001185e+00 1.169140000000000015e+02 1.525539999999999964e+03
1.440000000000000169e-01 6.086544999999999872e-01 9.305210000000000647e+00 1.171734999999999900e+02 1.525615000000000009e+03
1.450000000000000178e-01 6.087010000000000476e-01 9.363965000000000316e+00 1.173914999999999935e+02 1.525684999999999945e+03
1.459999999999999909e-01 6.087365000000000137e-01 9.402145000000000863e+00 1.175635000000000048e+02 1.525744999999999891e+03
1.469999999999999918e-01 6.087614999999999554e-01 9.417960000000000775e+00 1.176894999999999953e+02 1.525789999999999964e+03
1.479999999999999927e-01 6.087765000000000537e-01 9.410714999999999719e+00 1.177700000000000102e+02 1.525820000000000164e+03
1.489999999999999936e-01 6.087815000000000865e-01 9.380690000000001305e+00 1.178079999999999927e+02 1.525839999999999918e+03
1.499999999999999944e-01 6.087785000000000002e-01 9.329254999999999853e+00 1.178069999999999879e+02 1.525849999999999909e+03
1.509999999999999953e-01 6.087679999999999758e-01 9.258385000000000531e+00 1.177725000000000080e+02 1.525849999999999909e+03
1.519999999999999962e-01 6.087519999999999598e-01 9.170764999999999390e+00 1.177100000000000080e+02 1.525840000000000146e+03
1.529999999999999971e-01 6.087310000000000221e-01 9.069634999999999891e+00 1.176269999999999953e+02 1.525824999999999818e+03
1.539999999999999980e-01 6.087080000000000268e-01 8.958404999999999063e+00 1.175294999999999987e+02 1.525799999999999955e+03
1.549999999999999989e-01 6.086840000000000028e-01 8.840790000000000148e+00 1.174250000000000114e+02 1.525775000000000091e+03
1.559999999999999998e-01 6.086605000000000487e-01 8.720330000000000581e+00 1.173190000000000026e+02 1.525750000000000000e+03
1.570000000000000007e-01 6.086385000000000822e-01 8.600509999999999877e+00 1.172175000000000011e+02 1.525724999999999909e+03
1.580000000000000016e-01 6.086194999999999800e-01 8.484494999999999010e+00 1.171255000000000024e+02 1.525700000000000045e+03
1.590000000000000024e-01 6.086044999999999927e-01 8.374990000000000379e+00 1.170474999999999994e+02 1.525675000000000182e+03
