# t [s], A [cm^2], U [cm/s], P [cPa], c [cm/s]
1.000000000000000021e-03 1.356729999999999881e-01 3.155715000000000048e-01 8.989379999999999882e+01 1.953259999999999991e+03
2.000000000000000042e-03 1.356399999999999828e-01 1.787570500000000173e+00 8.686414999999999509e+01 1.952855000000000018e+03
3.000000000000000062e-03 1.355449999999999988e-01 3.586891000000000052e+00 8.274975000000000591e+01 1.951720000000000027e+03
4.000000000000000083e-03 1.354110000000000036e-01 5.595769999999999911e+00 7.827940000000000964e+01 1.950164999999999964e+03
5.000000000000000104e-03 1.352649999999999963e-01 7.754405000000000214e+00 7.426320000000001187e+01 1.948480000000000018e+03
6.000000000000000125e-03 1.351229999999999931e-01 9.910740000000000549e+00 7.099490000000000123e+01 1.946855000000000018e+03
7.000000000000000146e-03 1.349899999999999989e-01 1.186242500000000000e+01 6.826179999999999382e+01 1.945360000000000127e+03
8.000000000000000167e-03 1.348670000000000146e-01 1.351244499999999960e+01 6.580379999999999541e+01 1.944000000000000000e+03
9.000000000000001055e-03 1.347570000000000157e-01 1.489154999999999873e+01 6.363309999999999889e+01 1.942805000000000064e+03
1.000000000000000194e-02 1.346630000000000049e-01 1.604074999999999918e+01 6.183629999999999427e+01 1.941795000000000073e+03
1.099999999999999936e-02 1.345844999999999958e-01 1.697609999999999886e+01 6.040635000000000332e+01 1.940960000000000036e+03
1.200000000000000025e-02 1.345215000000000161e-01 1.771390000000000242e+01 5.929685000000000628e+01 1.940295000000000073e+03
1.300000000000000114e-02 1.344710000000000072e-01 1.826549999999999940e+01 5.844610000000000127e+01 1.939780000000000200e+03
1.400000000000000203e-02 1.344309999999999949e-01 1.863275000000000148e+01 5.775400000000000489e+01 1.939369999999999891e+03
1.499999999999999944e-02 1.343980000000000175e-01 1.884215000000000018e+01 5.714969999999999573e+01 1.939045000000000073e+03
1.600000000000000033e-02 1.343725000000000058e-01 1.898250000000000171e+01 5.671779999999999688e+01 1.938795000000000073e+03
1.700000000000000122e-02 1.343595000000000206e-01 1.919174999999999898e+01 5.672535000000000593e+01 1.938674999999999955e+03
1.800000000000000211e-02 1.343659999999999854e-01 1.959275000000000233e+01 5.748479999999999990e+01 1.938755000000000109e+03
1.900000000000000300e-02 1.343969999999999887e-01 2.022625000000000028e+01 5.914705000000000013e+01 1.939094999999999800e+03
2.000000000000000042e-02 1.344509999999999872e-01 2.102369999999999806e+01 6.156874999999999432e+01 1.939679999999999836e+03
2.100000000000000130e-02 1.345220000000000027e-01 2.183230000000000004e+01 6.432765000000000555e+01 1.940440000000000055e+03
2.200000000000000219e-02 1.345965000000000078e-01 2.247350000000000136e+01 6.686400000000000432e+01 1.941259999999999991e+03
2.299999999999999961e-02 1.346620000000000039e-01 2.280579999999999785e+01 6.867239999999999611e+01 1.941990000000000009e+03
2.400000000000000050e-02 1.347079999999999944e-01 2.276785000000000281e+01 6.946135000000001014e+01 1.942514999999999873e+03
2.500000000000000139e-02 1.347289999999999877e-01 2.238969999999999771e+01 6.922594999999999743e+01 1.942769999999999982e+03
2.600000000000000228e-02 1.347264999999999990e-01 2.177159999999999940e+01 6.821555000000000746e+01 1.942775000000000091e+03
2.700000000000000316e-02 1.347074999999999800e-01 2.104214999999999947e+01 6.682224999999999682e+01 1.942589999999999918e+03
2.800000000000000058e-02 1.346799999999999942e-01 2.031499999999999773e+01 6.543720000000000425e+01 1.942305000000000064e+03
2.900000000000000147e-02 1.346525000000000083e-01 1.965659999999999741e+01 6.433154999999999291e+01 1.942005000000000109e+03
3.000000000000000236e-02 1.346295000000000130e-01 1.907674999999999699e+01 6.359604999999999819e+01 1.941755000000000109e+03
3.099999999999999978e-02 1.346114999999999950e-01 1.853824999999999790e+01 6.315024999999999977e+01 1.941559999999999945e+03
3.200000000000000067e-02 1.345975000000000088e-01 1.798080000000000211e+01 6.280344999999999800e+01 1.941405000000000200e+03
3.300000000000000155e-02 1.345824999999999938e-01 1.734829999999999828e+01 6.234239999999999782e+01 1.941244999999999891e+03
3.400000000000000244e-02 1.345625000000000016e-01 1.661335000000000051e+01 6.161520000000000152e+01 1.941030000000000200e+03
3.500000000000000333e-02 1.345359999999999889e-01 1.579039999999999999e+01 6.058910000000000196e+01 1.940755000000000109e+03
3.600000000000000422e-02 1.345034999999999981e-01 1.493665000000000020e+01 5.936834999999999951e+01 1.940404999999999973e+03
3.700000000000000511e-02 1.344680000000000042e-01 1.413855000000000040e+01 5.816819999999999879e+01 1.940025000000000091e+03
3.799999999999999906e-02 1.344365000000000143e-01 1.349034999999999940e+01 5.725554999999999950e+01 1.939684999999999945e+03
3.899999999999999994e-02 1.344150000000000067e-01 1.306939999999999991e+01 5.687360000000000326e+01 1.939444999999999936e+03
4.000000000000000083e-02 1.344090000000000007e-01 1.291649999999999920e+01 5.717475000000000307e+01 1.939360000000000127e+03
4.100000000000000172e-02 1.344210000000000127e-01 1.302574999999999861e+01 5.817839999999999634e+01 1.939470000000000027e+03
4.200000000000000261e-02 1.344505000000000006e-01 1.334554999999999936e+01 5.976355000000000217e+01 1.939769999999999982e+03
4.300000000000000350e-02 1.344945000000000168e-01 1.378910000000000124e+01 6.169424999999999670e+01 1.940234999999999900e+03
4.400000000000000439e-02 1.345465000000000133e-01 1.425075000000000003e+01 6.366700000000000159e+01 1.940779999999999973e+03
4.499999999999999833e-02 1.345974999999999810e-01 1.462385000000000090e+01 6.536730000000000018e+01 1.941335000000000036e+03
4.599999999999999922e-02 1.346410000000000107e-01 1.481664999999999921e+01 6.652199999999999136e+01 1.941804999999999836e+03
4.700000000000000011e-02 1.346694999999999975e-01 1.476304999999999978e+01 6.693760000000000332e+01 1.942119999999999891e+03
4.800000000000000100e-02 1.346780000000000199e-01 1.442764999999999986e+01 6.651890000000000214e+01 1.942224999999999909e+03
4.900000000000000189e-02 1.346644999999999925e-01 1.380545000000000044e+01 6.526940000000000452e+01 1.942095000000000027e+03
5.000000000000000278e-02 1.346279999999999977e-01 1.291679999999999851e+01 6.327425000000000210e+01 1.941715000000000146e+03
5.100000000000000366e-02 1.345709999999999962e-01 1.180044000000000004e+01 6.067539999999999623e+01 1.941110000000000127e+03
5.200000000000000455e-02 1.344960000000000044e-01 1.050555999999999912e+01 5.764300000000000068e+01 1.940309999999999945e+03
5.300000000000000544e-02 1.344079999999999997e-01 9.085760000000000502e+00 5.435089999999999577e+01 1.939369999999999891e+03
5.399999999999999939e-02 1.343115000000000003e-01 7.594184999999999519e+00 5.095929999999999893e+01 1.938329999999999927e+03
5.500000000000000028e-02 1.342105000000000103e-01 6.081590000000000273e+00 4.760679999999999978e+01 1.937240000000000009e+03
5.600000000000000117e-02 1.341090000000000060e-01 4.595697499999999991e+00 4.440890000000000271e+01 1.936139999999999873e+03
5.700000000000000205e-02 1.340105000000000046e-01 3.181945999999999941e+00 4.146255000000000024e+01 1.935070000000000164e+03
5.800000000000000294e-02 1.339179999999999815e-01 1.884349999999999969e+00 3.885280000000000200e+01 1.934069999999999936e+03
5.900000000000000383e-02 1.338349999999999818e-01 7.459949999999999637e-01 3.665810000000000457e+01 1.933164999999999964e+03
6.000000000000000472e-02 1.337635000000000074e-01 -1.912199999999999456e-01 3.495369999999999777e+01 1.932384999999999991e+03
6.099999999999999867e-02 1.337070000000000203e-01 -8.877754999999999397e-01 3.381174999999999642e+01 1.931759999999999991e+03
6.199999999999999956e-02 1.336674999999999947e-01 -1.308451999999999948e+00 3.329809999999999803e+01 1.931309999999999945e+03
6.300000000000000044e-02 1.336465000000000014e-01 -1.424665000000000070e+00 3.346699999999999875e+01 1.931074999999999818e+03
6.400000000000000133e-02 1.336474999999999747e-01 -1.216771000000000047e+00 3.435524999999999807e+01 1.931054999999999836e+03
6.500000000000000222e-02 1.336694999999999967e-01 -6.758699999999999708e-01 3.597655000000000314e+01 1.931269999999999982e+03
6.600000000000000311e-02 1.337149999999999728e-01 1.951650000000000329e-01 3.831844999999999857e+01 1.931730000000000018e+03
6.700000000000000400e-02 1.337820000000000120e-01 1.381619999999999848e+00 4.134074999999999989e+01 1.932434999999999945e+03
6.800000000000000488e-02 1.338705000000000034e-01 2.857819000000000109e+00 4.497840000000000060e+01 1.933365000000000009e+03
6.900000000000000577e-02 1.339779999999999860e-01 4.588769000000000098e+00 4.914470000000000027e+01 1.934509999999999991e+03
7.000000000000000666e-02 1.341025000000000134e-01 6.532340000000000479e+00 5.373784999999999457e+01 1.935835000000000036e+03
7.100000000000000755e-02 1.342415000000000136e-01 8.641600000000000392e+00 5.864719999999999800e+01 1.937324999999999818e+03
7.200000000000000844e-02 1.343909999999999827e-01 1.086740499999999976e+01 6.375974999999999682e+01 1.938940000000000055e+03
7.300000000000000933e-02 1.345485000000000153e-01 1.316043499999999966e+01 6.896639999999999304e+01 1.940635000000000218e+03
7.399999999999999634e-02 1.347099999999999964e-01 1.547359999999999935e+01 7.416669999999999163e+01 1.942389999999999873e+03
7.499999999999999722e-02 1.348729999999999929e-01 1.776355000000000217e+01 7.927320000000000277e+01 1.944164999999999964e+03
7.599999999999999811e-02 1.350350000000000161e-01 1.999244999999999806e+01 8.421455000000000268e+01 1.945940000000000055e+03
7.699999999999999900e-02 1.351924999999999932e-01 2.212935000000000230e+01 8.893744999999999834e+01 1.947674999999999955e+03
7.799999999999999989e-02 1.353455000000000075e-01 2.415080000000000027e+01 9.340870000000001028e+01 1.949365000000000009e+03
7.900000000000000078e-02 1.354920000000000013e-01 2.604159999999999897e+01 9.761409999999999343e+01 1.950985000000000127e+03
8.000000000000000167e-02 1.356315000000000159e-01 2.779479999999999862e+01 1.015587999999999909e+02 1.952534999999999854e+03
8.100000000000000255e-02 1.357635000000000092e-01 2.941104999999999947e+01 1.052652500000000089e+02 1.954009999999999991e+03
8.200000000000000344e-02 1.358894999999999964e-01 3.089784999999999826e+01 1.087690000000000055e+02 1.955414999999999964e+03
8.300000000000000433e-02 1.360099999999999920e-01 3.226779999999999404e+01 1.121154999999999973e+02 1.956759999999999991e+03
8.400000000000000522e-02 1.361255000000000104e-01 3.353740000000000521e+01 1.153545000000000016e+02 1.958055000000000064e+03
8.500000000000000611e-02 1.362375000000000114e-01 3.472475000000000023e+01 1.185360000000000014e+02 1.959315000000000055e+03
8.600000000000000699e-02 1.363480000000000247e-01 3.584810000000000230e+01 1.217065000000000055e+02 1.960559999999999945e+03
8.700000000000000788e-02 1.364579999999999960e-01 3.692395000000000493e+01 1.249030000000000058e+02 1.961789999999999964e+03
8.800000000000000877e-02 1.365679999999999950e-01 3.796594999999999942e+01 1.281525000000000034e+02 1.963029999999999973e+03
8.899999999999999578e-02 1.366795000000000093e-01 3.898359999999999559e+01 1.314685000000000059e+02 1.964275000000000091e+03
8.999999999999999667e-02 1.367919999999999969e-01 3.998199999999999932e+01 1.348509999999999991e+02 1.965539999999999964e+03
9.099999999999999756e-02 1.369064999999999865e-01 4.096120000000000516e+01 1.382855000000000132e+02 1.966824999999999818e+03
9.199999999999999845e-02 1.370210000000000039e-01 4.191700000000000159e+01 1.417479999999999905e+02 1.968119999999999891e+03
9.299999999999999933e-02 1.371370000000000089e-01 4.284069999999999823e+01 1.452030000000000030e+02 1.969424999999999955e+03
9.400000000000000022e-02 1.372519999999999851e-01 4.372055000000000291e+01 1.486074999999999875e+02 1.970720000000000027e+03
9.500000000000000111e-02 1.373650000000000149e-01 4.454210000000000491e+01 1.519149999999999920e+02 1.971994999999999891e+03
9.600000000000000200e-02 1.374755000000000005e-01 4.528969999999999629e+01 1.550780000000000030e+02 1.973235000000000127e+03
9.700000000000000289e-02 1.375804999999999945e-01 4.594700000000000273e+01 1.580494999999999948e+02 1.974434999999999945e+03
9.800000000000000377e-02 1.376800000000000246e-01 4.649845000000000539e+01 1.607855000000000132e+02 1.975565000000000055e+03
9.900000000000000466e-02 1.377724999999999922e-01 4.692969999999999686e+01 1.632484999999999786e+02 1.976615000000000009e+03
1.000000000000000056e-01 1.378560000000000063e-01 4.722870000000000346e+01 1.654089999999999918e+02 1.977569999999999936e+03
1.010000000000000064e-01 1.379309999999999981e-01 4.738615000000000066e+01 1.672429999999999950e+02 1.978424999999999955e+03
1.020000000000000073e-01 1.379954999999999932e-01 4.739614999999999867e+01 1.687379999999999995e+02 1.979170000000000073e+03
1.030000000000000082e-01 1.380500000000000060e-01 4.725634999999999764e+01 1.698894999999999982e+02 1.979795000000000073e+03
1.040000000000000091e-01 1.380929999999999935e-01 4.696815000000000140e+01 1.707030000000000030e+02 1.980299999999999955e+03
1.050000000000000100e-01 1.381259999999999988e-01 4.653669999999999618e+01 1.711910000000000025e+02 1.980690000000000055e+03
1.059999999999999970e-01 1.381485000000000074e-01 4.597064999999999912e+01 1.713759999999999764e+02 1.980960000000000036e+03
1.069999999999999979e-01 1.381620000000000070e-01 4.528190000000000026e+01 1.712849999999999966e+02 1.981119999999999891e+03
1.079999999999999988e-01 1.381660000000000110e-01 4.448505000000000109e+01 1.709530000000000030e+02 1.981184999999999945e+03
1.089999999999999997e-01 1.381624999999999936e-01 4.359680000000000177e+01 1.704170000000000016e+02 1.981154999999999973e+03
1.100000000000000006e-01 1.381519999999999970e-01 4.263514999999999588e+01 1.697164999999999964e+02 1.981049999999999955e+03
1.110000000000000014e-01 1.381359999999999810e-01 4.161915000000000475e+01 1.688930000000000007e+02 1.980875000000000000e+03
1.120000000000000023e-01 1.381155000000000022e-01 4.056765000000000043e+01 1.679859999999999900e+02 1.980650000000000091e+03
1.130000000000000032e-01 1.380915000000000059e-01 3.949884999999999735e+01 1.670314999999999941e+02 1.980385000000000218e+03
1.140000000000000041e-01 1.380655000000000077e-01 3.842985000000000184e+01 1.660654999999999859e+02 1.980095000000000027e+03
1.150000000000000050e-01 1.380385000000000084e-01 3.737584999999999980e+01 1.651154999999999973e+02 1.979789999999999964e+03
1.160000000000000059e-01 1.380104999999999804e-01 3.634975000000000023e+01 1.642060000000000173e+02 1.979485000000000127e+03
1.170000000000000068e-01 1.379839999999999955e-01 3.536220000000000141e+01 1.633545000000000016e+02 1.979174999999999955e+03
1.180000000000000077e-01 1.379579999999999973e-01 3.442074999999999818e+01 1.625729999999999791e+02 1.978889999999999873e+03
1.190000000000000085e-01 1.379345000000000154e-01 3.353024999999999523e+01 1.618665000000000020e+02 1.978610000000000127e+03
1.200000000000000094e-01 1.379114999999999924e-01 3.269250000000000256e+01 1.612345000000000255e+02 1.978355000000000018e+03
1.209999999999999964e-01 1.378909999999999858e-01 3.190670000000000073e+01 1.606709999999999923e+02 1.978119999999999891e+03
1.219999999999999973e-01 1.378725000000000089e-01 3.116939999999999955e+01 1.601639999999999873e+02 1.977900000000000091e+03
1.229999999999999982e-01 1.378550000000000053e-01 3.047494999999999976e+01 1.596974999999999909e+02 1.977700000000000045e+03
1.239999999999999991e-01 1.378384999999999749e-01 2.981574999999999775e+01 1.592535000000000025e+02 1.977509999999999991e+03
1.250000000000000000e-01 1.378230000000000011e-01 2.918305000000000149e+01 1.588089999999999975e+02 1.977325000000000045e+03
1.260000000000000009e-01 1.378074999999999994e-01 2.856690000000000040e+01 1.583429999999999893e+02 1.977144999999999982e+03
1.270000000000000018e-01 1.377904999999999824e-01 2.795720000000000027e+01 1.578324999999999818e+02 1.976954999999999927e+03
1.280000000000000027e-01 1.377724999999999922e-01 2.734400000000000119e+01 1.572560000000000002e+02 1.976744999999999891e+03
1.290000000000000036e-01 1.377530000000000143e-01 2.671795000000000186e+01 1.565945000000000107e+02 1.976519999999999982e+03
1.300000000000000044e-01 1.377305000000000057e-01 2.607099999999999795e+01 1.558324999999999818e+02 1.976264999999999873e+03
1.310000000000000053e-01 1.377050000000000218e-01 2.539645000000000152e+01 1.549590000000000032e+02 1.975980000000000018e+03
1.320000000000000062e-01 1.376764999999999795e-01 2.468965000000000032e+01 1.539664999999999964e+02 1.975659999999999854e+03
1.330000000000000071e-01 1.376445000000000030e-01 2.394819999999999993e+01 1.528539999999999850e+02 1.975295000000000073e+03
1.340000000000000080e-01 1.376085000000000225e-01 2.317174999999999940e+01 1.516245000000000118e+02 1.974889999999999873e+03
1.350000000000000089e-01 1.375689999999999968e-01 2.236254999999999882e+01 1.502880000000000109e+02 1.974454999999999927e+03
1.360000000000000098e-01 1.375270000000000103e-01 2.152474999999999739e+01 1.488584999999999923e+02 1.973980000000000018e+03
1.370000000000000107e-01 1.374815000000000065e-01 2.066499999999999915e+01 1.473534999999999968e+02 1.973465000000000146e+03
1.380000000000000115e-01 1.374334999999999862e-01 1.979135000000000133e+01 1.457955000000000041e+02 1.972929999999999836e+03
1.390000000000000124e-01 1.373840000000000061e-01 1.891345000000000098e+01 1.442099999999999795e+02 1.972375000000000000e+03
1.400000000000000133e-01 1.373334999999999972e-01 1.804194999999999993e+01 1.426225000000000023e+02 1.971809999999999945e+03
1.410000000000000142e-01 1.372829999999999884e-01 1.718779999999999930e+01 1.410600000000000023e+02 1.971240000000000009e+03
1.420000000000000151e-01 1.372329999999999939e-01 1.636214999999999975e+01 1.395484999999999900e+02 1.970679999999999836e+03
1.430000000000000160e-01 1.371844999999999870e-01 1.557554999999999978e+01 1.381119999999999948e+02 1.970130000000000109e+03
1.440000000000000169e-01 1.371374999999999955e-01 1.483774999999999977e+01 1.367719999999999914e+02 1.969599999999999909e+03
1.450000000000000178e-01 1.370935000000000070e-01 1.415695000000000014e+01 1.355459999999999923e+02 1.969105000000000018e+03
1.459999999999999909e-01 1.370529999999999804e-01 1.354005000000000081e+01 1.344484999999999957e+02 1.968644999999999982e+03
1.469999999999999918e-01 1.370159999999999989e-01 1.299189999999999934e+01 1.334884999999999877e+02 1.968224999999999909e+03
1.479999999999999927e-01 1.369829999999999937e-01 1.251555000000000106e+01 1.326705000000000041e+02 1.967855000000000018e+03
1.489999999999999936e-01 1.369544999999999790e-01 1.211190000000000033e+01 1.319939999999999998e+02 1.967525000000000091e+03
1.499999999999999944e-01 1.369305000000000105e-01 1.178014999999999901e+01 1.314555000000000007e+02 1.967244999999999891e+03
1.509999999999999953e-01 1.369099999999999762e-01 1.151750000000000007e+01 1.310475000000000136e+02 1.967014999999999873e+03
1.519999999999999962e-01 1.368940000000000157e-01 1.131974999999999909e+01 1.307574999999999932e+02 1.966829999999999927e+03
1.529999999999999971e-01 1.368820000000000037e-01 1.118120000000000047e+01 1.305730000000000075e+02 1.966679999999999836e+03
1.539999999999999980e-01 1.368729999999999947e-01 1.109515000000000029e+01 1.304784999999999968e+02 1.966574999999999818e+03
1.549999999999999989e-01 1.368665000000000020e-01 1.105429999999999957e+01 1.304569999999999936e+02 1.966500000000000000e+03
1.559999999999999998e-01 1.368630000000000124e-01 1.105065000000000097e+01 1.304925000000000068e+02 1.966454999999999927e+03
1.570000000000000007e-01 1.368614999999999970e-01 1.107615000000000016e+01 1.305679999999999836e+02 1.966430000000000064e+03
1.580000000000000016e-01 1.368615000000000248e-01 1.112280000000000157e+01 1.306670000000000016e+02 1.966425000000000182e+03
1.590000000000000024e-01 1.368624999999999980e-01 1.118299999999999983e+01 1.307750000000000057e+02 1.966434999999999945e+03
