# t [s], A [cm^2], U [cm/s], P [cPa], c [cm/s]
1.000000000000000021e-03 5.107714999999999339e-01 4.303899999999999393e-03 9.430625000000000568e+01 1.551445000000000164e+03
2.000000000000000042e-03 5.107629999999999670e-01 -1.768999999999999739e-03 9.428029999999999688e+01 1.551440000000000055e+03
3.000000000000000062e-03 5.108074999999999699e-01 9.287609999999998922e-02 9.437405000000001110e+01 1.551470000000000027e+03
4.000000000000000083e-03 5.108489999999999975e-01 1.906426950000000009e-01 9.448919999999999675e+01 1.551500000000000000e+03
5.000000000000000104e-03 5.108295000000000474e-01 1.698173000000000044e-01 9.444140000000000157e+01 1.551490000000000009e+03
6.000000000000000125e-03 5.107730000000000325e-01 6.688299999999997025e-02 9.422870000000000346e+01 1.551440000000000055e+03
7.000000000000000146e-03 5.107215000000000504e-01 -3.440850000000000852e-02 9.394944999999999879e+01 1.551369999999999891e+03
8.000000000000000167e-03 5.106454999999999744e-01 -1.977149999999999741e-01 9.354744999999999777e+01 1.551265000000000100e+03
9.000000000000001055e-03 5.105189999999999451e-01 -4.833450000000000246e-01 9.293174999999999386e+01 1.551105000000000018e+03
1.000000000000000194e-02 5.103410000000000446e-01 -8.876749999999998808e-01 9.206900000000000261e+01 1.550880000000000109e+03
1.099999999999999936e-02 5.101010000000000266e-01 -1.422520000000000007e+00 9.091079999999999472e+01 1.550579999999999927e+03
1.200000000000000025e-02 5.097840000000000149e-01 -2.104190000000000005e+00 8.939834999999999354e+01 1.550174999999999955e+03
1.300000000000000114e-02 5.094024999999999803e-01 -2.882675000000000320e+00 8.755079999999999529e+01 1.549670000000000073e+03
1.400000000000000203e-02 5.090064999999999173e-01 -3.624439999999999884e+00 8.551220000000000709e+01 1.549105000000000018e+03
1.499999999999999944e-02 5.086539999999999395e-01 -4.171246999999999261e+00 8.349949999999999761e+01 1.548514999999999873e+03
1.600000000000000033e-02 5.083815000000000417e-01 -4.413901899999999934e+00 8.170490000000000919e+01 1.547960000000000036e+03
1.700000000000000122e-02 5.081904999999999895e-01 -4.328457999999999473e+00 8.022540000000000759e+01 1.547469999999999800e+03
1.800000000000000211e-02 5.080540000000000056e-01 -3.969409999999999883e+00 7.904465000000000430e+01 1.547050000000000182e+03
1.900000000000000300e-02 5.079319999999999391e-01 -3.437475000000000058e+00 7.805795000000000528e+01 1.546670000000000073e+03
2.000000000000000042e-02 5.077850000000000419e-01 -2.839806999999999970e+00 7.712090000000000600e+01 1.546309999999999945e+03
2.100000000000000130e-02 5.075884999999999980e-01 -2.255306500000000103e+00 7.610255000000000791e+01 1.545934999999999945e+03
2.200000000000000219e-02 5.073385000000000256e-01 -1.714909999999999712e+00 7.492754999999999654e+01 1.545525000000000091e+03
2.299999999999999961e-02 5.070495000000000418e-01 -1.202770000000000117e+00 7.359139999999999304e+01 1.545074999999999818e+03
2.400000000000000050e-02 5.067450000000000010e-01 -6.760300000000001308e-01 7.214679999999999893e+01 1.544595000000000027e+03
2.500000000000000139e-02 5.064459999999999518e-01 -9.265500000000015390e-02 7.066995000000000005e+01 1.544105000000000018e+03
2.600000000000000228e-02 5.061649999999999761e-01 5.648549999999996629e-01 6.922364999999999213e+01 1.543615000000000009e+03
2.700000000000000316e-02 5.058975000000000000e-01 1.277495000000000047e+00 6.783024999999999238e+01 1.543134999999999991e+03
2.800000000000000058e-02 5.056300000000000239e-01 1.990709999999999980e+00 6.646094999999999686e+01 1.542659999999999854e+03
2.900000000000000147e-02 5.053370000000000362e-01 2.625649999999999817e+00 6.504144999999999754e+01 1.542180000000000064e+03
3.000000000000000236e-02 5.049930000000000252e-01 3.096874999999999822e+00 6.347069999999999368e+01 1.541659999999999854e+03
3.099999999999999978e-02 5.045770000000000532e-01 3.331970000000000098e+00 6.164770000000000039e+01 1.541079999999999927e+03
3.200000000000000067e-02 5.040795000000000137e-01 3.289025000000000087e+00 5.950005000000000166e+01 1.540420000000000073e+03
3.300000000000000155e-02 5.035064999999999680e-01 2.966944999999999943e+00 5.700659999999999883e+01 1.539670000000000073e+03
3.400000000000000244e-02 5.028759999999999897e-01 2.406220000000000248e+00 5.420864999999999867e+01 1.538835000000000036e+03
3.500000000000000333e-02 5.022189999999999710e-01 1.680405000000000371e+00 5.120595000000000141e+01 1.537945000000000164e+03
3.600000000000000422e-02 5.015705000000000302e-01 8.807900000000001839e-01 4.814039999999999964e+01 1.537025000000000091e+03
3.700000000000000511e-02 5.009649999999999936e-01 1.007750000000005031e-01 4.517360000000000042e+01 1.536125000000000000e+03
3.799999999999999906e-02 5.004325000000000578e-01 -5.776199999999995782e-01 4.246394999999999698e+01 1.535279999999999973e+03
3.899999999999999994e-02 4.999950000000000228e-01 -1.091589999999999616e+00 4.014809999999999945e+01 1.534529999999999973e+03
4.000000000000000083e-02 4.996665000000000134e-01 -1.400475000000000136e+00 3.832914999999999850e+01 1.533904999999999973e+03
4.100000000000000172e-02 4.994520000000000071e-01 -1.484164999999999957e+00 3.707200000000000273e+01 1.533445000000000164e+03
4.200000000000000261e-02 4.993515000000000037e-01 -1.338566000000000145e+00 3.640494999999999948e+01 1.533139999999999873e+03
4.300000000000000350e-02 4.993609999999999993e-01 -9.697374999999999190e-01 3.632585000000000264e+01 1.533009999999999991e+03
4.400000000000000439e-02 4.994750000000000023e-01 -3.882550000000000168e-01 3.681145000000000067e+01 1.533055000000000064e+03
4.499999999999999833e-02 4.996850000000000458e-01 3.950149999999998940e-01 3.782600000000000051e+01 1.533259999999999991e+03
4.599999999999999922e-02 4.999850000000000128e-01 1.370960000000000178e+00 3.932885000000000275e+01 1.533625000000000000e+03
4.700000000000000011e-02 5.003684999999999938e-01 2.531954999999999956e+00 4.127870000000000061e+01 1.534130000000000109e+03
4.800000000000000100e-02 5.008295000000000385e-01 3.869909999999999961e+00 4.363464999999999350e+01 1.534769999999999982e+03
4.900000000000000189e-02 5.013604999999999867e-01 5.373645000000000671e+00 4.635500000000000398e+01 1.535529999999999973e+03
5.000000000000000278e-02 5.019529999999999825e-01 7.026510000000000034e+00 4.939525000000000432e+01 1.536394999999999982e+03
5.100000000000000366e-02 5.025965000000000016e-01 8.805307499999999621e+00 5.270544999999999902e+01 1.537349999999999909e+03
5.200000000000000455e-02 5.032799999999999496e-01 1.068025999999999875e+01 5.623004999999999853e+01 1.538389999999999873e+03
5.300000000000000544e-02 5.039894999999999792e-01 1.261658499999999883e+01 5.990820000000000078e+01 1.539485000000000127e+03
5.399999999999999939e-02 5.047125000000000083e-01 1.457701999999999920e+01 6.367644999999999555e+01 1.540619999999999891e+03
5.500000000000000028e-02 5.054359999999999964e-01 1.652433500000000066e+01 6.747149999999999181e+01 1.541785000000000082e+03
5.600000000000000117e-02 5.061495000000000299e-01 1.842427999999999955e+01 7.123475000000000534e+01 1.542950000000000045e+03
5.700000000000000205e-02 5.068430000000000435e-01 2.024774999999999991e+01 7.491544999999999277e+01 1.544099999999999909e+03
5.800000000000000294e-02 5.075115000000000043e-01 2.197224999999999895e+01 7.847350000000000136e+01 1.545235000000000127e+03
5.900000000000000383e-02 5.081499999999999906e-01 2.358225000000000193e+01 8.188124999999999432e+01 1.546335000000000036e+03
6.000000000000000472e-02 5.087574999999999736e-01 2.506960000000000122e+01 8.512389999999999191e+01 1.547394999999999982e+03
6.099999999999999867e-02 5.093360000000000110e-01 2.643209999999999837e+01 8.819884999999999309e+01 1.548405000000000200e+03
6.199999999999999956e-02 5.098869999999999791e-01 2.767304999999999993e+01 9.111404999999999177e+01 1.549380000000000109e+03
6.300000000000000044e-02 5.104150000000000631e-01 2.879970000000000141e+01 9.388585000000000491e+01 1.550309999999999945e+03
6.400000000000000133e-02 5.109240000000000448e-01 2.982220000000000226e+01 9.653719999999999857e+01 1.551200000000000045e+03
6.500000000000000222e-02 5.114199999999999857e-01 3.075254999999999939e+01 9.909405000000000996e+01 1.552070000000000164e+03
6.600000000000000311e-02 5.119080000000000297e-01 3.160385000000000133e+01 1.015850499999999954e+02 1.552909999999999854e+03
6.700000000000000400e-02 5.123925000000000285e-01 3.238909999999999911e+01 1.040362499999999955e+02 1.553734999999999900e+03
6.800000000000000488e-02 5.128774999999999862e-01 3.312084999999999724e+01 1.064735000000000014e+02 1.554554999999999836e+03
6.900000000000000577e-02 5.133674999999999766e-01 3.380989999999999895e+01 1.089180000000000064e+02 1.555375000000000000e+03
7.000000000000000666e-02 5.138639999999999874e-01 3.446515000000000128e+01 1.113840000000000003e+02 1.556200000000000045e+03
7.100000000000000755e-02 5.143674999999999775e-01 3.509244999999999948e+01 1.138799999999999955e+02 1.557025000000000091e+03
7.200000000000000844e-02 5.148779999999999468e-01 3.569424999999999670e+01 1.164070000000000107e+02 1.557860000000000127e+03
7.300000000000000933e-02 5.153929999999999900e-01 3.626975000000000193e+01 1.189574999999999960e+02 1.558704999999999927e+03
7.399999999999999634e-02 5.159084999999999921e-01 3.681459999999999866e+01 1.215160000000000053e+02 1.559549999999999955e+03
7.499999999999999722e-02 5.164199999999999902e-01 3.732155000000000200e+01 1.240625000000000000e+02 1.560389999999999873e+03
7.599999999999999811e-02 5.169224999999999515e-01 3.778090000000000259e+01 1.265685000000000002e+02 1.561220000000000027e+03
7.699999999999999900e-02 5.174079999999999790e-01 3.818155000000000143e+01 1.290040000000000191e+02 1.562034999999999854e+03
7.799999999999999989e-02 5.178715000000000401e-01 3.851184999999999548e+01 1.313365000000000009e+02 1.562815000000000055e+03
7.900000000000000078e-02 5.183070000000000732e-01 3.876030000000000086e+01 1.335344999999999800e+02 1.563559999999999945e+03
8.000000000000000167e-02 5.187085000000000168e-01 3.891684999999999661e+01 1.355679999999999836e+02 1.564259999999999991e+03
8.100000000000000255e-02 5.190715000000000190e-01 3.897294999999999732e+01 1.374119999999999777e+02 1.564904999999999973e+03
8.200000000000000344e-02 5.193924999999999237e-01 3.892249999999999943e+01 1.390450000000000159e+02 1.565480000000000018e+03
8.300000000000000433e-02 5.196695000000000064e-01 3.876214999999999833e+01 1.404530000000000030e+02 1.565990000000000009e+03
8.400000000000000522e-02 5.199015000000000164e-01 3.849124999999999375e+01 1.416285000000000025e+02 1.566434999999999945e+03
8.500000000000000611e-02 5.200884999999999536e-01 3.811220000000000141e+01 1.425699999999999932e+02 1.566800000000000182e+03
8.600000000000000699e-02 5.202320000000000277e-01 3.762995000000000090e+01 1.432819999999999823e+02 1.567095000000000027e+03
8.700000000000000788e-02 5.203339999999999632e-01 3.705219999999999914e+01 1.437764999999999986e+02 1.567319999999999936e+03
8.800000000000000877e-02 5.203990000000000560e-01 3.638875000000000171e+01 1.440699999999999932e+02 1.567474999999999909e+03
8.899999999999999578e-02 5.204300000000000592e-01 3.565129999999999910e+01 1.441834999999999809e+02 1.567569999999999936e+03
8.999999999999999667e-02 5.204324999999999646e-01 3.485305000000000319e+01 1.441399999999999864e+02 1.567610000000000127e+03
9.099999999999999756e-02 5.204109999999999570e-01 3.400800000000000267e+01 1.439664999999999964e+02 1.567610000000000127e+03
9.199999999999999845e-02 5.203709999999999170e-01 3.313069999999999737e+01 1.436910000000000025e+02 1.567565000000000055e+03
9.299999999999999933e-02 5.203179999999999472e-01 3.223570000000000135e+01 1.433404999999999916e+02 1.567490000000000009e+03
9.400000000000000022e-02 5.202565000000000106e-01 3.133680000000000021e+01 1.429424999999999955e+02 1.567390000000000100e+03
9.500000000000000111e-02 5.201910000000000700e-01 3.044684999999999775e+01 1.425205000000000268e+02 1.567279999999999973e+03
9.600000000000000200e-02 5.201255000000000184e-01 2.957710000000000150e+01 1.420980000000000132e+02 1.567164999999999964e+03
9.700000000000000289e-02 5.200635000000000119e-01 2.873689999999999856e+01 1.416924999999999955e+02 1.567045000000000073e+03
9.800000000000000377e-02 5.200074999999999559e-01 2.793350000000000222e+01 1.413190000000000168e+02 1.566930000000000064e+03
9.900000000000000466e-02 5.199584999999999901e-01 2.717154999999999987e+01 1.409870000000000232e+02 1.566825000000000045e+03
1.000000000000000056e-01 5.199179999999999913e-01 2.645340000000000202e+01 1.407030000000000030e+02 1.566730000000000018e+03
1.010000000000000064e-01 5.198849999999999305e-01 2.577899999999999991e+01 1.404675000000000011e+02 1.566644999999999982e+03
1.020000000000000073e-01 5.198595000000000299e-01 2.514605000000000246e+01 1.402780000000000200e+02 1.566575000000000045e+03
1.030000000000000082e-01 5.198389999999999400e-01 2.455030000000000001e+01 1.401270000000000095e+02 1.566514999999999873e+03
1.040000000000000091e-01 5.198230000000000350e-01 2.398584999999999923e+01 1.400049999999999955e+02 1.566460000000000036e+03
1.050000000000000100e-01 5.198070000000000190e-01 2.344554999999999723e+01 1.398994999999999891e+02 1.566420000000000073e+03
1.059999999999999970e-01 5.197905000000000442e-01 2.292139999999999844e+01 1.397975000000000136e+02 1.566375000000000000e+03
1.069999999999999979e-01 5.197689999999999255e-01 2.240505000000000280e+01 1.396835000000000093e+02 1.566335000000000036e+03
1.079999999999999988e-01 5.197404999999999387e-01 2.188814999999999955e+01 1.395439999999999827e+02 1.566280000000000200e+03
1.089999999999999997e-01 5.197034999999999849e-01 2.136265000000000214e+01 1.393650000000000091e+02 1.566219999999999800e+03
1.100000000000000006e-01 5.196540000000000603e-01 2.082155000000000200e+01 1.391340000000000146e+02 1.566144999999999982e+03
1.110000000000000014e-01 5.195914999999999839e-01 2.025880000000000081e+01 1.388410000000000082e+02 1.566054999999999836e+03
1.120000000000000023e-01 5.195155000000000189e-01 1.966980000000000217e+01 1.384789999999999850e+02 1.565950000000000045e+03
1.130000000000000032e-01 5.194239999999999968e-01 1.905170000000000030e+01 1.380430000000000064e+02 1.565815000000000055e+03
1.140000000000000041e-01 5.193185000000000162e-01 1.840330000000000155e+01 1.375325000000000273e+02 1.565660000000000082e+03
1.150000000000000050e-01 5.191985000000000072e-01 1.772544999999999860e+01 1.369499999999999886e+02 1.565485000000000127e+03
1.160000000000000059e-01 5.190664999999999862e-01 1.702049999999999841e+01 1.363004999999999995e+02 1.565289999999999964e+03
1.170000000000000068e-01 5.189240000000000519e-01 1.629295000000000115e+01 1.355930000000000177e+02 1.565074999999999818e+03
1.180000000000000077e-01 5.187734999999999985e-01 1.554860000000000042e+01 1.348389999999999986e+02 1.564849999999999909e+03
1.190000000000000085e-01 5.186174999999999535e-01 1.479465000000000074e+01 1.340525000000000091e+02 1.564605000000000018e+03
1.200000000000000094e-01 5.184599999999999209e-01 1.403927999999999976e+01 1.332485000000000070e+02 1.564355000000000018e+03
1.209999999999999964e-01 5.183039999999999869e-01 1.329142000000000046e+01 1.324445000000000050e+02 1.564105000000000018e+03
1.219999999999999973e-01 5.181525000000000158e-01 1.256023000000000067e+01 1.316574999999999989e+02 1.563855000000000018e+03
1.229999999999999982e-01 5.180084999999999829e-01 1.185477500000000006e+01 1.309029999999999916e+02 1.563610000000000127e+03
1.239999999999999991e-01 5.178760000000000030e-01 1.118373499999999865e+01 1.301984999999999957e+02 1.563380000000000109e+03
1.250000000000000000e-01 5.177564999999999529e-01 1.055479500000000037e+01 1.295570000000000164e+02 1.563164999999999964e+03
1.260000000000000009e-01 5.176529999999999188e-01 9.974769999999999470e+00 1.289904999999999973e+02 1.562970000000000027e+03
1.270000000000000018e-01 5.175659999999999705e-01 9.448769999999999669e+00 1.285084999999999980e+02 1.562805000000000064e+03
1.280000000000000027e-01 5.174965000000000259e-01 8.980634999999999479e+00 1.281170000000000186e+02 1.562655000000000200e+03
1.290000000000000036e-01 5.174459999999999615e-01 8.572345000000000326e+00 1.278189999999999884e+02 1.562539999999999964e+03
1.300000000000000044e-01 5.174130000000000118e-01 8.224254999999999427e+00 1.276135000000000019e+02 1.562454999999999927e+03
1.310000000000000053e-01 5.173969999999999958e-01 7.935100000000000264e+00 1.274985000000000070e+02 1.562394999999999982e+03
1.320000000000000062e-01 5.173965000000000369e-01 7.702065000000000161e+00 1.274675000000000011e+02 1.562365000000000009e+03
1.330000000000000071e-01 5.174100000000000366e-01 7.521060000000000301e+00 1.275115000000000123e+02 1.562349999999999909e+03
1.340000000000000080e-01 5.174354999999999372e-01 7.386900000000000688e+00 1.276210000000000093e+02 1.562365000000000009e+03
1.350000000000000089e-01 5.174695000000000267e-01 7.293580000000000396e+00 1.277835000000000036e+02 1.562394999999999982e+03
1.360000000000000098e-01 5.175110000000000543e-01 7.234574999999999534e+00 1.279875000000000114e+02 1.562440000000000055e+03
1.370000000000000107e-01 5.175560000000000160e-01 7.203060000000000684e+00 1.282189999999999941e+02 1.562500000000000000e+03
1.380000000000000115e-01 5.176039999999999530e-01 7.192225000000000534e+00 1.284664999999999964e+02 1.562565000000000055e+03
1.390000000000000124e-01 5.176510000000000833e-01 7.195465000000000444e+00 1.287185000000000059e+02 1.562634999999999991e+03
1.400000000000000133e-01 5.176970000000000738e-01 7.206599999999999895e+00 1.289639999999999986e+02 1.562700000000000045e+03
1.410000000000000142e-01 5.177384999999999904e-01 7.220029999999999504e+00 1.291929999999999836e+02 1.562764999999999873e+03
1.420000000000000151e-01 5.177760000000000140e-01 7.230845000000000411e+00 1.293994999999999891e+02 1.562829999999999927e+03
1.430000000000000160e-01 5.178070000000000173e-01 7.234930000000000305e+00 1.295765000000000100e+02 1.562884999999999991e+03
1.440000000000000169e-01 5.178315000000000001e-01 7.228989999999999583e+00 1.297199999999999989e+02 1.562934999999999945e+03
1.450000000000000178e-01 5.178490000000000038e-01 7.210575000000000401e+00 1.298280000000000030e+02 1.562970000000000027e+03
1.459999999999999909e-01 5.178595000000000281e-01 7.178090000000000082e+00 1.298990000000000009e+02 1.563000000000000000e+03
1.469999999999999918e-01 5.178635000000000321e-01 7.130710000000000548e+00 1.299334999999999809e+02 1.563009999999999991e+03
1.479999999999999927e-01 5.178610000000000158e-01 7.068369999999999820e+00 1.299334999999999809e+02 1.563019999999999982e+03
1.489999999999999936e-01 5.178530000000000078e-01 6.991640000000000299e+00 1.299014999999999986e+02 1.563015000000000100e+03
1.499999999999999944e-01 5.178395000000000081e-01 6.901704999999999757e+00 1.298414999999999964e+02 1.563005000000000109e+03
1.509999999999999953e-01 5.178224999999999634e-01 6.800190000000000623e+00 1.297574999999999932e+02 1.562980000000000018e+03
1.519999999999999962e-01 5.178015000000000256e-01 6.689090000000000202e+00 1.296539999999999964e+02 1.562954999999999927e+03
1.529999999999999971e-01 5.177785000000000304e-01 6.570660000000000167e+00 1.295360000000000014e+02 1.562925000000000182e+03
1.539999999999999980e-01 5.177545000000000064e-01 6.447269999999999612e+00 1.294074999999999989e+02 1.562889999999999873e+03
1.549999999999999989e-01 5.177294999999999536e-01 6.321290000000000298e+00 1.292729999999999961e+02 1.562855000000000018e+03
1.559999999999999998e-01 5.177045000000000119e-01 6.194990000000000663e+00 1.291370000000000005e+02 1.562809999999999945e+03
1.570000000000000007e-01 5.176799999999999180e-01 6.070445000000000313e+00 1.290024999999999977e+02 1.562775000000000091e+03
1.580000000000000016e-01 5.176564999999999639e-01 5.949440000000000062e+00 1.288714999999999975e+02 1.562735000000000127e+03
1.590000000000000024e-01 5.176344999999999974e-01 5.833389999999999631e+00 1.287464999999999975e+02 1.562695000000000164e+03
