# t [s], A [cm^2], U [cm/s], P [cPa], c [cm/s]
1.000000000000000021e-03 4.843034999999999979e-01 3.814249999999998197e-03 9.387794999999999845e+01 1.640764999999999873e+03
2.000000000000000042e-03 4.842980000000000063e-01 4.354310000000000992e-03 9.385444999999999993e+01 1.640755000000000109e+03
3.000000000000000062e-03 4.843474999999999864e-01 1.236688999999999983e-01 9.398335000000000150e+01 1.640789999999999964e+03
4.000000000000000083e-03 4.843770000000000020e-01 2.072510000000000185e-01 9.408774999999999977e+01 1.640809999999999945e+03
5.000000000000000104e-03 4.843450000000000255e-01 1.507024999999999892e-01 9.397775000000000034e+01 1.640795000000000073e+03
6.000000000000000125e-03 4.842925000000000146e-01 3.921999999999997710e-02 9.371260000000000900e+01 1.640739999999999782e+03
7.000000000000000146e-03 4.842394999999999894e-01 -8.543950000000000156e-02 9.335794999999998822e+01 1.640659999999999854e+03
8.000000000000000167e-03 4.841469999999999940e-01 -3.180800000000000294e-01 9.280205000000000837e+01 1.640539999999999964e+03
9.000000000000001055e-03 4.839999999999999858e-01 -6.937800000000000633e-01 9.196160000000000423e+01 1.640355000000000018e+03
1.000000000000000194e-02 4.837945000000000162e-01 -1.215805000000000025e+00 9.078730000000000189e+01 1.640099999999999909e+03
1.099999999999999936e-02 4.835135000000000405e-01 -1.905975000000000197e+00 8.920714999999999861e+01 1.639744999999999891e+03
1.200000000000000025e-02 4.831615000000000215e-01 -2.737004999999999910e+00 8.720674999999999955e+01 1.639289999999999964e+03
1.300000000000000114e-02 4.827774999999999705e-01 -3.582545000000000535e+00 8.491804999999999382e+01 1.638755000000000109e+03
1.400000000000000203e-02 4.824215000000000586e-01 -4.264740999999999893e+00 8.258955000000000268e+01 1.638180000000000064e+03
1.499999999999999944e-02 4.821360000000000090e-01 -4.644235000000000113e+00 8.046899999999999409e+01 1.637634999999999991e+03
1.600000000000000033e-02 4.819305000000000394e-01 -4.674947500000000034e+00 7.870150000000001000e+01 1.637144999999999982e+03
1.700000000000000122e-02 4.817839999999999900e-01 -4.403800000000000381e+00 7.729390000000000782e+01 1.636720000000000027e+03
1.800000000000000211e-02 4.816584999999999894e-01 -3.934874999999999901e+00 7.613980000000000814e+01 1.636355000000000018e+03
1.900000000000000300e-02 4.815160000000000551e-01 -3.382350000000000190e+00 7.507814999999999372e+01 1.636005000000000109e+03
2.000000000000000042e-02 4.813349999999999573e-01 -2.829716000000000342e+00 7.396030000000000371e+01 1.635650000000000091e+03
2.100000000000000130e-02 4.811110000000000109e-01 -2.307837000000000138e+00 7.270064999999999600e+01 1.635275000000000091e+03
2.200000000000000219e-02 4.808569999999999789e-01 -1.798719999999999875e+00 7.129330000000000211e+01 1.634869999999999891e+03
2.299999999999999961e-02 4.805930000000000479e-01 -1.260505000000000209e+00 6.979155000000000086e+01 1.634445000000000164e+03
2.400000000000000050e-02 4.803350000000000120e-01 -6.596500000000000696e-01 6.826545000000000130e+01 1.634005000000000109e+03
2.500000000000000139e-02 4.800875000000000004e-01 4.680000000000017479e-03 6.675894999999999868e+01 1.633570000000000164e+03
2.600000000000000228e-02 4.798415000000000319e-01 6.917749999999998067e-01 6.526279999999999859e+01 1.633130000000000109e+03
2.700000000000000316e-02 4.795749999999999735e-01 1.326214999999999922e+00 6.370994999999999209e+01 1.632684999999999945e+03
2.800000000000000058e-02 4.792640000000000233e-01 1.815809999999999924e+00 6.199150000000000205e+01 1.632194999999999936e+03
2.900000000000000147e-02 4.788850000000000051e-01 2.074770000000000447e+00 5.998704999999999643e+01 1.631650000000000091e+03
3.000000000000000236e-02 4.784260000000000179e-01 2.045885000000000176e+00 5.760034999999999883e+01 1.631025000000000091e+03
3.099999999999999978e-02 4.778864999999999919e-01 1.715870000000000228e+00 5.479129999999999967e+01 1.630304999999999836e+03
3.200000000000000067e-02 4.772839999999999860e-01 1.119435000000000180e+00 5.159364999999999668e+01 1.629494999999999891e+03
3.300000000000000155e-02 4.766454999999999997e-01 3.311700000000001864e-01 4.811460000000000292e+01 1.628619999999999891e+03
3.400000000000000244e-02 4.760060000000000402e-01 -5.509149999999998215e-01 4.451699999999999591e+01 1.627704999999999927e+03
3.500000000000000333e-02 4.753994999999999749e-01 -1.424394999999999634e+00 4.099145000000000039e+01 1.626789999999999964e+03
3.600000000000000422e-02 4.748569999999999736e-01 -2.198519999999999808e+00 3.772695000000000221e+01 1.625930000000000064e+03
3.700000000000000511e-02 4.743999999999999884e-01 -2.804044999999999899e+00 3.488685000000000258e+01 1.625150000000000091e+03
3.799999999999999906e-02 4.740435000000000620e-01 -3.196590000000000487e+00 3.259380000000000166e+01 1.624490000000000009e+03
3.899999999999999994e-02 4.737925000000000053e-01 -3.354420999999999875e+00 3.092390000000000327e+01 1.623974999999999909e+03
4.000000000000000083e-02 4.736474999999999991e-01 -3.272688500000000111e+00 2.990995000000000203e+01 1.623619999999999891e+03
4.100000000000000172e-02 4.736060000000000270e-01 -2.956634999999999902e+00 2.954964999999999975e+01 1.623420000000000073e+03
4.200000000000000261e-02 4.736614999999999576e-01 -2.415379999999999860e+00 2.981705000000000183e+01 1.623384999999999991e+03
4.300000000000000350e-02 4.738090000000000357e-01 -1.657939999999999969e+00 3.067319999999999780e+01 1.623509999999999991e+03
4.400000000000000439e-02 4.740420000000000189e-01 -6.920050000000002033e-01 3.207354999999999734e+01 1.623775000000000091e+03
4.499999999999999833e-02 4.743545000000000122e-01 4.748149999999999871e-01 3.397214999999999918e+01 1.624179999999999836e+03
4.599999999999999922e-02 4.747400000000000508e-01 1.832254999999999523e+00 3.632120000000000459e+01 1.624710000000000036e+03
4.700000000000000011e-02 4.751900000000000013e-01 3.364555000000000184e+00 3.906949999999999790e+01 1.625349999999999909e+03
4.800000000000000100e-02 4.756960000000000077e-01 5.048460000000000392e+00 4.215984999999999872e+01 1.626090000000000146e+03
4.900000000000000189e-02 4.762460000000000027e-01 6.852970000000000006e+00 4.552734999999999843e+01 1.626909999999999854e+03
5.000000000000000278e-02 4.768270000000000008e-01 8.740497600000001199e+00 4.910040000000000759e+01 1.627795000000000073e+03
5.100000000000000366e-02 4.774245000000000294e-01 1.066943999999999981e+01 5.280255000000000365e+01 1.628730000000000018e+03
5.200000000000000455e-02 4.780274999999999386e-01 1.259769000000000005e+01 5.655695000000000050e+01 1.629690000000000055e+03
5.300000000000000544e-02 4.786234999999999795e-01 1.448547500000000099e+01 6.029100000000000392e+01 1.630664999999999964e+03
5.399999999999999939e-02 4.792020000000000168e-01 1.629858000000000118e+01 6.394084999999999752e+01 1.631630000000000109e+03
5.500000000000000028e-02 4.797569999999999890e-01 1.800990000000000180e+01 6.745564999999999145e+01 1.632574999999999818e+03
5.600000000000000117e-02 4.802840000000000442e-01 1.960079999999999956e+01 7.079955000000001064e+01 1.633485000000000127e+03
5.700000000000000205e-02 4.807805000000000550e-01 2.106074999999999875e+01 7.395275000000000887e+01 1.634360000000000127e+03
5.800000000000000294e-02 4.812480000000000091e-01 2.238664999999999949e+01 7.691105000000000302e+01 1.635190000000000055e+03
5.900000000000000383e-02 4.816885000000000194e-01 2.358210000000000051e+01 7.968394999999999584e+01 1.635980000000000018e+03
6.000000000000000472e-02 4.821069999999999522e-01 2.465555000000000163e+01 8.229189999999999827e+01 1.636730000000000018e+03
6.099999999999999867e-02 4.825075000000000336e-01 2.561915000000000120e+01 8.476349999999999341e+01 1.637445000000000164e+03
6.199999999999999956e-02 4.828959999999999919e-01 2.648734999999999928e+01 8.713235000000000241e+01 1.638125000000000000e+03
6.300000000000000044e-02 4.832779999999999854e-01 2.727575000000000216e+01 8.943375000000000341e+01 1.638789999999999964e+03
6.400000000000000133e-02 4.836590000000000056e-01 2.799980000000000047e+01 9.170204999999999984e+01 1.639450000000000045e+03
6.500000000000000222e-02 4.840434999999999599e-01 2.867379999999999995e+01 9.396764999999999191e+01 1.640095000000000027e+03
6.600000000000000311e-02 4.844334999999999614e-01 2.930964999999999776e+01 9.625489999999999213e+01 1.640750000000000000e+03
6.700000000000000400e-02 4.848314999999999708e-01 2.991635000000000133e+01 9.858025000000000659e+01 1.641404999999999973e+03
6.800000000000000488e-02 4.852385000000000170e-01 3.049905000000000044e+01 1.009502499999999969e+02 1.642075000000000045e+03
6.900000000000000577e-02 4.856530000000000014e-01 3.105894999999999939e+01 1.033618500000000040e+02 1.642744999999999891e+03
7.000000000000000666e-02 4.860710000000000308e-01 3.159315000000000140e+01 1.058029999999999973e+02 1.643430000000000064e+03
7.100000000000000755e-02 4.864895000000000191e-01 3.209535000000000338e+01 1.082520000000000095e+02 1.644115000000000009e+03
7.200000000000000844e-02 4.869029999999999747e-01 3.255620000000000402e+01 1.106794999999999902e+02 1.644795000000000073e+03
7.300000000000000933e-02 4.873055000000000581e-01 3.296459999999999724e+01 1.130529999999999973e+02 1.645464999999999918e+03
7.399999999999999634e-02 4.876914999999999445e-01 3.330840000000000600e+01 1.153350000000000080e+02 1.646109999999999900e+03
7.499999999999999722e-02 4.880539999999999878e-01 3.357545000000000357e+01 1.174904999999999973e+02 1.646730000000000018e+03
7.599999999999999811e-02 4.883890000000000176e-01 3.375459999999999638e+01 1.194834999999999923e+02 1.647305000000000064e+03
7.699999999999999900e-02 4.886905000000000276e-01 3.383639999999999759e+01 1.212849999999999966e+02 1.647840000000000146e+03
7.799999999999999989e-02 4.889560000000000017e-01 3.381360000000000099e+01 1.228710000000000093e+02 1.648315000000000055e+03
7.900000000000000078e-02 4.891824999999999646e-01 3.368169999999999931e+01 1.242220000000000084e+02 1.648735000000000127e+03
8.000000000000000167e-02 4.893684999999999841e-01 3.343909999999999627e+01 1.253280000000000030e+02 1.649085000000000036e+03
8.100000000000000255e-02 4.895144999999999635e-01 3.308724999999999739e+01 1.261864999999999952e+02 1.649375000000000000e+03
8.200000000000000344e-02 4.896205000000000140e-01 3.263065000000000282e+01 1.268014999999999901e+02 1.649605000000000018e+03
8.300000000000000433e-02 4.896894999999999998e-01 3.207654999999999745e+01 1.271844999999999857e+02 1.649764999999999873e+03
8.400000000000000522e-02 4.897245000000000070e-01 3.143489999999999895e+01 1.273520000000000039e+02 1.649865000000000009e+03
8.500000000000000611e-02 4.897289999999999699e-01 3.071764999999999901e+01 1.273280000000000030e+02 1.649914999999999964e+03
8.600000000000000699e-02 4.897074999999999623e-01 2.993869999999999720e+01 1.271380000000000052e+02 1.649909999999999854e+03
8.700000000000000788e-02 4.896650000000000169e-01 2.911305000000000121e+01 1.268125000000000000e+02 1.649869999999999891e+03
8.800000000000000877e-02 4.896059999999999857e-01 2.825634999999999764e+01 1.263820000000000050e+02 1.649789999999999964e+03
8.899999999999999578e-02 4.895365000000000411e-01 2.738414999999999822e+01 1.258765000000000072e+02 1.649690000000000055e+03
8.999999999999999667e-02 4.894605000000000206e-01 2.651140000000000185e+01 1.253280000000000030e+02 1.649569999999999936e+03
9.099999999999999756e-02 4.893819999999999837e-01 2.565169999999999817e+01 1.247635000000000076e+02 1.649434999999999945e+03
9.199999999999999845e-02 4.893044999999999756e-01 2.481690000000000040e+01 1.242059999999999889e+02 1.649295000000000073e+03
9.299999999999999933e-02 4.892320000000000002e-01 2.401640000000000086e+01 1.236760000000000019e+02 1.649164999999999964e+03
9.400000000000000022e-02 4.891655000000000308e-01 2.325715000000000288e+01 1.231875000000000000e+02 1.649034999999999854e+03
9.500000000000000111e-02 4.891064999999999996e-01 2.254315000000000069e+01 1.227494999999999976e+02 1.648909999999999854e+03
9.600000000000000200e-02 4.890554999999999763e-01 2.187579999999999814e+01 1.223659999999999997e+02 1.648800000000000182e+03
9.700000000000000289e-02 4.890115000000000434e-01 2.125339999999999918e+01 1.220339999999999918e+02 1.648700000000000045e+03
9.800000000000000377e-02 4.889729999999999910e-01 2.067224999999999824e+01 1.217464999999999975e+02 1.648610000000000127e+03
9.900000000000000466e-02 4.889379999999999837e-01 2.012630000000000052e+01 1.214925000000000068e+02 1.648534999999999854e+03
1.000000000000000056e-01 4.889040000000000052e-01 1.960810000000000031e+01 1.212584999999999980e+02 1.648460000000000036e+03
1.010000000000000064e-01 4.888695000000000679e-01 1.910880000000000223e+01 1.210270000000000010e+02 1.648389999999999873e+03
1.020000000000000073e-01 4.888299999999999867e-01 1.861925000000000097e+01 1.207810000000000059e+02 1.648315000000000055e+03
1.030000000000000082e-01 4.887829999999999675e-01 1.813015000000000043e+01 1.205014999999999930e+02 1.648230000000000018e+03
1.040000000000000091e-01 4.887265000000000081e-01 1.763260000000000005e+01 1.201734999999999900e+02 1.648139999999999873e+03
1.050000000000000100e-01 4.886579999999999813e-01 1.711874999999999858e+01 1.197810000000000059e+02 1.648034999999999854e+03
1.059999999999999970e-01 4.885760000000000103e-01 1.658220000000000027e+01 1.193129999999999882e+02 1.647909999999999854e+03
1.069999999999999979e-01 4.884794999999999554e-01 1.601805000000000234e+01 1.187605000000000075e+02 1.647769999999999982e+03
1.079999999999999988e-01 4.883684999999999832e-01 1.542370000000000019e+01 1.181200000000000045e+02 1.647605000000000018e+03
1.089999999999999997e-01 4.882420000000000093e-01 1.479850000000000065e+01 1.173910000000000053e+02 1.647414999999999964e+03
1.100000000000000006e-01 4.881024999999999947e-01 1.414411000000000129e+01 1.165775000000000006e+02 1.647199999999999818e+03
1.110000000000000014e-01 4.879514999999999825e-01 1.346429499999999990e+01 1.156889999999999930e+02 1.646974999999999909e+03
1.120000000000000023e-01 4.877905000000000157e-01 1.276482500000000186e+01 1.147379999999999995e+02 1.646724999999999909e+03
1.130000000000000032e-01 4.876230000000000286e-01 1.205325000000000024e+01 1.137404999999999973e+02 1.646464999999999918e+03
1.140000000000000041e-01 4.874525000000000663e-01 1.133840000000000003e+01 1.127139999999999986e+02 1.646199999999999818e+03
1.150000000000000050e-01 4.872815000000000341e-01 1.063013499999999922e+01 1.116800000000000068e+02 1.645920000000000073e+03
1.160000000000000059e-01 4.871134999999999771e-01 9.938729999999999620e+00 1.106589999999999918e+02 1.645644999999999982e+03
1.170000000000000068e-01 4.869529999999999692e-01 9.274494999999999933e+00 1.096724999999999994e+02 1.645380000000000109e+03
1.180000000000000077e-01 4.868025000000000269e-01 8.647275000000000489e+00 1.087400000000000091e+02 1.645119999999999891e+03
1.190000000000000085e-01 4.866644999999999999e-01 8.065899999999999181e+00 1.078785000000000025e+02 1.644875000000000000e+03
1.200000000000000094e-01 4.865415000000000156e-01 7.537869999999999848e+00 1.071050000000000040e+02 1.644659999999999854e+03
1.209999999999999964e-01 4.864355000000000206e-01 7.069149999999999601e+00 1.064300000000000068e+02 1.644454999999999927e+03
1.219999999999999973e-01 4.863469999999999738e-01 6.663669999999999760e+00 1.058615000000000066e+02 1.644284999999999854e+03
1.229999999999999982e-01 4.862770000000000148e-01 6.323364999999999903e+00 1.054035000000000082e+02 1.644139999999999873e+03
1.239999999999999991e-01 4.862239999999999895e-01 6.048199999999999577e+00 1.050550000000000068e+02 1.644019999999999982e+03
1.250000000000000000e-01 4.861879999999999535e-01 5.836179999999999701e+00 1.048119999999999976e+02 1.643930000000000064e+03
1.260000000000000009e-01 4.861674999999999747e-01 5.683590000000000586e+00 1.046670000000000016e+02 1.643865000000000009e+03
1.270000000000000018e-01 4.861599999999999810e-01 5.585219999999999629e+00 1.046084999999999923e+02 1.643824999999999818e+03
1.280000000000000027e-01 4.861640000000000406e-01 5.534729999999999706e+00 1.046250000000000000e+02 1.643809999999999945e+03
1.290000000000000036e-01 4.861770000000000258e-01 5.524939999999999962e+00 1.047025000000000006e+02 1.643804999999999836e+03
1.300000000000000044e-01 4.861959999999999615e-01 5.548225000000000406e+00 1.048245000000000005e+02 1.643820000000000164e+03
1.310000000000000053e-01 4.862190000000000123e-01 5.596819999999999240e+00 1.049774999999999920e+02 1.643845000000000027e+03
1.320000000000000062e-01 4.862449999999999828e-01 5.663179999999999659e+00 1.051469999999999914e+02 1.643880000000000109e+03
1.330000000000000071e-01 4.862695000000000212e-01 5.740185000000000315e+00 1.053199999999999932e+02 1.643910000000000082e+03
1.340000000000000080e-01 4.862930000000000308e-01 5.821399999999999686e+00 1.054859999999999900e+02 1.643950000000000045e+03
1.350000000000000089e-01 4.863129999999999953e-01 5.901229999999999976e+00 1.056349999999999909e+02 1.643985000000000127e+03
1.360000000000000098e-01 4.863294999999999702e-01 5.975020000000000664e+00 1.057605000000000075e+02 1.644009999999999991e+03
1.370000000000000107e-01 4.863410000000000233e-01 6.039120000000000488e+00 1.058584999999999923e+02 1.644034999999999854e+03
1.380000000000000115e-01 4.863474999999999882e-01 6.090905000000000236e+00 1.059249999999999972e+02 1.644050000000000182e+03
1.390000000000000124e-01 4.863489999999999758e-01 6.128754999999999953e+00 1.059599999999999937e+02 1.644065000000000055e+03
1.400000000000000133e-01 4.863465000000000149e-01 6.151975000000000193e+00 1.059650000000000034e+02 1.644065000000000055e+03
1.410000000000000142e-01 4.863389999999999658e-01 6.160724999999999341e+00 1.059420000000000073e+02 1.644065000000000055e+03
1.420000000000000151e-01 4.863284999999999969e-01 6.155884999999999607e+00 1.058960000000000008e+02 1.644059999999999945e+03
1.430000000000000160e-01 4.863159999999999705e-01 6.138949999999999463e+00 1.058305000000000007e+02 1.644045000000000073e+03
1.440000000000000169e-01 4.863009999999999833e-01 6.111860000000000070e+00 1.057514999999999930e+02 1.644029999999999973e+03
1.450000000000000178e-01 4.862854999999999817e-01 6.076864999999999739e+00 1.056645000000000039e+02 1.644005000000000109e+03
1.459999999999999909e-01 4.862705000000000499e-01 6.036364999999999981e+00 1.055740000000000123e+02 1.643984999999999900e+03
1.469999999999999918e-01 4.862554999999999517e-01 5.992725000000000080e+00 1.054859999999999900e+02 1.643960000000000036e+03
1.479999999999999927e-01 4.862425000000000219e-01 5.948199999999999932e+00 1.054039999999999964e+02 1.643944999999999936e+03
1.489999999999999936e-01 4.862314999999999832e-01 5.904745000000000132e+00 1.053325000000000102e+02 1.643924999999999955e+03
1.499999999999999944e-01 4.862225000000000019e-01 5.863974999999999937e+00 1.052725000000000080e+02 1.643909999999999854e+03
1.509999999999999953e-01 4.862155000000000227e-01 5.827059999999999462e+00 1.052264999999999873e+02 1.643900000000000091e+03
1.519999999999999962e-01 4.862115000000000187e-01 5.794705000000000439e+00 1.051945000000000050e+02 1.643889999999999873e+03
1.529999999999999971e-01 4.862095000000000167e-01 5.767145000000000188e+00 1.051754999999999995e+02 1.643884999999999991e+03
1.539999999999999980e-01 4.862094999999999612e-01 5.744205000000000005e+00 1.051680000000000064e+02 1.643880000000000109e+03
1.549999999999999989e-01 4.862104999999999899e-01 5.725319999999999965e+00 1.051700000000000017e+02 1.643875000000000000e+03
1.559999999999999998e-01 4.862124999999999919e-01 5.709640000000000271e+00 1.051775000000000091e+02 1.643880000000000109e+03
1.570000000000000007e-01 4.862144999999999939e-01 5.696114999999999817e+00 1.051875000000000000e+02 1.643880000000000109e+03
1.580000000000000016e-01 4.862164999999999959e-01 5.683595000000000397e+00 1.051965000000000003e+02 1.643884999999999991e+03
1.590000000000000024e-01 4.862174999999999692e-01 5.670925000000000438e+00 1.052009999999999934e+02 1.643884999999999991e+03
