# t [s], A [cm^2], U [cm/s], P [cPa], c [cm/s]
1.000000000000000021e-03 2.101239999999999775e-01 2.923447499999999866e-01 9.380445000000000277e+01 2.146550000000000182e+03
2.000000000000000042e-03 2.100695000000000201e-01 1.740519499999999997e+00 9.055684999999999718e+01 2.146180000000000291e+03
3.000000000000000062e-03 2.099229999999999985e-01 3.537613499999999966e+00 8.601990000000000691e+01 2.145234999999999673e+03
4.000000000000000083e-03 2.097260000000000235e-01 5.568040499999999504e+00 8.111225000000000307e+01 2.143980000000000018e+03
5.000000000000000104e-03 2.095170000000000088e-01 7.755290000000000461e+00 7.677160000000000650e+01 2.142654999999999745e+03
6.000000000000000125e-03 2.093185000000000184e-01 9.902039999999999509e+00 7.325749999999999318e+01 2.141409999999999854e+03
7.000000000000000146e-03 2.091330000000000133e-01 1.178139499999999984e+01 7.025494999999999379e+01 2.140279999999999745e+03
8.000000000000000167e-03 2.089644999999999975e-01 1.333021000000000100e+01 6.755299999999999727e+01 2.139260000000000218e+03
9.000000000000001055e-03 2.088185000000000180e-01 1.459929999999999950e+01 6.525079999999999814e+01 2.138399999999999636e+03
1.000000000000000194e-02 2.086985000000000090e-01 1.562199999999999989e+01 6.342024999999999579e+01 2.137694999999999709e+03
1.099999999999999936e-02 2.086020000000000096e-01 1.641410000000000124e+01 6.202190000000000225e+01 2.137140000000000327e+03
1.200000000000000025e-02 2.085274999999999768e-01 1.698754999999999882e+01 6.097314999999999685e+01 2.136715000000000146e+03
1.300000000000000114e-02 2.084690000000000154e-01 1.734294999999999831e+01 6.014094999999999658e+01 2.136390000000000327e+03
1.400000000000000203e-02 2.084210000000000229e-01 1.750479999999999947e+01 5.941249999999999432e+01 2.136130000000000109e+03
1.499999999999999944e-02 2.083845000000000003e-01 1.757329999999999970e+01 5.887094999999999345e+01 2.135935000000000400e+03
1.600000000000000033e-02 2.083679999999999977e-01 1.771424999999999983e+01 5.885259999999999536e+01 2.135850000000000364e+03
1.700000000000000122e-02 2.083824999999999983e-01 1.807724999999999937e+01 5.976330000000000098e+01 2.135940000000000055e+03
1.800000000000000211e-02 2.084360000000000102e-01 1.870834999999999937e+01 6.178860000000000241e+01 2.136264999999999873e+03
1.900000000000000300e-02 2.085270000000000179e-01 1.951859999999999928e+01 6.471705000000000041e+01 2.136800000000000182e+03
2.000000000000000042e-02 2.086395000000000055e-01 2.032370000000000232e+01 6.798305000000000575e+01 2.137470000000000255e+03
2.100000000000000130e-02 2.087535000000000085e-01 2.092249999999999943e+01 7.088309999999999889e+01 2.138155000000000200e+03
2.200000000000000219e-02 2.088475000000000192e-01 2.117379999999999995e+01 7.283859999999999957e+01 2.138734999999999673e+03
2.299999999999999961e-02 2.089084999999999970e-01 2.103974999999999795e+01 7.358634999999999593e+01 2.139119999999999891e+03
2.400000000000000050e-02 2.089314999999999922e-01 2.058380000000000010e+01 7.322849999999999682e+01 2.139284999999999854e+03
2.500000000000000139e-02 2.089239999999999986e-01 1.993059999999999832e+01 7.213864999999999839e+01 2.139260000000000218e+03
2.600000000000000228e-02 2.088964999999999850e-01 1.920969999999999800e+01 7.078215000000000146e+01 2.139109999999999673e+03
2.700000000000000316e-02 2.088625000000000065e-01 1.850820000000000221e+01 6.953324999999999534e+01 2.138914999999999964e+03
2.800000000000000058e-02 2.088300000000000156e-01 1.784864999999999924e+01 6.856084999999998786e+01 2.138715000000000146e+03
2.900000000000000147e-02 2.087999999999999856e-01 1.719650000000000034e+01 6.781350000000000477e+01 2.138539999999999964e+03
3.000000000000000236e-02 2.087709999999999844e-01 1.648864999999999981e+01 6.709074999999999989e+01 2.138364999999999782e+03
3.099999999999999978e-02 2.087364999999999915e-01 1.566995000000000005e+01 6.616230000000000189e+01 2.138164999999999964e+03
3.200000000000000067e-02 2.086919999999999886e-01 1.472469999999999857e+01 6.488615000000000066e+01 2.137900000000000091e+03
3.300000000000000155e-02 2.086355000000000015e-01 1.369239999999999924e+01 6.328689999999999571e+01 2.137574999999999818e+03
3.400000000000000244e-02 2.085720000000000074e-01 1.266329999999999956e+01 6.156875000000000142e+01 2.137199999999999818e+03
3.500000000000000333e-02 2.085104999999999875e-01 1.175557999999999836e+01 6.006175000000000352e+01 2.136835000000000036e+03
3.600000000000000422e-02 2.084624999999999950e-01 1.108181000000000083e+01 5.912115000000000009e+01 2.136539999999999964e+03
3.700000000000000511e-02 2.084384999999999988e-01 1.071725500000000153e+01 5.901650000000000063e+01 2.136385000000000218e+03
3.799999999999999906e-02 2.084449999999999914e-01 1.067875000000000085e+01 5.984850000000000136e+01 2.136404999999999745e+03
3.899999999999999994e-02 2.084829999999999739e-01 1.092089999999999961e+01 6.151640000000000441e+01 2.136614999999999782e+03
4.000000000000000083e-02 2.085469999999999824e-01 1.134735000000000049e+01 6.374154999999999660e+01 2.136980000000000018e+03
4.100000000000000172e-02 2.086264999999999925e-01 1.183259999999999934e+01 6.613254999999999484e+01 2.137439999999999600e+03
4.200000000000000261e-02 2.087074999999999902e-01 1.224719999999999942e+01 6.827004999999999768e+01 2.137920000000000073e+03
4.300000000000000350e-02 2.087760000000000171e-01 1.247964999999999947e+01 6.978684999999998695e+01 2.138329999999999927e+03
4.400000000000000439e-02 2.088214999999999932e-01 1.245120000000000005e+01 7.042570000000000618e+01 2.138609999999999673e+03
4.499999999999999833e-02 2.088360000000000216e-01 1.212204999999999977e+01 7.006665000000000987e+01 2.138704999999999927e+03
4.599999999999999922e-02 2.088145000000000140e-01 1.148879499999999965e+01 6.872200000000000841e+01 2.138595000000000255e+03
4.700000000000000011e-02 2.087590000000000001e-01 1.057697500000000090e+01 6.650905000000000200e+01 2.138275000000000091e+03
4.800000000000000100e-02 2.086729999999999974e-01 9.430399999999998784e+00 6.360930000000000462e+01 2.137774999999999636e+03
4.900000000000000189e-02 2.085619999999999974e-01 8.101649999999999352e+00 6.022854999999999848e+01 2.137119999999999891e+03
5.000000000000000278e-02 2.084320000000000062e-01 6.644869999999999166e+00 5.656489999999999441e+01 2.136350000000000364e+03
5.100000000000000366e-02 2.082904999999999895e-01 5.112025000000000041e+00 5.279149999999999920e+01 2.135510000000000218e+03
5.200000000000000455e-02 2.081434999999999813e-01 3.552427499999999849e+00 4.905160000000000053e+01 2.134635000000000218e+03
5.300000000000000544e-02 2.079954999999999998e-01 2.013844999999999885e+00 4.546460000000000434e+01 2.133755000000000109e+03
5.399999999999999939e-02 2.078530000000000100e-01 5.444050000000000278e-01 4.213604999999999734e+01 2.132900000000000091e+03
5.500000000000000028e-02 2.077200000000000157e-01 -8.061250000000002025e-01 3.916749999999999687e+01 2.132099999999999909e+03
5.600000000000000117e-02 2.076009999999999800e-01 -1.986343999999999888e+00 3.666290000000000049e+01 2.131385000000000218e+03
5.700000000000000205e-02 2.075000000000000178e-01 -2.944774000000000225e+00 3.472879999999999967e+01 2.130769999999999982e+03
5.800000000000000294e-02 2.074219999999999953e-01 -3.632695000000000007e+00 3.346974999999999767e+01 2.130295000000000073e+03
5.900000000000000383e-02 2.073714999999999864e-01 -4.007685000000000386e+00 3.297925000000000040e+01 2.129975000000000364e+03
6.000000000000000472e-02 2.073514999999999942e-01 -4.037239999999999718e+00 3.332975000000000421e+01 2.129840000000000146e+03
6.099999999999999867e-02 2.073650000000000215e-01 -3.701729999999999965e+00 3.456340000000000146e+01 2.129894999999999982e+03
6.199999999999999956e-02 2.074130000000000140e-01 -2.996259999999999923e+00 3.668540000000000134e+01 2.130164999999999964e+03
6.300000000000000044e-02 2.074965000000000004e-01 -1.931203000000000003e+00 3.966195000000000448e+01 2.130640000000000327e+03
6.400000000000000133e-02 2.076139999999999930e-01 -5.314449999999999452e-01 4.342195000000000249e+01 2.131315000000000055e+03
6.500000000000000222e-02 2.077614999999999879e-01 1.165409999999999835e+00 4.786204999999999643e+01 2.132175000000000182e+03
6.600000000000000311e-02 2.079360000000000097e-01 3.111650000000000027e+00 5.285464999999999947e+01 2.133199999999999818e+03
6.700000000000000400e-02 2.081334999999999991e-01 5.252460000000000129e+00 5.825700000000000500e+01 2.134364999999999782e+03
6.800000000000000488e-02 2.083474999999999910e-01 7.529200000000000337e+00 6.392064999999999486e+01 2.135635000000000218e+03
6.900000000000000577e-02 2.085724999999999940e-01 9.882645000000000124e+00 6.970074999999999932e+01 2.136980000000000018e+03
7.000000000000000666e-02 2.088030000000000164e-01 1.225609000000000037e+01 7.546420000000000528e+01 2.138360000000000127e+03
7.100000000000000755e-02 2.090354999999999852e-01 1.459821000000000168e+01 8.109749999999999659e+01 2.139750000000000000e+03
7.200000000000000844e-02 2.092634999999999912e-01 1.686544999999999916e+01 8.651134999999999309e+01 2.141125000000000000e+03
7.300000000000000933e-02 2.094854999999999912e-01 1.902364999999999995e+01 9.164484999999999104e+01 2.142460000000000036e+03
7.399999999999999634e-02 2.096974999999999811e-01 2.104894999999999783e+01 9.646654999999999802e+01 2.143750000000000000e+03
7.499999999999999722e-02 2.098990000000000022e-01 2.292790000000000106e+01 1.009718500000000034e+02 2.144974999999999909e+03
7.599999999999999811e-02 2.100899999999999990e-01 2.465670000000000073e+01 1.051824499999999887e+02 2.146140000000000327e+03
7.699999999999999900e-02 2.102700000000000125e-01 2.623959999999999937e+01 1.091364999999999981e+02 2.147244999999999891e+03
7.799999999999999989e-02 2.104415000000000036e-01 2.768679999999999808e+01 1.128845000000000027e+02 2.148289999999999964e+03
7.900000000000000078e-02 2.106055000000000010e-01 2.901250000000000284e+01 1.164815000000000111e+02 2.149295000000000073e+03
8.000000000000000167e-02 2.107634999999999925e-01 3.023250000000000171e+01 1.199805000000000064e+02 2.150269999999999982e+03
8.100000000000000255e-02 2.109185000000000088e-01 3.136220000000000141e+01 1.234259999999999877e+02 2.151220000000000255e+03
8.200000000000000344e-02 2.110704999999999942e-01 3.241505000000000081e+01 1.268514999999999873e+02 2.152154999999999745e+03
8.300000000000000433e-02 2.112215000000000065e-01 3.340169999999999817e+01 1.302760000000000105e+02 2.153079999999999927e+03
8.400000000000000522e-02 2.113714999999999899e-01 3.432864999999999611e+01 1.337040000000000077e+02 2.154005000000000109e+03
8.500000000000000611e-02 2.115215000000000012e-01 3.519885000000000019e+01 1.371270000000000095e+02 2.154925000000000182e+03
8.600000000000000699e-02 2.116704999999999837e-01 3.601125000000000398e+01 1.405240000000000009e+02 2.155835000000000036e+03
8.700000000000000788e-02 2.118180000000000063e-01 3.676125000000000398e+01 1.438645000000000209e+02 2.156739999999999782e+03
8.800000000000000877e-02 2.119620000000000115e-01 3.744154999999999944e+01 1.471114999999999782e+02 2.157625000000000000e+03
8.899999999999999578e-02 2.121020000000000127e-01 3.804255000000000564e+01 1.502239999999999895e+02 2.158489999999999782e+03
8.999999999999999667e-02 2.122359999999999802e-01 3.855315000000000225e+01 1.531589999999999918e+02 2.159310000000000400e+03
9.099999999999999756e-02 2.123625000000000096e-01 3.896179999999999666e+01 1.558745000000000118e+02 2.160090000000000146e+03
9.199999999999999845e-02 2.124790000000000012e-01 3.925695000000000334e+01 1.583310000000000173e+02 2.160815000000000055e+03
9.299999999999999933e-02 2.125854999999999828e-01 3.942799999999999727e+01 1.604950000000000045e+02 2.161474999999999909e+03
9.400000000000000022e-02 2.126799999999999802e-01 3.946604999999999563e+01 1.623374999999999773e+02 2.162060000000000400e+03
9.500000000000000111e-02 2.127620000000000067e-01 3.936454999999999416e+01 1.638375000000000057e+02 2.162564999999999600e+03
9.600000000000000200e-02 2.128289999999999904e-01 3.912004999999999910e+01 1.649850000000000136e+02 2.162985000000000127e+03
9.700000000000000289e-02 2.128825000000000023e-01 3.873234999999999673e+01 1.657764999999999986e+02 2.163319999999999709e+03
9.800000000000000377e-02 2.129205000000000125e-01 3.820504999999999995e+01 1.662199999999999989e+02 2.163570000000000164e+03
9.900000000000000466e-02 2.129455000000000098e-01 3.754565000000000197e+01 1.663340000000000032e+02 2.163730000000000018e+03
1.000000000000000056e-01 2.129559999999999786e-01 3.676505000000000223e+01 1.661440000000000055e+02 2.163810000000000400e+03
1.010000000000000064e-01 2.129550000000000054e-01 3.587754999999999939e+01 1.656865000000000236e+02 2.163809999999999945e+03
1.020000000000000073e-01 2.129425000000000068e-01 3.489995000000000402e+01 1.650015000000000214e+02 2.163739999999999782e+03
1.030000000000000082e-01 2.129205000000000125e-01 3.385110000000000241e+01 1.641340000000000146e+02 2.163619999999999891e+03
1.040000000000000091e-01 2.128909999999999969e-01 3.275084999999999980e+01 1.631304999999999836e+02 2.163445000000000164e+03
1.050000000000000100e-01 2.128550000000000164e-01 3.161945000000000050e+01 1.620384999999999991e+02 2.163230000000000018e+03
1.059999999999999970e-01 2.128150000000000042e-01 3.047644999999999982e+01 1.609019999999999868e+02 2.162989999999999782e+03
1.069999999999999979e-01 2.127729999999999899e-01 2.933999999999999986e+01 1.597605000000000075e+02 2.162735000000000127e+03
1.079999999999999988e-01 2.127300000000000024e-01 2.822635000000000005e+01 1.586490000000000009e+02 2.162470000000000255e+03
1.089999999999999997e-01 2.126875000000000016e-01 2.714910000000000068e+01 1.575924999999999727e+02 2.162210000000000036e+03
1.100000000000000006e-01 2.126464999999999883e-01 2.611864999999999881e+01 1.566125000000000114e+02 2.161954999999999927e+03
1.110000000000000014e-01 2.126069999999999904e-01 2.514229999999999876e+01 1.557195000000000107e+02 2.161720000000000255e+03
1.120000000000000023e-01 2.125714999999999966e-01 2.422374999999999901e+01 1.549155000000000086e+02 2.161494999999999891e+03
1.130000000000000032e-01 2.125380000000000047e-01 2.336325000000000074e+01 1.541954999999999814e+02 2.161284999999999854e+03
1.140000000000000041e-01 2.125080000000000024e-01 2.255795000000000172e+01 1.535469999999999970e+02 2.161099999999999909e+03
1.150000000000000050e-01 2.124800000000000022e-01 2.180174999999999841e+01 1.529515000000000100e+02 2.160920000000000073e+03
1.160000000000000059e-01 2.124540000000000040e-01 2.108650000000000091e+01 1.523840000000000146e+02 2.160755000000000109e+03
1.170000000000000068e-01 2.124280000000000057e-01 2.040190000000000126e+01 1.518179999999999836e+02 2.160595000000000255e+03
1.180000000000000077e-01 2.124020000000000075e-01 1.973659999999999926e+01 1.512235000000000014e+02 2.160435000000000400e+03
1.190000000000000085e-01 2.123749999999999805e-01 1.907874999999999943e+01 1.505715000000000146e+02 2.160265000000000327e+03
1.200000000000000094e-01 2.123454999999999926e-01 1.841669999999999874e+01 1.498349999999999795e+02 2.160079999999999927e+03
1.209999999999999964e-01 2.123125000000000151e-01 1.773989999999999867e+01 1.489895000000000209e+02 2.159880000000000109e+03
1.219999999999999973e-01 2.122749999999999915e-01 1.703920000000000101e+01 1.480160000000000196e+02 2.159650000000000091e+03
1.229999999999999982e-01 2.122324999999999906e-01 1.630774999999999864e+01 1.469030000000000200e+02 2.159389999999999873e+03
1.239999999999999991e-01 2.121844999999999981e-01 1.554145000000000110e+01 1.456444999999999936e+02 2.159100000000000364e+03
1.250000000000000000e-01 2.121310000000000140e-01 1.473884999999999934e+01 1.442420000000000186e+02 2.158775000000000091e+03
1.260000000000000009e-01 2.120719999999999827e-01 1.390159999999999840e+01 1.427065000000000055e+02 2.158414999999999964e+03
1.270000000000000018e-01 2.120080000000000020e-01 1.303444999999999965e+01 1.410540000000000020e+02 2.158025000000000091e+03
1.280000000000000027e-01 2.119389999999999885e-01 1.214461499999999994e+01 1.393090000000000259e+02 2.157609999999999673e+03
1.290000000000000036e-01 2.118674999999999864e-01 1.124198999999999948e+01 1.375004999999999882e+02 2.157170000000000073e+03
1.300000000000000044e-01 2.117924999999999947e-01 1.033797999999999995e+01 1.356614999999999895e+02 2.156715000000000146e+03
1.310000000000000053e-01 2.117165000000000019e-01 9.445294999999999774e+00 1.338259999999999934e+02 2.156255000000000109e+03
1.320000000000000062e-01 2.116405000000000092e-01 8.577254999999999185e+00 1.320300000000000011e+02 2.155789999999999964e+03
1.330000000000000071e-01 2.115664999999999907e-01 7.746834999999999916e+00 1.303070000000000164e+02 2.155340000000000146e+03
1.340000000000000080e-01 2.114955000000000029e-01 6.966145000000000920e+00 1.286864999999999952e+02 2.154900000000000091e+03
1.350000000000000089e-01 2.114280000000000048e-01 6.245870000000000033e+00 1.271945000000000050e+02 2.154489999999999782e+03
1.360000000000000098e-01 2.113649999999999973e-01 5.594730000000000203e+00 1.258515000000000015e+02 2.154105000000000018e+03
1.370000000000000107e-01 2.113085000000000102e-01 5.019104999999999706e+00 1.246694999999999993e+02 2.153755000000000109e+03
1.380000000000000115e-01 2.112574999999999870e-01 4.522879999999999789e+00 1.236560000000000059e+02 2.153440000000000055e+03
1.390000000000000124e-01 2.112140000000000128e-01 4.107359999999999900e+00 1.228110000000000070e+02 2.153164999999999964e+03
1.400000000000000133e-01 2.111764999999999892e-01 3.771335000000000104e+00 1.221280000000000001e+02 2.152934999999999945e+03
1.410000000000000142e-01 2.111449999999999994e-01 3.511334999999999873e+00 1.215964999999999918e+02 2.152734999999999673e+03
1.420000000000000151e-01 2.111200000000000021e-01 3.321850000000000414e+00 1.212009999999999934e+02 2.152579999999999927e+03
1.430000000000000160e-01 2.111004999999999965e-01 3.195764999999999745e+00 1.209219999999999970e+02 2.152454999999999927e+03
1.440000000000000169e-01 2.110855000000000092e-01 3.124715000000000131e+00 1.207384999999999877e+02 2.152359999999999673e+03
1.450000000000000178e-01 2.110744999999999982e-01 3.099524999999999864e+00 1.206285000000000025e+02 2.152284999999999854e+03
1.459999999999999909e-01 2.110664999999999902e-01 3.110605000000000064e+00 1.205705000000000098e+02 2.152230000000000018e+03
1.469999999999999918e-01 2.110609999999999986e-01 3.148335000000000328e+00 1.205430000000000064e+02 2.152194999999999709e+03
1.479999999999999927e-01 2.110564999999999802e-01 3.203430000000000000e+00 1.205260000000000105e+02 2.152164999999999964e+03
1.489999999999999936e-01 2.110529999999999906e-01 3.267195000000000071e+00 1.205035000000000025e+02 2.152140000000000327e+03
1.499999999999999944e-01 2.110495000000000010e-01 3.331805000000000128e+00 1.204599999999999937e+02 2.152114999999999782e+03
1.509999999999999953e-01 2.110454999999999970e-01 3.390460000000000029e+00 1.203824999999999932e+02 2.152090000000000146e+03
1.519999999999999962e-01 2.110405000000000197e-01 3.437565000000000204e+00 1.202630000000000052e+02 2.152055000000000291e+03
1.529999999999999971e-01 2.110334999999999850e-01 3.468770000000000131e+00 1.200949999999999989e+02 2.152019999999999982e+03
1.539999999999999980e-01 2.110259999999999914e-01 3.481010000000000382e+00 1.198760000000000048e+02 2.151970000000000255e+03
1.549999999999999989e-01 2.110155000000000225e-01 3.472504999999999953e+00 1.196045000000000016e+02 2.151909999999999854e+03
1.559999999999999998e-01 2.110035000000000105e-01 3.442689999999999806e+00 1.192835000000000036e+02 2.151840000000000146e+03
1.570000000000000007e-01 2.109900000000000109e-01 3.392075000000000173e+00 1.189155000000000086e+02 2.151755000000000109e+03
1.580000000000000016e-01 2.109745000000000092e-01 3.322175000000000100e+00 1.185084999999999980e+02 2.151664999999999964e+03
1.590000000000000024e-01 2.109574999999999922e-01 3.235260000000000247e+00 1.180679999999999978e+02 2.151565000000000055e+03
