# t [s], A [cm^2], U [cm/s], P [cPa], c [cm/s]
1.000000000000000021e-03 4.543089999999999629e-01 4.585999999999999799e-03 1.030425000000000040e+02 1.529949999999999818e+03
2.000000000000000042e-03 4.543015000000000247e-01 -1.877668999999999996e-03 1.030215000000000032e+02 1.529944999999999936e+03
3.000000000000000062e-03 4.543294999999999972e-01 5.951774999999999427e-02 1.030825000000000102e+02 1.529960000000000036e+03
4.000000000000000083e-03 4.543690000000000229e-01 1.513603500000000046e-01 1.031955000000000098e+02 1.529994999999999891e+03
5.000000000000000104e-03 4.543705000000000105e-01 1.654829999999999912e-01 1.032090000000000032e+02 1.530005000000000109e+03
6.000000000000000125e-03 4.543344999999999745e-01 9.557450000000000667e-02 1.030794999999999959e+02 1.529974999999999909e+03
7.000000000000000146e-03 4.542975000000000207e-01 1.858250000000000179e-02 1.028829999999999956e+02 1.529924999999999955e+03
8.000000000000000167e-03 4.542579999999999396e-01 -7.121650000000001590e-02 1.026295000000000073e+02 1.529860000000000127e+03
9.000000000000001055e-03 4.541899999999999826e-01 -2.365609999999999657e-01 1.022454999999999927e+02 1.529764999999999873e+03
1.000000000000000194e-02 4.540855000000000308e-01 -4.970249999999999391e-01 1.016844999999999999e+02 1.529619999999999891e+03
1.099999999999999936e-02 4.539404999999999690e-01 -8.580100000000000504e-01 1.009114500000000021e+02 1.529425000000000182e+03
1.200000000000000025e-02 4.537424999999999931e-01 -1.336494999999999767e+00 9.987504999999998745e+01 1.529154999999999973e+03
1.300000000000000114e-02 4.534885000000000166e-01 -1.925009999999999888e+00 9.854769999999999186e+01 1.528800000000000182e+03
1.400000000000000203e-02 4.531985000000000041e-01 -2.557935000000000070e+00 9.697719999999999629e+01 1.528375000000000000e+03
1.499999999999999944e-02 4.529075000000000184e-01 -3.126479999999999926e+00 9.528440000000000509e+01 1.527900000000000091e+03
1.600000000000000033e-02 4.526479999999999948e-01 -3.525589500000000154e+00 9.361494999999999322e+01 1.527409999999999854e+03
1.700000000000000122e-02 4.524370000000000336e-01 -3.693373499999999865e+00 9.208025000000000659e+01 1.526934999999999945e+03
1.800000000000000211e-02 4.522700000000000053e-01 -3.623782799999999860e+00 9.072784999999998945e+01 1.526494999999999891e+03
1.900000000000000300e-02 4.521285000000000442e-01 -3.356224500000000166e+00 8.953894999999999982e+01 1.526090000000000146e+03
2.000000000000000042e-02 4.519889999999999741e-01 -2.953776050000000097e+00 8.844835000000000491e+01 1.525694999999999936e+03
2.100000000000000130e-02 4.518309999999999826e-01 -2.479854000000000003e+00 8.737350000000000705e+01 1.525309999999999945e+03
2.200000000000000219e-02 4.516430000000000167e-01 -1.979874999999999829e+00 8.624334999999999241e+01 1.524910000000000082e+03
2.299999999999999961e-02 4.514235000000000331e-01 -1.471974999999999811e+00 8.501865000000000805e+01 1.524485000000000127e+03
2.400000000000000050e-02 4.511794999999999556e-01 -9.485300000000000953e-01 8.369920000000000471e+01 1.524029999999999973e+03
2.500000000000000139e-02 4.509255000000000346e-01 -3.868550000000001710e-01 8.231595000000000084e+01 1.523565000000000055e+03
2.600000000000000228e-02 4.506725000000000314e-01 2.357249999999999623e-01 8.091394999999999982e+01 1.523089999999999918e+03
2.700000000000000316e-02 4.504285000000000094e-01 9.284400000000001540e-01 7.953194999999999482e+01 1.522614999999999782e+03
2.800000000000000058e-02 4.501935000000000242e-01 1.679219999999999935e+00 7.818710000000000093e+01 1.522144999999999982e+03
2.900000000000000147e-02 4.499584999999999835e-01 2.453914999999999846e+00 7.686709999999999354e+01 1.521680000000000064e+03
3.000000000000000236e-02 4.497114999999999863e-01 3.201645000000000074e+00 7.553194999999999482e+01 1.521215000000000146e+03
3.099999999999999978e-02 4.494375000000000453e-01 3.864429999999999588e+00 7.412264999999999304e+01 1.520730000000000018e+03
3.200000000000000067e-02 4.491229999999999944e-01 4.388640000000000541e+00 7.257574999999999932e+01 1.520215000000000146e+03
3.300000000000000155e-02 4.487610000000000210e-01 4.735829999999999984e+00 7.083924999999999272e+01 1.519654999999999973e+03
3.400000000000000244e-02 4.483509999999999995e-01 4.890710000000000335e+00 6.888724999999999454e+01 1.519039999999999964e+03
3.500000000000000333e-02 4.479015000000000635e-01 4.863925000000000054e+00 6.672880000000000678e+01 1.518375000000000000e+03
3.600000000000000422e-02 4.474270000000000191e-01 4.689424999999999955e+00 6.440940000000000509e+01 1.517664999999999964e+03
3.700000000000000511e-02 4.469464999999999688e-01 4.417289999999999495e+00 6.200504999999999711e+01 1.516930000000000064e+03
3.799999999999999906e-02 4.464814999999999756e-01 4.104280000000001039e+00 5.961064999999999969e+01 1.516190000000000055e+03
3.899999999999999994e-02 4.460509999999999753e-01 3.805430000000000312e+00 5.732694999999999652e+01 1.515474999999999909e+03
4.000000000000000083e-02 4.456700000000000106e-01 3.567239999999999966e+00 5.524869999999999948e+01 1.514809999999999945e+03
4.100000000000000172e-02 4.453504999999999825e-01 3.424305000000000376e+00 5.345544999999999902e+01 1.514215000000000146e+03
4.200000000000000261e-02 4.450990000000000224e-01 3.398885000000000378e+00 5.200674999999999670e+01 1.513720000000000027e+03
4.300000000000000350e-02 4.449195000000000233e-01 3.502469999999999750e+00 5.094104999999999706e+01 1.513325000000000045e+03
4.400000000000000439e-02 4.448104999999999976e-01 3.739006000000000274e+00 5.027750000000000341e+01 1.513050000000000182e+03
4.499999999999999833e-02 4.447725000000000151e-01 4.108259999999999579e+00 5.002015000000000100e+01 1.512894999999999982e+03
4.599999999999999922e-02 4.448030000000000039e-01 4.608900000000000219e+00 5.016275000000000261e+01 1.512859999999999900e+03
4.700000000000000011e-02 4.449005000000000321e-01 5.240540000000000198e+00 5.069344999999999857e+01 1.512945000000000164e+03
4.800000000000000100e-02 4.450619999999999576e-01 6.004500000000000171e+00 5.159825000000000017e+01 1.513150000000000091e+03
4.900000000000000189e-02 4.452875000000000583e-01 6.903180000000000760e+00 5.286285000000000167e+01 1.513465000000000146e+03
5.000000000000000278e-02 4.455744999999999845e-01 7.938715000000000188e+00 5.447234999999999872e+01 1.513900000000000091e+03
5.100000000000000366e-02 4.459199999999999831e-01 9.110949999999998994e+00 5.641044999999999732e+01 1.514434999999999945e+03
5.200000000000000455e-02 4.463219999999999965e-01 1.041587499999999977e+01 5.865755000000000052e+01 1.515065000000000055e+03
5.300000000000000544e-02 4.467754999999999921e-01 1.184450499999999984e+01 6.118945000000000078e+01 1.515789999999999964e+03
5.399999999999999939e-02 4.472734999999999905e-01 1.338260999999999967e+01 6.397605000000000075e+01 1.516605000000000018e+03
5.500000000000000028e-02 4.478084999999999982e-01 1.501120500000000035e+01 6.698165000000000191e+01 1.517490000000000009e+03
5.600000000000000117e-02 4.483740000000000503e-01 1.670786000000000016e+01 7.016610000000000014e+01 1.518445000000000164e+03
5.700000000000000205e-02 4.489600000000000257e-01 1.844839999999999947e+01 7.348629999999999995e+01 1.519445000000000164e+03
5.800000000000000294e-02 4.495600000000000152e-01 2.020830000000000126e+01 7.689885000000001014e+01 1.520490000000000009e+03
5.900000000000000383e-02 4.501660000000000106e-01 2.196474999999999866e+01 8.036230000000000473e+01 1.521565000000000055e+03
6.000000000000000472e-02 4.507714999999999916e-01 2.369764999999999944e+01 8.383944999999999936e+01 1.522650000000000091e+03
6.099999999999999867e-02 4.513725000000000098e-01 2.539059999999999917e+01 8.729945000000000732e+01 1.523740000000000009e+03
6.199999999999999956e-02 4.519655000000000200e-01 2.703120000000000189e+01 9.071774999999999523e+01 1.524829999999999927e+03
6.300000000000000044e-02 4.525489999999999791e-01 2.861115000000000208e+01 9.407894999999999186e+01 1.525909999999999854e+03
6.400000000000000133e-02 4.531219999999999692e-01 3.012560000000000215e+01 9.737315000000000964e+01 1.526980000000000018e+03
6.500000000000000222e-02 4.536850000000000049e-01 3.157290000000000063e+01 1.005985499999999888e+02 1.528029999999999973e+03
6.600000000000000311e-02 4.542380000000000306e-01 3.295360000000000156e+01 1.037583999999999946e+02 1.529069999999999936e+03
6.700000000000000400e-02 4.547844999999999804e-01 3.427009999999999934e+01 1.068589499999999930e+02 1.530094999999999800e+03
6.800000000000000488e-02 4.553249999999999797e-01 3.552554999999999552e+01 1.099099500000000091e+02 1.531105000000000018e+03
6.900000000000000577e-02 4.558615000000000306e-01 3.672359999999999758e+01 1.129230000000000018e+02 1.532105000000000018e+03
7.000000000000000666e-02 4.563964999999999828e-01 3.786764999999999759e+01 1.159070000000000107e+02 1.533094999999999800e+03
7.100000000000000755e-02 4.569290000000000296e-01 3.896054999999999779e+01 1.188714999999999975e+02 1.534079999999999927e+03
7.200000000000000844e-02 4.574619999999999798e-01 4.000404999999999944e+01 1.218230000000000075e+02 1.535065000000000055e+03
7.300000000000000933e-02 4.579940000000000122e-01 4.099875000000000114e+01 1.247639999999999958e+02 1.536039999999999964e+03
7.399999999999999634e-02 4.585250000000000159e-01 4.194360000000000355e+01 1.276944999999999908e+02 1.537019999999999982e+03
7.499999999999999722e-02 4.590529999999999888e-01 4.283639999999999759e+01 1.306090000000000089e+02 1.537994999999999891e+03
7.599999999999999811e-02 4.595770000000000133e-01 4.367334999999999923e+01 1.334979999999999905e+02 1.538954999999999927e+03
7.699999999999999900e-02 4.600940000000000030e-01 4.444955000000000211e+01 1.363500000000000227e+02 1.539914999999999964e+03
7.799999999999999989e-02 4.606010000000000382e-01 4.515935000000000343e+01 1.391500000000000057e+02 1.540855000000000018e+03
7.900000000000000078e-02 4.610950000000000326e-01 4.579675000000000296e+01 1.418804999999999836e+02 1.541779999999999973e+03
8.000000000000000167e-02 4.615719999999999823e-01 4.635555000000000092e+01 1.445229999999999961e+02 1.542674999999999955e+03
8.100000000000000255e-02 4.620289999999999675e-01 4.683015000000000327e+01 1.470604999999999905e+02 1.543539999999999964e+03
8.200000000000000344e-02 4.624639999999999862e-01 4.721550000000000580e+01 1.494745000000000061e+02 1.544369999999999891e+03
8.300000000000000433e-02 4.628740000000000077e-01 4.750780000000000314e+01 1.517509999999999764e+02 1.545164999999999964e+03
8.400000000000000522e-02 4.632570000000000299e-01 4.770414999999999850e+01 1.538759999999999764e+02 1.545905000000000200e+03
8.500000000000000611e-02 4.636109999999999953e-01 4.780324999999999847e+01 1.558389999999999986e+02 1.546599999999999909e+03
8.600000000000000699e-02 4.639354999999999452e-01 4.780499999999999972e+01 1.576340000000000146e+02 1.547240000000000009e+03
8.700000000000000788e-02 4.642295000000000171e-01 4.771070000000000277e+01 1.592560000000000002e+02 1.547829999999999927e+03
8.800000000000000877e-02 4.644935000000000036e-01 4.752309999999999945e+01 1.607040000000000077e+02 1.548360000000000127e+03
8.899999999999999578e-02 4.647275000000000156e-01 4.724615000000000009e+01 1.619809999999999945e+02 1.548840000000000146e+03
8.999999999999999667e-02 4.649334999999999996e-01 4.688519999999999754e+01 1.630914999999999964e+02 1.549264999999999873e+03
9.099999999999999756e-02 4.651115000000000110e-01 4.644650000000000034e+01 1.640439999999999827e+02 1.549634999999999991e+03
9.199999999999999845e-02 4.652644999999999698e-01 4.593750000000000000e+01 1.648474999999999966e+02 1.549954999999999927e+03
9.299999999999999933e-02 4.653939999999999744e-01 4.536639999999999873e+01 1.655134999999999934e+02 1.550230000000000018e+03
9.400000000000000022e-02 4.655024999999999857e-01 4.474210000000000065e+01 1.660564999999999998e+02 1.550460000000000036e+03
9.500000000000000111e-02 4.655924999999999647e-01 4.407394999999999641e+01 1.664909999999999854e+02 1.550650000000000091e+03
9.600000000000000200e-02 4.656669999999999976e-01 4.337154999999999916e+01 1.668315000000000055e+02 1.550809999999999945e+03
9.700000000000000289e-02 4.657280000000000308e-01 4.264435000000000286e+01 1.670939999999999941e+02 1.550940000000000055e+03
9.800000000000000377e-02 4.657780000000000253e-01 4.190155000000000030e+01 1.672930000000000064e+02 1.551034999999999854e+03
9.900000000000000466e-02 4.658200000000000118e-01 4.115165000000000362e+01 1.674424999999999955e+02 1.551119999999999891e+03
1.000000000000000056e-01 4.658554999999999779e-01 4.040215000000000600e+01 1.675554999999999950e+02 1.551180000000000064e+03
1.010000000000000064e-01 4.658869999999999956e-01 3.965954999999999586e+01 1.676430000000000007e+02 1.551235000000000127e+03
1.020000000000000073e-01 4.659149999999999681e-01 3.892889999999999873e+01 1.677139999999999986e+02 1.551275000000000091e+03
1.030000000000000082e-01 4.659409999999999941e-01 3.821384999999999366e+01 1.677744999999999891e+02 1.551309999999999945e+03
1.040000000000000091e-01 4.659645000000000037e-01 3.751635000000000275e+01 1.678279999999999745e+02 1.551340000000000146e+03
1.050000000000000100e-01 4.659864999999999702e-01 3.683709999999999951e+01 1.678774999999999977e+02 1.551365000000000009e+03
1.059999999999999970e-01 4.660060000000000313e-01 3.617539999999999623e+01 1.679200000000000159e+02 1.551384999999999991e+03
1.069999999999999979e-01 4.660225000000000062e-01 3.552920000000000300e+01 1.679535000000000196e+02 1.551394999999999982e+03
1.079999999999999988e-01 4.660354999999999914e-01 3.489565000000000339e+01 1.679730000000000132e+02 1.551405000000000200e+03
1.089999999999999997e-01 4.660429999999999851e-01 3.427114999999999867e+01 1.679720000000000084e+02 1.551409999999999854e+03
1.100000000000000006e-01 4.660444999999999727e-01 3.365144999999999698e+01 1.679429999999999836e+02 1.551404999999999973e+03
1.110000000000000014e-01 4.660374999999999934e-01 3.303244999999999720e+01 1.678799999999999955e+02 1.551389999999999873e+03
1.120000000000000023e-01 4.660225000000000062e-01 3.240975000000000250e+01 1.677744999999999891e+02 1.551360000000000127e+03
1.130000000000000032e-01 4.659969999999999946e-01 3.177945000000000064e+01 1.676200000000000045e+02 1.551315000000000055e+03
1.140000000000000041e-01 4.659609999999999586e-01 3.113795000000000357e+01 1.674114999999999895e+02 1.551255000000000109e+03
1.150000000000000050e-01 4.659134999999999804e-01 3.048254999999999626e+01 1.671435000000000173e+02 1.551170000000000073e+03
1.160000000000000059e-01 4.658545000000000047e-01 2.981110000000000326e+01 1.668140000000000214e+02 1.551074999999999818e+03
1.170000000000000068e-01 4.657835000000000170e-01 2.912240000000000251e+01 1.664214999999999804e+02 1.550960000000000036e+03
1.180000000000000077e-01 4.657020000000000048e-01 2.841640000000000299e+01 1.659669999999999845e+02 1.550825000000000045e+03
1.190000000000000085e-01 4.656089999999999951e-01 2.769375000000000142e+01 1.654530000000000030e+02 1.550670000000000073e+03
1.200000000000000094e-01 4.655065000000000452e-01 2.695629999999999882e+01 1.648834999999999980e+02 1.550494999999999891e+03
1.209999999999999964e-01 4.653954999999999620e-01 2.620680000000000121e+01 1.642644999999999982e+02 1.550304999999999836e+03
1.219999999999999973e-01 4.652775000000000105e-01 2.544885000000000019e+01 1.636039999999999850e+02 1.550099999999999909e+03
1.229999999999999982e-01 4.651540000000000119e-01 2.468690000000000140e+01 1.629114999999999895e+02 1.549880000000000109e+03
1.239999999999999991e-01 4.650275000000000380e-01 2.392589999999999861e+01 1.621954999999999814e+02 1.549659999999999854e+03
1.250000000000000000e-01 4.648990000000000067e-01 2.317139999999999844e+01 1.614675000000000011e+02 1.549429999999999836e+03
1.260000000000000009e-01 4.647719999999999629e-01 2.242909999999999826e+01 1.607400000000000091e+02 1.549199999999999818e+03
1.270000000000000018e-01 4.646470000000000322e-01 2.170495000000000019e+01 1.600215000000000032e+02 1.548965000000000146e+03
1.280000000000000027e-01 4.645265000000000088e-01 2.100459999999999994e+01 1.593254999999999768e+02 1.548740000000000009e+03
1.290000000000000036e-01 4.644119999999999915e-01 2.033355000000000246e+01 1.586610000000000014e+02 1.548514999999999873e+03
1.300000000000000044e-01 4.643055000000000376e-01 1.969669999999999987e+01 1.580375000000000227e+02 1.548309999999999945e+03
1.310000000000000053e-01 4.642085000000000239e-01 1.909850000000000136e+01 1.574625000000000057e+02 1.548110000000000127e+03
1.320000000000000062e-01 4.641215000000000201e-01 1.854240000000000066e+01 1.569429999999999836e+02 1.547929999999999836e+03
1.330000000000000071e-01 4.640450000000000408e-01 1.803115000000000023e+01 1.564839999999999804e+02 1.547764999999999873e+03
1.340000000000000080e-01 4.639804999999999624e-01 1.756634999999999991e+01 1.560885000000000105e+02 1.547625000000000000e+03
1.350000000000000089e-01 4.639269999999999783e-01 1.714890000000000114e+01 1.557574999999999932e+02 1.547500000000000000e+03
1.360000000000000098e-01 4.638845000000000329e-01 1.677844999999999942e+01 1.554900000000000091e+02 1.547394999999999982e+03
1.370000000000000107e-01 4.638520000000000421e-01 1.645390000000000086e+01 1.552849999999999966e+02 1.547305000000000064e+03
1.380000000000000115e-01 4.638305000000000344e-01 1.617330000000000112e+01 1.551380000000000052e+02 1.547235000000000127e+03
1.390000000000000124e-01 4.638169999999999793e-01 1.593389999999999951e+01 1.550440000000000111e+02 1.547190000000000055e+03
1.400000000000000133e-01 4.638110000000000288e-01 1.573254999999999981e+01 1.549975000000000023e+02 1.547155000000000200e+03
1.410000000000000142e-01 4.638124999999999609e-01 1.556555000000000177e+01 1.549909999999999854e+02 1.547134999999999991e+03
1.420000000000000151e-01 4.638184999999999669e-01 1.542889999999999873e+01 1.550190000000000055e+02 1.547125000000000000e+03
1.430000000000000160e-01 4.638290000000000468e-01 1.531855000000000011e+01 1.550729999999999791e+02 1.547130000000000109e+03
1.440000000000000169e-01 4.638419999999999765e-01 1.523049999999999926e+01 1.551465000000000032e+02 1.547139999999999873e+03
1.450000000000000178e-01 4.638569999999999638e-01 1.516084999999999994e+01 1.552334999999999923e+02 1.547154999999999973e+03
1.459999999999999909e-01 4.638720000000000621e-01 1.510594999999999999e+01 1.553274999999999864e+02 1.547170000000000073e+03
1.469999999999999918e-01 4.638879999999999670e-01 1.506250000000000000e+01 1.554234999999999900e+02 1.547190000000000055e+03
1.479999999999999927e-01 4.639030000000000098e-01 1.502754999999999974e+01 1.555180000000000007e+02 1.547220000000000027e+03
1.489999999999999936e-01 4.639174999999999827e-01 1.499849999999999994e+01 1.556084999999999923e+02 1.547240000000000009e+03
1.499999999999999944e-01 4.639305000000000234e-01 1.497325000000000017e+01 1.556904999999999859e+02 1.547264999999999873e+03
1.509999999999999953e-01 4.639415000000000067e-01 1.495009999999999906e+01 1.557644999999999982e+02 1.547284999999999854e+03
1.519999999999999962e-01 4.639510000000000023e-01 1.492774999999999963e+01 1.558285000000000196e+02 1.547299999999999955e+03
1.529999999999999971e-01 4.639590000000000103e-01 1.490504999999999924e+01 1.558824999999999932e+02 1.547319999999999936e+03
1.539999999999999980e-01 4.639655000000000307e-01 1.488155000000000072e+01 1.559289999999999736e+02 1.547329999999999927e+03
1.549999999999999989e-01 4.639714999999999812e-01 1.485674999999999990e+01 1.559664999999999964e+02 1.547345000000000027e+03
1.559999999999999998e-01 4.639754999999999852e-01 1.483060000000000045e+01 1.559979999999999905e+02 1.547355000000000018e+03
1.570000000000000007e-01 4.639794999999999892e-01 1.480325000000000202e+01 1.560244999999999891e+02 1.547365000000000009e+03
1.580000000000000016e-01 4.639824999999999644e-01 1.477485000000000070e+01 1.560469999999999970e+02 1.547375000000000000e+03
1.590000000000000024e-01 4.639860000000000095e-01 1.474589999999999890e+01 1.560685000000000002e+02 1.547380000000000109e+03
