# t [s], A [cm^2], U [cm/s], P [cPa], c [cm/s]
1.000000000000000021e-03 5.007939999999999614e-01 5.233700000000000851e-03 1.065345000000000084e+02 1.601039999999999964e+03
2.000000000000000042e-03 5.007865000000000233e-01 -2.257850000000000482e-04 1.065080000000000098e+02 1.601035000000000082e+03
3.000000000000000062e-03 5.008319999999999439e-01 9.860974999999999602e-02 1.066134999999999877e+02 1.601059999999999945e+03
4.000000000000000083e-03 5.008699999999999264e-01 1.916896349999999971e-01 1.067305000000000064e+02 1.601094999999999800e+03
5.000000000000000104e-03 5.008475000000000010e-01 1.609396099999999830e-01 1.066670000000000016e+02 1.601079999999999927e+03
6.000000000000000125e-03 5.007945000000000313e-01 5.776900000000001478e-02 1.064395000000000095e+02 1.601029999999999973e+03
7.000000000000000146e-03 5.007460000000000244e-01 -4.327799999999998315e-02 1.061440000000000055e+02 1.600960000000000036e+03
8.000000000000000167e-03 5.006690000000000307e-01 -2.177450000000000774e-01 1.057049999999999983e+02 1.600860000000000127e+03
9.000000000000001055e-03 5.005420000000000424e-01 -5.186850000000000627e-01 1.050314999999999941e+02 1.600704999999999927e+03
1.000000000000000194e-02 5.003630000000000022e-01 -9.449750000000000094e-01 1.040840000000000032e+02 1.600480000000000018e+03
1.099999999999999936e-02 5.001169999999999227e-01 -1.514560000000000128e+00 1.027989500000000049e+02 1.600179999999999836e+03
1.200000000000000025e-02 4.997945000000000304e-01 -2.231175000000000352e+00 1.011246999999999900e+02 1.599775000000000091e+03
1.300000000000000114e-02 4.994195000000000162e-01 -3.017135000000000122e+00 9.911464999999999748e+01 1.599275000000000091e+03
1.400000000000000203e-02 4.990434999999999732e-01 -3.720389999999999642e+00 9.694880000000000564e+01 1.598714999999999918e+03
1.499999999999999944e-02 4.987179999999999946e-01 -4.188069500000000112e+00 9.485410000000000252e+01 1.598154999999999973e+03
1.600000000000000033e-02 4.984690000000000509e-01 -4.334270449999999997e+00 9.300440000000000396e+01 1.597625000000000000e+03
1.700000000000000122e-02 4.982869999999999799e-01 -4.161635500000000043e+00 9.146209999999999241e+01 1.597159999999999854e+03
1.800000000000000211e-02 4.981404999999999861e-01 -3.742544000000000093e+00 9.017799999999999727e+01 1.596735000000000127e+03
1.900000000000000300e-02 4.979915000000000314e-01 -3.181029000000000106e+00 8.902930000000000632e+01 1.596345000000000027e+03
2.000000000000000042e-02 4.978090000000000015e-01 -2.572923499999999919e+00 8.787500000000000000e+01 1.595954999999999927e+03
2.100000000000000130e-02 4.975780000000000203e-01 -1.976369999999999738e+00 8.660759999999999081e+01 1.595550000000000182e+03
2.200000000000000219e-02 4.973045000000000382e-01 -1.401149999999999896e+00 8.518545000000000300e+01 1.595099999999999909e+03
2.299999999999999961e-02 4.970054999999999890e-01 -8.193649999999998990e-01 8.363390000000001123e+01 1.594630000000000109e+03
2.400000000000000050e-02 4.967019999999999769e-01 -1.906149999999997569e-01 8.201930000000000121e+01 1.594139999999999873e+03
2.500000000000000139e-02 4.964104999999999768e-01 5.107999999999996987e-01 8.041094999999999970e+01 1.593639999999999873e+03
2.600000000000000228e-02 4.961330000000000462e-01 1.277754999999999974e+00 7.884680000000000177e+01 1.593154999999999973e+03
2.700000000000000316e-02 4.958574999999999511e-01 2.065640000000000143e+00 7.731434999999999036e+01 1.592670000000000073e+03
2.800000000000000058e-02 4.955650000000000333e-01 2.800169999999999604e+00 7.575045000000000073e+01 1.592180000000000064e+03
2.900000000000000147e-02 4.952290000000000303e-01 3.393725000000000325e+00 7.405654999999998722e+01 1.591664999999999964e+03
3.000000000000000236e-02 4.948289999999999633e-01 3.765539999999999665e+00 7.212485000000000923e+01 1.591095000000000027e+03
3.099999999999999978e-02 4.943514999999999437e-01 3.861040000000000472e+00 6.986885000000000900e+01 1.590450000000000045e+03
3.200000000000000067e-02 4.937985000000000291e-01 3.665045000000000552e+00 6.725004999999998745e+01 1.589730000000000018e+03
3.300000000000000155e-02 4.931834999999999969e-01 3.205560000000000187e+00 6.429370000000000118e+01 1.588924999999999955e+03
3.400000000000000244e-02 4.925334999999999575e-01 2.546980000000000022e+00 6.108780000000000143e+01 1.588050000000000182e+03
3.500000000000000333e-02 4.918819999999999859e-01 1.775854999999999961e+00 5.776935000000000286e+01 1.587150000000000091e+03
3.600000000000000422e-02 4.912610000000000032e-01 9.842249999999994614e-01 5.450084999999999980e+01 1.586244999999999891e+03
3.700000000000000511e-02 4.907004999999999839e-01 2.550949999999998496e-01 5.144525000000000148e+01 1.585380000000000109e+03
3.799999999999999906e-02 4.902214999999999767e-01 -3.467750000000000554e-01 4.874604999999999677e+01 1.584590000000000146e+03
3.899999999999999994e-02 4.898374999999999813e-01 -7.784300000000001774e-01 4.651299999999999812e+01 1.583914999999999964e+03
4.000000000000000083e-02 4.895554999999999768e-01 -1.017449999999999743e+00 4.481674999999999898e+01 1.583375000000000000e+03
4.100000000000000172e-02 4.893760000000000332e-01 -1.057400000000000118e+00 4.369050000000000011e+01 1.582974999999999909e+03
4.200000000000000261e-02 4.892954999999999943e-01 -9.018275000000000041e-01 4.313599999999999568e+01 1.582730000000000018e+03
4.300000000000000350e-02 4.893079999999999652e-01 -5.584580000000000100e-01 4.313325000000000387e+01 1.582630000000000109e+03
4.400000000000000439e-02 4.894085000000000241e-01 -3.489999999999993108e-02 4.364974999999999739e+01 1.582690000000000055e+03
4.499999999999999833e-02 4.895904999999999840e-01 6.632949999999999680e-01 4.464815000000000111e+01 1.582875000000000000e+03
4.599999999999999922e-02 4.898504999999999665e-01 1.532210000000000072e+00 4.609050000000000580e+01 1.583195000000000164e+03
4.700000000000000011e-02 4.901814999999999922e-01 2.567429999999999879e+00 4.793925000000000125e+01 1.583634999999999991e+03
4.800000000000000100e-02 4.905789999999999873e-01 3.761179999999999968e+00 5.015554999999999808e+01 1.584184999999999945e+03
4.900000000000000189e-02 4.910339999999999705e-01 5.099820000000000242e+00 5.269700000000000273e+01 1.584829999999999927e+03
5.000000000000000278e-02 4.915380000000000305e-01 6.562604999999999578e+00 5.551489999999999725e+01 1.585565000000000055e+03
5.100000000000000366e-02 4.920804999999999763e-01 8.121809000000000722e+00 5.855369999999999919e+01 1.586369999999999891e+03
5.200000000000000455e-02 4.926475000000000160e-01 9.744234999999999758e+00 6.175204999999999700e+01 1.587224999999999909e+03
5.300000000000000544e-02 4.932274999999999854e-01 1.139385000000000048e+01 6.504470000000000596e+01 1.588119999999999891e+03
5.399999999999999939e-02 4.938089999999999979e-01 1.303451499999999896e+01 6.836665000000000703e+01 1.589039999999999964e+03
5.500000000000000028e-02 4.943809999999999594e-01 1.463269999999999982e+01 7.165699999999999648e+01 1.589965000000000146e+03
5.600000000000000117e-02 4.949339999999999851e-01 1.616020500000000126e+01 7.486305000000000121e+01 1.590880000000000109e+03
5.700000000000000205e-02 4.954629999999999868e-01 1.759510000000000218e+01 7.794315000000000282e+01 1.591769999999999982e+03
5.800000000000000294e-02 4.959640000000000160e-01 1.892269999999999897e+01 8.086860000000000070e+01 1.592630000000000109e+03
5.900000000000000383e-02 4.964359999999999884e-01 2.013544999999999874e+01 8.362415000000000020e+01 1.593444999999999936e+03
6.000000000000000472e-02 4.968794999999999740e-01 2.123194999999999766e+01 8.620744999999999436e+01 1.594224999999999909e+03
6.099999999999999867e-02 4.972975000000000589e-01 2.221594999999999942e+01 8.862725000000000364e+01 1.594965000000000146e+03
6.199999999999999956e-02 4.976940000000000253e-01 2.309539999999999793e+01 9.090115000000000123e+01 1.595664999999999964e+03
6.300000000000000044e-02 4.980729999999999880e-01 2.388090000000000046e+01 9.305304999999999893e+01 1.596329999999999927e+03
6.400000000000000133e-02 4.984405000000000086e-01 2.458474999999999966e+01 9.511084999999999923e+01 1.596969999999999800e+03
6.500000000000000222e-02 4.988000000000000211e-01 2.521989999999999910e+01 9.710349999999999682e+01 1.597585000000000036e+03
6.600000000000000311e-02 4.991569999999999618e-01 2.579919999999999902e+01 9.905920000000000414e+01 1.598190000000000055e+03
6.700000000000000400e-02 4.995150000000000423e-01 2.633419999999999916e+01 1.010027499999999918e+02 1.598784999999999854e+03
6.800000000000000488e-02 4.998770000000000158e-01 2.683469999999999800e+01 1.029542000000000002e+02 1.599380000000000109e+03
6.900000000000000577e-02 5.002444999999999808e-01 2.730799999999999983e+01 1.049259999999999877e+02 1.599980000000000018e+03
7.000000000000000666e-02 5.006184999999999663e-01 2.775820000000000221e+01 1.069254999999999995e+02 1.600585000000000036e+03
7.100000000000000755e-02 5.009965000000000668e-01 2.818625000000000114e+01 1.089495000000000005e+02 1.601190000000000055e+03
7.200000000000000844e-02 5.013775000000000315e-01 2.858984999999999843e+01 1.109885000000000019e+02 1.601809999999999945e+03
7.300000000000000933e-02 5.017564999999999387e-01 2.896375000000000099e+01 1.130264999999999986e+02 1.602420000000000073e+03
7.399999999999999634e-02 5.021295000000000064e-01 2.930035000000000167e+01 1.150395000000000039e+02 1.603025000000000091e+03
7.499999999999999722e-02 5.024920000000000497e-01 2.959049999999999869e+01 1.170000000000000000e+02 1.603615000000000009e+03
7.599999999999999811e-02 5.028369999999999784e-01 2.982399999999999807e+01 1.188805000000000121e+02 1.604190000000000055e+03
7.699999999999999900e-02 5.031609999999999694e-01 2.999105000000000132e+01 1.206490000000000009e+02 1.604735000000000127e+03
7.799999999999999989e-02 5.034579999999999611e-01 3.008239999999999981e+01 1.222789999999999964e+02 1.605240000000000009e+03
7.900000000000000078e-02 5.037245000000000195e-01 3.009009999999999962e+01 1.237445000000000022e+02 1.605704999999999927e+03
8.000000000000000167e-02 5.039560000000000706e-01 3.000829999999999842e+01 1.250250000000000057e+02 1.606119999999999891e+03
8.100000000000000255e-02 5.041525000000000034e-01 2.983334999999999937e+01 1.261049999999999898e+02 1.606480000000000018e+03
8.200000000000000344e-02 5.043104999999999949e-01 2.956394999999999840e+01 1.269759999999999991e+02 1.606784999999999854e+03
8.300000000000000433e-02 5.044310000000000738e-01 2.920149999999999935e+01 1.276334999999999980e+02 1.607025000000000091e+03
8.400000000000000522e-02 5.045144999999999769e-01 2.874960000000000093e+01 1.280815000000000055e+02 1.607210000000000036e+03
8.500000000000000611e-02 5.045625000000000249e-01 2.821439999999999770e+01 1.283280000000000030e+02 1.607329999999999927e+03
8.600000000000000699e-02 5.045785000000000409e-01 2.760410000000000252e+01 1.283859999999999957e+02 1.607394999999999982e+03
8.700000000000000788e-02 5.045650000000000412e-01 2.692875000000000085e+01 1.282750000000000057e+02 1.607409999999999854e+03
8.800000000000000877e-02 5.045264999999999889e-01 2.619975000000000165e+01 1.280149999999999864e+02 1.607384999999999991e+03
8.899999999999999578e-02 5.044675000000000686e-01 2.542969999999999686e+01 1.276320000000000050e+02 1.607309999999999945e+03
8.999999999999999667e-02 5.043914999999999926e-01 2.463165000000000049e+01 1.271504999999999939e+02 1.607204999999999927e+03
9.099999999999999756e-02 5.043039999999999745e-01 2.381889999999999930e+01 1.265964999999999918e+02 1.607074999999999818e+03
9.199999999999999845e-02 5.042090000000000183e-01 2.300430000000000064e+01 1.259969999999999999e+02 1.606925000000000182e+03
9.299999999999999933e-02 5.041109999999999758e-01 2.219964999999999833e+01 1.253755000000000024e+02 1.606764999999999873e+03
9.400000000000000022e-02 5.040124999999999744e-01 2.141564999999999941e+01 1.247530000000000001e+02 1.606599999999999909e+03
9.500000000000000111e-02 5.039185000000000469e-01 2.066104999999999947e+01 1.241495000000000033e+02 1.606434999999999945e+03
9.600000000000000200e-02 5.038295000000000412e-01 1.994255000000000067e+01 1.235785000000000053e+02 1.606269999999999982e+03
9.700000000000000289e-02 5.037475000000000147e-01 1.926454999999999984e+01 1.230510000000000019e+02 1.606115000000000009e+03
9.800000000000000377e-02 5.036734999999999962e-01 1.862915000000000276e+01 1.225730000000000075e+02 1.605970000000000027e+03
9.900000000000000466e-02 5.036074999999999857e-01 1.803600000000000136e+01 1.221454999999999984e+02 1.605835000000000036e+03
1.000000000000000056e-01 5.035475000000000367e-01 1.748254999999999981e+01 1.217660000000000053e+02 1.605710000000000036e+03
1.010000000000000064e-01 5.034944999999999560e-01 1.696450000000000102e+01 1.214274999999999949e+02 1.605605000000000018e+03
1.020000000000000073e-01 5.034440000000000026e-01 1.647585000000000122e+01 1.211194999999999879e+02 1.605500000000000000e+03
1.030000000000000082e-01 5.033954999999999957e-01 1.600934999999999775e+01 1.208309999999999889e+02 1.605404999999999973e+03
1.040000000000000091e-01 5.033455000000000013e-01 1.555724999999999980e+01 1.205474999999999994e+02 1.605309999999999945e+03
1.050000000000000100e-01 5.032919999999999616e-01 1.511129999999999995e+01 1.202555000000000121e+02 1.605215000000000146e+03
1.059999999999999970e-01 5.032330000000000414e-01 1.466335000000000122e+01 1.199389999999999930e+02 1.605119999999999891e+03
1.069999999999999979e-01 5.031655000000000433e-01 1.420599999999999952e+01 1.195869999999999891e+02 1.605014999999999873e+03
1.079999999999999988e-01 5.030879999999999797e-01 1.373264999999999958e+01 1.191860000000000070e+02 1.604894999999999982e+03
1.089999999999999997e-01 5.029995000000000438e-01 1.323790999999999940e+01 1.187279999999999944e+02 1.604765000000000100e+03
1.100000000000000006e-01 5.028989999999999849e-01 1.271802499999999903e+01 1.182065000000000055e+02 1.604619999999999891e+03
1.110000000000000014e-01 5.027859999999999552e-01 1.217099999999999937e+01 1.176179999999999950e+02 1.604454999999999927e+03
1.120000000000000023e-01 5.026614999999999833e-01 1.159662499999999952e+01 1.169644999999999868e+02 1.604269999999999982e+03
1.130000000000000032e-01 5.025264999999999871e-01 1.099655500000000075e+01 1.162489999999999952e+02 1.604070000000000164e+03
1.140000000000000041e-01 5.023819999999999952e-01 1.037440499999999943e+01 1.154789999999999992e+02 1.603855000000000018e+03
1.150000000000000050e-01 5.022309999999999830e-01 9.735355000000000203e+00 1.146664999999999992e+02 1.603625000000000000e+03
1.160000000000000059e-01 5.020755000000000079e-01 9.086185000000000400e+00 1.138230000000000075e+02 1.603389999999999873e+03
1.170000000000000068e-01 5.019190000000000040e-01 8.434820000000000206e+00 1.129654999999999916e+02 1.603150000000000091e+03
1.180000000000000077e-01 5.017639999999999878e-01 7.790029999999999788e+00 1.121110000000000042e+02 1.602900000000000091e+03
1.190000000000000085e-01 5.016149999999999221e-01 7.161014999999999908e+00 1.112775000000000034e+02 1.602664999999999964e+03
1.200000000000000094e-01 5.014739999999999753e-01 6.557119999999999393e+00 1.104819999999999993e+02 1.602424999999999955e+03
1.209999999999999964e-01 5.013440000000000119e-01 5.987275000000000347e+00 1.097429999999999950e+02 1.602210000000000036e+03
1.219999999999999973e-01 5.012284999999999657e-01 5.459665000000000212e+00 1.090750000000000028e+02 1.602005000000000109e+03
1.229999999999999982e-01 5.011284999999999767e-01 4.981365000000000265e+00 1.084915000000000020e+02 1.601820000000000164e+03
1.239999999999999991e-01 5.010470000000000201e-01 4.558075000000000543e+00 1.080035000000000025e+02 1.601664999999999964e+03
1.250000000000000000e-01 5.009839999999999849e-01 4.193839999999999790e+00 1.076184999999999974e+02 1.601534999999999854e+03
1.260000000000000009e-01 5.009400000000000519e-01 3.890975000000000072e+00 1.073394999999999868e+02 1.601434999999999945e+03
1.270000000000000018e-01 5.009155000000000690e-01 3.649995000000000100e+00 1.071670000000000016e+02 1.601364999999999782e+03
1.280000000000000027e-01 5.009084999999999788e-01 3.469640000000000057e+00 1.070985000000000014e+02 1.601320000000000164e+03
1.290000000000000036e-01 5.009185000000000443e-01 3.347024999999999917e+00 1.071270000000000095e+02 1.601305000000000064e+03
1.300000000000000044e-01 5.009430000000000271e-01 3.277839999999999865e+00 1.072439999999999998e+02 1.601315000000000055e+03
1.310000000000000053e-01 5.009810000000000096e-01 3.256584999999999841e+00 1.074375000000000000e+02 1.601345000000000027e+03
1.320000000000000062e-01 5.010295000000000165e-01 3.276874999999999982e+00 1.076954999999999956e+02 1.601405000000000200e+03
1.330000000000000071e-01 5.010855000000000725e-01 3.331719999999999793e+00 1.080035000000000025e+02 1.601474999999999909e+03
1.340000000000000080e-01 5.011470000000000091e-01 3.413845000000000240e+00 1.083474999999999966e+02 1.601555000000000064e+03
1.350000000000000089e-01 5.012115000000000320e-01 3.515979999999999883e+00 1.087139999999999986e+02 1.601650000000000091e+03
1.360000000000000098e-01 5.012765000000000137e-01 3.631069999999999798e+00 1.090889999999999986e+02 1.601744999999999891e+03
1.370000000000000107e-01 5.013404999999999667e-01 3.752555000000000085e+00 1.094604999999999961e+02 1.601839999999999918e+03
1.380000000000000115e-01 5.014009999999999856e-01 3.874489999999999768e+00 1.098189999999999884e+02 1.601940000000000055e+03
1.390000000000000124e-01 5.014579999999999593e-01 3.991724999999999746e+00 1.101545000000000130e+02 1.602034999999999854e+03
1.400000000000000133e-01 5.015089999999999826e-01 4.099935000000000329e+00 1.104615000000000009e+02 1.602119999999999891e+03
1.410000000000000142e-01 5.015545000000000142e-01 4.195724999999999483e+00 1.107339999999999947e+02 1.602200000000000045e+03
1.420000000000000151e-01 5.015930000000000666e-01 4.276604999999999990e+00 1.109705000000000013e+02 1.602275000000000091e+03
1.430000000000000160e-01 5.016255000000000575e-01 4.340989999999999682e+00 1.111684999999999945e+02 1.602329999999999927e+03
1.440000000000000169e-01 5.016509999999999581e-01 4.388135000000000119e+00 1.113284999999999911e+02 1.602384999999999991e+03
1.450000000000000178e-01 5.016715000000000479e-01 4.418070000000000164e+00 1.114524999999999864e+02 1.602430000000000064e+03
1.459999999999999909e-01 5.016855000000000064e-01 4.431530000000000413e+00 1.115439999999999969e+02 1.602465000000000146e+03
1.469999999999999918e-01 5.016954999999999609e-01 4.429819999999999425e+00 1.116064999999999969e+02 1.602484999999999900e+03
1.479999999999999927e-01 5.017015000000000224e-01 4.414729999999999599e+00 1.116435000000000031e+02 1.602505000000000109e+03
1.489999999999999936e-01 5.017050000000000676e-01 4.388370000000000104e+00 1.116605000000000132e+02 1.602514999999999873e+03
1.499999999999999944e-01 5.017055000000000264e-01 4.353089999999999904e+00 1.116624999999999943e+02 1.602525000000000091e+03
1.509999999999999953e-01 5.017050000000000676e-01 4.311304999999999943e+00 1.116535000000000082e+02 1.602529999999999973e+03
1.519999999999999962e-01 5.017034999999999689e-01 4.265399999999999636e+00 1.116384999999999934e+02 1.602529999999999973e+03
1.529999999999999971e-01 5.017019999999999813e-01 4.217615000000000336e+00 1.116204999999999927e+02 1.602529999999999973e+03
1.539999999999999980e-01 5.017015000000000224e-01 4.169934999999999725e+00 1.116039999999999992e+02 1.602529999999999973e+03
1.549999999999999989e-01 5.017015000000000224e-01 4.124024999999999608e+00 1.115889999999999986e+02 1.602529999999999973e+03
1.559999999999999998e-01 5.017015000000000224e-01 4.081170000000000186e+00 1.115794999999999959e+02 1.602529999999999973e+03
1.570000000000000007e-01 5.017034999999999689e-01 4.042259999999999742e+00 1.115739999999999981e+02 1.602525000000000091e+03
1.580000000000000016e-01 5.017059999999999853e-01 4.007794999999999774e+00 1.115734999999999957e+02 1.602529999999999973e+03
1.590000000000000024e-01 5.017089999999999606e-01 3.977879999999999860e+00 1.115759999999999934e+02 1.602529999999999973e+03
