# t [s], A [cm^2], U [cm/s], P [cPa], c [cm/s]
1.000000000000000021e-03 4.670799999999999952e-01 3.561749999999995475e-03 9.710490000000000066e+01 1.504954999999999927e+03
2.000000000000000042e-03 4.670730000000000159e-01 -8.047549999999998802e-04 9.708465000000001055e+01 1.504950000000000045e+03
3.000000000000000062e-03 4.671070000000000499e-01 7.374805000000000943e-02 9.715604999999999336e+01 1.504970000000000027e+03
4.000000000000000083e-03 4.671469999999999789e-01 1.650713500000000056e-01 9.726564999999999372e+01 1.505005000000000109e+03
5.000000000000000104e-03 4.671425000000000161e-01 1.654535000000000033e-01 9.726030000000000086e+01 1.505005000000000109e+03
6.000000000000000125e-03 4.671035000000000048e-01 8.737500000000000822e-02 9.711440000000000339e+01 1.504974999999999909e+03
7.000000000000000146e-03 4.670634999999999648e-01 3.419999999999978613e-03 9.690084999999999127e+01 1.504920000000000073e+03
8.000000000000000167e-03 4.670144999999999991e-01 -1.092945000000000721e-01 9.660775000000001000e+01 1.504849999999999909e+03
9.000000000000001055e-03 4.669294999999999973e-01 -3.115499999999999936e-01 9.615890000000000271e+01 1.504744999999999891e+03
1.000000000000000194e-02 4.668019999999999392e-01 -6.168899999999999384e-01 9.550990000000000180e+01 1.504585000000000036e+03
1.099999999999999936e-02 4.666275000000000284e-01 -1.030574999999999797e+00 9.462395000000000778e+01 1.504369999999999891e+03
1.200000000000000025e-02 4.663924999999999876e-01 -1.566514999999999880e+00 9.345305000000000462e+01 1.504070000000000164e+03
1.300000000000000114e-02 4.660994999999999999e-01 -2.207234999999999836e+00 9.198265000000000668e+01 1.503695000000000164e+03
1.400000000000000203e-02 4.657715000000000050e-01 -2.875815000000000232e+00 9.027734999999999843e+01 1.503244999999999891e+03
1.499999999999999944e-02 4.654484999999999872e-01 -3.457079999999999487e+00 8.847310000000000230e+01 1.502750000000000000e+03
1.600000000000000033e-02 4.651640000000000219e-01 -3.846012499999999612e+00 8.672319999999999141e+01 1.502255000000000109e+03
1.700000000000000122e-02 4.649349999999999872e-01 -3.985235500000000375e+00 8.514275000000000659e+01 1.501780000000000200e+03
1.800000000000000211e-02 4.647554999999999881e-01 -3.875332999999999917e+00 8.377774999999999750e+01 1.501345000000000027e+03
1.900000000000000300e-02 4.646055000000000046e-01 -3.562959499999999835e+00 8.260470000000000823e+01 1.500950000000000045e+03
2.000000000000000042e-02 4.644595000000000251e-01 -3.117954500000000184e+00 8.155150000000000432e+01 1.500575000000000045e+03
2.100000000000000130e-02 4.642959999999999865e-01 -2.609039500000000178e+00 8.052764999999999418e+01 1.500214999999999918e+03
2.200000000000000219e-02 4.641004999999999714e-01 -2.084655000000000147e+00 7.945504999999999995e+01 1.499840000000000146e+03
2.299999999999999961e-02 4.638729999999999798e-01 -1.563660000000000050e+00 7.828915000000000646e+01 1.499440000000000055e+03
2.400000000000000050e-02 4.636204999999999909e-01 -1.037924999999999986e+00 7.702639999999999532e+01 1.499025000000000091e+03
2.500000000000000139e-02 4.633559999999999901e-01 -4.846350000000001490e-01 7.569499999999999318e+01 1.498590000000000146e+03
2.600000000000000228e-02 4.630929999999999769e-01 1.174999999999997158e-01 7.433615000000000350e+01 1.498144999999999982e+03
2.700000000000000316e-02 4.628360000000000252e-01 7.744849999999998680e-01 7.298345000000000482e+01 1.497700000000000045e+03
2.800000000000000058e-02 4.625830000000000219e-01 1.469885000000000108e+00 7.164724999999999966e+01 1.497255000000000109e+03
2.900000000000000147e-02 4.623249999999999860e-01 2.165210000000000079e+00 7.030825000000000102e+01 1.496805000000000064e+03
3.000000000000000236e-02 4.620469999999999855e-01 2.806564999999999976e+00 6.892010000000000502e+01 1.496340000000000146e+03
3.099999999999999978e-02 4.617339999999999778e-01 3.335284999999999833e+00 6.742015000000000668e+01 1.495855000000000018e+03
3.200000000000000067e-02 4.613720000000000043e-01 3.699924999999999908e+00 6.574434999999999718e+01 1.495329999999999927e+03
3.300000000000000155e-02 4.609554999999999625e-01 3.867150000000000531e+00 6.384445000000000192e+01 1.494750000000000000e+03
3.400000000000000244e-02 4.604844999999999633e-01 3.828485000000000582e+00 6.170125000000000171e+01 1.494110000000000127e+03
3.500000000000000333e-02 4.599699999999999900e-01 3.602520000000000167e+00 5.933324999999999960e+01 1.493414999999999964e+03
3.600000000000000422e-02 4.594300000000000050e-01 3.230755000000000265e+00 5.679639999999999844e+01 1.492670000000000073e+03
3.700000000000000511e-02 4.588860000000000161e-01 2.770105000000000484e+00 5.417694999999999794e+01 1.491900000000000091e+03
3.799999999999999906e-02 4.583605000000000040e-01 2.283065000000000122e+00 5.157970000000000255e+01 1.491135000000000218e+03
3.899999999999999994e-02 4.578749999999999765e-01 1.829064999999999941e+00 4.911395000000000266e+01 1.490389999999999873e+03
4.000000000000000083e-02 4.574475000000000069e-01 1.457980000000000498e+00 4.688145000000000095e+01 1.489699999999999818e+03
4.100000000000000172e-02 4.570895000000000374e-01 1.206985000000000419e+00 4.496730000000000160e+01 1.489090000000000146e+03
4.200000000000000261e-02 4.568094999999999795e-01 1.099925000000000264e+00 4.343439999999999657e+01 1.488575000000000045e+03
4.300000000000000350e-02 4.566115000000000035e-01 1.149200000000000221e+00 4.232274999999999920e+01 1.488170000000000073e+03
4.400000000000000439e-02 4.564954999999999985e-01 1.358805000000000041e+00 4.165099999999999625e+01 1.487889999999999873e+03
4.499999999999999833e-02 4.564600000000000324e-01 1.727755999999999847e+00 4.142095000000000482e+01 1.487735000000000127e+03
4.599999999999999922e-02 4.565029999999999921e-01 2.253104999999999691e+00 4.162225000000000108e+01 1.487704999999999927e+03
4.700000000000000011e-02 4.566204999999999847e-01 2.931849999999999845e+00 4.223754999999999882e+01 1.487799999999999955e+03
4.800000000000000100e-02 4.568094999999999795e-01 3.761662999999999979e+00 4.324564999999999770e+01 1.488019999999999982e+03
4.900000000000000189e-02 4.570675000000000154e-01 4.740344499999999961e+00 4.462359999999999616e+01 1.488349999999999909e+03
5.000000000000000278e-02 4.573899999999999633e-01 5.864518499999999968e+00 4.634749999999999659e+01 1.488784999999999854e+03
5.100000000000000366e-02 4.577725000000000266e-01 7.128169999999999895e+00 4.839090000000000202e+01 1.489320000000000164e+03
5.200000000000000455e-02 4.582100000000000062e-01 8.521060000000000301e+00 5.072449999999999903e+01 1.489950000000000045e+03
5.300000000000000544e-02 4.586955000000000338e-01 1.002828000000000053e+01 5.331449999999999534e+01 1.490659999999999854e+03
5.399999999999999939e-02 4.592205000000000314e-01 1.163021500000000152e+01 5.612245000000000061e+01 1.491444999999999936e+03
5.500000000000000028e-02 4.597769999999999913e-01 1.330345999999999940e+01 5.910569999999999879e+01 1.492295000000000073e+03
5.600000000000000117e-02 4.603559999999999874e-01 1.502205999999999975e+01 6.221889999999999787e+01 1.493195000000000164e+03
5.700000000000000205e-02 4.609480000000000244e-01 1.675935499999999934e+01 6.541564999999999941e+01 1.494125000000000000e+03
5.800000000000000294e-02 4.615445000000000242e-01 1.848955000000000126e+01 6.865125000000000455e+01 1.495079999999999927e+03
5.900000000000000383e-02 4.621385000000000076e-01 2.018949999999999889e+01 7.188474999999999682e+01 1.496049999999999955e+03
6.000000000000000472e-02 4.627240000000000242e-01 2.183964999999999890e+01 7.508105000000000473e+01 1.497014999999999873e+03
6.099999999999999867e-02 4.632959999999999856e-01 2.342479999999999762e+01 7.821274999999999977e+01 1.497974999999999909e+03
6.199999999999999956e-02 4.638535000000000297e-01 2.493440000000000012e+01 8.126044999999999163e+01 1.498920000000000073e+03
6.300000000000000044e-02 4.643940000000000290e-01 2.636240000000000094e+01 8.421320000000000050e+01 1.499845000000000027e+03
6.400000000000000133e-02 4.649185000000000123e-01 2.770660000000000167e+01 8.706804999999999950e+01 1.500744999999999891e+03
6.500000000000000222e-02 4.654285000000000228e-01 2.896829999999999927e+01 8.982859999999999445e+01 1.501625000000000000e+03
6.600000000000000311e-02 4.659260000000000068e-01 3.015129999999999910e+01 9.250499999999999545e+01 1.502485000000000127e+03
6.700000000000000400e-02 4.664135000000000364e-01 3.126140000000000185e+01 9.510999999999999943e+01 1.503325000000000045e+03
6.800000000000000488e-02 4.668940000000000312e-01 3.230545000000000044e+01 9.766044999999999732e+01 1.504150000000000091e+03
6.900000000000000577e-02 4.673715000000000508e-01 3.329074999999999562e+01 1.001722499999999911e+02 1.504960000000000036e+03
7.000000000000000666e-02 4.678480000000000416e-01 3.422449999999999903e+01 1.026628000000000043e+02 1.505759999999999991e+03
7.100000000000000755e-02 4.683249999999999913e-01 3.511299999999999955e+01 1.051461500000000058e+02 1.506570000000000164e+03
7.200000000000000844e-02 4.688054999999999861e-01 3.596160000000000423e+01 1.076330000000000098e+02 1.507365000000000009e+03
7.300000000000000933e-02 4.692895000000000261e-01 3.677380000000000138e+01 1.101310000000000002e+02 1.508164999999999964e+03
7.399999999999999634e-02 4.697774999999999590e-01 3.755134999999999934e+01 1.126435000000000031e+02 1.508974999999999909e+03
7.499999999999999722e-02 4.702675000000000050e-01 3.829395000000000238e+01 1.151670000000000016e+02 1.509789999999999964e+03
7.599999999999999811e-02 4.707584999999999686e-01 3.899929999999999808e+01 1.176955000000000098e+02 1.510595000000000027e+03
7.699999999999999900e-02 4.712480000000000002e-01 3.966324999999999790e+01 1.202150000000000034e+02 1.511404999999999973e+03
7.799999999999999989e-02 4.717314999999999703e-01 4.028014999999999901e+01 1.227125000000000057e+02 1.512210000000000036e+03
7.900000000000000078e-02 4.722069999999999879e-01 4.084320000000000306e+01 1.251670000000000016e+02 1.513005000000000109e+03
8.000000000000000167e-02 4.726690000000000058e-01 4.134505000000000052e+01 1.275585000000000093e+02 1.513779999999999973e+03
8.100000000000000255e-02 4.731134999999999646e-01 4.177824999999999989e+01 1.298650000000000091e+02 1.514534999999999854e+03
8.200000000000000344e-02 4.735375000000000001e-01 4.213554999999999495e+01 1.320665000000000191e+02 1.515255000000000109e+03
8.300000000000000433e-02 4.739369999999999972e-01 4.241065000000000396e+01 1.341419999999999959e+02 1.515950000000000045e+03
8.400000000000000522e-02 4.743084999999999662e-01 4.259815000000000396e+01 1.360749999999999886e+02 1.516599999999999909e+03
8.500000000000000611e-02 4.746504999999999752e-01 4.269424999999999670e+01 1.378499999999999943e+02 1.517200000000000045e+03
8.600000000000000699e-02 4.749605000000000077e-01 4.269655000000000200e+01 1.394560000000000173e+02 1.517759999999999991e+03
8.700000000000000788e-02 4.752370000000000205e-01 4.260444999999999993e+01 1.408865000000000123e+02 1.518259999999999991e+03
8.800000000000000877e-02 4.754805000000000281e-01 4.241899999999999693e+01 1.421374999999999886e+02 1.518704999999999927e+03
8.899999999999999578e-02 4.756910000000000305e-01 4.214305000000000234e+01 1.432099999999999795e+02 1.519105000000000018e+03
8.999999999999999667e-02 4.758689999999999864e-01 4.178095000000000425e+01 1.441080000000000041e+02 1.519440000000000055e+03
9.099999999999999756e-02 4.760170000000000234e-01 4.133879999999999910e+01 1.448394999999999868e+02 1.519730000000000018e+03
9.199999999999999845e-02 4.761364999999999625e-01 4.082390000000000185e+01 1.454155000000000086e+02 1.519970000000000027e+03
9.299999999999999933e-02 4.762299999999999867e-01 4.024469999999999459e+01 1.458489999999999895e+02 1.520154999999999973e+03
9.400000000000000022e-02 4.763000000000000012e-01 3.961070000000000135e+01 1.461550000000000011e+02 1.520305000000000064e+03
9.500000000000000111e-02 4.763510000000000244e-01 3.893200000000000216e+01 1.463514999999999873e+02 1.520420000000000073e+03
9.600000000000000200e-02 4.763844999999999885e-01 3.821899999999999409e+01 1.464549999999999841e+02 1.520500000000000000e+03
9.700000000000000289e-02 4.764049999999999674e-01 3.748199999999999932e+01 1.464834999999999923e+02 1.520549999999999955e+03
9.800000000000000377e-02 4.764154999999999918e-01 3.673120000000000118e+01 1.464555000000000007e+02 1.520569999999999936e+03
9.900000000000000466e-02 4.764189999999999814e-01 3.597599999999999909e+01 1.463865000000000123e+02 1.520579999999999927e+03
1.000000000000000056e-01 4.764169999999999794e-01 3.522494999999999976e+01 1.462920000000000016e+02 1.520574999999999818e+03
1.010000000000000064e-01 4.764125000000000165e-01 3.448519999999999897e+01 1.461845000000000141e+02 1.520565000000000055e+03
1.020000000000000073e-01 4.764079999999999426e-01 3.376259999999999906e+01 1.460745000000000005e+02 1.520545000000000073e+03
1.030000000000000082e-01 4.764030000000000209e-01 3.306125000000000114e+01 1.459689999999999941e+02 1.520519999999999982e+03
1.040000000000000091e-01 4.763990000000000169e-01 3.238380000000000081e+01 1.458729999999999905e+02 1.520500000000000000e+03
1.050000000000000100e-01 4.763965000000000005e-01 3.173114999999999952e+01 1.457884999999999991e+02 1.520480000000000018e+03
1.059999999999999970e-01 4.763944999999999985e-01 3.110244999999999749e+01 1.457144999999999868e+02 1.520460000000000036e+03
1.069999999999999979e-01 4.763924999999999965e-01 3.049580000000000268e+01 1.456460000000000150e+02 1.520434999999999945e+03
1.079999999999999988e-01 4.763890000000000069e-01 2.990784999999999982e+01 1.455790000000000077e+02 1.520414999999999964e+03
1.089999999999999997e-01 4.763825000000000420e-01 2.933435000000000059e+01 1.455045000000000073e+02 1.520389999999999873e+03
1.100000000000000006e-01 4.763715000000000033e-01 2.877055000000000007e+01 1.454145000000000039e+02 1.520365000000000009e+03
1.110000000000000014e-01 4.763545000000000140e-01 2.821119999999999806e+01 1.453000000000000114e+02 1.520324999999999818e+03
1.120000000000000023e-01 4.763290000000000024e-01 2.765099999999999980e+01 1.451510000000000105e+02 1.520284999999999854e+03
1.130000000000000032e-01 4.762945000000000095e-01 2.708494999999999919e+01 1.449594999999999914e+02 1.520224999999999909e+03
1.140000000000000041e-01 4.762490000000000334e-01 2.650840000000000174e+01 1.447164999999999964e+02 1.520155000000000200e+03
1.150000000000000050e-01 4.761920000000000597e-01 2.591750000000000043e+01 1.444164999999999850e+02 1.520065000000000055e+03
1.160000000000000059e-01 4.761219999999999897e-01 2.530914999999999893e+01 1.440529999999999973e+02 1.519960000000000036e+03
1.170000000000000068e-01 4.760389999999999899e-01 2.468140000000000001e+01 1.436239999999999952e+02 1.519835000000000036e+03
1.180000000000000077e-01 4.759435000000000193e-01 2.403330000000000055e+01 1.431290000000000191e+02 1.519694999999999936e+03
1.190000000000000085e-01 4.758355000000000223e-01 2.336505000000000010e+01 1.425695000000000050e+02 1.519525000000000091e+03
1.200000000000000094e-01 4.757164999999999866e-01 2.267819999999999681e+01 1.419474999999999909e+02 1.519345000000000027e+03
1.209999999999999964e-01 4.755865000000000231e-01 2.197529999999999717e+01 1.412704999999999984e+02 1.519144999999999982e+03
1.219999999999999973e-01 4.754475000000000229e-01 2.126014999999999944e+01 1.405445000000000277e+02 1.518934999999999945e+03
1.229999999999999982e-01 4.753030000000000310e-01 2.053725000000000023e+01 1.397800000000000011e+02 1.518704999999999927e+03
1.239999999999999991e-01 4.751530000000000475e-01 1.981204999999999927e+01 1.389869999999999948e+02 1.518470000000000027e+03
1.250000000000000000e-01 4.750005000000000477e-01 1.909065000000000012e+01 1.381775000000000091e+02 1.518220000000000027e+03
1.260000000000000009e-01 4.748485000000000067e-01 1.837950000000000017e+01 1.373639999999999759e+02 1.517974999999999909e+03
1.270000000000000018e-01 4.746985000000000232e-01 1.768515000000000015e+01 1.365595000000000141e+02 1.517724999999999909e+03
1.280000000000000027e-01 4.745530000000000026e-01 1.701415000000000077e+01 1.357750000000000057e+02 1.517480000000000018e+03
1.290000000000000036e-01 4.744145000000000167e-01 1.637279999999999802e+01 1.350229999999999961e+02 1.517240000000000009e+03
1.300000000000000044e-01 4.742849999999999566e-01 1.576685000000000159e+01 1.343139999999999930e+02 1.517009999999999991e+03
1.310000000000000053e-01 4.741649999999999476e-01 1.520135000000000147e+01 1.336585000000000036e+02 1.516800000000000182e+03
1.320000000000000062e-01 4.740575000000000205e-01 1.468045000000000044e+01 1.330625000000000000e+02 1.516599999999999909e+03
1.330000000000000071e-01 4.739619999999999944e-01 1.420744999999999969e+01 1.325330000000000155e+02 1.516420000000000073e+03
1.340000000000000080e-01 4.738805000000000378e-01 1.378425000000000011e+01 1.320740000000000123e+02 1.516259999999999991e+03
1.350000000000000089e-01 4.738114999999999966e-01 1.341199999999999903e+01 1.316860000000000070e+02 1.516119999999999891e+03
1.360000000000000098e-01 4.737565000000000248e-01 1.309044499999999900e+01 1.313704999999999927e+02 1.516005000000000109e+03
1.370000000000000107e-01 4.737135000000000096e-01 1.281841500000000167e+01 1.311239999999999952e+02 1.515900000000000091e+03
1.380000000000000115e-01 4.736825000000000063e-01 1.259365000000000023e+01 1.309429999999999836e+02 1.515829999999999927e+03
1.390000000000000124e-01 4.736619999999999719e-01 1.241324999999999967e+01 1.308220000000000027e+02 1.515764999999999873e+03
1.400000000000000133e-01 4.736510000000000442e-01 1.227335000000000065e+01 1.307549999999999955e+02 1.515724999999999909e+03
1.410000000000000142e-01 4.736474999999999991e-01 1.216969999999999885e+01 1.307334999999999923e+02 1.515694999999999936e+03
1.420000000000000151e-01 4.736509999999999332e-01 1.209775000000000134e+01 1.307500000000000000e+02 1.515684999999999945e+03
1.430000000000000160e-01 4.736589999999999412e-01 1.205269999999999975e+01 1.307959999999999923e+02 1.515674999999999955e+03
1.440000000000000169e-01 4.736704999999999943e-01 1.202965000000000018e+01 1.308639999999999759e+02 1.515684999999999945e+03
1.450000000000000178e-01 4.736839999999999939e-01 1.202404999999999902e+01 1.309470000000000027e+02 1.515695000000000164e+03
1.459999999999999909e-01 4.736985000000000223e-01 1.203154999999999930e+01 1.310375000000000227e+02 1.515715000000000146e+03
1.469999999999999918e-01 4.737129999999999952e-01 1.204804999999999993e+01 1.311284999999999741e+02 1.515730000000000018e+03
1.479999999999999927e-01 4.737259999999999804e-01 1.207000000000000028e+01 1.312164999999999964e+02 1.515744999999999891e+03
1.489999999999999936e-01 4.737379999999999924e-01 1.209434999999999860e+01 1.312975000000000136e+02 1.515769999999999982e+03
1.499999999999999944e-01 4.737480000000000024e-01 1.211855000000000082e+01 1.313675000000000068e+02 1.515784999999999854e+03
1.509999999999999953e-01 4.737560000000000104e-01 1.214055000000000106e+01 1.314254999999999995e+02 1.515799999999999955e+03
1.519999999999999962e-01 4.737609999999999877e-01 1.215895000000000081e+01 1.314710000000000036e+02 1.515815000000000055e+03
1.529999999999999971e-01 4.737645000000000328e-01 1.217275000000000063e+01 1.315035000000000025e+02 1.515824999999999818e+03
1.539999999999999980e-01 4.737654999999999506e-01 1.218135000000000012e+01 1.315235000000000127e+02 1.515824999999999818e+03
1.549999999999999989e-01 4.737645000000000328e-01 1.218464999999999954e+01 1.315335000000000036e+02 1.515829999999999927e+03
1.559999999999999998e-01 4.737629999999999897e-01 1.218290000000000006e+01 1.315344999999999800e+02 1.515829999999999927e+03
1.570000000000000007e-01 4.737600000000000144e-01 1.217664999999999864e+01 1.315294999999999845e+02 1.515829999999999927e+03
1.580000000000000016e-01 4.737569999999999837e-01 1.216669999999999874e+01 1.315204999999999984e+02 1.515829999999999927e+03
1.590000000000000024e-01 4.737540000000000084e-01 1.215390000000000015e+01 1.315104999999999791e+02 1.515825000000000045e+03
