# t [s], A [cm^2], U [cm/s], P [cPa], c [cm/s]
1.000000000000000021e-03 1.302449999999999997e-01 6.266075999999999313e-01 9.654070000000000107e+01 1.973000000000000000e+03
2.000000000000000042e-03 1.301944999999999908e-01 2.565084499999999768e+00 9.225560000000000116e+01 1.972380000000000109e+03
3.000000000000000062e-03 1.300719999999999932e-01 4.821865599999999752e+00 8.684839999999999804e+01 1.970929999999999836e+03
4.000000000000000083e-03 1.299154999999999893e-01 7.304734999999999978e+00 8.168625000000000114e+01 1.969089999999999918e+03
5.000000000000000104e-03 1.297564999999999968e-01 9.873874999999999957e+00 7.761715000000000941e+01 1.967235000000000127e+03
6.000000000000000125e-03 1.296070000000000000e-01 1.224810000000000088e+01 7.446649999999999636e+01 1.965519999999999982e+03
7.000000000000000146e-03 1.294690000000000007e-01 1.424045500000000075e+01 7.172175000000000011e+01 1.963965000000000146e+03
8.000000000000000167e-03 1.293455000000000021e-01 1.588119999999999976e+01 6.930410000000000537e+01 1.962595000000000027e+03
9.000000000000001055e-03 1.292405000000000082e-01 1.723645000000000138e+01 6.734154999999999802e+01 1.961445000000000164e+03
1.000000000000000194e-02 1.291535000000000044e-01 1.832300000000000040e+01 6.579774999999999352e+01 1.960505000000000109e+03
1.099999999999999936e-02 1.290830000000000033e-01 1.916464999999999819e+01 6.459329999999999927e+01 1.959750000000000000e+03
1.200000000000000025e-02 1.290280000000000038e-01 1.978889999999999816e+01 6.367370000000000374e+01 1.959170000000000073e+03
1.300000000000000114e-02 1.289840000000000153e-01 2.020814999999999984e+01 6.293965000000000032e+01 1.958720000000000027e+03
1.400000000000000203e-02 1.289484999999999937e-01 2.047119999999999962e+01 6.234239999999999782e+01 1.958365000000000009e+03
1.499999999999999944e-02 1.289240000000000108e-01 2.071754999999999924e+01 6.208355000000000246e+01 1.958125000000000000e+03
1.600000000000000033e-02 1.289175000000000182e-01 2.113674999999999926e+01 6.259949999999999903e+01 1.958075000000000045e+03
1.700000000000000122e-02 1.289379999999999971e-01 2.185279999999999845e+01 6.426184999999999548e+01 1.958305000000000064e+03
1.800000000000000211e-02 1.289885000000000059e-01 2.283194999999999908e+01 6.704519999999999413e+01 1.958865000000000009e+03
1.900000000000000300e-02 1.290634999999999977e-01 2.388074999999999903e+01 7.042340000000000089e+01 1.959690000000000055e+03
2.000000000000000042e-02 1.291479999999999850e-01 2.472659999999999769e+01 7.354974999999998886e+01 1.960610000000000127e+03
2.100000000000000130e-02 1.292214999999999892e-01 2.513049999999999784e+01 7.559664999999999679e+01 1.961440000000000055e+03
2.200000000000000219e-02 1.292685000000000084e-01 2.497605000000000075e+01 7.607235000000000014e+01 1.961985000000000127e+03
2.299999999999999961e-02 1.292810000000000070e-01 2.430185000000000173e+01 7.498245000000000005e+01 1.962154999999999973e+03
2.400000000000000050e-02 1.292605000000000004e-01 2.327154999999999774e+01 7.278184999999999150e+01 1.961960000000000036e+03
2.500000000000000139e-02 1.292169999999999985e-01 2.210060000000000002e+01 7.016089999999999804e+01 1.961510000000000218e+03
2.600000000000000228e-02 1.291645000000000154e-01 2.097684999999999889e+01 6.777439999999999998e+01 1.960940000000000055e+03
2.700000000000000316e-02 1.291150000000000075e-01 2.000710000000000122e+01 6.603019999999999357e+01 1.960404999999999973e+03
2.800000000000000058e-02 1.290759999999999963e-01 1.920329999999999870e+01 6.500809999999999889e+01 1.959980000000000018e+03
2.900000000000000147e-02 1.290495000000000114e-01 1.850600000000000023e+01 6.451140000000000896e+01 1.959679999999999836e+03
3.000000000000000236e-02 1.290300000000000058e-01 1.782764999999999844e+01 6.420444999999999425e+01 1.959464999999999918e+03
3.099999999999999978e-02 1.290129999999999888e-01 1.709710000000000107e+01 6.377089999999999748e+01 1.959280000000000200e+03
3.200000000000000067e-02 1.289929999999999966e-01 1.629189999999999827e+01 6.303840000000000288e+01 1.959059999999999945e+03
3.300000000000000155e-02 1.289675000000000127e-01 1.544985000000000142e+01 6.203770000000000095e+01 1.958784999999999854e+03
3.400000000000000244e-02 1.289389999999999981e-01 1.465794999999999959e+01 6.098434999999999206e+01 1.958474999999999909e+03
3.500000000000000333e-02 1.289119999999999988e-01 1.402464999999999939e+01 6.019745000000000346e+01 1.958179999999999836e+03
3.600000000000000422e-02 1.288944999999999952e-01 1.364379999999999882e+01 5.998600000000000421e+01 1.957980000000000018e+03
3.700000000000000511e-02 1.288925000000000209e-01 1.356429999999999936e+01 6.054070000000000107e+01 1.957940000000000055e+03
3.799999999999999906e-02 1.289084999999999814e-01 1.377200000000000024e+01 6.186594999999999800e+01 1.958105000000000018e+03
3.899999999999999994e-02 1.289430000000000021e-01 1.418965000000000032e+01 6.376760000000000161e+01 1.958460000000000036e+03
4.000000000000000083e-02 1.289894999999999792e-01 1.469174999999999898e+01 6.589369999999999550e+01 1.958960000000000036e+03
4.100000000000000172e-02 1.290410000000000168e-01 1.512914999999999921e+01 6.781125000000000114e+01 1.959509999999999991e+03
4.200000000000000261e-02 1.290860000000000063e-01 1.535555000000000092e+01 6.909335000000000093e+01 1.960000000000000000e+03
4.300000000000000350e-02 1.291144999999999932e-01 1.525059999999999860e+01 6.939589999999999748e+01 1.960320000000000164e+03
4.400000000000000439e-02 1.291194999999999982e-01 1.473499999999999943e+01 6.850800000000000978e+01 1.960375000000000000e+03
4.499999999999999833e-02 1.290934999999999999e-01 1.377674999999999983e+01 6.637055000000000859e+01 1.960109999999999900e+03
4.599999999999999922e-02 1.290364999999999984e-01 1.238916499999999843e+01 6.306595000000000084e+01 1.959500000000000000e+03
4.700000000000000011e-02 1.289489999999999803e-01 1.062311000000000050e+01 5.878664999999999452e+01 1.958554999999999836e+03
4.800000000000000100e-02 1.288350000000000051e-01 8.556449999999999889e+00 5.379439999999999600e+01 1.957315000000000055e+03
4.900000000000000189e-02 1.287000000000000088e-01 6.283299999999999663e+00 4.837969999999999970e+01 1.955855000000000018e+03
5.000000000000000278e-02 1.285514999999999852e-01 3.904715000000000380e+00 4.283044999999999902e+01 1.954240000000000009e+03
5.100000000000000366e-02 1.283964999999999967e-01 1.522689999999999877e+00 3.741199999999999903e+01 1.952555000000000064e+03
5.200000000000000455e-02 1.282419999999999949e-01 -7.639700000000000379e-01 3.235869999999999891e+01 1.950869999999999891e+03
5.300000000000000544e-02 1.280955000000000010e-01 -2.861574999999999758e+00 2.787375000000000114e+01 1.949264999999999873e+03
5.399999999999999939e-02 1.279615000000000058e-01 -4.682813499999999962e+00 2.413255000000000194e+01 1.947795000000000073e+03
5.500000000000000028e-02 1.278465000000000018e-01 -6.148125000000000284e+00 2.128675000000000139e+01 1.946529999999999973e+03
5.600000000000000117e-02 1.277554999999999941e-01 -7.187694999999999723e+00 1.946455000000000268e+01 1.945525000000000091e+03
5.700000000000000205e-02 1.276919999999999999e-01 -7.744350000000000733e+00 1.876769999999999783e+01 1.944815000000000055e+03
5.800000000000000294e-02 1.276595000000000091e-01 -7.777050000000000018e+00 1.926505000000000223e+01 1.944434999999999945e+03
5.900000000000000383e-02 1.276609999999999967e-01 -7.264375000000000249e+00 2.098425000000000296e+01 1.944414999999999964e+03
6.000000000000000472e-02 1.276964999999999906e-01 -6.207290000000000418e+00 2.390405000000000157e+01 1.944775000000000091e+03
6.099999999999999867e-02 1.277669999999999917e-01 -4.630384999999999529e+00 2.795029999999999859e+01 1.945505000000000109e+03
6.199999999999999956e-02 1.278704999999999981e-01 -2.581170000000000186e+00 3.299670000000000414e+01 1.946599999999999909e+03
6.300000000000000044e-02 1.280030000000000057e-01 -1.271900000000001363e-01 3.887165000000000248e+01 1.948019999999999982e+03
6.400000000000000133e-02 1.281609999999999971e-01 2.648559999999999803e+00 4.537019999999999698e+01 1.949714999999999918e+03
6.500000000000000222e-02 1.283394999999999953e-01 5.653462000000000209e+00 5.226975000000000193e+01 1.951639999999999873e+03
6.600000000000000311e-02 1.285320000000000074e-01 8.791460000000000719e+00 5.934684999999999633e+01 1.953730000000000018e+03
6.700000000000000400e-02 1.287324999999999997e-01 1.196869500000000031e+01 6.639179999999998927e+01 1.955914999999999964e+03
6.800000000000000488e-02 1.289355000000000084e-01 1.509836999999999918e+01 7.322159999999999513e+01 1.958139999999999873e+03
6.900000000000000577e-02 1.291354999999999864e-01 1.810425000000000040e+01 7.968674999999998931e+01 1.960349999999999909e+03
7.000000000000000666e-02 1.293279999999999985e-01 2.092320000000000135e+01 8.567595000000000027e+01 1.962480000000000018e+03
7.100000000000000755e-02 1.295100000000000140e-01 2.350654999999999717e+01 9.111625000000000796e+01 1.964500000000000000e+03
7.200000000000000844e-02 1.296795000000000031e-01 2.582090000000000174e+01 9.597159999999999513e+01 1.966389999999999873e+03
7.300000000000000933e-02 1.298330000000000040e-01 2.784850000000000136e+01 1.002411999999999921e+02 1.968115000000000009e+03
7.399999999999999634e-02 1.299720000000000042e-01 2.958695000000000164e+01 1.039557000000000073e+02 1.969680000000000064e+03
7.499999999999999722e-02 1.300965000000000038e-01 3.104844999999999899e+01 1.071740000000000066e+02 1.971085000000000036e+03
7.599999999999999811e-02 1.302065000000000028e-01 3.225880000000000081e+01 1.099799999999999898e+02 1.972340000000000146e+03
7.699999999999999900e-02 1.303054999999999908e-01 3.325509999999999877e+01 1.124770000000000039e+02 1.973464999999999918e+03
7.799999999999999989e-02 1.303950000000000109e-01 3.408350000000000080e+01 1.147819999999999965e+02 1.974489999999999782e+03
7.900000000000000078e-02 1.304784999999999973e-01 3.479574999999999818e+01 1.170190000000000055e+02 1.975449999999999818e+03
8.000000000000000167e-02 1.305590000000000084e-01 3.544579999999999842e+01 1.193089999999999975e+02 1.976369999999999891e+03
8.100000000000000255e-02 1.306404999999999927e-01 3.608570000000000277e+01 1.217630000000000052e+02 1.977295000000000073e+03
8.200000000000000344e-02 1.307244999999999935e-01 3.676234999999999786e+01 1.244765000000000015e+02 1.978255000000000109e+03
8.300000000000000433e-02 1.308149999999999868e-01 3.751395000000000124e+01 1.275174999999999983e+02 1.979284999999999854e+03
8.400000000000000522e-02 1.309135000000000160e-01 3.836759999999999593e+01 1.309259999999999877e+02 1.980389999999999873e+03
8.500000000000000611e-02 1.310214999999999852e-01 3.933729999999999905e+01 1.347080000000000268e+02 1.981605000000000018e+03
8.600000000000000699e-02 1.311384999999999912e-01 4.042374999999999829e+01 1.388385000000000105e+02 1.982924999999999955e+03
8.700000000000000788e-02 1.312645000000000062e-01 4.161414999999999509e+01 1.432599999999999909e+02 1.984345000000000027e+03
8.800000000000000877e-02 1.313985000000000014e-01 4.288384999999999536e+01 1.478899999999999864e+02 1.985855000000000018e+03
8.899999999999999578e-02 1.315379999999999883e-01 4.419835000000000491e+01 1.526254999999999882e+02 1.987429999999999836e+03
8.999999999999999667e-02 1.316805000000000059e-01 4.551604999999999990e+01 1.573500000000000227e+02 1.989039999999999964e+03
9.099999999999999756e-02 1.318235000000000101e-01 4.679094999999999516e+01 1.619449999999999932e+02 1.990654999999999973e+03
9.199999999999999845e-02 1.319629999999999970e-01 4.797620000000000573e+01 1.662920000000000016e+02 1.992239999999999782e+03
9.299999999999999933e-02 1.320955000000000046e-01 4.902635000000000076e+01 1.702830000000000155e+02 1.993759999999999991e+03
9.400000000000000022e-02 1.322200000000000042e-01 4.990055000000000263e+01 1.738269999999999982e+02 1.995175000000000182e+03
9.500000000000000111e-02 1.323314999999999908e-01 5.056419999999999959e+01 1.768489999999999895e+02 1.996460000000000036e+03
9.600000000000000200e-02 1.324295000000000055e-01 5.099075000000000557e+01 1.792980000000000018e+02 1.997585000000000036e+03
9.700000000000000289e-02 1.325109999999999899e-01 5.116264999999999930e+01 1.811454999999999984e+02 1.998535000000000082e+03
9.800000000000000377e-02 1.325765000000000138e-01 5.107220000000000226e+01 1.823870000000000005e+02 1.999295000000000073e+03
9.900000000000000466e-02 1.326249999999999929e-01 5.072115000000000151e+01 1.830380000000000109e+02 1.999865000000000009e+03
1.000000000000000056e-01 1.326565000000000105e-01 5.012069999999999936e+01 1.831345000000000027e+02 2.000244999999999891e+03
1.010000000000000064e-01 1.326714999999999978e-01 4.929039999999999822e+01 1.827295000000000016e+02 2.000434999999999945e+03
1.020000000000000073e-01 1.326714999999999978e-01 4.825704999999999956e+01 1.818915000000000077e+02 2.000460000000000036e+03
1.030000000000000082e-01 1.326589999999999991e-01 4.705340000000000344e+01 1.806965000000000146e+02 2.000335000000000036e+03
1.040000000000000091e-01 1.326350000000000029e-01 4.571640000000000015e+01 1.792289999999999850e+02 2.000069999999999936e+03
1.050000000000000100e-01 1.326019999999999976e-01 4.428544999999999732e+01 1.775760000000000218e+02 1.999710000000000036e+03
1.059999999999999970e-01 1.325619999999999854e-01 4.280084999999999695e+01 1.758230000000000075e+02 1.999269999999999982e+03
1.069999999999999979e-01 1.325179999999999969e-01 4.130190000000000339e+01 1.740509999999999877e+02 1.998775000000000091e+03
1.079999999999999988e-01 1.324720000000000064e-01 3.982524999999999693e+01 1.723344999999999914e+02 1.998255000000000109e+03
1.089999999999999997e-01 1.324259999999999882e-01 3.840395000000000181e+01 1.707369999999999948e+02 1.997730000000000018e+03
1.100000000000000006e-01 1.323819999999999997e-01 3.706555000000000177e+01 1.693104999999999905e+02 1.997230000000000018e+03
1.110000000000000014e-01 1.323410000000000142e-01 3.583185000000000286e+01 1.680919999999999845e+02 1.996764999999999873e+03
1.120000000000000023e-01 1.323060000000000069e-01 3.471779999999999688e+01 1.671039999999999850e+02 1.996355000000000018e+03
1.130000000000000032e-01 1.322754999999999903e-01 3.373154999999999859e+01 1.663545000000000016e+02 1.996000000000000000e+03
1.140000000000000041e-01 1.322514999999999941e-01 3.287415000000000020e+01 1.658354999999999961e+02 1.995720000000000027e+03
1.150000000000000050e-01 1.322329999999999894e-01 3.214034999999999798e+01 1.655275000000000034e+02 1.995505000000000109e+03
1.160000000000000059e-01 1.322200000000000042e-01 3.151865000000000094e+01 1.653965000000000032e+02 1.995345000000000027e+03
1.170000000000000068e-01 1.322119999999999962e-01 3.099269999999999925e+01 1.654000000000000057e+02 1.995244999999999891e+03
1.180000000000000077e-01 1.322079999999999922e-01 3.054210000000000136e+01 1.654890000000000043e+02 1.995190000000000055e+03
1.190000000000000085e-01 1.322065000000000046e-01 3.014379999999999882e+01 1.656105000000000018e+02 1.995159999999999854e+03
1.200000000000000094e-01 1.322059999999999902e-01 2.977315000000000111e+01 1.657085000000000150e+02 1.995150000000000091e+03
1.209999999999999964e-01 1.322055000000000036e-01 2.940559999999999974e+01 1.657300000000000182e+02 1.995130000000000109e+03
1.219999999999999973e-01 1.322035000000000016e-01 2.901740000000000208e+01 1.656254999999999882e+02 1.995099999999999909e+03
1.229999999999999982e-01 1.321974999999999956e-01 2.858719999999999928e+01 1.653534999999999968e+02 1.995039999999999964e+03
1.239999999999999991e-01 1.321879999999999999e-01 2.809700000000000131e+01 1.648789999999999907e+02 1.994924999999999955e+03
1.250000000000000000e-01 1.321734999999999993e-01 2.753284999999999982e+01 1.641800000000000068e+02 1.994759999999999991e+03
1.260000000000000009e-01 1.321525000000000061e-01 2.688555000000000206e+01 1.632429999999999950e+02 1.994519999999999982e+03
1.270000000000000018e-01 1.321249999999999925e-01 2.615109999999999957e+01 1.620690000000000168e+02 1.994215000000000146e+03
1.280000000000000027e-01 1.320915000000000006e-01 2.533084999999999809e+01 1.606690000000000111e+02 1.993829999999999927e+03
1.290000000000000036e-01 1.320514999999999883e-01 2.443104999999999905e+01 1.590670000000000073e+02 1.993384999999999991e+03
1.300000000000000044e-01 1.320054999999999978e-01 2.346300000000000097e+01 1.572950000000000159e+02 1.992869999999999891e+03
1.310000000000000053e-01 1.319549999999999890e-01 2.244209999999999994e+01 1.553944999999999936e+02 1.992289999999999964e+03
1.320000000000000062e-01 1.318999999999999895e-01 2.138690000000000069e+01 1.534124999999999943e+02 1.991675000000000182e+03
1.330000000000000071e-01 1.318429999999999880e-01 2.031855000000000189e+01 1.514010000000000105e+02 1.991029999999999973e+03
1.340000000000000080e-01 1.317840000000000122e-01 1.925950000000000273e+01 1.494120000000000061e+02 1.990365000000000009e+03
1.350000000000000089e-01 1.317254999999999954e-01 1.823250000000000171e+01 1.474979999999999905e+02 1.989699999999999818e+03
1.360000000000000098e-01 1.316684999999999939e-01 1.725939999999999941e+01 1.457075000000000102e+02 1.989059999999999945e+03
1.370000000000000107e-01 1.316144999999999954e-01 1.636025000000000063e+01 1.440830000000000268e+02 1.988445000000000164e+03
1.380000000000000115e-01 1.315645000000000009e-01 1.555260000000000176e+01 1.426610000000000014e+02 1.987875000000000000e+03
1.390000000000000124e-01 1.315199999999999980e-01 1.485040000000000049e+01 1.414694999999999823e+02 1.987369999999999891e+03
1.400000000000000133e-01 1.314815000000000011e-01 1.426374999999999815e+01 1.405244999999999891e+02 1.986924999999999955e+03
1.410000000000000142e-01 1.314494999999999969e-01 1.379844999999999899e+01 1.398360000000000127e+02 1.986559999999999945e+03
1.420000000000000151e-01 1.314250000000000140e-01 1.345575000000000010e+01 1.394000000000000057e+02 1.986269999999999982e+03
1.430000000000000160e-01 1.314075000000000104e-01 1.323270000000000124e+01 1.392059999999999889e+02 1.986065000000000055e+03
1.440000000000000169e-01 1.313964999999999994e-01 1.312225000000000108e+01 1.392339999999999804e+02 1.985930000000000064e+03
1.450000000000000178e-01 1.313924999999999954e-01 1.311369999999999969e+01 1.394550000000000125e+02 1.985875000000000000e+03
1.459999999999999909e-01 1.313934999999999964e-01 1.319334999999999880e+01 1.398375000000000057e+02 1.985880000000000109e+03
1.469999999999999918e-01 1.314005000000000034e-01 1.334525000000000006e+01 1.403439999999999941e+02 1.985949999999999818e+03
1.479999999999999927e-01 1.314104999999999857e-01 1.355170000000000030e+01 1.409339999999999975e+02 1.986054999999999836e+03
1.489999999999999936e-01 1.314240000000000130e-01 1.379465000000000074e+01 1.415690000000000168e+02 1.986200000000000045e+03
1.499999999999999944e-01 1.314394999999999869e-01 1.405564999999999998e+01 1.422090000000000032e+02 1.986365000000000009e+03
1.509999999999999953e-01 1.314555000000000029e-01 1.431724999999999959e+01 1.428195000000000050e+02 1.986545000000000073e+03
1.519999999999999962e-01 1.314710000000000045e-01 1.456334999999999980e+01 1.433679999999999950e+02 1.986720000000000027e+03
1.529999999999999971e-01 1.314859999999999918e-01 1.477984999999999971e+01 1.438294999999999959e+02 1.986880000000000109e+03
1.539999999999999980e-01 1.314984999999999904e-01 1.495500000000000007e+01 1.441809999999999832e+02 1.987025000000000091e+03
1.549999999999999989e-01 1.315085000000000004e-01 1.507985000000000042e+01 1.444105000000000132e+02 1.987139999999999873e+03
1.559999999999999998e-01 1.315160000000000218e-01 1.514829999999999899e+01 1.445095000000000027e+02 1.987220000000000027e+03
1.570000000000000007e-01 1.315189999999999970e-01 1.515725000000000122e+01 1.444759999999999991e+02 1.987264999999999873e+03
1.580000000000000016e-01 1.315195000000000114e-01 1.510640000000000072e+01 1.443145000000000095e+02 1.987275000000000091e+03
1.590000000000000024e-01 1.315159999999999940e-01 1.499815000000000076e+01 1.440355000000000132e+02 1.987235000000000127e+03
