# t [s], A [cm^2], U [cm/s], P [cPa], c [cm/s]
1.000000000000000021e-03 1.267900000000000138e-01 1.777558499999999930e-01 1.037074999999999960e+02 1.854625000000000000e+03
2.000000000000000042e-03 1.267729999999999968e-01 1.582753499999999924e+00 1.010050500000000113e+02 1.854384999999999991e+03
3.000000000000000062e-03 1.266970000000000041e-01 3.369988999999999901e+00 9.740635000000000332e+01 1.853410000000000082e+03
4.000000000000000083e-03 1.265784999999999827e-01 5.372762999999999955e+00 9.318500000000000227e+01 1.851924999999999955e+03
5.000000000000000104e-03 1.264374999999999805e-01 7.537329999999999863e+00 8.898210000000000264e+01 1.850174999999999955e+03
6.000000000000000125e-03 1.262894999999999990e-01 9.782295000000001295e+00 8.523439999999999372e+01 1.848355000000000018e+03
7.000000000000000146e-03 1.261454999999999937e-01 1.197380500000000048e+01 8.204415000000000191e+01 1.846610000000000127e+03
8.000000000000000167e-03 1.260089999999999821e-01 1.397586500000000065e+01 7.927500000000000568e+01 1.844965000000000146e+03
9.000000000000001055e-03 1.258805000000000063e-01 1.572555999999999976e+01 7.679314999999999714e+01 1.843460000000000036e+03
1.000000000000000194e-02 1.257645000000000013e-01 1.723160000000000025e+01 7.459405000000000996e+01 1.842105000000000018e+03
1.099999999999999936e-02 1.256629999999999969e-01 1.851869999999999905e+01 7.272180000000000177e+01 1.840929999999999836e+03
1.200000000000000025e-02 1.255749999999999922e-01 1.960285000000000011e+01 7.118580000000000041e+01 1.839940000000000055e+03
1.300000000000000114e-02 1.255020000000000024e-01 2.049609999999999843e+01 6.996125000000000682e+01 1.839119999999999891e+03
1.400000000000000203e-02 1.254429999999999990e-01 2.120674999999999955e+01 6.900300000000000011e+01 1.838454999999999927e+03
1.499999999999999944e-02 1.253940000000000055e-01 2.173799999999999955e+01 6.824354999999999905e+01 1.837920000000000073e+03
1.600000000000000033e-02 1.253544999999999798e-01 2.209989999999999810e+01 6.761404999999999177e+01 1.837494999999999891e+03
1.700000000000000122e-02 1.253225000000000033e-01 2.232824999999999704e+01 6.709680000000000177e+01 1.837154999999999973e+03
1.800000000000000211e-02 1.252979999999999927e-01 2.249184999999999945e+01 6.676554999999999040e+01 1.836914999999999964e+03
1.900000000000000300e-02 1.252850000000000075e-01 2.267624999999999957e+01 6.676990000000000691e+01 1.836789999999999964e+03
2.000000000000000042e-02 1.252854999999999941e-01 2.295329999999999870e+01 6.726680000000000348e+01 1.836820000000000164e+03
2.100000000000000130e-02 1.253039999999999987e-01 2.335389999999999944e+01 6.833750000000000568e+01 1.837034999999999854e+03
2.200000000000000219e-02 1.253390000000000060e-01 2.385754999999999981e+01 6.993590000000000373e+01 1.837440000000000055e+03
2.299999999999999961e-02 1.253875000000000128e-01 2.440104999999999791e+01 7.188824999999999932e+01 1.838009999999999991e+03
2.400000000000000050e-02 1.254445000000000143e-01 2.490075000000000216e+01 7.393965000000000032e+01 1.838674999999999955e+03
2.500000000000000139e-02 1.255034999999999901e-01 2.527774999999999750e+01 7.582374999999998977e+01 1.839365000000000009e+03
2.600000000000000228e-02 1.255580000000000029e-01 2.547879999999999967e+01 7.732970000000000255e+01 1.840009999999999991e+03
2.700000000000000316e-02 1.256029999999999924e-01 2.548660000000000281e+01 7.834620000000001028e+01 1.840550000000000182e+03
2.800000000000000058e-02 1.256364999999999843e-01 2.531904999999999717e+01 7.887379999999998859e+01 1.840960000000000036e+03
2.900000000000000147e-02 1.256585000000000063e-01 2.501834999999999809e+01 7.900585000000000946e+01 1.841244999999999891e+03
3.000000000000000236e-02 1.256714999999999915e-01 2.463644999999999996e+01 7.888790000000000191e+01 1.841409999999999854e+03
3.099999999999999978e-02 1.256780000000000119e-01 2.421945000000000192e+01 7.867019999999999413e+01 1.841505000000000109e+03
3.200000000000000067e-02 1.256815000000000015e-01 2.379650000000000176e+01 7.846735000000001037e+01 1.841550000000000182e+03
3.300000000000000155e-02 1.256839999999999902e-01 2.337570000000000192e+01 7.833449999999999136e+01 1.841579999999999927e+03
3.400000000000000244e-02 1.256859999999999922e-01 2.294615000000000293e+01 7.826400000000001000e+01 1.841610000000000127e+03
3.500000000000000333e-02 1.256869999999999932e-01 2.248545000000000016e+01 7.820015000000000782e+01 1.841630000000000109e+03
3.600000000000000422e-02 1.256864999999999788e-01 2.196954999999999814e+01 7.806550000000000011e+01 1.841625000000000000e+03
3.700000000000000511e-02 1.256820000000000159e-01 2.138220000000000098e+01 7.779064999999999941e+01 1.841585000000000036e+03
3.799999999999999906e-02 1.256734999999999935e-01 2.072254999999999825e+01 7.733969999999999345e+01 1.841485000000000127e+03
3.899999999999999994e-02 1.256594999999999795e-01 2.000825000000000031e+01 7.672650000000000148e+01 1.841340000000000146e+03
4.000000000000000083e-02 1.256424999999999903e-01 1.927380000000000138e+01 7.601660000000001105e+01 1.841144999999999982e+03
4.100000000000000172e-02 1.256229999999999847e-01 1.856494999999999962e+01 7.531605000000000416e+01 1.840924999999999955e+03
4.200000000000000261e-02 1.256049999999999944e-01 1.793005000000000138e+01 7.474994999999999834e+01 1.840715000000000146e+03
4.300000000000000350e-02 1.255910000000000082e-01 1.741084999999999994e+01 7.443595000000000539e+01 1.840555000000000064e+03
4.400000000000000439e-02 1.255850000000000022e-01 1.703454999999999941e+01 7.445949999999999136e+01 1.840474999999999909e+03
4.499999999999999833e-02 1.255874999999999908e-01 1.680935000000000201e+01 7.485679999999999268e+01 1.840500000000000000e+03
4.599999999999999922e-02 1.256009999999999904e-01 1.672364999999999924e+01 7.560765000000000668e+01 1.840635000000000218e+03
4.700000000000000011e-02 1.256230000000000124e-01 1.674824999999999875e+01 7.664010000000000389e+01 1.840880000000000109e+03
4.800000000000000100e-02 1.256525000000000003e-01 1.684215000000000018e+01 7.784280000000001110e+01 1.841210000000000036e+03
4.900000000000000189e-02 1.256865000000000065e-01 1.695830000000000126e+01 7.908389999999999986e+01 1.841594999999999800e+03
5.000000000000000278e-02 1.257215000000000138e-01 1.705069999999999908e+01 8.023029999999999973e+01 1.841990000000000009e+03
5.100000000000000366e-02 1.257540000000000047e-01 1.707909999999999684e+01 8.116500000000000625e+01 1.842365000000000009e+03
5.200000000000000455e-02 1.257804999999999895e-01 1.701290000000000191e+01 8.179984999999999218e+01 1.842679999999999836e+03
5.300000000000000544e-02 1.257995000000000085e-01 1.683255000000000123e+01 8.208160000000000878e+01 1.842904999999999973e+03
5.399999999999999939e-02 1.258084999999999898e-01 1.652984999999999971e+01 8.199285000000000423e+01 1.843014999999999873e+03
5.500000000000000028e-02 1.258075000000000165e-01 1.610569999999999879e+01 8.154714999999998781e+01 1.843014999999999873e+03
5.600000000000000117e-02 1.257965000000000055e-01 1.556850000000000023e+01 8.078130000000000166e+01 1.842894999999999982e+03
5.700000000000000205e-02 1.257759999999999989e-01 1.493104999999999905e+01 7.974639999999999418e+01 1.842664999999999964e+03
5.800000000000000294e-02 1.257469999999999977e-01 1.420854999999999890e+01 7.849950000000001182e+01 1.842335000000000036e+03
5.900000000000000383e-02 1.257109999999999894e-01 1.341714999999999947e+01 7.709680000000000177e+01 1.841929999999999836e+03
6.000000000000000472e-02 1.256704999999999905e-01 1.257310000000000016e+01 7.559020000000001005e+01 1.841454999999999927e+03
6.099999999999999867e-02 1.256245000000000001e-01 1.169234499999999954e+01 7.402549999999999386e+01 1.840930000000000064e+03
6.199999999999999956e-02 1.255765000000000076e-01 1.079130500000000126e+01 7.244355000000000189e+01 1.840375000000000000e+03
6.300000000000000044e-02 1.255264999999999853e-01 9.887139999999998707e+00 7.088209999999999411e+01 1.839805000000000064e+03
6.400000000000000133e-02 1.254770000000000052e-01 8.998545000000000016e+00 6.937869999999999493e+01 1.839230000000000018e+03
6.500000000000000222e-02 1.254284999999999983e-01 8.145979999999999777e+00 6.797254999999999825e+01 1.838670000000000073e+03
6.600000000000000311e-02 1.253825000000000078e-01 7.351734999999999687e+00 6.670619999999999550e+01 1.838134999999999991e+03
6.700000000000000400e-02 1.253404999999999936e-01 6.639450000000000074e+00 6.562539999999999907e+01 1.837650000000000091e+03
6.800000000000000488e-02 1.253039999999999987e-01 6.033384999999999998e+00 6.477809999999999491e+01 1.837220000000000027e+03
6.900000000000000577e-02 1.252749999999999975e-01 5.557310000000000194e+00 6.421260000000000900e+01 1.836880000000000109e+03
7.000000000000000666e-02 1.252544999999999908e-01 5.233295000000000030e+00 6.397415000000000163e+01 1.836625000000000000e+03
7.100000000000000755e-02 1.252444999999999808e-01 5.080494999999999983e+00 6.410229999999999961e+01 1.836494999999999891e+03
7.200000000000000844e-02 1.252455000000000096e-01 5.113995000000000068e+00 6.462825000000000841e+01 1.836494999999999891e+03
7.300000000000000933e-02 1.252584999999999948e-01 5.344025000000000247e+00 6.557189999999999941e+01 1.836634999999999991e+03
7.399999999999999634e-02 1.252854999999999941e-01 5.775384999999999991e+00 6.694114999999999327e+01 1.836925000000000182e+03
7.499999999999999722e-02 1.253254999999999786e-01 6.407270000000000465e+00 6.873064999999999714e+01 1.837369999999999891e+03
7.599999999999999811e-02 1.253785000000000038e-01 7.233419999999999739e+00 7.092285000000001105e+01 1.837970000000000027e+03
7.699999999999999900e-02 1.254454999999999876e-01 8.242570000000000618e+00 7.348869999999999436e+01 1.838719999999999800e+03
7.799999999999999989e-02 1.255235000000000101e-01 9.419139999999998736e+00 7.638994999999999891e+01 1.839610000000000127e+03
7.900000000000000078e-02 1.256134999999999891e-01 1.074412000000000056e+01 7.958134999999998627e+01 1.840634999999999991e+03
8.000000000000000167e-02 1.257129999999999914e-01 1.219600499999999954e+01 8.301320000000001187e+01 1.841775000000000091e+03
8.100000000000000255e-02 1.258209999999999884e-01 1.375176000000000087e+01 8.663419999999999277e+01 1.843019999999999982e+03
8.200000000000000344e-02 1.259359999999999924e-01 1.538804999999999978e+01 9.039375000000001137e+01 1.844345000000000027e+03
8.300000000000000433e-02 1.260565000000000158e-01 1.708170000000000144e+01 9.424410000000000309e+01 1.845744999999999891e+03
8.400000000000000522e-02 1.261805000000000010e-01 1.881109999999999971e+01 9.814330000000001064e+01 1.847184999999999945e+03
8.500000000000000611e-02 1.263080000000000036e-01 2.055640000000000001e+01 1.020549000000000035e+02 1.848670000000000073e+03
8.600000000000000699e-02 1.264359999999999928e-01 2.229999999999999716e+01 1.059493500000000097e+02 1.850170000000000073e+03
8.700000000000000788e-02 1.265650000000000108e-01 2.402714999999999890e+01 1.098050000000000068e+02 1.851684999999999945e+03
8.800000000000000877e-02 1.266935000000000144e-01 2.572565000000000168e+01 1.136084999999999923e+02 1.853200000000000045e+03
8.899999999999999578e-02 1.268219999999999903e-01 2.738589999999999947e+01 1.173499999999999943e+02 1.854710000000000036e+03
8.999999999999999667e-02 1.269484999999999919e-01 2.900059999999999860e+01 1.210275000000000034e+02 1.856210000000000036e+03
9.099999999999999756e-02 1.270735000000000059e-01 3.056439999999999912e+01 1.246414999999999935e+02 1.857694999999999936e+03
9.199999999999999845e-02 1.271975000000000189e-01 3.207350000000000279e+01 1.281949999999999932e+02 1.859164999999999964e+03
9.299999999999999933e-02 1.273195000000000021e-01 3.352505000000000024e+01 1.316920000000000073e+02 1.860625000000000000e+03
9.400000000000000022e-02 1.274405000000000121e-01 3.491689999999999827e+01 1.351365000000000123e+02 1.862065000000000055e+03
9.500000000000000111e-02 1.275594999999999923e-01 3.624694999999999823e+01 1.385294999999999845e+02 1.863490000000000009e+03
9.600000000000000200e-02 1.276764999999999983e-01 3.751330000000000098e+01 1.418709999999999809e+02 1.864900000000000091e+03
9.700000000000000289e-02 1.277929999999999899e-01 3.871379999999999910e+01 1.451585000000000036e+02 1.866295000000000073e+03
9.800000000000000377e-02 1.279069999999999929e-01 3.984584999999999866e+01 1.483870000000000005e+02 1.867670000000000073e+03
9.900000000000000466e-02 1.280195000000000083e-01 4.090675000000000239e+01 1.515475000000000136e+02 1.869025000000000091e+03
1.000000000000000056e-01 1.281295000000000073e-01 4.189314999999999856e+01 1.546304999999999836e+02 1.870355000000000018e+03
1.010000000000000064e-01 1.282369999999999899e-01 4.280165000000000219e+01 1.576245000000000118e+02 1.871659999999999854e+03
1.020000000000000073e-01 1.283420000000000116e-01 4.362874999999999659e+01 1.605169999999999959e+02 1.872924999999999955e+03
1.030000000000000082e-01 1.284434999999999882e-01 4.437075000000000102e+01 1.632944999999999993e+02 1.874160000000000082e+03
1.040000000000000091e-01 1.285415000000000030e-01 4.502415000000000589e+01 1.659445000000000050e+02 1.875345000000000027e+03
1.050000000000000100e-01 1.286349999999999993e-01 4.558554999999999779e+01 1.684534999999999911e+02 1.876490000000000009e+03
1.059999999999999970e-01 1.287245000000000195e-01 4.605180000000000007e+01 1.708095000000000141e+02 1.877579999999999927e+03
1.069999999999999979e-01 1.288084999999999924e-01 4.642014999999999958e+01 1.730015000000000214e+02 1.878610000000000127e+03
1.079999999999999988e-01 1.288874999999999882e-01 4.668819999999999482e+01 1.750200000000000102e+02 1.879575000000000045e+03
1.089999999999999997e-01 1.289609999999999923e-01 4.685419999999999874e+01 1.768550000000000182e+02 1.880480000000000018e+03
1.100000000000000006e-01 1.290280000000000038e-01 4.691694999999999993e+01 1.785000000000000000e+02 1.881309999999999945e+03
1.110000000000000014e-01 1.290894999999999959e-01 4.687590000000000146e+01 1.799499999999999886e+02 1.882065000000000055e+03
1.120000000000000023e-01 1.291439999999999810e-01 4.673165000000000191e+01 1.812010000000000218e+02 1.882740000000000009e+03
1.130000000000000032e-01 1.291924999999999879e-01 4.648539999999999850e+01 1.822529999999999859e+02 1.883340000000000146e+03
1.140000000000000041e-01 1.292345000000000022e-01 4.613969999999999771e+01 1.831059999999999945e+02 1.883860000000000127e+03
1.150000000000000050e-01 1.292695000000000094e-01 4.569814999999999827e+01 1.837649999999999864e+02 1.884299999999999955e+03
1.160000000000000059e-01 1.292979999999999963e-01 4.516544999999999987e+01 1.842355000000000018e+02 1.884659999999999854e+03
1.170000000000000068e-01 1.293199999999999905e-01 4.454755000000000109e+01 1.845285000000000082e+02 1.884944999999999936e+03
1.180000000000000077e-01 1.293364999999999931e-01 4.385144999999999982e+01 1.846544999999999845e+02 1.885155000000000200e+03
1.190000000000000085e-01 1.293469999999999898e-01 4.308509999999999707e+01 1.846274999999999977e+02 1.885295000000000073e+03
1.200000000000000094e-01 1.293525000000000091e-01 4.225730000000000075e+01 1.844639999999999986e+02 1.885375000000000000e+03
1.209999999999999964e-01 1.293529999999999958e-01 4.137739999999999441e+01 1.841820000000000164e+02 1.885389999999999873e+03
1.219999999999999973e-01 1.293495000000000061e-01 4.045515000000000327e+01 1.837989999999999782e+02 1.885355000000000018e+03
1.229999999999999982e-01 1.293414999999999981e-01 3.950029999999999575e+01 1.833324999999999818e+02 1.885269999999999982e+03
1.239999999999999991e-01 1.293310000000000015e-01 3.852235000000000298e+01 1.828009999999999877e+02 1.885150000000000091e+03
1.250000000000000000e-01 1.293179999999999885e-01 3.753059999999999974e+01 1.822214999999999918e+02 1.884994999999999891e+03
1.260000000000000009e-01 1.293025000000000146e-01 3.653345000000000198e+01 1.816084999999999923e+02 1.884809999999999945e+03
1.270000000000000018e-01 1.292854999999999976e-01 3.553860000000000241e+01 1.809755000000000109e+02 1.884615000000000009e+03
1.280000000000000027e-01 1.292675000000000074e-01 3.455264999999999986e+01 1.803335000000000150e+02 1.884394999999999982e+03
1.290000000000000036e-01 1.292490000000000028e-01 3.358109999999999928e+01 1.796904999999999859e+02 1.884170000000000073e+03
1.300000000000000044e-01 1.292294999999999972e-01 3.262834999999999752e+01 1.790525000000000091e+02 1.883934999999999945e+03
1.310000000000000053e-01 1.292099999999999915e-01 3.169729999999999848e+01 1.784239999999999782e+02 1.883690000000000055e+03
1.320000000000000062e-01 1.291904999999999859e-01 3.078989999999999938e+01 1.778040000000000020e+02 1.883450000000000045e+03
1.330000000000000071e-01 1.291710000000000080e-01 2.990675000000000239e+01 1.771924999999999955e+02 1.883210000000000036e+03
1.340000000000000080e-01 1.291509999999999880e-01 2.904755000000000109e+01 1.765854999999999961e+02 1.882965000000000146e+03
1.350000000000000089e-01 1.291309999999999958e-01 2.821085000000000065e+01 1.759784999999999968e+02 1.882720000000000027e+03
1.360000000000000098e-01 1.291110000000000035e-01 2.739455000000000240e+01 1.753645000000000209e+02 1.882474999999999909e+03
1.370000000000000107e-01 1.290899999999999825e-01 2.659575000000000244e+01 1.747359999999999900e+02 1.882220000000000027e+03
1.380000000000000115e-01 1.290689999999999893e-01 2.581105000000000160e+01 1.740865000000000009e+02 1.881954999999999927e+03
1.390000000000000124e-01 1.290469999999999950e-01 2.503689999999999927e+01 1.734055000000000177e+02 1.881690000000000055e+03
1.400000000000000133e-01 1.290239999999999998e-01 2.426955000000000240e+01 1.726870000000000118e+02 1.881404999999999973e+03
1.410000000000000142e-01 1.290000000000000036e-01 2.350525000000000020e+01 1.719225000000000136e+02 1.881110000000000127e+03
1.420000000000000151e-01 1.289744999999999919e-01 2.274064999999999870e+01 1.711059999999999945e+02 1.880795000000000073e+03
1.430000000000000160e-01 1.289470000000000061e-01 2.197259999999999991e+01 1.702325000000000159e+02 1.880460000000000036e+03
1.440000000000000169e-01 1.289174999999999904e-01 2.119865000000000066e+01 1.692984999999999900e+02 1.880110000000000127e+03
1.450000000000000178e-01 1.288864999999999872e-01 2.041704999999999970e+01 1.683009999999999877e+02 1.879730000000000018e+03
1.459999999999999909e-01 1.288535000000000097e-01 1.962664999999999793e+01 1.672400000000000091e+02 1.879329999999999927e+03
1.469999999999999918e-01 1.288179999999999881e-01 1.882740000000000080e+01 1.661175000000000068e+02 1.878900000000000091e+03
1.479999999999999927e-01 1.287809999999999788e-01 1.801984999999999815e+01 1.649384999999999764e+02 1.878454999999999927e+03
1.489999999999999936e-01 1.287419999999999953e-01 1.720570000000000022e+01 1.637069999999999936e+02 1.877980000000000018e+03
1.499999999999999944e-01 1.287010000000000098e-01 1.638729999999999976e+01 1.624309999999999832e+02 1.877485000000000127e+03
1.509999999999999953e-01 1.286589999999999956e-01 1.556794999999999973e+01 1.611200000000000045e+02 1.876980000000000018e+03
1.519999999999999962e-01 1.286154999999999937e-01 1.475155000000000172e+01 1.597849999999999966e+02 1.876450000000000045e+03
1.529999999999999971e-01 1.285709999999999908e-01 1.394280000000000186e+01 1.584365000000000236e+02 1.875914999999999964e+03
1.539999999999999980e-01 1.285260000000000014e-01 1.314639999999999986e+01 1.570880000000000223e+02 1.875375000000000000e+03
1.549999999999999989e-01 1.284810000000000119e-01 1.236774499999999932e+01 1.557514999999999930e+02 1.874829999999999927e+03
1.559999999999999998e-01 1.284359999999999946e-01 1.161204500000000017e+01 1.544395000000000095e+02 1.874289999999999964e+03
1.570000000000000007e-01 1.283920000000000061e-01 1.088445499999999910e+01 1.531634999999999991e+02 1.873755000000000109e+03
1.580000000000000016e-01 1.283489999999999909e-01 1.018987500000000068e+01 1.519359999999999786e+02 1.873230000000000018e+03
1.590000000000000024e-01 1.283070000000000044e-01 9.532720000000001193e+00 1.507649999999999864e+02 1.872720000000000027e+03
