# t [s], A [cm^2], U [cm/s], P [cPa], c [cm/s]
1.000000000000000021e-03 8.000255000000000560e-01 5.548900000000002442e-03 1.037845000000000084e+02 1.569615000000000009e+03
2.000000000000000042e-03 8.000104999999999578e-01 -4.138440000000000174e-03 1.037590000000000003e+02 1.569609999999999900e+03
3.000000000000000062e-03 8.000590000000000757e-01 5.756529999999999980e-02 1.038225000000000051e+02 1.569625000000000000e+03
4.000000000000000083e-03 8.001289999999999791e-01 1.558380500000000057e-01 1.039445000000000050e+02 1.569654999999999973e+03
5.000000000000000104e-03 8.001279999999999504e-01 1.724154999999999993e-01 1.039534999999999911e+02 1.569664999999999964e+03
6.000000000000000125e-03 8.000545000000000018e-01 9.489749999999999575e-02 1.037984999999999900e+02 1.569630000000000109e+03
7.000000000000000146e-03 7.999849999999999461e-01 1.866450000000002829e-02 1.035850000000000080e+02 1.569574999999999818e+03
8.000000000000000167e-03 7.999125000000000263e-01 -7.043499999999996986e-02 1.033185000000000002e+02 1.569509999999999991e+03
9.000000000000001055e-03 7.997855000000000381e-01 -2.480299999999999727e-01 1.029110000000000014e+02 1.569420000000000073e+03
1.000000000000000194e-02 7.995924999999999283e-01 -5.298849999999999394e-01 1.023170000000000073e+02 1.569279999999999973e+03
1.099999999999999936e-02 7.993270000000000097e-01 -9.210049999999999626e-01 1.015014999999999930e+02 1.569090000000000146e+03
1.200000000000000025e-02 7.989645000000000774e-01 -1.443255000000000177e+00 1.004021500000000060e+02 1.568829999999999927e+03
1.300000000000000114e-02 7.985020000000000451e-01 -2.084319999999999951e+00 9.899309999999999832e+01 1.568485000000000127e+03
1.400000000000000203e-02 7.979860000000000841e-01 -2.759545000000000137e+00 9.734315000000000850e+01 1.568075000000000045e+03
1.499999999999999944e-02 7.974889999999998924e-01 -3.339364999999999917e+00 9.560429999999999495e+01 1.567634999999999991e+03
1.600000000000000033e-02 7.970699999999999452e-01 -3.710325000000000095e+00 9.393880000000000052e+01 1.567184999999999945e+03
1.700000000000000122e-02 7.967480000000000118e-01 -3.817965850000000216e+00 9.245300000000000296e+01 1.566769999999999982e+03
1.800000000000000211e-02 7.965025000000000022e-01 -3.673868499999999759e+00 9.116974999999999341e+01 1.566384999999999991e+03
1.900000000000000300e-02 7.962884999999999547e-01 -3.336784499999999820e+00 9.003764999999999930e+01 1.566029999999999973e+03
2.000000000000000042e-02 7.960564999999999447e-01 -2.883726999999999929e+00 8.896304999999999552e+01 1.565690000000000055e+03
2.100000000000000130e-02 7.957695000000000185e-01 -2.382488999999999635e+00 8.784799999999999898e+01 1.565335000000000036e+03
2.200000000000000219e-02 7.954140000000000654e-01 -1.872679999999999900e+00 8.662399999999999523e+01 1.564954999999999927e+03
2.299999999999999961e-02 7.949960000000000360e-01 -1.359529999999999905e+00 8.527004999999999768e+01 1.564545000000000073e+03
2.400000000000000050e-02 7.945429999999999993e-01 -8.211349999999999483e-01 8.381260000000000332e+01 1.564110000000000127e+03
2.500000000000000139e-02 7.940834999999999422e-01 -2.252600000000000158e-01 8.230795000000000528e+01 1.563659999999999854e+03
2.600000000000000228e-02 7.936425000000000285e-01 4.516700000000000159e-01 8.081620000000000914e+01 1.563204999999999927e+03
2.700000000000000316e-02 7.932259999999999867e-01 1.210424999999999862e+00 7.937744999999999607e+01 1.562764999999999873e+03
2.800000000000000058e-02 7.928269999999999484e-01 2.023334999999999884e+00 7.799630000000000507e+01 1.562335000000000036e+03
2.900000000000000147e-02 7.924204999999999721e-01 2.837274999999999547e+00 7.663804999999999268e+01 1.561909999999999854e+03
3.000000000000000236e-02 7.919760000000000133e-01 3.583390000000000075e+00 7.523675000000000068e+01 1.561480000000000018e+03
3.099999999999999978e-02 7.914630000000000276e-01 4.190859999999999808e+00 7.371075000000000443e+01 1.561014999999999873e+03
3.200000000000000067e-02 7.908560000000000034e-01 4.601644999999999541e+00 7.198345000000000482e+01 1.560514999999999873e+03
3.300000000000000155e-02 7.901489999999999903e-01 4.783129999999999882e+00 7.000424999999999898e+01 1.559964999999999918e+03
3.400000000000000244e-02 7.893514999999999837e-01 4.734854999999999592e+00 6.776384999999999081e+01 1.559345000000000027e+03
3.500000000000000333e-02 7.884895000000000653e-01 4.487854999999999706e+00 6.529974999999998886e+01 1.558670000000000073e+03
3.600000000000000422e-02 7.876009999999999955e-01 4.097065000000000623e+00 6.269140000000000157e+01 1.557965000000000146e+03
3.700000000000000511e-02 7.867290000000000116e-01 3.629110000000000280e+00 6.004590000000000316e+01 1.557240000000000009e+03
3.799999999999999906e-02 7.859130000000000837e-01 3.150589999999999780e+00 5.748120000000000118e+01 1.556534999999999854e+03
3.899999999999999994e-02 7.851844999999999519e-01 2.718389999999999862e+00 5.510914999999999964e+01 1.555865000000000009e+03
4.000000000000000083e-02 7.845659999999999856e-01 2.374790000000000401e+00 5.302365000000000350e+01 1.555259999999999991e+03
4.100000000000000172e-02 7.840705000000000036e-01 2.146125000000000060e+00 5.129344999999999999e+01 1.554744999999999891e+03
4.200000000000000261e-02 7.837009999999999810e-01 2.044859999999999900e+00 4.996079999999999899e+01 1.554324999999999818e+03
4.300000000000000350e-02 7.834570000000000700e-01 2.073529999999999873e+00 4.904380000000000450e+01 1.554019999999999982e+03
4.400000000000000439e-02 7.833330000000000570e-01 2.229399999999999604e+00 4.854205000000000325e+01 1.553820000000000164e+03
4.499999999999999833e-02 7.833235000000000614e-01 2.508795000000000108e+00 4.844344999999999857e+01 1.553735000000000127e+03
4.599999999999999922e-02 7.834225000000000216e-01 2.910115000000000229e+00 4.873049999999999926e+01 1.553750000000000000e+03
4.700000000000000011e-02 7.836274999999999213e-01 3.435099999999999820e+00 4.938550000000000040e+01 1.553875000000000000e+03
4.800000000000000100e-02 7.839359999999999662e-01 4.088219999999999743e+00 5.039240000000000208e+01 1.554099999999999909e+03
4.900000000000000189e-02 7.843459999999999877e-01 4.874658499999999783e+00 5.173695000000000022e+01 1.554414999999999964e+03
5.000000000000000278e-02 7.848554999999999282e-01 5.797622499999999235e+00 5.340455000000000041e+01 1.554829999999999927e+03
5.100000000000000366e-02 7.854579999999999895e-01 6.855824999999999392e+00 5.537765000000000271e+01 1.555329999999999927e+03
5.200000000000000455e-02 7.861460000000000115e-01 8.041764999999999830e+00 5.763294999999999391e+01 1.555909999999999854e+03
5.300000000000000544e-02 7.869085000000000107e-01 9.341224999999999667e+00 6.013979999999999393e+01 1.556569999999999936e+03
5.399999999999999939e-02 7.877315000000000289e-01 1.073380500000000026e+01 6.286019999999999897e+01 1.557289999999999964e+03
5.500000000000000028e-02 7.885995000000000088e-01 1.219442500000000074e+01 6.574950000000001182e+01 1.558059999999999945e+03
5.600000000000000117e-02 7.894965000000000455e-01 1.369541000000000075e+01 6.875915000000000532e+01 1.558875000000000000e+03
5.700000000000000205e-02 7.904069999999999707e-01 1.520880499999999991e+01 7.183939999999999770e+01 1.559719999999999800e+03
5.800000000000000294e-02 7.913164999999999782e-01 1.670839499999999944e+01 7.494270000000000209e+01 1.560579999999999927e+03
5.900000000000000383e-02 7.922139999999999738e-01 1.817140000000000200e+01 7.802644999999999698e+01 1.561445000000000164e+03
6.000000000000000472e-02 7.930904999999999205e-01 1.957959999999999923e+01 8.105514999999999759e+01 1.562300000000000182e+03
6.099999999999999867e-02 7.939399999999999791e-01 2.091959999999999908e+01 8.400225000000000364e+01 1.563139999999999873e+03
6.199999999999999956e-02 7.947595000000000631e-01 2.218294999999999817e+01 8.685005000000001019e+01 1.563965000000000146e+03
6.300000000000000044e-02 7.955484999999999918e-01 2.336524999999999963e+01 8.958939999999999770e+01 1.564764999999999873e+03
6.400000000000000133e-02 7.963080000000000158e-01 2.446589999999999776e+01 9.221930000000000405e+01 1.565539999999999964e+03
6.500000000000000222e-02 7.970414999999999583e-01 2.548689999999999856e+01 9.474504999999999200e+01 1.566284999999999854e+03
6.600000000000000311e-02 7.977520000000000167e-01 2.643220000000000169e+01 9.717609999999999104e+01 1.567009999999999991e+03
6.700000000000000400e-02 7.984434999999999727e-01 2.730680000000000263e+01 9.952504999999999313e+01 1.567710000000000036e+03
6.800000000000000488e-02 7.991204999999999004e-01 2.811629999999999896e+01 1.018061000000000007e+02 1.568389999999999873e+03
6.900000000000000577e-02 7.997864999999999558e-01 2.886610000000000298e+01 1.040330000000000013e+02 1.569059999999999945e+03
7.000000000000000666e-02 8.004449999999999621e-01 2.956105000000000160e+01 1.062179999999999893e+02 1.569714999999999918e+03
7.100000000000000755e-02 8.010964999999999892e-01 3.020499999999999829e+01 1.083710000000000093e+02 1.570360000000000127e+03
7.200000000000000844e-02 8.017430000000000945e-01 3.080034999999999812e+01 1.104979999999999905e+02 1.570990000000000009e+03
7.300000000000000933e-02 8.023834999999999162e-01 3.134784999999999755e+01 1.126004999999999967e+02 1.571625000000000000e+03
7.399999999999999634e-02 8.030165000000000219e-01 3.184669999999999845e+01 1.146754999999999995e+02 1.572244999999999891e+03
7.499999999999999722e-02 8.036389999999999922e-01 3.229455000000000098e+01 1.167169999999999987e+02 1.572855000000000018e+03
7.599999999999999811e-02 8.042469999999999342e-01 3.268769999999999953e+01 1.187134999999999962e+02 1.573449999999999818e+03
7.699999999999999900e-02 8.048360000000001069e-01 3.302165000000000106e+01 1.206509999999999962e+02 1.574034999999999854e+03
7.799999999999999989e-02 8.054004999999999637e-01 3.329139999999999588e+01 1.225144999999999982e+02 1.574595000000000027e+03
7.900000000000000078e-02 8.059359999999999857e-01 3.349195000000000277e+01 1.242865000000000038e+02 1.575130000000000109e+03
8.000000000000000167e-02 8.064375000000000293e-01 3.361880000000000024e+01 1.259509999999999934e+02 1.575640000000000100e+03
8.100000000000000255e-02 8.069005000000000205e-01 3.366814999999999714e+01 1.274925000000000068e+02 1.576119999999999891e+03
8.200000000000000344e-02 8.073215000000000252e-01 3.363724999999999454e+01 1.288974999999999795e+02 1.576559999999999945e+03
8.300000000000000433e-02 8.076980000000000270e-01 3.352459999999999951e+01 1.301555000000000177e+02 1.576954999999999927e+03
8.400000000000000522e-02 8.080279999999999685e-01 3.332989999999999498e+01 1.312584999999999980e+02 1.577315000000000055e+03
8.500000000000000611e-02 8.083104999999999318e-01 3.305414999999999992e+01 1.322015000000000100e+02 1.577625000000000000e+03
8.600000000000000699e-02 8.085454999999999171e-01 3.269969999999999999e+01 1.329830000000000041e+02 1.577894999999999982e+03
8.700000000000000788e-02 8.087340000000000639e-01 3.227004999999999768e+01 1.336039999999999850e+02 1.578115000000000009e+03
8.800000000000000877e-02 8.088764999999999983e-01 3.177005000000000123e+01 1.340695000000000050e+02 1.578284999999999854e+03
8.899999999999999578e-02 8.089770000000000572e-01 3.120554999999999879e+01 1.343865000000000123e+02 1.578414999999999964e+03
8.999999999999999667e-02 8.090370000000000061e-01 3.058350000000000080e+01 1.345640000000000214e+02 1.578500000000000000e+03
9.099999999999999756e-02 8.090610000000000301e-01 2.991179999999999950e+01 1.346150000000000091e+02 1.578555000000000064e+03
9.199999999999999845e-02 8.090530000000000221e-01 2.919920000000000115e+01 1.345529999999999973e+02 1.578569999999999936e+03
9.299999999999999933e-02 8.090169999999999861e-01 2.845470000000000255e+01 1.343919999999999959e+02 1.578555000000000064e+03
9.400000000000000022e-02 8.089584999999999138e-01 2.768805000000000049e+01 1.341494999999999891e+02 1.578509999999999991e+03
9.500000000000000111e-02 8.088830000000000187e-01 2.690869999999999962e+01 1.338414999999999964e+02 1.578450000000000045e+03
9.600000000000000200e-02 8.087934999999999430e-01 2.612604999999999933e+01 1.334844999999999970e+02 1.578364999999999782e+03
9.700000000000000289e-02 8.086955000000000116e-01 2.534860000000000113e+01 1.330944999999999823e+02 1.578264999999999873e+03
9.800000000000000377e-02 8.085934999999999651e-01 2.458419999999999916e+01 1.326850000000000023e+02 1.578164999999999964e+03
9.900000000000000466e-02 8.084894999999999721e-01 2.383924999999999983e+01 1.322690000000000055e+02 1.578055000000000064e+03
1.000000000000000056e-01 8.083869999999999667e-01 2.311885000000000190e+01 1.318569999999999993e+02 1.577940000000000055e+03
1.010000000000000064e-01 8.082869999999999777e-01 2.242634999999999934e+01 1.314565000000000055e+02 1.577829999999999927e+03
1.020000000000000073e-01 8.081914999999999516e-01 2.176350000000000051e+01 1.310724999999999909e+02 1.577714999999999918e+03
1.030000000000000082e-01 8.081000000000000405e-01 2.113040000000000163e+01 1.307065000000000055e+02 1.577609999999999900e+03
1.040000000000000091e-01 8.080114999999999936e-01 2.052554999999999907e+01 1.303584999999999923e+02 1.577505000000000109e+03
1.050000000000000100e-01 8.079244999999999344e-01 1.994620000000000104e+01 1.300240000000000009e+02 1.577400000000000091e+03
1.059999999999999970e-01 8.078380000000000560e-01 1.938830000000000098e+01 1.296990000000000123e+02 1.577304999999999836e+03
1.069999999999999979e-01 8.077490000000000503e-01 1.884724999999999895e+01 1.293760000000000048e+02 1.577204999999999927e+03
1.079999999999999988e-01 8.076555000000000817e-01 1.831780000000000186e+01 1.290465000000000089e+02 1.577105000000000018e+03
1.089999999999999997e-01 8.075544999999999529e-01 1.779429999999999978e+01 1.287025000000000148e+02 1.577005000000000109e+03
1.100000000000000006e-01 8.074440000000000506e-01 1.727139999999999986e+01 1.283350000000000080e+02 1.576894999999999982e+03
1.110000000000000014e-01 8.073215000000000252e-01 1.674374999999999858e+01 1.279364999999999952e+02 1.576775000000000091e+03
1.120000000000000023e-01 8.071859999999999591e-01 1.620694999999999908e+01 1.274994999999999976e+02 1.576650000000000091e+03
1.130000000000000032e-01 8.070349999999999469e-01 1.565700000000000003e+01 1.270184999999999889e+02 1.576514999999999873e+03
1.140000000000000041e-01 8.068684999999999885e-01 1.509114999999999895e+01 1.264900000000000091e+02 1.576360000000000127e+03
1.150000000000000050e-01 8.066860000000000142e-01 1.450745000000000040e+01 1.259110000000000014e+02 1.576199999999999818e+03
1.160000000000000059e-01 8.064884999999999415e-01 1.390543500000000066e+01 1.252814999999999941e+02 1.576025000000000091e+03
1.170000000000000068e-01 8.062759999999999927e-01 1.328572000000000131e+01 1.246045000000000016e+02 1.575835000000000036e+03
1.180000000000000077e-01 8.060519999999999907e-01 1.265026999999999902e+01 1.238845000000000027e+02 1.575634999999999991e+03
1.190000000000000085e-01 8.058174999999999644e-01 1.200219999999999843e+01 1.231280000000000001e+02 1.575424999999999955e+03
1.200000000000000094e-01 8.055759999999999588e-01 1.134576000000000029e+01 1.223429999999999893e+02 1.575200000000000045e+03
1.209999999999999964e-01 8.053310000000000191e-01 1.068622000000000050e+01 1.215409999999999968e+02 1.574974999999999909e+03
1.219999999999999973e-01 8.050865000000000382e-01 1.002946000000000026e+01 1.207330000000000041e+02 1.574744999999999891e+03
1.229999999999999982e-01 8.048454999999999915e-01 9.381999999999999673e+00 1.199310000000000116e+02 1.574514999999999873e+03
1.239999999999999991e-01 8.046119999999999939e-01 8.750499999999998835e+00 1.191485000000000127e+02 1.574289999999999964e+03
1.250000000000000000e-01 8.043905000000000083e-01 8.141725000000000989e+00 1.183975000000000080e+02 1.574070000000000164e+03
1.260000000000000009e-01 8.041834999999999400e-01 7.562149999999999039e+00 1.176905000000000001e+02 1.573865000000000009e+03
1.270000000000000018e-01 8.039954999999999741e-01 7.017664999999999154e+00 1.170384999999999991e+02 1.573670000000000073e+03
1.280000000000000027e-01 8.038274999999999171e-01 6.513419999999999987e+00 1.164500000000000028e+02 1.573490000000000009e+03
1.290000000000000036e-01 8.036830000000000362e-01 6.053659999999999819e+00 1.159339999999999975e+02 1.573335000000000036e+03
1.300000000000000044e-01 8.035615000000000396e-01 5.641499999999999737e+00 1.154960000000000093e+02 1.573190000000000055e+03
1.310000000000000053e-01 8.034654999999999436e-01 5.278884999999999827e+00 1.151384999999999934e+02 1.573074999999999818e+03
1.320000000000000062e-01 8.033934999999999826e-01 4.966504999999999725e+00 1.148629999999999995e+02 1.572980000000000018e+03
1.330000000000000071e-01 8.033455000000000457e-01 4.703865000000000407e+00 1.146680000000000064e+02 1.572905000000000200e+03
1.340000000000000080e-01 8.033190000000000053e-01 4.489309999999999690e+00 1.145500000000000114e+02 1.572855000000000018e+03
1.350000000000000089e-01 8.033135000000000137e-01 4.320154999999999745e+00 1.145030000000000001e+02 1.572824999999999818e+03
1.360000000000000098e-01 8.033259999999999845e-01 4.192849999999999966e+00 1.145204999999999984e+02 1.572809999999999945e+03
1.370000000000000107e-01 8.033535000000000537e-01 4.103150000000000297e+00 1.145939999999999941e+02 1.572815000000000055e+03
1.380000000000000115e-01 8.033930000000000238e-01 4.046335000000000015e+00 1.147144999999999868e+02 1.572835000000000036e+03
1.390000000000000124e-01 8.034425000000000594e-01 4.017369999999999663e+00 1.148719999999999999e+02 1.572865000000000009e+03
1.400000000000000133e-01 8.034985000000000044e-01 4.011160000000000281e+00 1.150570000000000022e+02 1.572910000000000082e+03
1.410000000000000142e-01 8.035584999999999534e-01 4.022655000000000314e+00 1.152600000000000051e+02 1.572954999999999927e+03
1.420000000000000151e-01 8.036205000000000709e-01 4.047055000000000291e+00 1.154729999999999990e+02 1.573009999999999991e+03
1.430000000000000160e-01 8.036814999999999376e-01 4.079905000000000115e+00 1.156864999999999952e+02 1.573059999999999945e+03
1.440000000000000169e-01 8.037399999999998990e-01 4.117195000000000604e+00 1.158960000000000008e+02 1.573115000000000009e+03
1.450000000000000178e-01 8.037950000000000372e-01 4.155420000000000336e+00 1.160939999999999941e+02 1.573170000000000073e+03
1.459999999999999909e-01 8.038454999999999906e-01 4.191620000000000346e+00 1.162769999999999868e+02 1.573215000000000146e+03
1.469999999999999918e-01 8.038894999999999236e-01 4.223390000000000200e+00 1.164414999999999907e+02 1.573264999999999873e+03
1.479999999999999927e-01 8.039279999999999760e-01 4.248879999999999768e+00 1.165850000000000080e+02 1.573304999999999836e+03
1.489999999999999936e-01 8.039594999999999381e-01 4.266779999999999795e+00 1.167075000000000102e+02 1.573344999999999800e+03
1.499999999999999944e-01 8.039855000000000196e-01 4.276275000000000048e+00 1.168079999999999927e+02 1.573375000000000000e+03
1.509999999999999953e-01 8.040055000000000396e-01 4.277020000000000266e+00 1.168874999999999886e+02 1.573400000000000091e+03
1.519999999999999962e-01 8.040199999999999569e-01 4.269090000000000273e+00 1.169475000000000051e+02 1.573420000000000073e+03
1.529999999999999971e-01 8.040304999999999813e-01 4.252925000000000288e+00 1.169894999999999925e+02 1.573434999999999945e+03
1.539999999999999980e-01 8.040365000000000428e-01 4.229269999999999641e+00 1.170160000000000053e+02 1.573444999999999936e+03
1.549999999999999989e-01 8.040395000000000181e-01 4.199125000000000441e+00 1.170294999999999987e+02 1.573454999999999927e+03
1.559999999999999998e-01 8.040399999999999769e-01 4.163650000000000517e+00 1.170330000000000013e+02 1.573460000000000036e+03
1.570000000000000007e-01 8.040385000000001003e-01 4.124109999999999943e+00 1.170289999999999964e+02 1.573465000000000146e+03
1.580000000000000016e-01 8.040370000000000017e-01 4.081820000000000448e+00 1.170200000000000102e+02 1.573465000000000146e+03
1.590000000000000024e-01 8.040339999999999154e-01 4.038054999999999950e+00 1.170084999999999980e+02 1.573460000000000036e+03
