# t [s], A [cm^2], U [cm/s], P [cPa], c [cm/s]
1.000000000000000021e-03 1.354354999999999865e-01 2.175819999999999976e-01 8.848920000000001096e+01 1.998279999999999973e+03
2.000000000000000042e-03 1.354100000000000026e-01 1.515144000000000046e+00 8.578614999999999213e+01 1.997974999999999909e+03
3.000000000000000062e-03 1.353280000000000038e-01 3.145916499999999782e+00 8.204505000000000337e+01 1.997055000000000064e+03
4.000000000000000083e-03 1.352099999999999969e-01 4.985657050000000368e+00 7.780870000000000175e+01 1.995750000000000000e+03
5.000000000000000104e-03 1.350770000000000026e-01 6.985414999999999708e+00 7.381820000000000448e+01 1.994295000000000073e+03
6.000000000000000125e-03 1.349460000000000104e-01 9.030084999999999695e+00 7.044659999999998945e+01 1.992869999999999891e+03
7.000000000000000146e-03 1.348209999999999964e-01 1.093985500000000144e+01 6.760405000000000086e+01 1.991539999999999964e+03
8.000000000000000167e-03 1.347045000000000048e-01 1.259403000000000006e+01 6.504615000000001146e+01 1.990315000000000055e+03
9.000000000000001055e-03 1.345975000000000088e-01 1.399475500000000139e+01 6.273194999999999766e+01 1.989214999999999918e+03
1.000000000000000194e-02 1.345044999999999991e-01 1.518045000000000044e+01 6.074774999999999636e+01 1.988259999999999991e+03
1.099999999999999936e-02 1.344255000000000033e-01 1.616975000000000051e+01 5.912064999999999770e+01 1.987465000000000146e+03
1.200000000000000025e-02 1.343604999999999938e-01 1.697435000000000116e+01 5.781915000000000049e+01 1.986815000000000055e+03
1.300000000000000114e-02 1.343075000000000241e-01 1.760174999999999912e+01 5.678560000000000230e+01 1.986289999999999964e+03
1.400000000000000203e-02 1.342645000000000088e-01 1.805060000000000286e+01 5.592629999999999768e+01 1.985869999999999891e+03
1.499999999999999944e-02 1.342274999999999996e-01 1.833425000000000082e+01 5.515439999999999543e+01 1.985519999999999982e+03
1.600000000000000033e-02 1.341970000000000107e-01 1.851539999999999964e+01 5.449609999999999843e+01 1.985230000000000018e+03
1.700000000000000122e-02 1.341759999999999897e-01 1.870749999999999957e+01 5.414515000000000100e+01 1.985034999999999854e+03
1.800000000000000211e-02 1.341694999999999971e-01 1.903059999999999974e+01 5.438304999999999723e+01 1.984990000000000009e+03
1.900000000000000300e-02 1.341839999999999977e-01 1.955230000000000246e+01 5.541349999999999909e+01 1.985134999999999991e+03
2.000000000000000042e-02 1.342194999999999916e-01 2.025294999999999845e+01 5.722289999999999566e+01 1.985500000000000000e+03
2.100000000000000130e-02 1.342730000000000035e-01 2.103225000000000122e+01 5.954749999999999943e+01 1.986039999999999964e+03
2.200000000000000219e-02 1.343354999999999966e-01 2.174830000000000041e+01 6.195449999999999591e+01 1.986680000000000064e+03
2.299999999999999961e-02 1.343960000000000155e-01 2.226879999999999882e+01 6.398680000000000234e+01 1.987315000000000055e+03
2.400000000000000050e-02 1.344454999999999956e-01 2.251214999999999833e+01 6.530590000000000828e+01 1.987844999999999800e+03
2.500000000000000139e-02 1.344774999999999998e-01 2.246659999999999968e+01 6.578104999999999336e+01 1.988195000000000164e+03
2.600000000000000228e-02 1.344905000000000128e-01 2.218370000000000175e+01 6.550029999999999575e+01 1.988355000000000018e+03
2.700000000000000316e-02 1.344879999999999964e-01 2.175219999999999843e+01 6.471070000000000277e+01 1.988349999999999909e+03
2.800000000000000058e-02 1.344754999999999978e-01 2.126429999999999865e+01 6.371549999999999869e+01 1.988230000000000018e+03
2.900000000000000147e-02 1.344579999999999942e-01 2.078614999999999924e+01 6.277110000000000412e+01 1.988055000000000064e+03
3.000000000000000236e-02 1.344400000000000039e-01 2.034290000000000020e+01 6.201630000000000109e+01 1.987884999999999991e+03
3.099999999999999978e-02 1.344249999999999889e-01 1.991900000000000048e+01 6.145210000000000150e+01 1.987720000000000027e+03
3.200000000000000067e-02 1.344104999999999883e-01 1.947285000000000110e+01 6.096959999999999980e+01 1.987570000000000164e+03
3.300000000000000155e-02 1.343945000000000001e-01 1.895725000000000193e+01 6.040925000000000011e+01 1.987409999999999854e+03
3.400000000000000244e-02 1.343739999999999934e-01 1.834134999999999849e+01 5.963115000000000521e+01 1.987210000000000036e+03
3.500000000000000333e-02 1.343475000000000086e-01 1.762529999999999930e+01 5.857354999999999734e+01 1.986944999999999936e+03
3.600000000000000422e-02 1.343139999999999890e-01 1.684635000000000105e+01 5.728425000000000011e+01 1.986610000000000127e+03
3.700000000000000511e-02 1.342770000000000075e-01 1.607249999999999801e+01 5.591755000000000564e+01 1.986235000000000127e+03
3.799999999999999906e-02 1.342409999999999992e-01 1.538715000000000011e+01 5.469719999999999516e+01 1.985860000000000127e+03
3.899999999999999994e-02 1.342105000000000103e-01 1.486919999999999931e+01 5.385804999999999865e+01 1.985545000000000073e+03
4.000000000000000083e-02 1.341915000000000191e-01 1.457369999999999877e+01 5.358485000000000298e+01 1.985340000000000146e+03
4.100000000000000172e-02 1.341880000000000017e-01 1.451944999999999908e+01 5.396429999999999438e+01 1.985285000000000082e+03
4.200000000000000261e-02 1.342005000000000003e-01 1.468520000000000003e+01 5.496380000000000621e+01 1.985400000000000091e+03
4.300000000000000350e-02 1.342285000000000006e-01 1.501490000000000080e+01 5.643815000000000026e+01 1.985664999999999964e+03
4.400000000000000439e-02 1.342669999999999975e-01 1.542900000000000027e+01 5.816070000000000562e+01 1.986050000000000182e+03
4.499999999999999833e-02 1.343099999999999850e-01 1.583940000000000126e+01 5.986755000000000138e+01 1.986485000000000127e+03
4.599999999999999922e-02 1.343524999999999858e-01 1.616280000000000072e+01 6.130349999999999966e+01 1.986909999999999854e+03
4.700000000000000011e-02 1.343869999999999787e-01 1.633249999999999957e+01 6.226115000000000066e+01 1.987269999999999982e+03
4.800000000000000100e-02 1.344090000000000007e-01 1.630420000000000158e+01 6.260545000000000471e+01 1.987509999999999991e+03
4.900000000000000189e-02 1.344154999999999933e-01 1.605804999999999794e+01 6.228215000000000146e+01 1.987585000000000036e+03
5.000000000000000278e-02 1.344049999999999967e-01 1.559604999999999819e+01 6.131149999999999523e+01 1.987485000000000127e+03
5.100000000000000366e-02 1.343774999999999831e-01 1.493705000000000105e+01 5.977110000000000412e+01 1.987220000000000027e+03
5.200000000000000455e-02 1.343344999999999956e-01 1.411019999999999897e+01 5.777325000000000443e+01 1.986789999999999964e+03
5.300000000000000544e-02 1.342794999999999961e-01 1.314969999999999928e+01 5.544324999999999903e+01 1.986235000000000127e+03
5.399999999999999939e-02 1.342145000000000143e-01 1.209018999999999977e+01 5.290184999999999604e+01 1.985575000000000045e+03
5.500000000000000028e-02 1.341424999999999979e-01 1.096455500000000072e+01 5.025469999999999970e+01 1.984845000000000027e+03
5.600000000000000117e-02 1.340669999999999917e-01 9.803409999999999513e+00 4.758955000000000268e+01 1.984070000000000164e+03
5.700000000000000205e-02 1.339894999999999836e-01 8.635839999999999961e+00 4.497834999999999894e+01 1.983275000000000091e+03
5.800000000000000294e-02 1.339124999999999899e-01 7.490680000000000227e+00 4.248295000000000243e+01 1.982485000000000127e+03
5.900000000000000383e-02 1.338374999999999981e-01 6.397899999999999920e+00 4.016205000000000069e+01 1.981720000000000027e+03
6.000000000000000472e-02 1.337674999999999836e-01 5.389244999999999841e+00 3.807594999999999885e+01 1.980994999999999891e+03
6.099999999999999867e-02 1.337039999999999895e-01 4.498115000000000308e+00 3.628945000000000221e+01 1.980339999999999918e+03
6.199999999999999956e-02 1.336485000000000034e-01 3.758484999999999854e+00 3.487115000000000009e+01 1.979764999999999873e+03
6.300000000000000044e-02 1.336044999999999872e-01 3.203149999999999942e+00 3.388994999999999891e+01 1.979304999999999836e+03
6.400000000000000133e-02 1.335735000000000117e-01 2.861564999999999692e+00 3.340995000000000203e+01 1.978964999999999918e+03
6.500000000000000222e-02 1.335564999999999947e-01 2.757654999999999745e+00 3.348430000000000462e+01 1.978779999999999973e+03
6.600000000000000311e-02 1.335564999999999947e-01 2.907910000000000217e+00 3.414950000000000330e+01 1.978759999999999991e+03
6.700000000000000400e-02 1.335729999999999973e-01 3.320084999999999731e+00 3.542130000000000223e+01 1.978909999999999854e+03
6.800000000000000488e-02 1.336080000000000045e-01 3.992619999999999614e+00 3.729245000000000232e+01 1.979250000000000000e+03
6.900000000000000577e-02 1.336600000000000010e-01 4.914794999999999803e+00 3.973279999999999745e+01 1.979760000000000218e+03
7.000000000000000666e-02 1.337289999999999868e-01 6.067524999999999835e+00 4.269165000000000276e+01 1.980449999999999818e+03
7.100000000000000755e-02 1.338134999999999741e-01 7.424670000000000769e+00 4.610094999999999743e+01 1.981299999999999955e+03
7.200000000000000844e-02 1.339115000000000166e-01 8.954615000000000435e+00 4.988029999999999831e+01 1.982289999999999964e+03
7.300000000000000933e-02 1.340215000000000156e-01 1.062232500000000002e+01 5.394219999999999970e+01 1.983400000000000091e+03
7.399999999999999634e-02 1.341399999999999815e-01 1.239092499999999930e+01 5.819715000000000060e+01 1.984610000000000127e+03
7.499999999999999722e-02 1.342650000000000232e-01 1.422380000000000067e+01 6.255884999999999962e+01 1.985894999999999982e+03
7.599999999999999811e-02 1.343945000000000001e-01 1.608655000000000257e+01 6.694870000000000232e+01 1.987220000000000027e+03
7.699999999999999900e-02 1.345260000000000067e-01 1.794790000000000063e+01 7.129945000000000732e+01 1.988579999999999927e+03
7.799999999999999989e-02 1.346575000000000133e-01 1.978175000000000239e+01 7.555840000000000600e+01 1.989934999999999945e+03
7.900000000000000078e-02 1.347875000000000045e-01 2.156739999999999924e+01 7.968874999999999886e+01 1.991289999999999964e+03
8.000000000000000167e-02 1.349150000000000071e-01 2.329039999999999822e+01 8.367019999999999413e+01 1.992615000000000009e+03
8.100000000000000255e-02 1.350390000000000201e-01 2.494234999999999758e+01 8.749850000000000705e+01 1.993909999999999854e+03
8.200000000000000344e-02 1.351594999999999880e-01 2.652025000000000077e+01 9.118280000000000030e+01 1.995170000000000073e+03
8.300000000000000433e-02 1.352769999999999806e-01 2.802595000000000169e+01 9.474330000000000496e+01 1.996394999999999982e+03
8.400000000000000522e-02 1.353909999999999836e-01 2.946480000000000032e+01 9.820704999999999529e+01 1.997595000000000027e+03
8.500000000000000611e-02 1.355029999999999846e-01 3.084454999999999814e+01 1.016045000000000016e+02 1.998769999999999982e+03
8.600000000000000699e-02 1.356124999999999969e-01 3.217370000000000374e+01 1.049662000000000006e+02 1.999929999999999836e+03
8.700000000000000788e-02 1.357220000000000093e-01 3.346105000000000018e+01 1.083174999999999955e+02 2.001079999999999927e+03
8.800000000000000877e-02 1.358304999999999929e-01 3.471375000000000455e+01 1.116794999999999902e+02 2.002224999999999909e+03
8.899999999999999578e-02 1.359394999999999909e-01 3.593764999999999787e+01 1.150639999999999930e+02 2.003375000000000000e+03
8.999999999999999667e-02 1.360490000000000033e-01 3.713589999999999947e+01 1.184755000000000109e+02 2.004529999999999973e+03
9.099999999999999756e-02 1.361585000000000156e-01 3.830939999999999657e+01 1.219089999999999918e+02 2.005684999999999945e+03
9.199999999999999845e-02 1.362685000000000146e-01 3.945640000000000214e+01 1.253530000000000086e+02 2.006849999999999909e+03
9.299999999999999933e-02 1.363785000000000136e-01 4.057285000000000252e+01 1.287880000000000109e+02 2.008015000000000100e+03
9.400000000000000022e-02 1.364885000000000126e-01 4.165270000000000294e+01 1.321910000000000025e+02 2.009174999999999955e+03
9.500000000000000111e-02 1.365965000000000096e-01 4.268800000000000239e+01 1.355335000000000036e+02 2.010324999999999818e+03
9.600000000000000200e-02 1.367034999999999778e-01 4.366984999999999673e+01 1.387855000000000132e+02 2.011450000000000045e+03
9.700000000000000289e-02 1.368070000000000119e-01 4.458835000000000548e+01 1.419170000000000016e+02 2.012555000000000064e+03
9.800000000000000377e-02 1.369070000000000009e-01 4.543325000000000102e+01 1.448969999999999914e+02 2.013619999999999891e+03
9.900000000000000466e-02 1.370024999999999993e-01 4.619445000000000334e+01 1.476965000000000146e+02 2.014634999999999991e+03
1.000000000000000056e-01 1.370929999999999926e-01 4.686254999999999882e+01 1.502895000000000039e+02 2.015599999999999909e+03
1.010000000000000064e-01 1.371764999999999790e-01 4.742889999999999873e+01 1.526525000000000034e+02 2.016494999999999891e+03
1.020000000000000073e-01 1.372535000000000005e-01 4.788660000000000139e+01 1.547674999999999841e+02 2.017325000000000045e+03
1.030000000000000082e-01 1.373234999999999872e-01 4.823029999999999973e+01 1.566209999999999809e+02 2.018069999999999936e+03
1.040000000000000091e-01 1.373849999999999794e-01 4.845720000000000027e+01 1.582040000000000077e+02 2.018740000000000009e+03
1.050000000000000100e-01 1.374390000000000056e-01 4.856659999999999400e+01 1.595160000000000196e+02 2.019324999999999818e+03
1.059999999999999970e-01 1.374845000000000095e-01 4.856050000000000466e+01 1.605610000000000070e+02 2.019820000000000164e+03
1.069999999999999979e-01 1.375220000000000053e-01 4.844339999999999691e+01 1.613499999999999943e+02 2.020230000000000018e+03
1.079999999999999988e-01 1.375514999999999932e-01 4.822234999999999872e+01 1.619000000000000057e+02 2.020559999999999945e+03
1.089999999999999997e-01 1.375744999999999885e-01 4.790644999999999953e+01 1.622319999999999993e+02 2.020805000000000064e+03
1.100000000000000006e-01 1.375899999999999901e-01 4.750665000000000049e+01 1.623725000000000023e+02 2.020985000000000127e+03
1.110000000000000014e-01 1.376000000000000001e-01 4.703530000000000655e+01 1.623489999999999895e+02 2.021105000000000018e+03
1.120000000000000023e-01 1.376045000000000185e-01 4.650554999999999950e+01 1.621924999999999955e+02 2.021155000000000200e+03
1.130000000000000032e-01 1.376050000000000051e-01 4.593080000000000496e+01 1.619319999999999879e+02 2.021164999999999964e+03
1.140000000000000041e-01 1.376014999999999877e-01 4.532424999999999926e+01 1.615974999999999966e+02 2.021134999999999991e+03
1.150000000000000050e-01 1.375950000000000228e-01 4.469839999999999947e+01 1.612154999999999916e+02 2.021079999999999927e+03
1.160000000000000059e-01 1.375870000000000148e-01 4.406454999999999700e+01 1.608095000000000141e+02 2.020994999999999891e+03
1.170000000000000068e-01 1.375780000000000058e-01 4.343260000000000076e+01 1.603979999999999961e+02 2.020900000000000091e+03
1.180000000000000077e-01 1.375679999999999958e-01 4.281074999999999875e+01 1.599975000000000023e+02 2.020795000000000073e+03
1.190000000000000085e-01 1.375574999999999992e-01 4.220499999999999829e+01 1.596175000000000068e+02 2.020690000000000055e+03
1.200000000000000094e-01 1.375480000000000036e-01 4.161960000000000548e+01 1.592644999999999982e+02 2.020585000000000036e+03
1.209999999999999964e-01 1.375379999999999936e-01 4.105649999999999977e+01 1.589390000000000214e+02 2.020480000000000018e+03
1.219999999999999973e-01 1.375290000000000123e-01 4.051585000000000036e+01 1.586385000000000218e+02 2.020380000000000109e+03
1.229999999999999982e-01 1.375200000000000033e-01 3.999585000000000434e+01 1.583545000000000016e+02 2.020284999999999854e+03
1.239999999999999991e-01 1.375115000000000087e-01 3.949304999999999666e+01 1.580765000000000100e+02 2.020190000000000055e+03
1.250000000000000000e-01 1.375024999999999997e-01 3.900270000000000437e+01 1.577920000000000016e+02 2.020090000000000146e+03
1.260000000000000009e-01 1.374930000000000041e-01 3.851890000000000214e+01 1.574859999999999900e+02 2.019994999999999891e+03
1.270000000000000018e-01 1.374835000000000085e-01 3.803525000000000489e+01 1.571415000000000077e+02 2.019884999999999991e+03
1.280000000000000027e-01 1.374724999999999975e-01 3.754480000000000217e+01 1.567434999999999832e+02 2.019765000000000100e+03
1.290000000000000036e-01 1.374595000000000122e-01 3.704095000000000226e+01 1.562754999999999939e+02 2.019630000000000109e+03
1.300000000000000044e-01 1.374444999999999972e-01 3.651735000000000042e+01 1.557245000000000061e+02 2.019464999999999918e+03
1.310000000000000053e-01 1.374270000000000214e-01 3.596859999999999502e+01 1.550790000000000077e+02 2.019280000000000200e+03
1.320000000000000062e-01 1.374070000000000014e-01 3.539034999999999798e+01 1.543310000000000173e+02 2.019070000000000164e+03
1.330000000000000071e-01 1.373834999999999917e-01 3.477965000000000373e+01 1.534755000000000109e+02 2.018825000000000045e+03
1.340000000000000080e-01 1.373575000000000212e-01 3.413510000000000133e+01 1.525115000000000123e+02 2.018550000000000182e+03
1.350000000000000089e-01 1.373280000000000056e-01 3.345705000000000240e+01 1.514435000000000002e+02 2.018235000000000127e+03
1.360000000000000098e-01 1.372950000000000004e-01 3.274750000000000227e+01 1.502785000000000082e+02 2.017894999999999982e+03
1.370000000000000107e-01 1.372599999999999931e-01 3.201019999999999754e+01 1.490275000000000034e+02 2.017519999999999982e+03
1.380000000000000115e-01 1.372220000000000106e-01 3.125049999999999883e+01 1.477060000000000173e+02 2.017115000000000009e+03
1.390000000000000124e-01 1.371819999999999984e-01 3.047505000000000308e+01 1.463324999999999818e+02 2.016700000000000045e+03
1.400000000000000133e-01 1.371399999999999841e-01 2.969170000000000087e+01 1.449265000000000043e+02 2.016255000000000109e+03
1.410000000000000142e-01 1.370975000000000110e-01 2.890905000000000058e+01 1.435105000000000075e+02 2.015805000000000064e+03
1.420000000000000151e-01 1.370544999999999958e-01 2.813620000000000232e+01 1.421069999999999993e+02 2.015349999999999909e+03
1.430000000000000160e-01 1.370115000000000083e-01 2.738224999999999909e+01 1.407384999999999877e+02 2.014894999999999982e+03
1.440000000000000169e-01 1.369690000000000074e-01 2.665590000000000259e+01 1.394259999999999877e+02 2.014449999999999818e+03
1.450000000000000178e-01 1.369289999999999952e-01 2.596539999999999893e+01 1.381875000000000000e+02 2.014014999999999873e+03
1.459999999999999909e-01 1.368900000000000117e-01 2.531790000000000163e+01 1.370394999999999754e+02 2.013605000000000018e+03
1.469999999999999918e-01 1.368544999999999900e-01 2.471934999999999860e+01 1.359959999999999809e+02 2.013220000000000027e+03
1.479999999999999927e-01 1.368214999999999848e-01 2.417425000000000068e+01 1.350654999999999859e+02 2.012869999999999891e+03
1.489999999999999936e-01 1.367915000000000103e-01 2.368565000000000254e+01 1.342540000000000191e+02 2.012545000000000073e+03
1.499999999999999944e-01 1.367645000000000111e-01 2.325515000000000043e+01 1.335635000000000048e+02 2.012259999999999991e+03
1.509999999999999953e-01 1.367415000000000158e-01 2.288255000000000194e+01 1.329920000000000186e+02 2.012009999999999991e+03
1.519999999999999962e-01 1.367220000000000102e-01 2.256670000000000087e+01 1.325349999999999966e+02 2.011795000000000073e+03
1.529999999999999971e-01 1.367054999999999798e-01 2.230494999999999806e+01 1.321854999999999905e+02 2.011619999999999891e+03
1.539999999999999980e-01 1.366924999999999946e-01 2.209360000000000213e+01 1.319339999999999975e+02 2.011474999999999909e+03
1.549999999999999989e-01 1.366829999999999989e-01 2.192835000000000178e+01 1.317699999999999818e+02 2.011365000000000009e+03
1.559999999999999998e-01 1.366755000000000053e-01 2.180405000000000015e+01 1.316814999999999998e+02 2.011280000000000200e+03
1.570000000000000007e-01 1.366700000000000137e-01 2.171535000000000082e+01 1.316564999999999941e+02 2.011224999999999909e+03
1.580000000000000016e-01 1.366670000000000107e-01 2.165674999999999883e+01 1.316829999999999927e+02 2.011190000000000055e+03
1.590000000000000024e-01 1.366664999999999963e-01 2.162255000000000038e+01 1.317495000000000118e+02 2.011170000000000073e+03
