# t [s], A [cm^2], U [cm/s], P [cPa], c [cm/s]
1.000000000000000021e-03 1.274484999999999923e-01 4.943679999999999741e-01 9.625270000000000437e+01 1.821160000000000082e+03
2.000000000000000042e-03 1.274144999999999861e-01 2.262686500000000045e+00 9.270304999999999040e+01 1.820730000000000018e+03
3.000000000000000062e-03 1.273134999999999961e-01 4.346629000000000076e+00 8.818934999999999036e+01 1.819485000000000127e+03
4.000000000000000083e-03 1.271710000000000063e-01 6.631216499999999847e+00 8.353000000000000114e+01 1.817759999999999991e+03
5.000000000000000104e-03 1.270140000000000158e-01 9.044980000000000686e+00 7.949799999999999045e+01 1.815865000000000009e+03
6.000000000000000125e-03 1.268584999999999852e-01 1.142257999999999996e+01 7.627299999999999613e+01 1.814014999999999873e+03
7.000000000000000146e-03 1.267115000000000047e-01 1.357904000000000089e+01 7.358984999999999843e+01 1.812285000000000082e+03
8.000000000000000167e-03 1.265735000000000054e-01 1.543930999999999898e+01 7.120125000000000171e+01 1.810694999999999936e+03
9.000000000000001055e-03 1.264490000000000058e-01 1.703395000000000081e+01 6.910344999999999516e+01 1.809279999999999973e+03
1.000000000000000194e-02 1.263404999999999945e-01 1.839739999999999753e+01 6.734829999999999472e+01 1.808045000000000073e+03
1.099999999999999936e-02 1.262469999999999981e-01 1.954080000000000084e+01 6.590569999999999595e+01 1.807005000000000109e+03
1.200000000000000025e-02 1.261680000000000024e-01 2.047659999999999769e+01 6.471824999999999761e+01 1.806130000000000109e+03
1.300000000000000114e-02 1.261019999999999919e-01 2.121990000000000265e+01 6.373680000000000234e+01 1.805414999999999964e+03
1.400000000000000203e-02 1.260469999999999924e-01 2.178134999999999977e+01 6.290070000000000050e+01 1.804819999999999936e+03
1.499999999999999944e-02 1.260004999999999875e-01 2.218710000000000093e+01 6.216795000000000471e+01 1.804325000000000045e+03
1.600000000000000033e-02 1.259619999999999906e-01 2.250690000000000168e+01 6.160014999999999930e+01 1.803924999999999955e+03
1.700000000000000122e-02 1.259349999999999914e-01 2.285130000000000194e+01 6.139470000000000027e+01 1.803644999999999982e+03
1.800000000000000211e-02 1.259244999999999948e-01 2.332869999999999777e+01 6.180155000000000598e+01 1.803554999999999836e+03
1.900000000000000300e-02 1.259359999999999924e-01 2.399199999999999733e+01 6.297249999999999659e+01 1.803690000000000055e+03
2.000000000000000042e-02 1.259695000000000120e-01 2.480825000000000102e+01 6.484404999999999575e+01 1.804079999999999927e+03
2.100000000000000130e-02 1.260229999999999961e-01 2.566785000000000139e+01 6.712229999999999563e+01 1.804674999999999955e+03
2.200000000000000219e-02 1.260855000000000170e-01 2.642285000000000039e+01 6.936895000000001232e+01 1.805384999999999991e+03
2.299999999999999961e-02 1.261474999999999957e-01 2.693710000000000093e+01 7.114150000000000773e+01 1.806094999999999800e+03
2.400000000000000050e-02 1.261974999999999902e-01 2.712644999999999840e+01 7.212619999999999720e+01 1.806680000000000064e+03
2.500000000000000139e-02 1.262290000000000079e-01 2.697825000000000273e+01 7.221850000000000591e+01 1.807059999999999945e+03
2.600000000000000228e-02 1.262400000000000189e-01 2.654664999999999964e+01 7.152920000000000300e+01 1.807204999999999927e+03
2.700000000000000316e-02 1.262314999999999965e-01 2.592774999999999963e+01 7.032529999999999859e+01 1.807134999999999991e+03
2.800000000000000058e-02 1.262095000000000022e-01 2.522755000000000081e+01 6.893164999999999054e+01 1.806909999999999854e+03
2.900000000000000147e-02 1.261810000000000154e-01 2.453180000000000049e+01 6.763239999999998986e+01 1.806610000000000127e+03
3.000000000000000236e-02 1.261525000000000007e-01 2.388895000000000124e+01 6.660190000000000055e+01 1.806299999999999955e+03
3.099999999999999978e-02 1.261279999999999901e-01 2.330689999999999884e+01 6.588195000000000334e+01 1.806019999999999982e+03
3.200000000000000067e-02 1.261079999999999979e-01 2.276259999999999906e+01 6.540184999999999604e+01 1.805795000000000073e+03
3.300000000000000155e-02 1.260910000000000086e-01 2.221920000000000073e+01 6.502729999999999677e+01 1.805610000000000127e+03
3.400000000000000244e-02 1.260755000000000070e-01 2.164370000000000260e+01 6.461910000000000309e+01 1.805434999999999945e+03
3.500000000000000333e-02 1.260584999999999900e-01 2.102165000000000106e+01 6.408375000000000909e+01 1.805250000000000000e+03
3.600000000000000422e-02 1.260389999999999844e-01 2.036444999999999794e+01 6.340440000000000254e+01 1.805029999999999973e+03
3.700000000000000511e-02 1.260160000000000169e-01 1.970875000000000199e+01 6.264679999999999893e+01 1.804775000000000091e+03
3.799999999999999906e-02 1.259925000000000073e-01 1.910824999999999818e+01 6.194075000000000131e+01 1.804519999999999982e+03
3.899999999999999994e-02 1.259720000000000006e-01 1.862089999999999890e+01 6.144389999999999930e+01 1.804284999999999854e+03
4.000000000000000083e-02 1.259575000000000000e-01 1.829459999999999908e+01 6.129869999999999663e+01 1.804119999999999891e+03
4.100000000000000172e-02 1.259530000000000094e-01 1.815494999999999948e+01 6.159329999999999927e+01 1.804059999999999945e+03
4.200000000000000261e-02 1.259609999999999896e-01 1.819819999999999993e+01 6.233679999999999666e+01 1.804134999999999991e+03
4.300000000000000350e-02 1.259810000000000096e-01 1.839070000000000249e+01 6.345204999999999984e+01 1.804344999999999800e+03
4.400000000000000439e-02 1.260104999999999975e-01 1.867354999999999876e+01 6.478780000000000427e+01 1.804670000000000073e+03
4.499999999999999833e-02 1.260469999999999924e-01 1.897224999999999895e+01 6.614449999999999363e+01 1.805070000000000164e+03
4.599999999999999922e-02 1.260840000000000016e-01 1.920725000000000193e+01 6.730700000000000216e+01 1.805480000000000018e+03
4.700000000000000011e-02 1.261165000000000203e-01 1.930515000000000114e+01 6.807765000000000555e+01 1.805840000000000146e+03
4.800000000000000100e-02 1.261390000000000011e-01 1.920714999999999861e+01 6.830240000000000578e+01 1.806095000000000027e+03
4.900000000000000189e-02 1.261470000000000091e-01 1.887440000000000140e+01 6.788779999999999859e+01 1.806184999999999945e+03
5.000000000000000278e-02 1.261364999999999847e-01 1.829039999999999822e+01 6.680625000000000568e+01 1.806085000000000036e+03
5.100000000000000366e-02 1.261074999999999835e-01 1.745935000000000059e+01 6.509135000000000559e+01 1.805764999999999873e+03
5.200000000000000455e-02 1.260600000000000054e-01 1.640364999999999895e+01 6.282589999999999719e+01 1.805240000000000009e+03
5.300000000000000544e-02 1.259945000000000093e-01 1.515899999999999892e+01 6.012635000000000218e+01 1.804514999999999873e+03
5.399999999999999939e-02 1.259149999999999991e-01 1.376989000000000019e+01 5.712694999999999368e+01 1.803630000000000109e+03
5.500000000000000028e-02 1.258245000000000058e-01 1.228605999999999909e+01 5.396600000000000108e+01 1.802625000000000000e+03
5.600000000000000117e-02 1.257264999999999910e-01 1.075892499999999963e+01 5.077655000000000030e+01 1.801529999999999973e+03
5.700000000000000205e-02 1.256255000000000011e-01 9.239950000000000330e+00 4.768104999999999905e+01 1.800400000000000091e+03
5.800000000000000294e-02 1.255239999999999967e-01 7.779284999999999783e+00 4.478934999999999889e+01 1.799269999999999982e+03
5.900000000000000383e-02 1.254270000000000107e-01 6.425260000000000637e+00 4.219955000000000211e+01 1.798180000000000064e+03
6.000000000000000472e-02 1.253374999999999906e-01 5.223765000000000214e+00 3.999944999999999595e+01 1.797174999999999955e+03
6.099999999999999867e-02 1.252580000000000082e-01 4.217889999999999695e+00 3.826749999999999829e+01 1.796284999999999854e+03
6.199999999999999956e-02 1.251919999999999977e-01 3.446964999999999613e+00 3.707365000000000066e+01 1.795534999999999854e+03
6.300000000000000044e-02 1.251424999999999899e-01 2.945434999999999803e+00 3.647785000000000366e+01 1.794970000000000027e+03
6.400000000000000133e-02 1.251110000000000000e-01 2.741445000000000132e+00 3.652779999999999916e+01 1.794605000000000018e+03
6.500000000000000222e-02 1.250999999999999890e-01 2.855315000000000047e+00 3.725615000000000521e+01 1.794465000000000146e+03
6.600000000000000311e-02 1.251099999999999990e-01 3.298219999999999708e+00 3.867699999999999960e+01 1.794555000000000064e+03
6.700000000000000400e-02 1.251430000000000042e-01 4.071215000000000472e+00 4.078364999999999441e+01 1.794900000000000091e+03
6.800000000000000488e-02 1.251990000000000047e-01 5.164830000000000254e+00 4.354715000000000202e+01 1.795500000000000000e+03
6.900000000000000577e-02 1.252765000000000128e-01 6.559345000000000425e+00 4.691705000000000325e+01 1.796344999999999800e+03
7.000000000000000666e-02 1.253744999999999998e-01 8.225780000000000314e+00 5.082314999999999827e+01 1.797424999999999955e+03
7.100000000000000755e-02 1.254919999999999924e-01 1.012746000000000102e+01 5.517990000000000350e+01 1.798720000000000027e+03
7.200000000000000844e-02 1.256260000000000154e-01 1.222197500000000048e+01 5.989085000000000036e+01 1.800200000000000045e+03
7.300000000000000933e-02 1.257734999999999825e-01 1.446333500000000072e+01 6.485439999999999827e+01 1.801845000000000027e+03
7.399999999999999634e-02 1.259325000000000028e-01 1.680434999999999945e+01 6.996930000000000405e+01 1.803615000000000009e+03
7.499999999999999722e-02 1.260979999999999879e-01 1.919855000000000089e+01 7.513939999999999486e+01 1.805480000000000018e+03
7.599999999999999811e-02 1.262690000000000201e-01 2.160210000000000008e+01 8.027800000000000580e+01 1.807405000000000200e+03
7.699999999999999900e-02 1.264415000000000122e-01 2.397520000000000095e+01 8.531095000000000539e+01 1.809355000000000018e+03
7.799999999999999989e-02 1.266134999999999899e-01 2.628350000000000009e+01 9.017839999999999634e+01 1.811304999999999836e+03
7.900000000000000078e-02 1.267820000000000058e-01 2.849885000000000090e+01 9.483655000000000257e+01 1.813224999999999909e+03
8.000000000000000167e-02 1.269460000000000033e-01 3.059994999999999976e+01 9.925724999999999909e+01 1.815099999999999909e+03
8.100000000000000255e-02 1.271039999999999948e-01 3.257269999999999754e+01 1.034286000000000030e+02 1.816920000000000073e+03
8.200000000000000344e-02 1.272559999999999802e-01 3.440984999999999872e+01 1.073539999999999992e+02 1.818659999999999854e+03
8.300000000000000433e-02 1.274004999999999999e-01 3.611140000000000327e+01 1.110494999999999948e+02 1.820329999999999927e+03
8.400000000000000522e-02 1.275379999999999847e-01 3.768325000000000102e+01 1.145439999999999969e+02 1.821929999999999836e+03
8.500000000000000611e-02 1.276700000000000057e-01 3.913660000000000139e+01 1.178739999999999952e+02 1.823460000000000036e+03
8.600000000000000699e-02 1.277965000000000073e-01 4.048680000000000234e+01 1.210819999999999936e+02 1.824930000000000064e+03
8.700000000000000788e-02 1.279184999999999905e-01 4.175200000000000244e+01 1.242154999999999916e+02 1.826355000000000018e+03
8.800000000000000877e-02 1.280380000000000129e-01 4.295154999999999745e+01 1.273185000000000002e+02 1.827750000000000000e+03
8.899999999999999578e-02 1.281555000000000055e-01 4.410455000000000325e+01 1.304339999999999975e+02 1.829130000000000109e+03
8.999999999999999667e-02 1.282729999999999981e-01 4.522845000000000226e+01 1.335949999999999989e+02 1.830500000000000000e+03
9.099999999999999756e-02 1.283910000000000051e-01 4.633785000000000309e+01 1.368285000000000196e+02 1.831880000000000109e+03
9.199999999999999845e-02 1.285104999999999997e-01 4.744350000000000023e+01 1.401485000000000127e+02 1.833275000000000091e+03
9.299999999999999933e-02 1.286319999999999963e-01 4.855154999999999887e+01 1.435579999999999927e+02 1.834700000000000045e+03
9.400000000000000022e-02 1.287554999999999950e-01 4.966329999999999956e+01 1.470480000000000018e+02 1.836144999999999982e+03
9.500000000000000111e-02 1.288814999999999822e-01 5.077514999999999645e+01 1.505974999999999966e+02 1.837619999999999891e+03
9.600000000000000200e-02 1.290084999999999982e-01 5.187895000000000323e+01 1.541754999999999995e+02 1.839115000000000009e+03
9.700000000000000289e-02 1.291365000000000152e-01 5.296250000000000568e+01 1.577439999999999998e+02 1.840615000000000009e+03
9.800000000000000377e-02 1.292639999999999900e-01 5.401075000000000159e+01 1.612574999999999932e+02 1.842115000000000009e+03
9.900000000000000466e-02 1.293900000000000050e-01 5.500614999999999810e+01 1.646684999999999945e+02 1.843599999999999909e+03
1.000000000000000056e-01 1.295129999999999892e-01 5.593019999999999925e+01 1.679294999999999902e+02 1.845050000000000182e+03
1.010000000000000064e-01 1.296315000000000106e-01 5.676420000000000243e+01 1.709929999999999950e+02 1.846449999999999818e+03
1.020000000000000073e-01 1.297435000000000116e-01 5.749034999999999940e+01 1.738164999999999907e+02 1.847784999999999854e+03
1.030000000000000082e-01 1.298485000000000056e-01 5.809259999999999735e+01 1.763634999999999877e+02 1.849025000000000091e+03
1.040000000000000091e-01 1.299450000000000049e-01 5.855740000000000123e+01 1.786034999999999968e+02 1.850180000000000064e+03
1.050000000000000100e-01 1.300320000000000087e-01 5.887409999999999854e+01 1.805159999999999911e+02 1.851220000000000027e+03
1.059999999999999970e-01 1.301080000000000014e-01 5.903575000000000017e+01 1.820865000000000009e+02 1.852134999999999991e+03
1.069999999999999979e-01 1.301734999999999975e-01 5.903894999999999982e+01 1.833125000000000000e+02 1.852920000000000073e+03
1.079999999999999988e-01 1.302280000000000104e-01 5.888414999999999822e+01 1.841965000000000146e+02 1.853579999999999927e+03
1.089999999999999997e-01 1.302705000000000113e-01 5.857574999999999932e+01 1.847504999999999882e+02 1.854094999999999800e+03
1.100000000000000006e-01 1.303020000000000012e-01 5.812140000000000128e+01 1.849954999999999927e+02 1.854490000000000009e+03
1.110000000000000014e-01 1.303229999999999944e-01 5.753224999999999767e+01 1.849559999999999889e+02 1.854750000000000000e+03
1.120000000000000023e-01 1.303345000000000198e-01 5.682209999999999894e+01 1.846630000000000109e+02 1.854900000000000091e+03
1.130000000000000032e-01 1.303360000000000074e-01 5.600699999999999790e+01 1.841519999999999868e+02 1.854934999999999945e+03
1.140000000000000041e-01 1.303305000000000158e-01 5.510460000000000491e+01 1.834594999999999914e+02 1.854880000000000109e+03
1.150000000000000050e-01 1.303170000000000162e-01 5.413365000000000293e+01 1.826250000000000000e+02 1.854730000000000018e+03
1.160000000000000059e-01 1.302979999999999972e-01 5.311319999999999908e+01 1.816854999999999905e+02 1.854514999999999873e+03
1.170000000000000068e-01 1.302745000000000153e-01 5.206194999999999595e+01 1.806795000000000186e+02 1.854244999999999891e+03
1.180000000000000077e-01 1.302474999999999883e-01 5.099770000000000181e+01 1.796410000000000196e+02 1.853925000000000182e+03
1.190000000000000085e-01 1.302180000000000004e-01 4.993684999999999974e+01 1.785994999999999777e+02 1.853585000000000036e+03
1.200000000000000094e-01 1.301875000000000115e-01 4.889374999999999716e+01 1.775819999999999936e+02 1.853219999999999800e+03
1.209999999999999964e-01 1.301559999999999939e-01 4.788054999999999950e+01 1.766094999999999970e+02 1.852855000000000018e+03
1.219999999999999973e-01 1.301249999999999907e-01 4.690680000000000405e+01 1.756965000000000146e+02 1.852490000000000009e+03
1.229999999999999982e-01 1.300955000000000028e-01 4.597910000000000252e+01 1.748539999999999850e+02 1.852134999999999991e+03
1.239999999999999991e-01 1.300669999999999882e-01 4.510160000000000480e+01 1.740840000000000032e+02 1.851795000000000073e+03
1.250000000000000000e-01 1.300405000000000033e-01 4.427524999999999977e+01 1.733865000000000123e+02 1.851480000000000018e+03
1.260000000000000009e-01 1.300149999999999917e-01 4.349875000000000114e+01 1.727534999999999741e+02 1.851175000000000182e+03
1.270000000000000018e-01 1.299919999999999964e-01 4.276820000000000022e+01 1.721744999999999948e+02 1.850894999999999982e+03
1.280000000000000027e-01 1.299704999999999888e-01 4.207774999999999466e+01 1.716345000000000027e+02 1.850634999999999991e+03
1.290000000000000036e-01 1.299494999999999956e-01 4.141995000000000005e+01 1.711159999999999854e+02 1.850384999999999991e+03
1.300000000000000044e-01 1.299299999999999899e-01 4.078589999999999804e+01 1.705985000000000014e+02 1.850144999999999982e+03
1.310000000000000053e-01 1.299099999999999977e-01 4.016615000000000180e+01 1.700629999999999882e+02 1.849900000000000091e+03
1.320000000000000062e-01 1.298894999999999911e-01 3.955089999999999861e+01 1.694890000000000043e+02 1.849654999999999973e+03
1.330000000000000071e-01 1.298680000000000112e-01 3.893045000000000044e+01 1.688565000000000111e+02 1.849400000000000091e+03
1.340000000000000080e-01 1.298449999999999882e-01 3.829569999999999652e+01 1.681490000000000009e+02 1.849125000000000000e+03
1.350000000000000089e-01 1.298195000000000043e-01 3.763850000000000051e+01 1.673514999999999873e+02 1.848824999999999818e+03
1.360000000000000098e-01 1.297919999999999907e-01 3.695204999999999984e+01 1.664524999999999864e+02 1.848494999999999891e+03
1.370000000000000107e-01 1.297605000000000008e-01 3.623109999999999786e+01 1.654445000000000050e+02 1.848130000000000109e+03
1.380000000000000115e-01 1.297264999999999946e-01 3.547235000000000582e+01 1.643240000000000123e+02 1.847724999999999909e+03
1.390000000000000124e-01 1.296889999999999987e-01 3.467439999999999856e+01 1.630925000000000011e+02 1.847275000000000091e+03
1.400000000000000133e-01 1.296474999999999989e-01 3.383789999999999765e+01 1.617540000000000191e+02 1.846795000000000073e+03
1.410000000000000142e-01 1.296029999999999960e-01 3.296549999999999869e+01 1.603190000000000168e+02 1.846264999999999873e+03
1.420000000000000151e-01 1.295550000000000035e-01 3.206199999999999761e+01 1.587994999999999948e+02 1.845699999999999818e+03
1.430000000000000160e-01 1.295034999999999936e-01 3.113365000000000293e+01 1.572139999999999986e+02 1.845105000000000018e+03
1.440000000000000169e-01 1.294509999999999827e-01 3.018854999999999933e+01 1.555810000000000173e+02 1.844480000000000018e+03
1.450000000000000178e-01 1.293954999999999966e-01 2.923579999999999757e+01 1.539225000000000136e+02 1.843835000000000036e+03
1.459999999999999909e-01 1.293390000000000095e-01 2.828544999999999732e+01 1.522615000000000123e+02 1.843170000000000073e+03
1.469999999999999918e-01 1.292820000000000080e-01 2.734799999999999898e+01 1.506220000000000141e+02 1.842505000000000109e+03
1.479999999999999927e-01 1.292254999999999932e-01 2.643420000000000059e+01 1.490269999999999868e+02 1.841840000000000146e+03
1.489999999999999936e-01 1.291700000000000070e-01 2.555409999999999826e+01 1.474979999999999905e+02 1.841184999999999945e+03
1.499999999999999944e-01 1.291160000000000085e-01 2.471750000000000114e+01 1.460554999999999950e+02 1.840555000000000064e+03
1.509999999999999953e-01 1.290644999999999987e-01 2.393290000000000006e+01 1.447160000000000082e+02 1.839944999999999936e+03
1.519999999999999962e-01 1.290155000000000052e-01 2.320759999999999934e+01 1.434950000000000045e+02 1.839369999999999891e+03
1.529999999999999971e-01 1.289704999999999879e-01 2.254704999999999870e+01 1.424014999999999986e+02 1.838835000000000036e+03
1.539999999999999980e-01 1.289290000000000158e-01 2.195540000000000092e+01 1.414414999999999907e+02 1.838345000000000027e+03
1.549999999999999989e-01 1.288920000000000066e-01 2.143464999999999776e+01 1.406189999999999998e+02 1.837904999999999973e+03
1.559999999999999998e-01 1.288590000000000013e-01 2.098519999999999897e+01 1.399320000000000164e+02 1.837519999999999982e+03
1.570000000000000007e-01 1.288305000000000144e-01 2.060549999999999926e+01 1.393754999999999882e+02 1.837175000000000182e+03
1.580000000000000016e-01 1.288060000000000038e-01 2.029249999999999687e+01 1.389410000000000025e+02 1.836884999999999991e+03
1.590000000000000024e-01 1.287854999999999972e-01 2.004169999999999874e+01 1.386175000000000068e+02 1.836639999999999873e+03
