# t [s], A [cm^2], U [cm/s], P [cPa], c [cm/s]
1.000000000000000021e-03 1.309454999999999925e-01 1.341379999999999795e-01 1.025910000000000082e+02 1.874059999999999945e+03
2.000000000000000042e-03 1.309325000000000072e-01 1.411646500000000026e+00 1.000622500000000059e+02 1.873910000000000082e+03
3.000000000000000062e-03 1.308660000000000101e-01 3.056239999999999846e+00 9.675624999999999432e+01 1.873180000000000064e+03
4.000000000000000083e-03 1.307590000000000141e-01 4.905503500000000017e+00 9.283015000000000327e+01 1.872029999999999973e+03
5.000000000000000104e-03 1.306284999999999807e-01 6.909157999999999689e+00 8.883615000000000350e+01 1.870644999999999982e+03
6.000000000000000125e-03 1.304889999999999939e-01 9.002639999999999532e+00 8.518940000000000623e+01 1.869180000000000064e+03
7.000000000000000146e-03 1.303500000000000214e-01 1.107751999999999981e+01 8.203180000000000405e+01 1.867735000000000127e+03
8.000000000000000167e-03 1.302165000000000128e-01 1.301305999999999941e+01 7.928030000000001110e+01 1.866365000000000009e+03
9.000000000000001055e-03 1.300899999999999834e-01 1.473837500000000134e+01 7.681030000000001223e+01 1.865090000000000146e+03
1.000000000000000194e-02 1.299734999999999918e-01 1.624690000000000012e+01 7.459250000000000114e+01 1.863924999999999955e+03
1.099999999999999936e-02 1.298694999999999988e-01 1.755684999999999718e+01 7.266134999999999877e+01 1.862894999999999982e+03
1.200000000000000025e-02 1.297785000000000188e-01 1.868280000000000030e+01 7.103640000000000043e+01 1.862009999999999991e+03
1.300000000000000114e-02 1.297004999999999963e-01 1.963299999999999912e+01 6.970279999999999632e+01 1.861255000000000109e+03
1.400000000000000203e-02 1.296350000000000002e-01 2.041215000000000046e+01 6.862094999999999345e+01 1.860625000000000000e+03
1.499999999999999944e-02 1.295800000000000007e-01 2.102154999999999774e+01 6.773189999999999600e+01 1.860110000000000127e+03
1.600000000000000033e-02 1.295340000000000102e-01 2.146715000000000018e+01 6.697294999999999732e+01 1.859680000000000064e+03
1.700000000000000122e-02 1.294949999999999990e-01 2.177355000000000018e+01 6.631530000000000769e+01 1.859325000000000045e+03
1.800000000000000211e-02 1.294635000000000091e-01 2.199130000000000251e+01 6.579885000000000161e+01 1.859045000000000073e+03
1.900000000000000300e-02 1.294414999999999871e-01 2.218885000000000218e+01 6.553119999999999834e+01 1.858845000000000027e+03
2.000000000000000042e-02 1.294305000000000039e-01 2.243175000000000097e+01 6.564475000000000193e+01 1.858759999999999991e+03
2.100000000000000130e-02 1.294339999999999935e-01 2.276055000000000206e+01 6.623484999999999445e+01 1.858804999999999836e+03
2.200000000000000219e-02 1.294529999999999847e-01 2.317924999999999969e+01 6.731180000000000518e+01 1.859000000000000000e+03
2.299999999999999961e-02 1.294855000000000034e-01 2.365664999999999907e+01 6.878665000000000873e+01 1.859320000000000164e+03
2.400000000000000050e-02 1.295284999999999909e-01 2.413830000000000098e+01 7.049190000000000111e+01 1.859750000000000000e+03
2.500000000000000139e-02 1.295775000000000121e-01 2.456419999999999959e+01 7.222550000000001091e+01 1.860240000000000009e+03
2.600000000000000228e-02 1.296279999999999932e-01 2.488455000000000084e+01 7.379945000000000732e+01 1.860750000000000000e+03
2.700000000000000316e-02 1.296740000000000115e-01 2.507025000000000148e+01 7.507925000000000182e+01 1.861219999999999800e+03
2.800000000000000058e-02 1.297139999999999960e-01 2.511630000000000251e+01 7.600395000000000323e+01 1.861630000000000109e+03
2.900000000000000147e-02 1.297464999999999868e-01 2.503859999999999886e+01 7.658545000000000869e+01 1.861965000000000146e+03
3.000000000000000236e-02 1.297699999999999965e-01 2.486544999999999916e+01 7.688974999999999227e+01 1.862220000000000027e+03
3.099999999999999978e-02 1.297875000000000001e-01 2.462774999999999892e+01 7.700819999999998799e+01 1.862404999999999973e+03
3.200000000000000067e-02 1.297999999999999987e-01 2.435004999999999953e+01 7.702785000000000082e+01 1.862534999999999854e+03
3.300000000000000155e-02 1.298090000000000077e-01 2.404540000000000077e+01 7.700860000000000127e+01 1.862634999999999991e+03
3.400000000000000244e-02 1.298159999999999870e-01 2.371424999999999983e+01 7.697294999999999732e+01 1.862704999999999927e+03
3.500000000000000333e-02 1.298205000000000053e-01 2.334740000000000038e+01 7.690794999999999959e+01 1.862750000000000000e+03
3.600000000000000422e-02 1.298215000000000063e-01 2.293159999999999954e+01 7.677745000000000175e+01 1.862775000000000091e+03
3.700000000000000511e-02 1.298199999999999910e-01 2.245584999999999809e+01 7.654050000000000864e+01 1.862759999999999991e+03
3.799999999999999906e-02 1.298139999999999850e-01 2.191714999999999947e+01 7.616955000000000098e+01 1.862710000000000036e+03
3.899999999999999994e-02 1.298040000000000027e-01 2.132394999999999996e+01 7.566409999999999059e+01 1.862615000000000009e+03
4.000000000000000083e-02 1.297900000000000165e-01 2.069669999999999987e+01 7.505759999999999366e+01 1.862485000000000127e+03
4.100000000000000172e-02 1.297735000000000138e-01 2.006540000000000035e+01 7.441440000000000055e+01 1.862325000000000045e+03
4.200000000000000261e-02 1.297559999999999825e-01 1.946504999999999797e+01 7.381960000000000832e+01 1.862159999999999854e+03
4.300000000000000350e-02 1.297405000000000086e-01 1.892954999999999899e+01 7.336310000000000286e+01 1.862009999999999991e+03
4.400000000000000439e-02 1.297294999999999976e-01 1.848595000000000255e+01 7.312245000000000061e+01 1.861894999999999982e+03
4.499999999999999833e-02 1.297240000000000060e-01 1.815005000000000024e+01 7.314820000000000277e+01 1.861840000000000146e+03
4.599999999999999922e-02 1.297260000000000080e-01 1.792439999999999856e+01 7.345484999999999332e+01 1.861849999999999909e+03
4.700000000000000011e-02 1.297355000000000036e-01 1.779844999999999899e+01 7.401865000000000805e+01 1.861934999999999945e+03
4.800000000000000100e-02 1.297514999999999918e-01 1.775079999999999814e+01 7.478274999999999295e+01 1.862090000000000146e+03
4.900000000000000189e-02 1.297729999999999995e-01 1.775305000000000177e+01 7.566679999999999495e+01 1.862289999999999964e+03
5.000000000000000278e-02 1.297979999999999967e-01 1.777414999999999878e+01 7.657954999999999757e+01 1.862525000000000091e+03
5.100000000000000366e-02 1.298239999999999950e-01 1.778419999999999845e+01 7.743180000000000973e+01 1.862779999999999973e+03
5.200000000000000455e-02 1.298479999999999912e-01 1.775744999999999862e+01 7.814644999999998731e+01 1.863014999999999873e+03
5.300000000000000544e-02 1.298689999999999845e-01 1.767445000000000022e+01 7.866589999999999350e+01 1.863224999999999909e+03
5.399999999999999939e-02 1.298850000000000005e-01 1.752255000000000251e+01 7.895484999999999332e+01 1.863385000000000218e+03
5.500000000000000028e-02 1.298944999999999961e-01 1.729504999999999981e+01 7.899969999999999004e+01 1.863485000000000127e+03
5.600000000000000117e-02 1.298974999999999991e-01 1.699070000000000036e+01 7.880480000000000018e+01 1.863519999999999982e+03
5.700000000000000205e-02 1.298940000000000095e-01 1.661185000000000045e+01 7.838759999999999195e+01 1.863485000000000127e+03
5.800000000000000294e-02 1.298835000000000128e-01 1.616315000000000168e+01 7.777320000000000277e+01 1.863389999999999873e+03
5.900000000000000383e-02 1.298670000000000102e-01 1.565054999999999907e+01 7.698964999999999748e+01 1.863230000000000018e+03
6.000000000000000472e-02 1.298449999999999882e-01 1.508060000000000045e+01 7.606510000000000105e+01 1.863009999999999991e+03
6.099999999999999867e-02 1.298175000000000023e-01 1.446044999999999980e+01 7.502600000000001046e+01 1.862750000000000000e+03
6.199999999999999956e-02 1.297864999999999991e-01 1.379814999999999969e+01 7.389754999999999541e+01 1.862445000000000164e+03
6.300000000000000044e-02 1.297520000000000062e-01 1.310310000000000130e+01 7.270465000000000089e+01 1.862105000000000018e+03
6.400000000000000133e-02 1.297145000000000103e-01 1.238649999999999984e+01 7.147360000000000468e+01 1.861739999999999782e+03
6.500000000000000222e-02 1.296754999999999991e-01 1.166197499999999998e+01 7.023430000000000462e+01 1.861355000000000018e+03
6.600000000000000311e-02 1.296360000000000012e-01 1.094560500000000047e+01 6.902084999999999582e+01 1.860970000000000027e+03
6.700000000000000400e-02 1.295965000000000034e-01 1.025595000000000034e+01 6.787274999999999636e+01 1.860579999999999927e+03
6.800000000000000488e-02 1.295589999999999797e-01 9.613459999999999894e+00 6.683395000000000152e+01 1.860210000000000036e+03
6.900000000000000577e-02 1.295245000000000146e-01 9.039904999999999191e+00 6.595189999999999486e+01 1.859864999999999782e+03
7.000000000000000666e-02 1.294955000000000134e-01 8.557539999999999480e+00 6.527530000000000143e+01 1.859569999999999936e+03
7.100000000000000755e-02 1.294720000000000037e-01 8.187799999999999301e+00 6.485174999999999557e+01 1.859329999999999927e+03
7.200000000000000844e-02 1.294565000000000021e-01 7.950380000000000891e+00 6.472495000000000687e+01 1.859174999999999955e+03
7.300000000000000933e-02 1.294494999999999951e-01 7.862339999999999662e+00 6.493224999999999625e+01 1.859099999999999909e+03
7.399999999999999634e-02 1.294530000000000125e-01 7.937190000000000190e+00 6.550254999999999939e+01 1.859119999999999891e+03
7.499999999999999722e-02 1.294685000000000141e-01 8.184355000000000047e+00 6.645489999999999498e+01 1.859259999999999991e+03
7.599999999999999811e-02 1.294954999999999856e-01 8.608805000000000263e+00 6.779740000000001032e+01 1.859514999999999873e+03
7.699999999999999900e-02 1.295344999999999969e-01 9.210974999999999469e+00 6.952729999999999677e+01 1.859884999999999991e+03
7.799999999999999989e-02 1.295864999999999934e-01 9.986990000000000478e+00 7.163145000000000095e+01 1.860380000000000109e+03
7.900000000000000078e-02 1.296500000000000152e-01 1.092889999999999873e+01 7.408750000000000568e+01 1.861000000000000000e+03
8.000000000000000167e-02 1.297254999999999936e-01 1.202529999999999966e+01 7.686545000000000982e+01 1.861730000000000018e+03
8.100000000000000255e-02 1.298114999999999963e-01 1.326200000000000045e+01 7.992955000000000609e+01 1.862575000000000045e+03
8.200000000000000344e-02 1.299075000000000091e-01 1.462270000000000003e+01 8.324029999999999063e+01 1.863509999999999991e+03
8.300000000000000433e-02 1.300125000000000031e-01 1.608974999999999866e+01 8.675639999999999930e+01 1.864539999999999964e+03
8.400000000000000522e-02 1.301245000000000041e-01 1.764484999999999815e+01 9.043694999999999595e+01 1.865644999999999982e+03
8.500000000000000611e-02 1.302429999999999977e-01 1.926980000000000004e+01 9.424304999999999666e+01 1.866815000000000055e+03
8.600000000000000699e-02 1.303670000000000107e-01 2.094704999999999728e+01 9.813864999999999839e+01 1.868039999999999964e+03
8.700000000000000788e-02 1.304945000000000133e-01 2.266004999999999825e+01 1.020916500000000013e+02 1.869305000000000064e+03
8.800000000000000877e-02 1.306249999999999911e-01 2.439354999999999762e+01 1.060763500000000050e+02 1.870605000000000018e+03
8.899999999999999578e-02 1.307574999999999987e-01 2.613374999999999915e+01 1.100695000000000050e+02 1.871925000000000182e+03
8.999999999999999667e-02 1.308909999999999796e-01 2.786840000000000117e+01 1.140534999999999997e+02 1.873264999999999873e+03
9.099999999999999756e-02 1.310250000000000026e-01 2.958670000000000044e+01 1.180150000000000006e+02 1.874615000000000009e+03
9.199999999999999845e-02 1.311599999999999988e-01 3.127900000000000347e+01 1.219419999999999931e+02 1.875964999999999918e+03
9.299999999999999933e-02 1.312939999999999940e-01 3.293675000000000352e+01 1.258269999999999982e+02 1.877315000000000055e+03
9.400000000000000022e-02 1.314275000000000027e-01 3.455230000000000246e+01 1.296614999999999895e+02 1.878659999999999854e+03
9.500000000000000111e-02 1.315594999999999959e-01 3.611839999999999407e+01 1.334385000000000048e+02 1.880000000000000000e+03
9.600000000000000200e-02 1.316904999999999881e-01 3.762855000000000416e+01 1.371510000000000105e+02 1.881324999999999818e+03
9.700000000000000289e-02 1.318189999999999917e-01 3.907654999999999745e+01 1.407905000000000086e+02 1.882634999999999991e+03
9.800000000000000377e-02 1.319464999999999943e-01 4.045669999999999789e+01 1.443485000000000014e+02 1.883924999999999955e+03
9.900000000000000466e-02 1.320709999999999940e-01 4.176350000000000051e+01 1.478165000000000191e+02 1.885190000000000055e+03
1.000000000000000056e-01 1.321924999999999906e-01 4.299204999999999899e+01 1.511850000000000023e+02 1.886434999999999945e+03
1.010000000000000064e-01 1.323114999999999986e-01 4.413779999999999859e+01 1.544429999999999836e+02 1.887650000000000091e+03
1.020000000000000073e-01 1.324265000000000025e-01 4.519684999999999775e+01 1.575835000000000150e+02 1.888835000000000036e+03
1.030000000000000082e-01 1.325385000000000035e-01 4.616580000000000439e+01 1.605964999999999918e+02 1.889985000000000127e+03
1.040000000000000091e-01 1.326465000000000005e-01 4.704205000000000325e+01 1.634730000000000132e+02 1.891090000000000146e+03
1.050000000000000100e-01 1.327494999999999925e-01 4.782330000000000325e+01 1.662074999999999818e+02 1.892154999999999973e+03
1.059999999999999970e-01 1.328485000000000082e-01 4.850804999999999723e+01 1.687930000000000064e+02 1.893174999999999955e+03
1.069999999999999979e-01 1.329425000000000190e-01 4.909529999999999461e+01 1.712235000000000014e+02 1.894144999999999982e+03
1.079999999999999988e-01 1.330314999999999970e-01 4.958424999999999727e+01 1.734954999999999927e+02 1.895069999999999936e+03
1.089999999999999997e-01 1.331149999999999833e-01 4.997490000000000521e+01 1.756045000000000016e+02 1.895940000000000055e+03
1.100000000000000006e-01 1.331935000000000202e-01 5.026740000000000208e+01 1.775459999999999923e+02 1.896750000000000000e+03
1.110000000000000014e-01 1.332665000000000100e-01 5.046229999999999905e+01 1.793185000000000002e+02 1.897514999999999873e+03
1.120000000000000023e-01 1.333340000000000081e-01 5.056054999999999922e+01 1.809184999999999945e+02 1.898214999999999918e+03
1.130000000000000032e-01 1.333949999999999858e-01 5.056354999999999933e+01 1.823464999999999918e+02 1.898855000000000018e+03
1.140000000000000041e-01 1.334504999999999997e-01 5.047315000000000396e+01 1.835999999999999943e+02 1.899440000000000055e+03
1.150000000000000050e-01 1.335000000000000075e-01 5.029170000000000584e+01 1.846800000000000068e+02 1.899960000000000036e+03
1.160000000000000059e-01 1.335439999999999960e-01 5.002235000000000298e+01 1.855885000000000105e+02 1.900425000000000182e+03
1.170000000000000068e-01 1.335824999999999929e-01 4.966859999999999786e+01 1.863299999999999841e+02 1.900820000000000164e+03
1.180000000000000077e-01 1.336144999999999972e-01 4.923494999999999777e+01 1.869079999999999870e+02 1.901164999999999964e+03
1.190000000000000085e-01 1.336410000000000098e-01 4.872639999999999816e+01 1.873299999999999841e+02 1.901449999999999818e+03
1.200000000000000094e-01 1.336624999999999897e-01 4.814865000000000350e+01 1.876045000000000016e+02 1.901675000000000182e+03
1.209999999999999964e-01 1.336784999999999779e-01 4.750785000000000480e+01 1.877414999999999736e+02 1.901855000000000018e+03
1.219999999999999973e-01 1.336895000000000167e-01 4.681090000000000373e+01 1.877529999999999859e+02 1.901974999999999909e+03
1.229999999999999982e-01 1.336959999999999815e-01 4.606465000000000032e+01 1.876494999999999891e+02 1.902055000000000064e+03
1.239999999999999991e-01 1.336990000000000123e-01 4.527644999999999698e+01 1.874455000000000098e+02 1.902085000000000036e+03
1.250000000000000000e-01 1.336970000000000103e-01 4.445345000000000368e+01 1.871529999999999916e+02 1.902079999999999927e+03
1.260000000000000009e-01 1.336930000000000063e-01 4.360285000000000366e+01 1.867855000000000132e+02 1.902039999999999964e+03
1.270000000000000018e-01 1.336855000000000127e-01 4.273130000000000450e+01 1.863539999999999850e+02 1.901964999999999918e+03
1.280000000000000027e-01 1.336749999999999883e-01 4.184525000000000006e+01 1.858704999999999927e+02 1.901865000000000009e+03
1.290000000000000036e-01 1.336630000000000040e-01 4.095040000000000191e+01 1.853439999999999941e+02 1.901744999999999891e+03
1.300000000000000044e-01 1.336485000000000034e-01 4.005209999999999582e+01 1.847839999999999918e+02 1.901599999999999909e+03
1.310000000000000053e-01 1.336330000000000018e-01 3.915465000000000373e+01 1.841974999999999909e+02 1.901440000000000055e+03
1.320000000000000062e-01 1.336154999999999982e-01 3.826179999999999382e+01 1.835900000000000034e+02 1.901264999999999873e+03
1.330000000000000071e-01 1.335975000000000079e-01 3.737650000000000006e+01 1.829644999999999868e+02 1.901079999999999927e+03
1.340000000000000080e-01 1.335784999999999889e-01 3.650099999999999767e+01 1.823249999999999886e+02 1.900880000000000109e+03
1.350000000000000089e-01 1.335584999999999967e-01 3.563665000000000305e+01 1.816715000000000089e+02 1.900675000000000182e+03
1.360000000000000098e-01 1.335375000000000034e-01 3.478419999999999845e+01 1.810040000000000191e+02 1.900460000000000036e+03
1.370000000000000107e-01 1.335165000000000102e-01 3.394389999999999930e+01 1.803209999999999980e+02 1.900235000000000127e+03
1.380000000000000115e-01 1.334940000000000015e-01 3.311514999999999986e+01 1.796204999999999927e+02 1.900005000000000109e+03
1.390000000000000124e-01 1.334710000000000063e-01 3.229715000000000202e+01 1.788990000000000009e+02 1.899769999999999982e+03
1.400000000000000133e-01 1.334469999999999823e-01 3.148845000000000027e+01 1.781525000000000034e+02 1.899525000000000091e+03
1.410000000000000142e-01 1.334219999999999851e-01 3.068744999999999834e+01 1.773785000000000025e+02 1.899259999999999991e+03
1.420000000000000151e-01 1.333960000000000146e-01 2.989225000000000065e+01 1.765715000000000146e+02 1.898994999999999891e+03
1.430000000000000160e-01 1.333690000000000153e-01 2.910090000000000288e+01 1.757275000000000205e+02 1.898714999999999918e+03
1.440000000000000169e-01 1.333405000000000007e-01 2.831129999999999924e+01 1.748429999999999893e+02 1.898420000000000073e+03
1.450000000000000178e-01 1.333104999999999984e-01 2.752154999999999774e+01 1.739145000000000039e+02 1.898115000000000009e+03
1.459999999999999909e-01 1.332789999999999808e-01 2.672995000000000232e+01 1.729375000000000000e+02 1.897789999999999964e+03
1.469999999999999918e-01 1.332464999999999899e-01 2.593489999999999895e+01 1.719120000000000061e+02 1.897454999999999927e+03
1.479999999999999927e-01 1.332119999999999971e-01 2.513519999999999754e+01 1.708350000000000080e+02 1.897099999999999909e+03
1.489999999999999936e-01 1.331755000000000022e-01 2.433015000000000327e+01 1.697065000000000055e+02 1.896730000000000018e+03
1.499999999999999944e-01 1.331375000000000197e-01 2.351939999999999742e+01 1.685269999999999868e+02 1.896339999999999918e+03
1.509999999999999953e-01 1.330979999999999941e-01 2.270325000000000060e+01 1.672990000000000066e+02 1.895930000000000064e+03
1.519999999999999962e-01 1.330565000000000220e-01 2.188244999999999862e+01 1.660254999999999939e+02 1.895509999999999991e+03
1.529999999999999971e-01 1.330135000000000067e-01 2.105835000000000079e+01 1.647110000000000127e+02 1.895065000000000055e+03
1.539999999999999980e-01 1.329695000000000182e-01 2.023290000000000077e+01 1.633605000000000018e+02 1.894615000000000009e+03
1.549999999999999989e-01 1.329239999999999866e-01 1.940850000000000009e+01 1.619814999999999827e+02 1.894150000000000091e+03
1.559999999999999998e-01 1.328775000000000095e-01 1.858810000000000073e+01 1.605810000000000173e+02 1.893670000000000073e+03
1.570000000000000007e-01 1.328300000000000036e-01 1.777499999999999858e+01 1.591689999999999827e+02 1.893190000000000055e+03
1.580000000000000016e-01 1.327824999999999978e-01 1.697285000000000110e+01 1.577534999999999741e+02 1.892694999999999936e+03
1.590000000000000024e-01 1.327345000000000053e-01 1.618544999999999945e+01 1.563439999999999941e+02 1.892204999999999927e+03
