# t [s], A [cm^2], U [cm/s], P [cPa], c [cm/s]
1.000000000000000021e-03 7.487829999999999764e-01 4.201499999999996904e-03 1.001386500000000126e+02 1.579125000000000000e+03
2.000000000000000042e-03 7.487740000000000506e-01 5.436400000000000954e-03 1.001119999999999948e+02 1.579115000000000009e+03
3.000000000000000062e-03 7.488650000000000029e-01 1.443532999999999900e-01 1.002546000000000106e+02 1.579150000000000091e+03
4.000000000000000083e-03 7.489075000000000593e-01 2.281095000000000206e-01 1.003461000000000070e+02 1.579175000000000182e+03
5.000000000000000104e-03 7.488314999999999833e-01 1.449570000000000025e-01 1.001801000000000101e+02 1.579140000000000100e+03
6.000000000000000125e-03 7.487260000000000026e-01 6.229499999999998927e-03 9.984375000000000000e+01 1.579065000000000055e+03
7.000000000000000146e-03 7.486099999999999977e-01 -1.613499999999999934e-01 9.939310000000000400e+01 1.578954999999999927e+03
8.000000000000000167e-03 7.484024999999999705e-01 -4.816850000000000298e-01 9.867879999999999541e+01 1.578795000000000073e+03
9.000000000000001055e-03 7.480949999999999545e-01 -9.686700000000000310e-01 9.762975000000000136e+01 1.578549999999999955e+03
1.000000000000000194e-02 7.476869999999999905e-01 -1.606420000000000181e+00 9.621600000000000819e+01 1.578210000000000036e+03
1.099999999999999936e-02 7.471440000000000303e-01 -2.422475000000000378e+00 9.435730000000000928e+01 1.577759999999999991e+03
1.200000000000000025e-02 7.464640000000000164e-01 -3.390499999999999403e+00 9.203029999999999688e+01 1.577184999999999945e+03
1.300000000000000114e-02 7.457320000000000615e-01 -4.349685000000000024e+00 8.939945000000000164e+01 1.576519999999999982e+03
1.400000000000000203e-02 7.450744999999999729e-01 -5.063852999999999938e+00 8.678759999999999764e+01 1.575835000000000036e+03
1.499999999999999944e-02 7.445850000000000524e-01 -5.349334500000000325e+00 8.451644999999999186e+01 1.575195000000000164e+03
1.600000000000000033e-02 7.442809999999999704e-01 -5.154589999999999783e+00 8.276359999999999673e+01 1.574659999999999854e+03
1.700000000000000122e-02 7.441055000000000863e-01 -4.561679999999999957e+00 8.151120000000000232e+01 1.574230000000000018e+03
1.800000000000000211e-02 7.439664999999999750e-01 -3.736730000000000107e+00 8.057925000000000182e+01 1.573880000000000109e+03
1.900000000000000300e-02 7.437689999999999024e-01 -2.861240000000000006e+00 7.971014999999999873e+01 1.573550000000000182e+03
2.000000000000000042e-02 7.434555000000000469e-01 -2.067504000000000008e+00 7.867079999999999984e+01 1.573194999999999936e+03
2.100000000000000130e-02 7.430164999999999687e-01 -1.400914999999999910e+00 7.733389999999999986e+01 1.572775000000000091e+03
2.200000000000000219e-02 7.424910000000000121e-01 -8.250550000000000939e-01 7.570439999999999259e+01 1.572295000000000073e+03
2.299999999999999961e-02 7.419339999999999824e-01 -2.634949999999998127e-01 7.388464999999999350e+01 1.571769999999999982e+03
2.400000000000000050e-02 7.413909999999999112e-01 3.476099999999999746e-01 7.200419999999999732e+01 1.571220000000000027e+03
2.500000000000000139e-02 7.408799999999999830e-01 1.021660000000000235e+00 7.015250000000000341e+01 1.570664999999999964e+03
2.600000000000000228e-02 7.403815000000000257e-01 1.709109999999999907e+00 6.833820000000000050e+01 1.570119999999999891e+03
2.700000000000000316e-02 7.398519999999999541e-01 2.308305000000000717e+00 6.648224999999999341e+01 1.569559999999999945e+03
2.800000000000000058e-02 7.392339999999999467e-01 2.691950000000000287e+00 6.444089999999999918e+01 1.568960000000000036e+03
2.900000000000000147e-02 7.384749999999999925e-01 2.740835000000000576e+00 6.204825000000000301e+01 1.568279999999999973e+03
3.000000000000000236e-02 7.375445000000000473e-01 2.376535000000000064e+00 5.916819999999999879e+01 1.567494999999999891e+03
3.099999999999999978e-02 7.364429999999999588e-01 1.584184999999999732e+00 5.574074999999999847e+01 1.566579999999999927e+03
3.200000000000000067e-02 7.352054999999999563e-01 4.188999999999998280e-01 5.180915000000000248e+01 1.565539999999999964e+03
3.300000000000000155e-02 7.338955000000000339e-01 -1.006199999999999761e+00 4.751914999999999623e+01 1.564409999999999854e+03
3.400000000000000244e-02 7.325920000000000210e-01 -2.544249999999999901e+00 4.309475000000000477e+01 1.563224999999999909e+03
3.500000000000000333e-02 7.313724999999999810e-01 -4.042229999999999990e+00 3.879850000000000421e+01 1.562059999999999945e+03
3.600000000000000422e-02 7.303070000000000395e-01 -5.364240000000000563e+00 3.489085000000000036e+01 1.560960000000000036e+03
3.700000000000000511e-02 7.294454999999999689e-01 -6.405874999999999986e+00 3.159615000000000151e+01 1.560005000000000109e+03
3.799999999999999906e-02 7.288204999999999822e-01 -7.099705000000000155e+00 2.908105000000000118e+01 1.559230000000000018e+03
3.899999999999999994e-02 7.284455000000000791e-01 -7.413235000000000241e+00 2.744460000000000122e+01 1.558664999999999964e+03
4.000000000000000083e-02 7.283169999999999922e-01 -7.341795000000000293e+00 2.672144999999999726e+01 1.558339999999999918e+03
4.100000000000000172e-02 7.284230000000000427e-01 -6.899325000000000152e+00 2.689260000000000161e+01 1.558255000000000109e+03
4.200000000000000261e-02 7.287449999999999761e-01 -6.109599999999999476e+00 2.790080000000000027e+01 1.558394999999999982e+03
4.300000000000000350e-02 7.292600000000000193e-01 -4.999910000000000743e+00 2.966665000000000063e+01 1.558750000000000000e+03
4.400000000000000439e-02 7.299474999999999714e-01 -3.598125000000000018e+00 3.210054999999999836e+01 1.559300000000000182e+03
4.499999999999999833e-02 7.307829999999999604e-01 -1.933629999999999960e+00 3.510960000000000036e+01 1.560019999999999982e+03
4.599999999999999922e-02 7.317445000000000199e-01 -3.974999999999972999e-02 3.859924999999999784e+01 1.560880000000000109e+03
4.700000000000000011e-02 7.328060000000000684e-01 2.043025000000000091e+00 4.247240000000000038e+01 1.561869999999999891e+03
4.800000000000000100e-02 7.339390000000000081e-01 4.265385000000000204e+00 4.662695000000000078e+01 1.562949999999999818e+03
4.900000000000000189e-02 7.351115000000000288e-01 6.569644999999999513e+00 5.095530000000000115e+01 1.564095000000000027e+03
5.000000000000000278e-02 7.362930000000000863e-01 8.892559999999999576e+00 5.534635000000000105e+01 1.565279999999999973e+03
5.100000000000000366e-02 7.374514999999999265e-01 1.116946749999999966e+01 5.968984999999999275e+01 1.566469999999999800e+03
5.200000000000000455e-02 7.385599999999999943e-01 1.333948499999999981e+01 6.388275000000000148e+01 1.567634999999999991e+03
5.300000000000000544e-02 7.395945000000000435e-01 1.535007999999999839e+01 6.783565000000000111e+01 1.568759999999999991e+03
5.399999999999999939e-02 7.405399999999999761e-01 1.716069999999999851e+01 7.147925000000000750e+01 1.569815000000000055e+03
5.500000000000000028e-02 7.413870000000000182e-01 1.874504999999999910e+01 7.476824999999999477e+01 1.570789999999999964e+03
5.600000000000000117e-02 7.421349999999999891e-01 2.009110000000000085e+01 7.768309999999999604e+01 1.571675000000000182e+03
5.700000000000000205e-02 7.427880000000000038e-01 2.120060000000000144e+01 8.022944999999999993e+01 1.572469999999999800e+03
5.800000000000000294e-02 7.433575000000000044e-01 2.208644999999999925e+01 8.243479999999999563e+01 1.573170000000000073e+03
5.900000000000000383e-02 7.438569999999999904e-01 2.277055000000000007e+01 8.434409999999999741e+01 1.573789999999999964e+03
6.000000000000000472e-02 7.443029999999999369e-01 2.328099999999999881e+01 8.601494999999999891e+01 1.574340000000000146e+03
6.099999999999999867e-02 7.447124999999999995e-01 2.364999999999999858e+01 8.751224999999999454e+01 1.574839999999999918e+03
6.199999999999999956e-02 7.451045000000000584e-01 2.391210000000000235e+01 8.890389999999999304e+01 1.575305000000000064e+03
6.300000000000000044e-02 7.454954999999999776e-01 2.410255000000000081e+01 9.025724999999999909e+01 1.575750000000000000e+03
6.400000000000000133e-02 7.459014999999999951e-01 2.425625000000000142e+01 9.163585000000000491e+01 1.576195000000000164e+03
6.500000000000000222e-02 7.463374999999999870e-01 2.440609999999999857e+01 9.309675000000000011e+01 1.576644999999999982e+03
6.600000000000000311e-02 7.468154999999999655e-01 2.458185000000000286e+01 9.468795000000000073e+01 1.577125000000000000e+03
6.700000000000000400e-02 7.473430000000000906e-01 2.480794999999999817e+01 9.644610000000000127e+01 1.577639999999999873e+03
6.800000000000000488e-02 7.479259999999999797e-01 2.510235000000000127e+01 9.839390000000000214e+01 1.578204999999999927e+03
6.900000000000000577e-02 7.485634999999999373e-01 2.547449999999999903e+01 1.005378999999999934e+02 1.578815000000000055e+03
7.000000000000000666e-02 7.492514999999999592e-01 2.592515000000000214e+01 1.028689999999999998e+02 1.579474999999999909e+03
7.100000000000000755e-02 7.499804999999999389e-01 2.644565000000000055e+01 1.053584999999999923e+02 1.580180000000000064e+03
7.200000000000000844e-02 7.507365000000000288e-01 2.701910000000000167e+01 1.079650000000000034e+02 1.580920000000000073e+03
7.300000000000000933e-02 7.515030000000000321e-01 2.762115000000000009e+01 1.106324999999999932e+02 1.581675000000000182e+03
7.399999999999999634e-02 7.522600000000000398e-01 2.822274999999999778e+01 1.132944999999999993e+02 1.582434999999999945e+03
7.499999999999999722e-02 7.529890000000000194e-01 2.879180000000000206e+01 1.158810000000000002e+02 1.583179999999999836e+03
7.599999999999999811e-02 7.536694999999999922e-01 2.929570000000000007e+01 1.183205000000000098e+02 1.583894999999999982e+03
7.699999999999999900e-02 7.542839999999999545e-01 2.970380000000000109e+01 1.205465000000000089e+02 1.584559999999999945e+03
7.799999999999999989e-02 7.548179999999999890e-01 2.998894999999999911e+01 1.224989999999999952e+02 1.585154999999999973e+03
7.900000000000000078e-02 7.552590000000000137e-01 3.012950000000000017e+01 1.241315000000000026e+02 1.585670000000000073e+03
8.000000000000000167e-02 7.556005000000000082e-01 3.010999999999999943e+01 1.254099999999999966e+02 1.586090000000000146e+03
8.100000000000000255e-02 7.558389999999999276e-01 2.992199999999999704e+01 1.263160000000000025e+02 1.586414999999999964e+03
8.200000000000000344e-02 7.559744999999999937e-01 2.956419999999999959e+01 1.268464999999999918e+02 1.586630000000000109e+03
8.300000000000000433e-02 7.560130000000000461e-01 2.904199999999999804e+01 1.270144999999999982e+02 1.586755000000000109e+03
8.400000000000000522e-02 7.559614999999999529e-01 2.836744999999999806e+01 1.268454999999999870e+02 1.586775000000000091e+03
8.500000000000000611e-02 7.558320000000000594e-01 2.755780000000000030e+01 1.263764999999999930e+02 1.586704999999999927e+03
8.600000000000000699e-02 7.556365000000000443e-01 2.663519999999999754e+01 1.256539999999999964e+02 1.586570000000000164e+03
8.700000000000000788e-02 7.553909999999999236e-01 2.562485000000000213e+01 1.247319999999999993e+02 1.586360000000000127e+03
8.800000000000000877e-02 7.551099999999999479e-01 2.455454999999999899e+01 1.236674999999999898e+02 1.586110000000000127e+03
8.899999999999999578e-02 7.548105000000000508e-01 2.345259999999999678e+01 1.225190000000000055e+02 1.585820000000000164e+03
8.999999999999999667e-02 7.545070000000000388e-01 2.234740000000000038e+01 1.213435000000000059e+02 1.585515000000000100e+03
9.099999999999999756e-02 7.542135000000000922e-01 2.126534999999999798e+01 1.201939999999999884e+02 1.585204999999999927e+03
9.199999999999999845e-02 7.539430000000000298e-01 2.023044999999999760e+01 1.191175000000000068e+02 1.584905000000000200e+03
9.299999999999999933e-02 7.537039999999999296e-01 1.926295000000000002e+01 1.181539999999999964e+02 1.584630000000000109e+03
9.400000000000000022e-02 7.535045000000000215e-01 1.837865000000000038e+01 1.173335000000000008e+02 1.584389999999999873e+03
9.500000000000000111e-02 7.533490000000000464e-01 1.758834999999999837e+01 1.166765000000000043e+02 1.584184999999999945e+03
9.600000000000000200e-02 7.532404999999999795e-01 1.689764999999999873e+01 1.161920000000000073e+02 1.584025000000000091e+03
9.700000000000000289e-02 7.531759999999999566e-01 1.630700000000000216e+01 1.158815000000000026e+02 1.583904999999999973e+03
9.800000000000000377e-02 7.531535000000000313e-01 1.581184999999999974e+01 1.157330000000000041e+02 1.583829999999999927e+03
9.900000000000000466e-02 7.531674999999999898e-01 1.540305000000000035e+01 1.157305000000000064e+02 1.583800000000000182e+03
1.000000000000000056e-01 7.532094999999999763e-01 1.506784999999999997e+01 1.158474999999999966e+02 1.583800000000000182e+03
1.010000000000000064e-01 7.532725000000000115e-01 1.479025000000000034e+01 1.160534999999999997e+02 1.583829999999999927e+03
1.020000000000000073e-01 7.533449999999999314e-01 1.455215000000000103e+01 1.163145000000000095e+02 1.583880000000000109e+03
1.030000000000000082e-01 7.534179999999999211e-01 1.433439999999999870e+01 1.165930000000000035e+02 1.583934999999999945e+03
1.040000000000000091e-01 7.534819999999999851e-01 1.411765000000000114e+01 1.168534999999999968e+02 1.584000000000000000e+03
1.050000000000000100e-01 7.535279999999999756e-01 1.388335000000000008e+01 1.170614999999999952e+02 1.584049999999999955e+03
1.059999999999999970e-01 7.535475000000000367e-01 1.361479999999999890e+01 1.171864999999999952e+02 1.584079999999999927e+03
1.069999999999999979e-01 7.535355000000000247e-01 1.329770000000000074e+01 1.172040000000000077e+02 1.584090000000000146e+03
1.079999999999999988e-01 7.534864999999999480e-01 1.292125000000000057e+01 1.170929999999999893e+02 1.584065000000000055e+03
1.089999999999999997e-01 7.533984999999999710e-01 1.247809499999999971e+01 1.168439999999999941e+02 1.584009999999999991e+03
1.100000000000000006e-01 7.532714999999999828e-01 1.196515000000000128e+01 1.164509999999999934e+02 1.583914999999999964e+03
1.110000000000000014e-01 7.531075000000000408e-01 1.138352500000000056e+01 1.159194999999999993e+02 1.583780000000000200e+03
1.120000000000000023e-01 7.529105000000000381e-01 1.073835000000000051e+01 1.152595000000000027e+02 1.583615000000000009e+03
1.130000000000000032e-01 7.526859999999999662e-01 1.003852499999999992e+01 1.144904999999999973e+02 1.583414999999999964e+03
1.140000000000000041e-01 7.524414999999999853e-01 9.296490000000000364e+00 1.136364999999999981e+02 1.583190000000000055e+03
1.150000000000000050e-01 7.521854999999999514e-01 8.527345000000000397e+00 1.127280000000000086e+02 1.582950000000000045e+03
1.160000000000000059e-01 7.519270000000000120e-01 7.748104999999999798e+00 1.117959999999999923e+02 1.582700000000000045e+03
1.170000000000000068e-01 7.516754999999999409e-01 6.977165000000000283e+00 1.108764999999999930e+02 1.582445000000000164e+03
1.180000000000000077e-01 7.514410000000000256e-01 6.233014999999999972e+00 1.100030000000000001e+02 1.582200000000000045e+03
1.190000000000000085e-01 7.512320000000000109e-01 5.533565000000000289e+00 1.092085000000000008e+02 1.581970000000000027e+03
1.200000000000000094e-01 7.510554999999999870e-01 4.895184999999999675e+00 1.085234999999999985e+02 1.581769999999999982e+03
1.209999999999999964e-01 7.509185000000000443e-01 4.331925000000000026e+00 1.079714999999999918e+02 1.581595000000000027e+03
1.219999999999999973e-01 7.508255000000000345e-01 3.854890000000000150e+00 1.075730000000000075e+02 1.581465000000000146e+03
1.229999999999999982e-01 7.507789999999999742e-01 3.471734999999999793e+00 1.073395000000000010e+02 1.581375000000000000e+03
1.239999999999999991e-01 7.507790000000000852e-01 3.186424999999999841e+00 1.072760000000000105e+02 1.581335000000000036e+03
1.250000000000000000e-01 7.508245000000000058e-01 2.999100000000000321e+00 1.073804999999999978e+02 1.581329999999999927e+03
1.260000000000000009e-01 7.509125000000000938e-01 2.906245000000000189e+00 1.076450000000000102e+02 1.581375000000000000e+03
1.270000000000000018e-01 7.510380000000000944e-01 2.900929999999999787e+00 1.080534999999999997e+02 1.581465000000000146e+03
1.280000000000000027e-01 7.511955000000000160e-01 2.973270000000000302e+00 1.085854999999999961e+02 1.581585000000000036e+03
1.290000000000000036e-01 7.513775000000000315e-01 3.110964999999999758e+00 1.092164999999999964e+02 1.581740000000000009e+03
1.300000000000000044e-01 7.515754999999999519e-01 3.299909999999999677e+00 1.099189999999999969e+02 1.581909999999999854e+03
1.310000000000000053e-01 7.517825000000000202e-01 3.524859999999999882e+00 1.106634999999999991e+02 1.582105000000000018e+03
1.320000000000000062e-01 7.519894999999999774e-01 3.770125000000000171e+00 1.114205000000000041e+02 1.582305000000000064e+03
1.330000000000000071e-01 7.521895000000000664e-01 4.020209999999999617e+00 1.121614999999999895e+02 1.582500000000000000e+03
1.340000000000000080e-01 7.523754999999999749e-01 4.260390000000000121e+00 1.128600000000000136e+02 1.582694999999999936e+03
1.350000000000000089e-01 7.525420000000000442e-01 4.477300000000000502e+00 1.134934999999999974e+02 1.582875000000000000e+03
1.360000000000000098e-01 7.526829999999999909e-01 4.659345000000000070e+00 1.140425000000000040e+02 1.583034999999999854e+03
1.370000000000000107e-01 7.527964999999999796e-01 4.797055000000000291e+00 1.144904999999999973e+02 1.583174999999999955e+03
1.380000000000000115e-01 7.528790000000000759e-01 4.883340000000000458e+00 1.148290000000000077e+02 1.583284999999999854e+03
1.390000000000000124e-01 7.529299999999999882e-01 4.913629999999999498e+00 1.150515000000000043e+02 1.583365000000000009e+03
1.400000000000000133e-01 7.529485000000000205e-01 4.885870000000000601e+00 1.151570000000000107e+02 1.583410000000000082e+03
1.410000000000000142e-01 7.529379999999999962e-01 4.800505000000000244e+00 1.151490000000000009e+02 1.583429999999999836e+03
1.420000000000000151e-01 7.529000000000000137e-01 4.660275000000000389e+00 1.150360000000000014e+02 1.583420000000000073e+03
1.430000000000000160e-01 7.528375000000000483e-01 4.470024999999999693e+00 1.148280000000000030e+02 1.583380000000000109e+03
1.440000000000000169e-01 7.527544999999999931e-01 4.236340000000000217e+00 1.145390000000000015e+02 1.583320000000000164e+03
1.450000000000000178e-01 7.526554999999999218e-01 3.967225000000000001e+00 1.141844999999999999e+02 1.583235000000000127e+03
1.459999999999999909e-01 7.525455000000000894e-01 3.671695000000000153e+00 1.137820000000000107e+02 1.583135000000000218e+03
1.469999999999999918e-01 7.524284999999999446e-01 3.359350000000000058e+00 1.133479999999999990e+02 1.583029999999999973e+03
1.479999999999999927e-01 7.523104999999999931e-01 3.039925000000000210e+00 1.129004999999999939e+02 1.582914999999999964e+03
1.489999999999999936e-01 7.521945000000000991e-01 2.722869999999999902e+00 1.124549999999999983e+02 1.582795000000000073e+03
1.499999999999999944e-01 7.520845000000000447e-01 2.416960999999999693e+00 1.120259999999999962e+02 1.582679999999999836e+03
1.509999999999999953e-01 7.519835000000000269e-01 2.129944000000000059e+00 1.116264999999999930e+02 1.582565000000000055e+03
1.519999999999999962e-01 7.518934999999999924e-01 1.868228500000000070e+00 1.112650000000000006e+02 1.582460000000000036e+03
1.529999999999999971e-01 7.518164999999999987e-01 1.636710000000000109e+00 1.109480000000000075e+02 1.582369999999999891e+03
1.539999999999999980e-01 7.517530000000000046e-01 1.438605000000000134e+00 1.106800000000000068e+02 1.582289999999999964e+03
1.549999999999999989e-01 7.517019999999999813e-01 1.275444000000000022e+00 1.104609999999999985e+02 1.582220000000000027e+03
1.559999999999999998e-01 7.516635000000000399e-01 1.147099499999999939e+00 1.102884999999999991e+02 1.582159999999999854e+03
1.570000000000000007e-01 7.516350000000000531e-01 1.051916999999999991e+00 1.101569999999999965e+02 1.582115000000000009e+03
1.580000000000000016e-01 7.516144999999999632e-01 9.868989999999999707e-01 1.100600000000000023e+02 1.582075000000000045e+03
1.590000000000000024e-01 7.516000000000000458e-01 9.479495000000000005e-01 1.099879999999999995e+02 1.582045000000000073e+03
