# t [s], A [cm^2], U [cm/s], P [cPa], c [cm/s]
1.000000000000000021e-03 1.802185000000000037e-01 2.503147500000000303e-01 8.943725000000000591e+01 2.278590000000000146e+03
2.000000000000000042e-03 1.801754999999999884e-01 1.553829000000000127e+00 8.629820000000000846e+01 2.278199999999999818e+03
3.000000000000000062e-03 1.800645000000000162e-01 3.194556999999999647e+00 8.185524999999999807e+01 2.277230000000000018e+03
4.000000000000000083e-03 1.799155000000000060e-01 5.067720500000000072e+00 7.703784999999999172e+01 2.275944999999999709e+03
5.000000000000000104e-03 1.797590000000000021e-01 7.100659999999999528e+00 7.278419999999999845e+01 2.274610000000000127e+03
6.000000000000000125e-03 1.796114999999999795e-01 9.093170000000000641e+00 6.932859999999999445e+01 2.273364999999999782e+03
7.000000000000000146e-03 1.794729999999999936e-01 1.082075999999999993e+01 6.631870000000000687e+01 2.272224999999999909e+03
8.000000000000000167e-03 1.793474999999999930e-01 1.223921999999999954e+01 6.358180000000000121e+01 2.271210000000000036e+03
9.000000000000001055e-03 1.792389999999999817e-01 1.340268000000000015e+01 6.125350000000000250e+01 2.270349999999999909e+03
1.000000000000000194e-02 1.791495000000000171e-01 1.433905000000000030e+01 5.939930000000000376e+01 2.269644999999999982e+03
1.099999999999999936e-02 1.790789999999999882e-01 1.506044999999999945e+01 5.797144999999999726e+01 2.269090000000000146e+03
1.200000000000000025e-02 1.790229999999999877e-01 1.556780000000000008e+01 5.685790000000000077e+01 2.268659999999999854e+03
1.300000000000000114e-02 1.789769999999999972e-01 1.585454999999999970e+01 5.588590000000000657e+01 2.268315000000000055e+03
1.400000000000000203e-02 1.789374999999999993e-01 1.596699999999999875e+01 5.497780000000000200e+01 2.268025000000000091e+03
1.499999999999999944e-02 1.789080000000000115e-01 1.604765000000000086e+01 5.435434999999999661e+01 2.267805000000000291e+03
1.600000000000000033e-02 1.788985000000000158e-01 1.628575000000000017e+01 5.448919999999999675e+01 2.267744999999999891e+03
1.700000000000000122e-02 1.789195000000000091e-01 1.680620000000000047e+01 5.579455000000000098e+01 2.267914999999999964e+03
1.800000000000000211e-02 1.789740000000000220e-01 1.759024999999999750e+01 5.829645000000000010e+01 2.268340000000000146e+03
1.900000000000000300e-02 1.790539999999999909e-01 1.848129999999999740e+01 6.154250000000000398e+01 2.268980000000000018e+03
2.000000000000000042e-02 1.791439999999999977e-01 1.926010000000000133e+01 6.477700000000000102e+01 2.269704999999999927e+03
2.100000000000000130e-02 1.792245000000000088e-01 1.974034999999999940e+01 6.725459999999999638e+01 2.270364999999999782e+03
2.200000000000000219e-02 1.792815000000000103e-01 1.983619999999999806e+01 6.851959999999999695e+01 2.270855000000000018e+03
2.299999999999999961e-02 1.793084999999999818e-01 1.957860000000000156e+01 6.853340000000000032e+01 2.271094999999999800e+03
2.400000000000000050e-02 1.793075000000000085e-01 1.908220000000000027e+01 6.761834999999999241e+01 2.271114999999999782e+03
2.500000000000000139e-02 1.792890000000000039e-01 1.848449999999999704e+01 6.626879999999999882e+01 2.270985000000000127e+03
2.600000000000000228e-02 1.792624999999999913e-01 1.788759999999999906e+01 6.492865000000000464e+01 2.270775000000000091e+03
2.700000000000000316e-02 1.792354999999999920e-01 1.732594999999999885e+01 6.383115000000000805e+01 2.270555000000000291e+03
2.800000000000000058e-02 1.792100000000000082e-01 1.676769999999999783e+01 6.295409999999999684e+01 2.270349999999999909e+03
2.900000000000000147e-02 1.791840000000000099e-01 1.614405000000000001e+01 6.208670000000000044e+01 2.270140000000000327e+03
3.000000000000000236e-02 1.791524999999999923e-01 1.539109999999999978e+01 6.096574999999999989e+01 2.269894999999999982e+03
3.099999999999999978e-02 1.791110000000000202e-01 1.448739999999999917e+01 5.942170000000000130e+01 2.269565000000000055e+03
3.200000000000000067e-02 1.790585000000000093e-01 1.347449999999999903e+01 5.747960000000000491e+01 2.269149999999999636e+03
3.300000000000000155e-02 1.789989999999999915e-01 1.245294999999999952e+01 5.538029999999999831e+01 2.268680000000000291e+03
3.400000000000000244e-02 1.789410000000000167e-01 1.155451000000000050e+01 5.351475000000000648e+01 2.268210000000000036e+03
3.500000000000000333e-02 1.788954999999999851e-01 1.090329000000000015e+01 5.229919999999999902e+01 2.267835000000000036e+03
3.600000000000000422e-02 1.788710000000000022e-01 1.057837999999999923e+01 5.203929999999999723e+01 2.267619999999999891e+03
3.700000000000000511e-02 1.788735000000000186e-01 1.059179999999999922e+01 5.283270000000000266e+01 2.267625000000000000e+03
3.799999999999999906e-02 1.789025000000000198e-01 1.088690000000000069e+01 5.453969999999999629e+01 2.267835000000000036e+03
3.899999999999999994e-02 1.789525000000000143e-01 1.135474999999999923e+01 5.682200000000000273e+01 2.268220000000000255e+03
4.000000000000000083e-02 1.790134999999999921e-01 1.186129999999999995e+01 5.923035000000000139e+01 2.268699999999999818e+03
4.100000000000000172e-02 1.790745000000000253e-01 1.227554999999999907e+01 6.130804999999999438e+01 2.269184999999999945e+03
4.200000000000000261e-02 1.791234999999999911e-01 1.249285000000000068e+01 6.268189999999999884e+01 2.269585000000000036e+03
4.300000000000000350e-02 1.791524999999999923e-01 1.244790000000000063e+01 6.311995000000000289e+01 2.269824999999999818e+03
4.400000000000000439e-02 1.791560000000000097e-01 1.211684999999999945e+01 6.254784999999999684e+01 2.269869999999999891e+03
4.499999999999999833e-02 1.791325000000000001e-01 1.151090999999999909e+01 6.102989999999999782e+01 2.269699999999999818e+03
4.599999999999999922e-02 1.790844999999999798e-01 1.066491500000000059e+01 5.872509999999999764e+01 2.269324999999999818e+03
4.700000000000000011e-02 1.790154999999999941e-01 9.625354999999998995e+00 5.583650000000000091e+01 2.268779999999999745e+03
4.800000000000000100e-02 1.789299999999999780e-01 8.440789999999999793e+00 5.256794999999999618e+01 2.268099999999999909e+03
4.900000000000000189e-02 1.788335000000000063e-01 7.156645000000000145e+00 4.909645000000000437e+01 2.267324999999999818e+03
5.000000000000000278e-02 1.787300000000000000e-01 5.814340000000000508e+00 4.556385000000000218e+01 2.266494999999999891e+03
5.100000000000000366e-02 1.786234999999999906e-01 4.453430000000000000e+00 4.208275000000000432e+01 2.265640000000000327e+03
5.200000000000000455e-02 1.785180000000000100e-01 3.114821049999999758e+00 3.875115000000000265e+01 2.264789999999999964e+03
5.300000000000000544e-02 1.784164999999999779e-01 1.843529999999999891e+00 3.566754999999999853e+01 2.263970000000000255e+03
5.399999999999999939e-02 1.783220000000000083e-01 6.897349999999999870e-01 3.294160000000000110e+01 2.263210000000000036e+03
5.500000000000000028e-02 1.782394999999999952e-01 -2.923599999999999532e-01 3.069684999999999775e+01 2.262534999999999854e+03
5.600000000000000117e-02 1.781719999999999970e-01 -1.047636999999999929e+00 2.906544999999999845e+01 2.261980000000000018e+03
5.700000000000000205e-02 1.781240000000000046e-01 -1.524410000000000043e+00 2.817654999999999887e+01 2.261579999999999927e+03
5.800000000000000294e-02 1.780995000000000217e-01 -1.679175000000000084e+00 2.814199999999999946e+01 2.261360000000000127e+03
5.900000000000000383e-02 1.781010000000000093e-01 -1.480805000000000149e+00 2.904245000000000232e+01 2.261350000000000364e+03
6.000000000000000472e-02 1.781304999999999972e-01 -9.134600000000000497e-01 3.091700000000000159e+01 2.261569999999999709e+03
6.099999999999999867e-02 1.781895000000000007e-01 2.201999999999992852e-02 3.375759999999999650e+01 2.262019999999999982e+03
6.199999999999999956e-02 1.782779999999999920e-01 1.308380000000000098e+00 3.750939999999999941e+01 2.262704999999999927e+03
6.300000000000000044e-02 1.783934999999999826e-01 2.913494999999999724e+00 4.207585000000000264e+01 2.263614999999999782e+03
6.400000000000000133e-02 1.785329999999999973e-01 4.793056500000000497e+00 4.732675000000000409e+01 2.264715000000000146e+03
6.500000000000000222e-02 1.786935000000000051e-01 6.893909999999999982e+00 5.310975000000000534e+01 2.265994999999999891e+03
6.600000000000000311e-02 1.788700000000000012e-01 9.157809999999999562e+00 5.926220000000000709e+01 2.267404999999999745e+03
6.700000000000000400e-02 1.790579999999999949e-01 1.152530499999999947e+01 6.562269999999999470e+01 2.268914999999999964e+03
6.800000000000000488e-02 1.792524999999999813e-01 1.393947000000000003e+01 7.204285000000000139e+01 2.270484999999999673e+03
6.900000000000000577e-02 1.794499999999999984e-01 1.634909999999999997e+01 7.839625000000000909e+01 2.272090000000000146e+03
7.000000000000000666e-02 1.796475000000000155e-01 1.871155000000000257e+01 8.458575000000000443e+01 2.273684999999999945e+03
7.100000000000000755e-02 1.798405000000000142e-01 2.099394999999999811e+01 9.054644999999999300e+01 2.275265000000000327e+03
7.200000000000000844e-02 1.800280000000000213e-01 2.317419999999999902e+01 9.624705000000000155e+01 2.276800000000000182e+03
7.300000000000000933e-02 1.802099999999999813e-01 2.524000000000000199e+01 1.016843999999999966e+02 2.278289999999999964e+03
7.399999999999999634e-02 1.803850000000000176e-01 2.718740000000000023e+01 1.068796999999999997e+02 2.279725000000000364e+03
7.499999999999999722e-02 1.805535000000000057e-01 2.901910000000000167e+01 1.118679999999999950e+02 2.281114999999999782e+03
7.599999999999999811e-02 1.807165000000000021e-01 3.074170000000000158e+01 1.166920000000000073e+02 2.282465000000000146e+03
7.699999999999999900e-02 1.808754999999999946e-01 3.236359999999999815e+01 1.213925000000000125e+02 2.283774999999999636e+03
7.799999999999999989e-02 1.810309999999999975e-01 3.389325000000000188e+01 1.260035000000000025e+02 2.285065000000000055e+03
7.900000000000000078e-02 1.811834999999999973e-01 3.533754999999999313e+01 1.305459999999999923e+02 2.286324999999999818e+03
8.000000000000000167e-02 1.813334999999999808e-01 3.670130000000000337e+01 1.350310000000000059e+02 2.287574999999999818e+03
8.100000000000000255e-02 1.814815000000000178e-01 3.798635000000000161e+01 1.394519999999999982e+02 2.288795000000000073e+03
8.200000000000000344e-02 1.816269999999999829e-01 3.919214999999999804e+01 1.437959999999999923e+02 2.290010000000000218e+03
8.300000000000000433e-02 1.817705000000000015e-01 4.031535000000000224e+01 1.480384999999999991e+02 2.291194999999999709e+03
8.400000000000000522e-02 1.819095000000000018e-01 4.135089999999999577e+01 1.521480000000000246e+02 2.292349999999999909e+03
8.500000000000000611e-02 1.820439999999999836e-01 4.229155000000000086e+01 1.560894999999999868e+02 2.293474999999999909e+03
8.600000000000000699e-02 1.821730000000000016e-01 4.312915000000000276e+01 1.598265000000000100e+02 2.294545000000000073e+03
8.700000000000000788e-02 1.822954999999999992e-01 4.385450000000000159e+01 1.633204999999999814e+02 2.295565000000000055e+03
8.800000000000000877e-02 1.824099999999999888e-01 4.445810000000000173e+01 1.665355000000000132e+02 2.296524999999999636e+03
8.899999999999999578e-02 1.825154999999999972e-01 4.493070000000000164e+01 1.694364999999999952e+02 2.297409999999999854e+03
8.999999999999999667e-02 1.826110000000000233e-01 4.526404999999999745e+01 1.719934999999999832e+02 2.298210000000000036e+03
9.099999999999999756e-02 1.826955000000000107e-01 4.545154999999999745e+01 1.741814999999999998e+02 2.298920000000000073e+03
9.199999999999999845e-02 1.827685000000000004e-01 4.548895000000000266e+01 1.759840000000000089e+02 2.299534999999999854e+03
9.299999999999999933e-02 1.828294999999999781e-01 4.537510000000000332e+01 1.773935000000000173e+02 2.300054999999999836e+03
9.400000000000000022e-02 1.828779999999999850e-01 4.511249999999999716e+01 1.784120000000000061e+02 2.300470000000000255e+03
9.500000000000000111e-02 1.829144999999999799e-01 4.470725000000000193e+01 1.790545000000000186e+02 2.300784999999999854e+03
9.600000000000000200e-02 1.829395000000000049e-01 4.416944999999999766e+01 1.793460000000000036e+02 2.301005000000000109e+03
9.700000000000000289e-02 1.829534999999999911e-01 4.351259999999999906e+01 1.793190000000000168e+02 2.301130000000000109e+03
9.800000000000000377e-02 1.829570000000000085e-01 4.275300000000000011e+01 1.790180000000000007e+02 2.301170000000000073e+03
9.900000000000000466e-02 1.829529999999999768e-01 4.190919999999999845e+01 1.784890000000000043e+02 2.301139999999999873e+03
1.000000000000000056e-01 1.829405000000000059e-01 4.100079999999999814e+01 1.777835000000000036e+02 2.301054999999999836e+03
1.010000000000000064e-01 1.829230000000000023e-01 4.004764999999999731e+01 1.769509999999999934e+02 2.300914999999999964e+03
1.020000000000000073e-01 1.829014999999999946e-01 3.906919999999999504e+01 1.760395000000000039e+02 2.300734999999999673e+03
1.030000000000000082e-01 1.828764999999999974e-01 3.808310000000000173e+01 1.750914999999999964e+02 2.300539999999999964e+03
1.040000000000000091e-01 1.828500000000000125e-01 3.710510000000000019e+01 1.741435000000000173e+02 2.300319999999999709e+03
1.050000000000000100e-01 1.828230000000000133e-01 3.614815000000000111e+01 1.732235000000000014e+02 2.300095000000000255e+03
1.059999999999999970e-01 1.827960000000000140e-01 3.522220000000000084e+01 1.723520000000000039e+02 2.299875000000000000e+03
1.069999999999999979e-01 1.827705000000000024e-01 3.433395000000000152e+01 1.715400000000000205e+02 2.299659999999999854e+03
1.079999999999999988e-01 1.827465000000000062e-01 3.348680000000000234e+01 1.707905000000000086e+02 2.299454999999999927e+03
1.089999999999999997e-01 1.827229999999999965e-01 3.268070000000000164e+01 1.700985000000000014e+02 2.299260000000000218e+03
1.100000000000000006e-01 1.827010000000000023e-01 3.191295000000000215e+01 1.694515000000000100e+02 2.299074999999999818e+03
1.110000000000000014e-01 1.826805000000000234e-01 3.117784999999999940e+01 1.688299999999999841e+02 2.298900000000000091e+03
1.120000000000000023e-01 1.826599999999999890e-01 3.046790000000000020e+01 1.682130000000000223e+02 2.298725000000000364e+03
1.130000000000000032e-01 1.826389999999999958e-01 2.977374999999999972e+01 1.675730000000000075e+02 2.298550000000000182e+03
1.140000000000000041e-01 1.826170000000000015e-01 2.908549999999999969e+01 1.668834999999999980e+02 2.298369999999999891e+03
1.150000000000000050e-01 1.825934999999999919e-01 2.839289999999999736e+01 1.661175000000000068e+02 2.298170000000000073e+03
1.160000000000000059e-01 1.825674999999999937e-01 2.768610000000000326e+01 1.652509999999999764e+02 2.297954999999999927e+03
1.170000000000000068e-01 1.825384999999999924e-01 2.695655000000000001e+01 1.642634999999999934e+02 2.297715000000000146e+03
1.180000000000000077e-01 1.825054999999999872e-01 2.619729999999999848e+01 1.631404999999999745e+02 2.297439999999999600e+03
1.190000000000000085e-01 1.824689999999999923e-01 2.540355000000000274e+01 1.618725000000000023e+02 2.297135000000000218e+03
1.200000000000000094e-01 1.824275000000000202e-01 2.457314999999999827e+01 1.604585000000000150e+02 2.296795000000000073e+03
1.209999999999999964e-01 1.823815000000000019e-01 2.370645000000000024e+01 1.589039999999999964e+02 2.296420000000000073e+03
1.219999999999999973e-01 1.823315000000000075e-01 2.280669999999999931e+01 1.572230000000000132e+02 2.296010000000000218e+03
1.229999999999999982e-01 1.822785000000000100e-01 2.187975000000000136e+01 1.554350000000000023e+02 2.295569999999999709e+03
1.239999999999999991e-01 1.822214999999999807e-01 2.093384999999999962e+01 1.535654999999999859e+02 2.295099999999999909e+03
1.250000000000000000e-01 1.821625000000000050e-01 1.997909999999999897e+01 1.516465000000000032e+02 2.294614999999999782e+03
1.260000000000000009e-01 1.821019999999999861e-01 1.902680000000000149e+01 1.497099999999999795e+02 2.294114999999999782e+03
1.270000000000000018e-01 1.820410000000000084e-01 1.808930000000000149e+01 1.477914999999999850e+02 2.293614999999999782e+03
1.280000000000000027e-01 1.819804999999999895e-01 1.717865000000000109e+01 1.459240000000000066e+02 2.293114999999999782e+03
1.290000000000000036e-01 1.819215000000000138e-01 1.630655000000000143e+01 1.441390000000000100e+02 2.292630000000000109e+03
1.300000000000000044e-01 1.818655000000000133e-01 1.548325000000000173e+01 1.424635000000000105e+02 2.292159999999999854e+03
1.310000000000000053e-01 1.818124999999999880e-01 1.471754999999999924e+01 1.409200000000000159e+02 2.291720000000000255e+03
1.320000000000000062e-01 1.817630000000000079e-01 1.401614999999999966e+01 1.395229999999999961e+02 2.291305000000000291e+03
1.330000000000000071e-01 1.817175000000000040e-01 1.338354999999999961e+01 1.382820000000000107e+02 2.290930000000000291e+03
1.340000000000000080e-01 1.816774999999999918e-01 1.282199999999999918e+01 1.372015000000000100e+02 2.290595000000000255e+03
1.350000000000000089e-01 1.816419999999999979e-01 1.233150000000000013e+01 1.362780000000000200e+02 2.290295000000000073e+03
1.360000000000000098e-01 1.816114999999999813e-01 1.190995000000000026e+01 1.355035000000000025e+02 2.290034999999999854e+03
1.370000000000000107e-01 1.815849999999999964e-01 1.155354999999999954e+01 1.348670000000000186e+02 2.289814999999999600e+03
1.380000000000000115e-01 1.815629999999999744e-01 1.125696999999999903e+01 1.343520000000000039e+02 2.289619999999999891e+03
1.390000000000000124e-01 1.815444999999999975e-01 1.101364500000000035e+01 1.339420000000000073e+02 2.289465000000000146e+03
1.400000000000000133e-01 1.815289999999999959e-01 1.081625499999999995e+01 1.336175000000000068e+02 2.289335000000000036e+03
1.410000000000000142e-01 1.815164999999999973e-01 1.065679000000000087e+01 1.333594999999999970e+02 2.289225000000000364e+03
1.420000000000000151e-01 1.815060000000000007e-01 1.052721499999999999e+01 1.331479999999999961e+02 2.289139999999999873e+03
1.430000000000000160e-01 1.814975000000000060e-01 1.041939999999999955e+01 1.329655000000000200e+02 2.289059999999999945e+03
1.440000000000000169e-01 1.814894999999999980e-01 1.032580499999999901e+01 1.327934999999999945e+02 2.288989999999999782e+03
1.450000000000000178e-01 1.814820000000000044e-01 1.023924500000000037e+01 1.326175000000000068e+02 2.288930000000000291e+03
1.459999999999999909e-01 1.814744999999999830e-01 1.015360499999999888e+01 1.324250000000000114e+02 2.288869999999999891e+03
1.469999999999999918e-01 1.814675000000000038e-01 1.006368999999999936e+01 1.322054999999999723e+02 2.288804999999999836e+03
1.479999999999999927e-01 1.814585000000000226e-01 9.965550000000000352e+00 1.319524999999999864e+02 2.288735000000000127e+03
1.489999999999999936e-01 1.814500000000000002e-01 9.856419999999999959e+00 1.316614999999999895e+02 2.288659999999999854e+03
1.499999999999999944e-01 1.814394999999999758e-01 9.734899999999999665e+00 1.313325000000000102e+02 2.288579999999999927e+03
1.509999999999999953e-01 1.814284999999999926e-01 9.600730000000000430e+00 1.309675000000000011e+02 2.288484999999999673e+03
1.519999999999999962e-01 1.814164999999999806e-01 9.454840000000000799e+00 1.305720000000000027e+02 2.288390000000000327e+03
1.529999999999999971e-01 1.814034999999999953e-01 9.299019999999998731e+00 1.301514999999999986e+02 2.288284999999999854e+03
1.539999999999999980e-01 1.813905000000000101e-01 9.135740000000000194e+00 1.297150000000000034e+02 2.288175000000000182e+03
1.549999999999999989e-01 1.813764999999999961e-01 8.967959999999999710e+00 1.292710000000000150e+02 2.288059999999999945e+03
1.559999999999999998e-01 1.813625000000000098e-01 8.798764999999999503e+00 1.288290000000000077e+02 2.287944999999999709e+03
1.570000000000000007e-01 1.813484999999999958e-01 8.631129999999998859e+00 1.283954999999999984e+02 2.287829999999999927e+03
1.580000000000000016e-01 1.813350000000000239e-01 8.467715000000000103e+00 1.279780000000000086e+02 2.287720000000000255e+03
1.590000000000000024e-01 1.813214999999999966e-01 8.310670000000000002e+00 1.275810000000000031e+02 2.287609999999999673e+03
