# t [s], A [cm^2], U [cm/s], P [cPa], c [cm/s]
1.000000000000000021e-03 1.921140000000000070e-01 3.698389000000000260e-01 9.048054999999999382e+01 2.270994999999999891e+03
2.000000000000000042e-03 1.920469999999999955e-01 1.906875500000000168e+00 8.668309999999999604e+01 2.270369999999999891e+03
3.000000000000000062e-03 1.918964999999999976e-01 3.803690999999999711e+00 8.141175000000001205e+01 2.269014999999999873e+03
4.000000000000000083e-03 1.917090000000000183e-01 5.968079000000000356e+00 7.607179999999999609e+01 2.267335000000000036e+03
5.000000000000000104e-03 1.915235000000000132e-01 8.268124999999999503e+00 7.170785000000000764e+01 2.265699999999999818e+03
6.000000000000000125e-03 1.913535000000000097e-01 1.038660499999999942e+01 6.822934999999999661e+01 2.264224999999999909e+03
7.000000000000000146e-03 1.911964999999999915e-01 1.210533999999999999e+01 6.509629999999999939e+01 2.262900000000000091e+03
8.000000000000000167e-03 1.910604999999999942e-01 1.347435000000000116e+01 6.233769999999999811e+01 2.261769999999999982e+03
9.000000000000001055e-03 1.909490000000000076e-01 1.455940000000000012e+01 6.013320000000000221e+01 2.260849999999999909e+03
1.000000000000000194e-02 1.908604999999999885e-01 1.538455000000000084e+01 5.845329999999999870e+01 2.260135000000000218e+03
1.099999999999999936e-02 1.907939999999999914e-01 1.598144999999999882e+01 5.723089999999999833e+01 2.259599999999999909e+03
1.200000000000000025e-02 1.907435000000000103e-01 1.635010000000000119e+01 5.630804999999999438e+01 2.259210000000000036e+03
1.300000000000000114e-02 1.907024999999999970e-01 1.650029999999999930e+01 5.547469999999999857e+01 2.258894999999999982e+03
1.400000000000000203e-02 1.906704999999999928e-01 1.657269999999999754e+01 5.484914999999999452e+01 2.258655000000000200e+03
1.499999999999999944e-02 1.906614999999999838e-01 1.683249999999999957e+01 5.504349999999999454e+01 2.258599999999999909e+03
1.600000000000000033e-02 1.906944999999999890e-01 1.749685000000000201e+01 5.674770000000000181e+01 2.258869999999999891e+03
1.700000000000000122e-02 1.907760000000000011e-01 1.856050000000000111e+01 6.010125000000000028e+01 2.259534999999999854e+03
1.800000000000000211e-02 1.908940000000000081e-01 1.976970000000000027e+01 6.441635000000000844e+01 2.260505000000000109e+03
1.900000000000000300e-02 1.910195000000000087e-01 2.074699999999999989e+01 6.844020000000000437e+01 2.261559999999999945e+03
2.000000000000000042e-02 1.911180000000000101e-01 2.117475000000000307e+01 7.094100000000000250e+01 2.262414999999999964e+03
2.100000000000000130e-02 1.911660000000000026e-01 2.093365000000000009e+01 7.126144999999999641e+01 2.262855000000000018e+03
2.200000000000000219e-02 1.911565000000000070e-01 2.013539999999999708e+01 6.956200000000001182e+01 2.262814999999999600e+03
2.299999999999999961e-02 1.911025000000000085e-01 1.904585000000000150e+01 6.666610000000000014e+01 2.262400000000000091e+03
2.400000000000000050e-02 1.910280000000000034e-01 1.795104999999999862e+01 6.362675000000000125e+01 2.261795000000000073e+03
2.500000000000000139e-02 1.909569999999999879e-01 1.703710000000000235e+01 6.125804999999999723e+01 2.261199999999999818e+03
2.600000000000000228e-02 1.909029999999999894e-01 1.633655000000000257e+01 5.985139999999999816e+01 2.260734999999999673e+03
2.700000000000000316e-02 1.908674999999999955e-01 1.574954999999999927e+01 5.916400000000000148e+01 2.260420000000000073e+03
2.800000000000000058e-02 1.908400000000000096e-01 1.511704999999999899e+01 5.863069999999999737e+01 2.260185000000000400e+03
2.900000000000000147e-02 1.908074999999999910e-01 1.430780000000000030e+01 5.767565000000000452e+01 2.259914999999999964e+03
3.000000000000000236e-02 1.907584999999999975e-01 1.328705000000000069e+01 5.599334999999999951e+01 2.259519999999999982e+03
3.099999999999999978e-02 1.906924999999999870e-01 1.214264499999999991e+01 5.369959999999999667e+01 2.258980000000000018e+03
3.200000000000000067e-02 1.906184999999999963e-01 1.105963000000000029e+01 5.130169999999999675e+01 2.258369999999999891e+03
3.300000000000000155e-02 1.905540000000000012e-01 1.025476000000000099e+01 4.950554999999999950e+01 2.257815000000000055e+03
3.400000000000000244e-02 1.905160000000000187e-01 9.898164999999998770e+00 4.894419999999999504e+01 2.257480000000000018e+03
3.500000000000000333e-02 1.905184999999999795e-01 1.005355000000000132e+01 4.994010000000000105e+01 2.257470000000000255e+03
3.600000000000000422e-02 1.905649999999999844e-01 1.065691500000000147e+01 5.238694999999999879e+01 2.257824999999999818e+03
3.700000000000000511e-02 1.906470000000000109e-01 1.153565000000000040e+01 5.577909999999999968e+01 2.258480000000000018e+03
3.799999999999999906e-02 1.907469999999999999e-01 1.245520000000000138e+01 5.935694999999999766e+01 2.259300000000000182e+03
3.899999999999999994e-02 1.908434999999999993e-01 1.317575000000000074e+01 6.230665000000000475e+01 2.260110000000000127e+03
4.000000000000000083e-02 1.909144999999999870e-01 1.350104999999999933e+01 6.394759999999999422e+01 2.260710000000000036e+03
4.100000000000000172e-02 1.909430000000000016e-01 1.330954999999999977e+01 6.386090000000000089e+01 2.260974999999999909e+03
4.200000000000000261e-02 1.909204999999999930e-01 1.256439999999999912e+01 6.193694999999999595e+01 2.260815000000000055e+03
4.300000000000000350e-02 1.908449999999999869e-01 1.130355499999999935e+01 5.834505000000000052e+01 2.260210000000000036e+03
4.400000000000000439e-02 1.907220000000000026e-01 9.617319999999999425e+00 5.344870000000000232e+01 2.259210000000000036e+03
4.499999999999999833e-02 1.905624999999999958e-01 7.622939999999999827e+00 4.770029999999999859e+01 2.257894999999999982e+03
4.599999999999999922e-02 1.903790000000000204e-01 5.442003500000000216e+00 4.154769999999999897e+01 2.256375000000000000e+03
4.700000000000000011e-02 1.901835000000000053e-01 3.187219999999999942e+00 3.537355000000000160e+01 2.254744999999999891e+03
4.800000000000000100e-02 1.899859999999999882e-01 9.572500000000001563e-01 2.947325000000000017e+01 2.253100000000000364e+03
4.900000000000000189e-02 1.897965000000000069e-01 -1.161615000000000064e+00 2.406435000000000102e+01 2.251515000000000327e+03
5.000000000000000278e-02 1.896209999999999840e-01 -3.090939999999999799e+00 1.931250000000000000e+01 2.250045000000000073e+03
5.100000000000000366e-02 1.894659999999999955e-01 -4.756260000000000154e+00 1.535867499999999986e+01 2.248739999999999782e+03
5.200000000000000455e-02 1.893380000000000063e-01 -6.085989999999999789e+00 1.233719500000000124e+01 2.247644999999999982e+03
5.300000000000000544e-02 1.892400000000000193e-01 -7.013925000000000409e+00 1.037900999999999918e+01 2.246810000000000400e+03
5.399999999999999939e-02 1.891780000000000128e-01 -7.484650000000000247e+00 9.600630000000000663e+00 2.246264999999999873e+03
5.500000000000000028e-02 1.891555000000000042e-01 -7.460150000000000503e+00 1.008539999999999992e+01 2.246045000000000073e+03
5.600000000000000117e-02 1.891749999999999821e-01 -6.925659999999999705e+00 1.186294999999999966e+01 2.246164999999999964e+03
5.700000000000000205e-02 1.892359999999999876e-01 -5.892980000000000551e+00 1.489525000000000077e+01 2.246639999999999873e+03
5.800000000000000294e-02 1.893369999999999775e-01 -4.400414999999999743e+00 1.907290000000000063e+01 2.247444999999999709e+03
5.900000000000000383e-02 1.894750000000000045e-01 -2.509440000000000115e+00 2.422270000000000323e+01 2.248560000000000400e+03
6.000000000000000472e-02 1.896430000000000060e-01 -2.990150000000002528e-01 3.012415000000000020e+01 2.249940000000000055e+03
6.099999999999999867e-02 1.898360000000000047e-01 2.141099999999999781e+00 3.653054999999999808e+01 2.251525000000000091e+03
6.199999999999999956e-02 1.900439999999999907e-01 4.717025999999999719e+00 4.318990000000000151e+01 2.253255000000000109e+03
6.300000000000000044e-02 1.902610000000000134e-01 7.336484999999999701e+00 4.986325000000000074e+01 2.255059999999999945e+03
6.400000000000000133e-02 1.904790000000000094e-01 9.913745000000000474e+00 5.633805000000000263e+01 2.256890000000000327e+03
6.500000000000000222e-02 1.906909999999999994e-01 1.237350500000000153e+01 6.243819999999999482e+01 2.258670000000000073e+03
6.600000000000000311e-02 1.908925000000000205e-01 1.465449999999999875e+01 6.803099999999999170e+01 2.260375000000000000e+03
6.700000000000000400e-02 1.910784999999999845e-01 1.671215000000000117e+01 7.303255000000000052e+01 2.261954999999999927e+03
6.800000000000000488e-02 1.912459999999999993e-01 1.852084999999999937e+01 7.741069999999999141e+01 2.263394999999999982e+03
6.900000000000000577e-02 1.913960000000000106e-01 2.007469999999999999e+01 8.118534999999999968e+01 2.264675000000000182e+03
7.000000000000000666e-02 1.915275000000000172e-01 2.138694999999999879e+01 8.442525000000000546e+01 2.265809999999999945e+03
7.100000000000000755e-02 1.916430000000000078e-01 2.248774999999999835e+01 8.724000000000000909e+01 2.266810000000000400e+03
7.200000000000000844e-02 1.917470000000000008e-01 2.342004999999999981e+01 8.976810000000000400e+01 2.267710000000000036e+03
7.300000000000000933e-02 1.918429999999999858e-01 2.423494999999999777e+01 9.216254999999999598e+01 2.268545000000000073e+03
7.399999999999999634e-02 1.919350000000000223e-01 2.498595000000000255e+01 9.457429999999999382e+01 2.269345000000000255e+03
7.499999999999999722e-02 1.920284999999999909e-01 2.572354999999999947e+01 9.713745000000000118e+01 2.270144999999999982e+03
7.599999999999999811e-02 1.921264999999999779e-01 2.649065000000000225e+01 9.995605000000000473e+01 2.270989999999999782e+03
7.699999999999999900e-02 1.922325000000000006e-01 2.731855000000000189e+01 1.030952000000000055e+02 2.271894999999999982e+03
7.799999999999999989e-02 1.923480000000000190e-01 2.822509999999999764e+01 1.065784999999999911e+02 2.272880000000000109e+03
7.900000000000000078e-02 1.924740000000000062e-01 2.921359999999999957e+01 1.103839999999999861e+02 2.273949999999999818e+03
8.000000000000000167e-02 1.926084999999999881e-01 3.027349999999999852e+01 1.144530000000000030e+02 2.275090000000000146e+03
8.100000000000000255e-02 1.927500000000000047e-01 3.138210000000000122e+01 1.186945000000000050e+02 2.276295000000000073e+03
8.200000000000000344e-02 1.928960000000000119e-01 3.250714999999999577e+01 1.229954999999999927e+02 2.277545000000000073e+03
8.300000000000000433e-02 1.930419999999999914e-01 3.361019999999999897e+01 1.272295000000000016e+02 2.278795000000000073e+03
8.400000000000000522e-02 1.931855000000000100e-01 3.464970000000000283e+01 1.312704999999999984e+02 2.280019999999999982e+03
8.500000000000000611e-02 1.933215000000000072e-01 3.558424999999999727e+01 1.349984999999999786e+02 2.281190000000000055e+03
8.600000000000000699e-02 1.934469999999999801e-01 3.637590000000000146e+01 1.383095000000000141e+02 2.282275000000000091e+03
8.700000000000000788e-02 1.935584999999999944e-01 3.699249999999999972e+01 1.411200000000000045e+02 2.283235000000000127e+03
8.800000000000000877e-02 1.936529999999999918e-01 3.740970000000000084e+01 1.433725000000000023e+02 2.284064999999999600e+03
8.899999999999999578e-02 1.937294999999999989e-01 3.761244999999999550e+01 1.450384999999999991e+02 2.284730000000000018e+03
8.999999999999999667e-02 1.937869999999999870e-01 3.759555000000000291e+01 1.461150000000000091e+02 2.285244999999999891e+03
9.099999999999999756e-02 1.938259999999999983e-01 3.736364999999999981e+01 1.466270000000000095e+02 2.285590000000000146e+03
9.199999999999999845e-02 1.938459999999999905e-01 3.693070000000000164e+01 1.466225000000000023e+02 2.285789999999999964e+03
9.299999999999999933e-02 1.938499999999999945e-01 3.631860000000000355e+01 1.461694999999999993e+02 2.285835000000000036e+03
9.400000000000000022e-02 1.938394999999999979e-01 3.555575000000000330e+01 1.453464999999999918e+02 2.285760000000000218e+03
9.500000000000000111e-02 1.938165000000000027e-01 3.467484999999999928e+01 1.442454999999999927e+02 2.285574999999999818e+03
9.600000000000000200e-02 1.937849999999999850e-01 3.371150000000000091e+01 1.429574999999999818e+02 2.285320000000000164e+03
9.700000000000000289e-02 1.937470000000000026e-01 3.270154999999999745e+01 1.415729999999999791e+02 2.285005000000000109e+03
9.800000000000000377e-02 1.937055000000000027e-01 3.167999999999999972e+01 1.401775000000000091e+02 2.284654999999999745e+03
9.900000000000000466e-02 1.936634999999999884e-01 3.067889999999999873e+01 1.388449999999999989e+02 2.284295000000000073e+03
1.000000000000000056e-01 1.936229999999999896e-01 2.972594999999999743e+01 1.376390000000000100e+02 2.283945000000000164e+03
1.010000000000000064e-01 1.935859999999999803e-01 2.884384999999999977e+01 1.366064999999999827e+02 2.283630000000000109e+03
1.020000000000000073e-01 1.935544999999999904e-01 2.804860000000000042e+01 1.357794999999999845e+02 2.283349999999999909e+03
1.030000000000000082e-01 1.935284999999999922e-01 2.734955000000000069e+01 1.351709999999999923e+02 2.283125000000000000e+03
1.040000000000000091e-01 1.935089999999999866e-01 2.674880000000000280e+01 1.347775000000000034e+02 2.282949999999999818e+03
1.050000000000000100e-01 1.934960000000000013e-01 2.624145000000000039e+01 1.345780000000000030e+02 2.282829999999999927e+03
1.059999999999999970e-01 1.934889999999999943e-01 2.581625000000000014e+01 1.345350000000000250e+02 2.282760000000000218e+03
1.069999999999999979e-01 1.934855000000000047e-01 2.545609999999999928e+01 1.345989999999999895e+02 2.282725000000000364e+03
1.079999999999999988e-01 1.934855000000000047e-01 2.513969999999999771e+01 1.347105000000000246e+02 2.282715000000000146e+03
1.089999999999999997e-01 1.934865000000000057e-01 2.484305000000000163e+01 1.348040000000000020e+02 2.282720000000000255e+03
1.100000000000000006e-01 1.934859999999999913e-01 2.454084999999999894e+01 1.348140000000000214e+02 2.282715000000000146e+03
1.110000000000000014e-01 1.934830000000000161e-01 2.420864999999999867e+01 1.346775000000000091e+02 2.282684999999999945e+03
1.120000000000000023e-01 1.934750000000000081e-01 2.382424999999999926e+01 1.343400000000000034e+02 2.282614999999999782e+03
1.130000000000000032e-01 1.934595000000000065e-01 2.336945000000000050e+01 1.337595000000000027e+02 2.282489999999999782e+03
1.140000000000000041e-01 1.934374999999999845e-01 2.283140000000000214e+01 1.329085000000000036e+02 2.282295000000000073e+03
1.150000000000000050e-01 1.934055000000000080e-01 2.220319999999999894e+01 1.317785000000000082e+02 2.282029999999999745e+03
1.160000000000000059e-01 1.933655000000000235e-01 2.148489999999999966e+01 1.303764999999999930e+02 2.281694999999999709e+03
1.170000000000000068e-01 1.933170000000000166e-01 2.068299999999999983e+01 1.287295000000000016e+02 2.281284999999999854e+03
1.180000000000000077e-01 1.932609999999999884e-01 1.981034999999999968e+01 1.268799999999999955e+02 2.280809999999999945e+03
1.190000000000000085e-01 1.931984999999999952e-01 1.888485000000000014e+01 1.248824999999999932e+02 2.280279999999999745e+03
1.200000000000000094e-01 1.931319999999999981e-01 1.792869999999999919e+01 1.228015000000000043e+02 2.279720000000000255e+03
1.209999999999999964e-01 1.930624999999999980e-01 1.696659999999999968e+01 1.207069999999999936e+02 2.279130000000000109e+03
1.219999999999999973e-01 1.929934999999999845e-01 1.602420000000000044e+01 1.186680000000000064e+02 2.278534999999999854e+03
1.229999999999999982e-01 1.929259999999999864e-01 1.512644999999999840e+01 1.167510000000000048e+02 2.277960000000000036e+03
1.239999999999999991e-01 1.928630000000000067e-01 1.429629999999999868e+01 1.150134999999999934e+02 2.277420000000000073e+03
1.250000000000000000e-01 1.928055000000000185e-01 1.355339999999999989e+01 1.135035000000000025e+02 2.276925000000000182e+03
1.260000000000000009e-01 1.927554999999999963e-01 1.291305000000000014e+01 1.122570000000000050e+02 2.276489999999999782e+03
1.270000000000000018e-01 1.927139999999999964e-01 1.238569999999999993e+01 1.112944999999999993e+02 2.276125000000000000e+03
1.280000000000000027e-01 1.926815000000000055e-01 1.197649999999999970e+01 1.106235000000000070e+02 2.275840000000000146e+03
1.290000000000000036e-01 1.926579999999999959e-01 1.168564999999999898e+01 1.102379999999999995e+02 2.275635000000000218e+03
1.300000000000000044e-01 1.926440000000000097e-01 1.150840000000000174e+01 1.101195000000000022e+02 2.275500000000000000e+03
1.310000000000000053e-01 1.926384999999999903e-01 1.143574999999999875e+01 1.102419999999999902e+02 2.275449999999999818e+03
1.320000000000000062e-01 1.926404999999999923e-01 1.145520000000000138e+01 1.105674999999999955e+02 2.275454999999999927e+03
1.330000000000000071e-01 1.926495000000000013e-01 1.155144999999999911e+01 1.110554999999999950e+02 2.275519999999999982e+03
1.340000000000000080e-01 1.926634999999999875e-01 1.170749999999999957e+01 1.116624999999999943e+02 2.275635000000000218e+03
1.350000000000000089e-01 1.926809999999999912e-01 1.190540000000000020e+01 1.123429999999999893e+02 2.275775000000000091e+03
1.360000000000000098e-01 1.927014999999999978e-01 1.212709999999999866e+01 1.130534999999999997e+02 2.275945000000000164e+03
1.370000000000000107e-01 1.927230000000000054e-01 1.235545000000000115e+01 1.137535000000000025e+02 2.276125000000000000e+03
1.380000000000000115e-01 1.927444999999999853e-01 1.257450000000000045e+01 1.144060000000000059e+02 2.276305000000000291e+03
1.390000000000000124e-01 1.927639999999999909e-01 1.277055000000000007e+01 1.149830000000000041e+02 2.276479999999999563e+03
1.400000000000000133e-01 1.927814999999999945e-01 1.293234999999999957e+01 1.154594999999999914e+02 2.276630000000000109e+03
1.410000000000000142e-01 1.927964999999999818e-01 1.305144999999999911e+01 1.158205000000000098e+02 2.276755000000000109e+03
1.420000000000000151e-01 1.928080000000000072e-01 1.312274999999999991e+01 1.160585000000000093e+02 2.276855000000000018e+03
1.430000000000000160e-01 1.928155000000000008e-01 1.314414999999999978e+01 1.161715000000000089e+02 2.276920000000000073e+03
1.440000000000000169e-01 1.928190000000000182e-01 1.311669999999999980e+01 1.161684999999999945e+02 2.276954999999999927e+03
1.450000000000000178e-01 1.928190000000000182e-01 1.304410000000000025e+01 1.160625000000000000e+02 2.276960000000000036e+03
1.459999999999999909e-01 1.928159999999999874e-01 1.293254999999999910e+01 1.158714999999999975e+02 2.276939999999999600e+03
1.469999999999999918e-01 1.928100000000000092e-01 1.278999999999999915e+01 1.156184999999999974e+02 2.276894999999999982e+03
1.479999999999999927e-01 1.928030000000000022e-01 1.262550000000000061e+01 1.153280000000000030e+02 2.276835000000000036e+03
1.489999999999999936e-01 1.927945000000000075e-01 1.244870000000000054e+01 1.150240000000000009e+02 2.276764999999999873e+03
1.499999999999999944e-01 1.927854999999999985e-01 1.226909999999999989e+01 1.147309999999999945e+02 2.276690000000000055e+03
1.509999999999999953e-01 1.927764999999999895e-01 1.209534999999999982e+01 1.144689999999999941e+02 2.276609999999999673e+03
1.519999999999999962e-01 1.927685000000000093e-01 1.193485000000000085e+01 1.142530000000000001e+02 2.276550000000000182e+03
1.529999999999999971e-01 1.927625000000000033e-01 1.179350000000000165e+01 1.140964999999999918e+02 2.276494999999999891e+03
1.539999999999999980e-01 1.927579999999999849e-01 1.167530000000000001e+01 1.140049999999999955e+02 2.276454999999999927e+03
1.549999999999999989e-01 1.927554999999999963e-01 1.158220000000000027e+01 1.139800000000000040e+02 2.276430000000000291e+03
1.559999999999999998e-01 1.927550000000000097e-01 1.151459999999999972e+01 1.140175000000000125e+02 2.276425000000000182e+03
1.570000000000000007e-01 1.927559999999999829e-01 1.147080000000000055e+01 1.141115000000000066e+02 2.276434999999999945e+03
1.580000000000000016e-01 1.927595000000000003e-01 1.144790000000000063e+01 1.142494999999999976e+02 2.276460000000000036e+03
1.590000000000000024e-01 1.927639999999999909e-01 1.144174999999999898e+01 1.144194999999999993e+02 2.276494999999999891e+03
