# t [s], A [cm^2], U [cm/s], P [cPa], c [cm/s]
1.000000000000000021e-03 1.801079999999999903e-01 3.237650000000000250e-01 9.778934999999999889e+01 2.012105000000000018e+03
2.000000000000000042e-03 1.800674999999999915e-01 1.842957000000000178e+00 9.457585000000000264e+01 2.011795000000000073e+03
3.000000000000000062e-03 1.799450000000000216e-01 3.701533500000000032e+00 9.024684999999999491e+01 2.010889999999999873e+03
4.000000000000000083e-03 1.797715000000000007e-01 5.774716999999999878e+00 8.553425000000000011e+01 2.009634999999999991e+03
5.000000000000000104e-03 1.795805000000000040e-01 7.997460000000000235e+00 8.126834999999999809e+01 2.008259999999999991e+03
6.000000000000000125e-03 1.793919999999999959e-01 1.021701499999999996e+01 7.775594999999999857e+01 2.006920000000000073e+03
7.000000000000000146e-03 1.792134999999999978e-01 1.223884499999999953e+01 7.480455000000000609e+01 2.005670000000000073e+03
8.000000000000000167e-03 1.790479999999999849e-01 1.396857500000000130e+01 7.217249999999999943e+01 2.004535000000000082e+03
9.000000000000001055e-03 1.789000000000000035e-01 1.542759999999999998e+01 6.986225000000000307e+01 2.003529999999999973e+03
1.000000000000000194e-02 1.787725000000000009e-01 1.665104999999999791e+01 6.794755000000000678e+01 2.002674999999999955e+03
1.099999999999999936e-02 1.786659999999999915e-01 1.765274999999999750e+01 6.641849999999999454e+01 2.001970000000000027e+03
1.200000000000000025e-02 1.785785000000000011e-01 1.844184999999999874e+01 6.521439999999999770e+01 2.001394999999999982e+03
1.300000000000000114e-02 1.785085000000000144e-01 1.902400000000000091e+01 6.425074999999999648e+01 2.000940000000000055e+03
1.400000000000000203e-02 1.784505000000000119e-01 1.940724999999999767e+01 6.343009999999999593e+01 2.000574999999999818e+03
1.499999999999999944e-02 1.784024999999999916e-01 1.963289999999999935e+01 6.271824999999999761e+01 2.000275000000000091e+03
1.600000000000000033e-02 1.783655000000000102e-01 1.979589999999999961e+01 6.223489999999999611e+01 2.000054999999999836e+03
1.700000000000000122e-02 1.783460000000000045e-01 2.002175000000000082e+01 6.224014999999999986e+01 1.999940000000000055e+03
1.800000000000000211e-02 1.783514999999999961e-01 2.041100000000000136e+01 6.299625000000000341e+01 1.999990000000000009e+03
1.900000000000000300e-02 1.783865000000000034e-01 2.098959999999999937e+01 6.460005000000001019e+01 2.000230000000000018e+03
2.000000000000000042e-02 1.784494999999999831e-01 2.169590000000000174e+01 6.689480000000000359e+01 2.000650000000000091e+03
2.100000000000000130e-02 1.785315000000000096e-01 2.240585000000000093e+01 6.950360000000000582e+01 2.001204999999999927e+03
2.200000000000000219e-02 1.786200000000000010e-01 2.298060000000000258e+01 7.195535000000000991e+01 2.001809999999999945e+03
2.299999999999999961e-02 1.787009999999999987e-01 2.331284999999999741e+01 7.383699999999998909e+01 2.002375000000000000e+03
2.400000000000000050e-02 1.787639999999999785e-01 2.335625000000000284e+01 7.491139999999998622e+01 2.002815000000000055e+03
2.500000000000000139e-02 1.788035000000000041e-01 2.313025000000000020e+01 7.516264999999999930e+01 2.003105000000000018e+03
2.600000000000000228e-02 1.788200000000000067e-01 2.270230000000000103e+01 7.476370000000000005e+01 2.003230000000000018e+03
2.700000000000000316e-02 1.788180000000000047e-01 2.215755000000000052e+01 7.398805000000000121e+01 2.003235000000000127e+03
2.800000000000000058e-02 1.788045000000000051e-01 2.156844999999999857e+01 7.310450000000000159e+01 2.003154999999999973e+03
2.900000000000000147e-02 1.787865000000000149e-01 2.097530000000000072e+01 7.229419999999998936e+01 2.003039999999999964e+03
3.000000000000000236e-02 1.787674999999999959e-01 2.038139999999999930e+01 7.161405000000000598e+01 2.002909999999999854e+03
3.099999999999999978e-02 1.787475000000000036e-01 1.976310000000000144e+01 7.100995000000000346e+01 2.002779999999999973e+03
3.200000000000000067e-02 1.787259999999999960e-01 1.908749999999999858e+01 7.036629999999999541e+01 2.002634999999999991e+03
3.300000000000000155e-02 1.787000000000000255e-01 1.833210000000000051e+01 6.957099999999999795e+01 2.002465000000000146e+03
3.400000000000000244e-02 1.786669999999999925e-01 1.749934999999999974e+01 6.857155000000000200e+01 2.002250000000000000e+03
3.500000000000000333e-02 1.786284999999999956e-01 1.662274999999999991e+01 6.740864999999999441e+01 2.001994999999999891e+03
3.600000000000000422e-02 1.785855000000000081e-01 1.576265000000000072e+01 6.621585000000000321e+01 2.001710000000000036e+03
3.700000000000000511e-02 1.785444999999999949e-01 1.499314999999999998e+01 6.518904999999999461e+01 2.001434999999999945e+03
3.799999999999999906e-02 1.785109999999999753e-01 1.438465000000000060e+01 6.453479999999998995e+01 2.001204999999999927e+03
3.899999999999999994e-02 1.784919999999999840e-01 1.398665000000000092e+01 6.441445000000000221e+01 2.001070000000000164e+03
4.000000000000000083e-02 1.784914999999999974e-01 1.381589999999999918e+01 6.490009999999999479e+01 2.001049999999999955e+03
4.100000000000000172e-02 1.785100000000000020e-01 1.385259999999999891e+01 6.595385000000000275e+01 2.001164999999999964e+03
4.200000000000000261e-02 1.785464999999999969e-01 1.404439999999999955e+01 6.743340000000000600e+01 2.001400000000000091e+03
4.300000000000000350e-02 1.785959999999999770e-01 1.431670000000000087e+01 6.912055000000000859e+01 2.001720000000000027e+03
4.400000000000000439e-02 1.786514999999999909e-01 1.458610000000000007e+01 7.076239999999999952e+01 2.002090000000000146e+03
4.499999999999999833e-02 1.787050000000000027e-01 1.477299999999999969e+01 7.211499999999999488e+01 2.002445000000000164e+03
4.599999999999999922e-02 1.787484999999999769e-01 1.481224999999999881e+01 7.297974999999999568e+01 2.002740000000000009e+03
4.700000000000000011e-02 1.787759999999999905e-01 1.465940000000000154e+01 7.322630000000000905e+01 2.002934999999999945e+03
4.800000000000000100e-02 1.787835000000000119e-01 1.429230000000000089e+01 7.280074999999999363e+01 2.002985000000000127e+03
4.900000000000000189e-02 1.787674999999999959e-01 1.370929999999999893e+01 7.171940000000000737e+01 2.002889999999999873e+03
5.000000000000000278e-02 1.787294999999999856e-01 1.292525000000000013e+01 7.005334999999999468e+01 2.002644999999999982e+03
5.100000000000000366e-02 1.786709999999999965e-01 1.196593499999999999e+01 6.790819999999999368e+01 2.002255000000000109e+03
5.200000000000000455e-02 1.785950000000000037e-01 1.086373500000000014e+01 6.540470000000000539e+01 2.001750000000000000e+03
5.300000000000000544e-02 1.785045000000000104e-01 9.653595000000001036e+00 6.266375000000000028e+01 2.001144999999999982e+03
5.399999999999999939e-02 1.784040000000000070e-01 8.371385000000000076e+00 5.979710000000000036e+01 2.000470000000000027e+03
5.500000000000000028e-02 1.782974999999999977e-01 7.052785000000000082e+00 5.690439999999999543e+01 1.999755000000000109e+03
5.600000000000000117e-02 1.781880000000000130e-01 5.733890000000000597e+00 5.407464999999999833e+01 1.999019999999999982e+03
5.700000000000000205e-02 1.780789999999999873e-01 4.451475000000000293e+00 5.138994999999999891e+01 1.998284999999999854e+03
5.800000000000000294e-02 1.779745000000000077e-01 3.243586000000000080e+00 4.892980000000000018e+01 1.997574999999999818e+03
5.900000000000000383e-02 1.778770000000000073e-01 2.149328000000000127e+00 4.677349999999999852e+01 1.996914999999999964e+03
6.000000000000000472e-02 1.777905000000000180e-01 1.208034999999999748e+00 4.500119999999999720e+01 1.996329999999999927e+03
6.099999999999999867e-02 1.777185000000000015e-01 4.577550000000001340e-01 4.369104999999999706e+01 1.995835000000000036e+03
6.199999999999999956e-02 1.776635000000000020e-01 -6.670500000000001428e-02 4.291575000000000273e+01 1.995450000000000045e+03
6.300000000000000044e-02 1.776280000000000081e-01 -3.359054999999999680e-01 4.273700000000000188e+01 1.995199999999999818e+03
6.400000000000000133e-02 1.776155000000000095e-01 -3.278130000000000210e-01 4.320000000000000284e+01 1.995099999999999909e+03
6.500000000000000222e-02 1.776269999999999794e-01 -2.932950000000000834e-02 4.432930000000000348e+01 1.995164999999999964e+03
6.600000000000000311e-02 1.776634999999999742e-01 5.627254999999999896e-01 4.612555000000000405e+01 1.995394999999999982e+03
6.700000000000000400e-02 1.777255000000000085e-01 1.441396500000000191e+00 4.856494999999999607e+01 1.995795000000000073e+03
6.800000000000000488e-02 1.778124999999999845e-01 2.590043200000000212e+00 5.160044999999999504e+01 1.996365000000000009e+03
6.900000000000000577e-02 1.779224999999999834e-01 3.983419500000000113e+00 5.516460000000000008e+01 1.997090000000000146e+03
7.000000000000000666e-02 1.780535000000000034e-01 5.589249999999999829e+00 5.917449999999999477e+01 1.997960000000000036e+03
7.100000000000000755e-02 1.782030000000000003e-01 7.370089999999999364e+00 6.353645000000000209e+01 1.998950000000000045e+03
7.200000000000000844e-02 1.783669999999999978e-01 9.285285000000000011e+00 6.815229999999999677e+01 2.000049999999999955e+03
7.300000000000000933e-02 1.785424999999999929e-01 1.129333500000000079e+01 7.292459999999999809e+01 2.001224999999999909e+03
7.399999999999999634e-02 1.787254999999999816e-01 1.335355999999999987e+01 7.776214999999999122e+01 2.002460000000000036e+03
7.499999999999999722e-02 1.789129999999999887e-01 1.542805000000000071e+01 8.258420000000000982e+01 2.003724999999999909e+03
7.599999999999999811e-02 1.791019999999999834e-01 1.748335000000000150e+01 8.732419999999999050e+01 2.005009999999999991e+03
7.699999999999999900e-02 1.792894999999999905e-01 1.949139999999999873e+01 9.193174999999999386e+01 2.006285000000000082e+03
7.799999999999999989e-02 1.794744999999999813e-01 2.143034999999999712e+01 9.637375000000000114e+01 2.007550000000000182e+03
7.900000000000000078e-02 1.796544999999999948e-01 2.328475000000000250e+01 1.006353000000000009e+02 2.008779999999999973e+03
8.000000000000000167e-02 1.798295000000000032e-01 2.504534999999999911e+01 1.047150500000000051e+02 2.009980000000000018e+03
8.100000000000000255e-02 1.799985000000000057e-01 2.670860000000000056e+01 1.086255000000000024e+02 2.011144999999999982e+03
8.200000000000000344e-02 1.801619999999999888e-01 2.827544999999999931e+01 1.123894999999999982e+02 2.012275000000000091e+03
8.300000000000000433e-02 1.803204999999999947e-01 2.975025000000000119e+01 1.160335000000000036e+02 2.013369999999999891e+03
8.400000000000000522e-02 1.804755000000000109e-01 3.113970000000000127e+01 1.195879999999999939e+02 2.014440000000000055e+03
8.500000000000000611e-02 1.806269999999999820e-01 3.245134999999999792e+01 1.230790000000000077e+02 2.015485000000000127e+03
8.600000000000000699e-02 1.807755000000000056e-01 3.369275000000000375e+01 1.265314999999999941e+02 2.016519999999999982e+03
8.700000000000000788e-02 1.809230000000000005e-01 3.487030000000000030e+01 1.299604999999999961e+02 2.017539999999999964e+03
8.800000000000000877e-02 1.810690000000000077e-01 3.598879999999999768e+01 1.333750000000000000e+02 2.018554999999999836e+03
8.899999999999999578e-02 1.812139999999999862e-01 3.705095000000000027e+01 1.367755000000000223e+02 2.019559999999999945e+03
8.999999999999999667e-02 1.813584999999999781e-01 3.805705000000000382e+01 1.401535000000000082e+02 2.020559999999999945e+03
9.099999999999999756e-02 1.815019999999999967e-01 3.900520000000000209e+01 1.434945000000000164e+02 2.021559999999999945e+03
9.199999999999999845e-02 1.816424999999999845e-01 3.989135000000000275e+01 1.467774999999999750e+02 2.022539999999999964e+03
9.299999999999999933e-02 1.817814999999999848e-01 4.070969999999999800e+01 1.499764999999999873e+02 2.023505000000000109e+03
9.400000000000000022e-02 1.819169999999999954e-01 4.145289999999999964e+01 1.530629999999999882e+02 2.024445000000000164e+03
9.500000000000000111e-02 1.820475000000000010e-01 4.211280000000000001e+01 1.560074999999999932e+02 2.025355000000000018e+03
9.600000000000000200e-02 1.821734999999999882e-01 4.268064999999999998e+01 1.587789999999999964e+02 2.026230000000000018e+03
9.700000000000000289e-02 1.822914999999999952e-01 4.314775000000000205e+01 1.613500000000000227e+02 2.027059999999999945e+03
9.800000000000000377e-02 1.824020000000000086e-01 4.350594999999999857e+01 1.636935000000000002e+02 2.027835000000000036e+03
9.900000000000000466e-02 1.825039999999999996e-01 4.374800000000000466e+01 1.657869999999999777e+02 2.028549999999999955e+03
1.000000000000000056e-01 1.825964999999999949e-01 4.386809999999999832e+01 1.676125000000000114e+02 2.029194999999999936e+03
1.010000000000000064e-01 1.826774999999999927e-01 4.386230000000000473e+01 1.691569999999999823e+02 2.029775000000000091e+03
1.020000000000000073e-01 1.827485000000000082e-01 4.372875000000000512e+01 1.704134999999999991e+02 2.030269999999999982e+03
1.030000000000000082e-01 1.828079999999999983e-01 4.346805000000000518e+01 1.713810000000000002e+02 2.030695000000000164e+03
1.040000000000000091e-01 1.828560000000000185e-01 4.308334999999999582e+01 1.720654999999999859e+02 2.031039999999999964e+03
1.050000000000000100e-01 1.828925000000000134e-01 4.258024999999999949e+01 1.724784999999999968e+02 2.031299999999999955e+03
1.059999999999999970e-01 1.829185000000000116e-01 4.196710000000000207e+01 1.726384999999999934e+02 2.031490000000000009e+03
1.069999999999999979e-01 1.829339999999999855e-01 4.125430000000000064e+01 1.725685000000000002e+02 2.031610000000000127e+03
1.079999999999999988e-01 1.829399999999999915e-01 4.045420000000000016e+01 1.722964999999999804e+02 2.031659999999999854e+03
1.089999999999999997e-01 1.829379999999999895e-01 3.958070000000000022e+01 1.718514999999999873e+02 2.031650000000000091e+03
1.100000000000000006e-01 1.829280000000000073e-01 3.864860000000000184e+01 1.712674999999999841e+02 2.031595000000000027e+03
1.110000000000000014e-01 1.829120000000000190e-01 3.767310000000000514e+01 1.705769999999999982e+02 2.031485000000000127e+03
1.120000000000000023e-01 1.828914999999999846e-01 3.666929999999999978e+01 1.698115000000000236e+02 2.031349999999999909e+03
1.130000000000000032e-01 1.828664999999999874e-01 3.565155000000000030e+01 1.690004999999999882e+02 2.031184999999999945e+03
1.140000000000000041e-01 1.828394999999999881e-01 3.463315000000000055e+01 1.681709999999999923e+02 2.030994999999999891e+03
1.150000000000000050e-01 1.828110000000000013e-01 3.362555000000000405e+01 1.673445000000000107e+02 2.030800000000000182e+03
1.160000000000000059e-01 1.827809999999999990e-01 3.263864999999999839e+01 1.665394999999999754e+02 2.030595000000000027e+03
1.170000000000000068e-01 1.827515000000000112e-01 3.167990000000000350e+01 1.657674999999999841e+02 2.030389999999999873e+03
1.180000000000000077e-01 1.827225000000000099e-01 3.075464999999999804e+01 1.650360000000000014e+02 2.030190000000000055e+03
1.190000000000000085e-01 1.826940000000000230e-01 2.986594999999999800e+01 1.643460000000000036e+02 2.029990000000000009e+03
1.200000000000000094e-01 1.826670000000000238e-01 2.901449999999999818e+01 1.636955000000000098e+02 2.029799999999999955e+03
1.209999999999999964e-01 1.826409999999999978e-01 2.819895000000000351e+01 1.630765000000000100e+02 2.029615000000000009e+03
1.219999999999999973e-01 1.826160000000000005e-01 2.741619999999999990e+01 1.624784999999999968e+02 2.029434999999999945e+03
1.229999999999999982e-01 1.825904999999999889e-01 2.666159999999999997e+01 1.618880000000000052e+02 2.029259999999999991e+03
1.239999999999999991e-01 1.825654999999999917e-01 2.592920000000000158e+01 1.612884999999999991e+02 2.029085000000000036e+03
1.250000000000000000e-01 1.825400000000000078e-01 2.521229999999999905e+01 1.606645000000000039e+02 2.028904999999999973e+03
1.260000000000000009e-01 1.825134999999999952e-01 2.450375000000000014e+01 1.599975000000000023e+02 2.028720000000000027e+03
1.270000000000000018e-01 1.824854999999999949e-01 2.379664999999999964e+01 1.592735000000000127e+02 2.028519999999999982e+03
1.280000000000000027e-01 1.824554999999999927e-01 2.308420000000000272e+01 1.584770000000000039e+02 2.028304999999999836e+03
1.290000000000000036e-01 1.824220000000000008e-01 2.236050000000000182e+01 1.575974999999999966e+02 2.028079999999999927e+03
1.300000000000000044e-01 1.823859999999999926e-01 2.162089999999999890e+01 1.566250000000000000e+02 2.027824999999999818e+03
1.310000000000000053e-01 1.823460000000000081e-01 2.086180000000000234e+01 1.555559999999999832e+02 2.027549999999999955e+03
1.320000000000000062e-01 1.823024999999999785e-01 2.008155000000000001e+01 1.543894999999999982e+02 2.027250000000000000e+03
1.330000000000000071e-01 1.822560000000000013e-01 1.927989999999999782e+01 1.531279999999999859e+02 2.026925000000000182e+03
1.340000000000000080e-01 1.822050000000000058e-01 1.845850000000000080e+01 1.517805000000000177e+02 2.026569999999999936e+03
1.350000000000000089e-01 1.821510000000000074e-01 1.762069999999999936e+01 1.503584999999999923e+02 2.026195000000000164e+03
1.360000000000000098e-01 1.820940000000000059e-01 1.677139999999999986e+01 1.488759999999999764e+02 2.025804999999999836e+03
1.370000000000000107e-01 1.820344999999999880e-01 1.591694999999999993e+01 1.473514999999999873e+02 2.025390000000000100e+03
1.380000000000000115e-01 1.819735000000000102e-01 1.506475000000000009e+01 1.458059999999999832e+02 2.024970000000000027e+03
1.390000000000000124e-01 1.819109999999999894e-01 1.422305000000000064e+01 1.442605000000000075e+02 2.024539999999999964e+03
1.400000000000000133e-01 1.818489999999999829e-01 1.340050000000000097e+01 1.427375000000000114e+02 2.024109999999999900e+03
1.410000000000000142e-01 1.817874999999999908e-01 1.260585000000000022e+01 1.412574999999999932e+02 2.023684999999999945e+03
1.420000000000000151e-01 1.817269999999999996e-01 1.184742500000000121e+01 1.398425000000000011e+02 2.023264999999999873e+03
1.430000000000000160e-01 1.816690000000000249e-01 1.113292000000000037e+01 1.385084999999999980e+02 2.022865000000000009e+03
1.440000000000000169e-01 1.816135000000000110e-01 1.046907500000000013e+01 1.372725000000000080e+02 2.022480000000000018e+03
1.450000000000000178e-01 1.815620000000000012e-01 9.861290000000000333e+00 1.361450000000000102e+02 2.022115000000000009e+03
1.459999999999999909e-01 1.815144999999999953e-01 9.313610000000000610e+00 1.351349999999999909e+02 2.021784999999999854e+03
1.469999999999999918e-01 1.814709999999999934e-01 8.828565000000001106e+00 1.342459999999999809e+02 2.021480000000000018e+03
1.479999999999999927e-01 1.814320000000000099e-01 8.407035000000000480e+00 1.334789999999999850e+02 2.021210000000000036e+03
1.489999999999999936e-01 1.813980000000000037e-01 8.048474999999999824e+00 1.328310000000000173e+02 2.020964999999999918e+03
1.499999999999999944e-01 1.813684999999999881e-01 7.750904999999999490e+00 1.322959999999999923e+02 2.020755000000000109e+03
1.509999999999999953e-01 1.813430000000000042e-01 7.511085000000000456e+00 1.318650000000000091e+02 2.020579999999999927e+03
1.519999999999999962e-01 1.813219999999999832e-01 7.324745000000000061e+00 1.315280000000000200e+02 2.020424999999999955e+03
1.529999999999999971e-01 1.813045000000000073e-01 7.186780000000000612e+00 1.312719999999999914e+02 2.020300000000000182e+03
1.539999999999999980e-01 1.812904999999999933e-01 7.091485000000000483e+00 1.310849999999999795e+02 2.020200000000000045e+03
1.549999999999999989e-01 1.812789999999999957e-01 7.032814999999999372e+00 1.309534999999999911e+02 2.020114999999999782e+03
1.559999999999999998e-01 1.812705000000000011e-01 7.004559999999999675e+00 1.308654999999999973e+02 2.020049999999999955e+03
1.570000000000000007e-01 1.812634999999999941e-01 7.000589999999999868e+00 1.308075000000000045e+02 2.020005000000000109e+03
1.580000000000000016e-01 1.812579999999999747e-01 7.014994999999999870e+00 1.307685000000000173e+02 2.019964999999999918e+03
1.590000000000000024e-01 1.812535000000000118e-01 7.042270000000000252e+00 1.307395000000000209e+02 2.019929999999999836e+03
