# t [s], A [cm^2], U [cm/s], P [cPa], c [cm/s]
1.000000000000000021e-03 6.780460000000000376e-01 4.375699999999996259e-03 1.026204999999999927e+02 1.598244999999999891e+03
2.000000000000000042e-03 6.780370000000000008e-01 9.937000000000010061e-05 1.025974999999999966e+02 1.598244999999999891e+03
3.000000000000000062e-03 6.780930000000000568e-01 9.010819999999999941e-02 1.026929999999999978e+02 1.598264999999999873e+03
4.000000000000000083e-03 6.781444999999999279e-01 1.798293000000000252e-01 1.028085000000000093e+02 1.598289999999999964e+03
5.000000000000000104e-03 6.781230000000000313e-01 1.604178500000000007e-01 1.027674999999999983e+02 1.598285000000000082e+03
6.000000000000000125e-03 6.780614999999999837e-01 7.264950000000000574e-02 1.025790000000000077e+02 1.598250000000000000e+03
7.000000000000000146e-03 6.780055000000000387e-01 -1.413749999999996954e-02 1.023249999999999886e+02 1.598200000000000045e+03
8.000000000000000167e-03 6.779200000000000781e-01 -1.570585000000000453e-01 1.019544999999999959e+02 1.598125000000000000e+03
9.000000000000001055e-03 6.777735000000000287e-01 -4.136149999999999549e-01 1.013770000000000095e+02 1.598009999999999991e+03
1.000000000000000194e-02 6.775584999999999525e-01 -7.930150000000000254e-01 1.005449500000000000e+02 1.597840000000000146e+03
1.099999999999999936e-02 6.772595000000000143e-01 -1.310224999999999973e+00 9.940189999999999770e+01 1.597605000000000018e+03
1.200000000000000025e-02 6.768659999999999677e-01 -1.967360000000000220e+00 9.790149999999999864e+01 1.597295000000000073e+03
1.300000000000000114e-02 6.764025000000000176e-01 -2.702589999999999826e+00 9.608195000000000618e+01 1.596904999999999973e+03
1.400000000000000203e-02 6.759249999999999980e-01 -3.392405000000000115e+00 9.408360000000000412e+01 1.596460000000000036e+03
1.499999999999999944e-02 6.754929999999998991e-01 -3.906366999999999923e+00 9.209389999999999077e+01 1.596000000000000000e+03
1.600000000000000033e-02 6.751399999999999624e-01 -4.161495500000000014e+00 9.026740000000000919e+01 1.595559999999999945e+03
1.700000000000000122e-02 6.748644999999999783e-01 -4.143267500000000325e+00 8.867830000000000723e+01 1.595154999999999973e+03
1.800000000000000211e-02 6.746380000000000710e-01 -3.894839499999999788e+00 8.731309999999999150e+01 1.594784999999999854e+03
1.900000000000000300e-02 6.744220000000000770e-01 -3.489971500000000226e+00 8.609510000000000218e+01 1.594440000000000055e+03
2.000000000000000042e-02 6.741835000000000466e-01 -3.003383350000000007e+00 8.492289999999999850e+01 1.594099999999999909e+03
2.100000000000000130e-02 6.739030000000000298e-01 -2.487512999999999863e+00 8.370945000000000391e+01 1.593755000000000109e+03
2.200000000000000219e-02 6.735790000000000388e-01 -1.961710000000000065e+00 8.240829999999999700e+01 1.593394999999999982e+03
2.299999999999999961e-02 6.732264999999999500e-01 -1.416265000000000107e+00 8.102015000000000100e+01 1.593019999999999982e+03
2.400000000000000050e-02 6.728635000000000588e-01 -8.281300000000000328e-01 7.957990000000000919e+01 1.592630000000000109e+03
2.500000000000000139e-02 6.725054999999999783e-01 -1.804599999999996207e-01 7.813069999999999027e+01 1.592235000000000127e+03
2.600000000000000228e-02 6.721570000000000045e-01 5.223800000000000665e-01 7.669915000000000305e+01 1.591845000000000027e+03
2.700000000000000316e-02 6.718085000000000306e-01 1.248915000000000219e+00 7.527854999999999563e+01 1.591454999999999927e+03
2.800000000000000058e-02 6.714394999999999669e-01 1.944275000000000198e+00 7.382550000000000523e+01 1.591059999999999945e+03
2.900000000000000147e-02 6.710260000000000113e-01 2.541160000000000085e+00 7.226920000000001210e+01 1.590639999999999873e+03
3.000000000000000236e-02 6.705440000000000289e-01 2.974479999999999791e+00 7.052875000000000227e+01 1.590190000000000055e+03
3.099999999999999978e-02 6.699789999999999912e-01 3.196035000000000181e+00 6.853560000000000230e+01 1.589684999999999945e+03
3.200000000000000067e-02 6.693295000000000217e-01 3.185580000000000300e+00 6.625364999999999327e+01 1.589125000000000000e+03
3.300000000000000155e-02 6.686079999999999801e-01 2.955255000000000187e+00 6.369270000000000209e+01 1.588505000000000109e+03
3.400000000000000244e-02 6.678394999999999193e-01 2.546864999999999490e+00 6.091129999999999711e+01 1.587840000000000146e+03
3.500000000000000333e-02 6.670580000000000398e-01 2.022680000000000256e+00 5.800914999999999822e+01 1.587139999999999873e+03
3.600000000000000422e-02 6.663000000000000034e-01 1.453645000000000298e+00 5.511149999999999949e+01 1.586440000000000055e+03
3.700000000000000511e-02 6.655994999999998996e-01 9.081399999999995032e-01 5.235094999999999743e+01 1.585759999999999991e+03
3.799999999999999906e-02 6.649834999999999496e-01 4.434400000000002784e-01 4.985099999999999909e+01 1.585130000000000109e+03
3.899999999999999994e-02 6.644704999999999639e-01 1.017999999999998906e-01 4.771394999999999698e+01 1.584575000000000045e+03
4.000000000000000083e-02 6.640734999999999832e-01 -8.991999999999977788e-02 4.601449999999999818e+01 1.584110000000000127e+03
4.100000000000000172e-02 6.637969999999999704e-01 -1.176950000000001051e-01 4.479874999999999829e+01 1.583755000000000109e+03
4.200000000000000261e-02 6.636414999999999953e-01 2.371500000000015262e-02 4.408780000000000143e+01 1.583514999999999873e+03
4.300000000000000350e-02 6.636059999999999182e-01 3.349580000000000335e-01 4.388349999999999795e+01 1.583389999999999873e+03
4.400000000000000439e-02 6.636859999999999982e-01 8.154592999999999980e-01 4.417499999999999716e+01 1.583389999999999873e+03
4.499999999999999833e-02 6.638779999999999681e-01 1.465136500000000064e+00 4.494440000000000168e+01 1.583500000000000000e+03
4.599999999999999922e-02 6.641785000000000050e-01 2.284460000000000157e+00 4.617009999999999792e+01 1.583730000000000018e+03
4.700000000000000011e-02 6.645829999999999238e-01 3.273089999999999833e+00 4.782824999999999704e+01 1.584065000000000055e+03
4.800000000000000100e-02 6.650860000000000660e-01 4.427824999999999456e+00 4.989189999999999969e+01 1.584500000000000000e+03
4.900000000000000189e-02 6.656800000000000495e-01 5.740580000000000460e+00 5.232945000000000135e+01 1.585039999999999964e+03
5.000000000000000278e-02 6.663550000000000306e-01 7.197201499999999363e+00 5.510290000000000532e+01 1.585654999999999973e+03
5.100000000000000366e-02 6.670989999999999975e-01 8.776915999999999940e+00 5.816705000000000325e+01 1.586360000000000127e+03
5.200000000000000455e-02 6.678979999999999917e-01 1.045338000000000100e+01 6.146975000000000477e+01 1.587125000000000000e+03
5.300000000000000544e-02 6.687369999999999148e-01 1.219623999999999953e+01 6.495359999999999445e+01 1.587940000000000055e+03
5.399999999999999939e-02 6.695999999999999730e-01 1.397330499999999986e+01 6.855854999999999677e+01 1.588795000000000073e+03
5.500000000000000028e-02 6.704729999999999857e-01 1.575273999999999930e+01 7.222520000000000095e+01 1.589680000000000064e+03
5.600000000000000117e-02 6.713435000000000930e-01 1.750527999999999906e+01 7.589809999999999945e+01 1.590579999999999927e+03
5.700000000000000205e-02 6.722004999999999786e-01 1.920579999999999998e+01 7.952880000000000393e+01 1.591480000000000018e+03
5.800000000000000294e-02 6.730355000000000087e-01 2.083429999999999893e+01 8.307819999999999538e+01 1.592365000000000009e+03
5.900000000000000383e-02 6.738439999999999985e-01 2.237634999999999863e+01 8.651769999999999072e+01 1.593240000000000009e+03
6.000000000000000472e-02 6.746235000000000426e-01 2.382290000000000063e+01 8.982925000000000182e+01 1.594090000000000146e+03
6.099999999999999867e-02 6.753730000000000011e-01 2.516985000000000028e+01 9.300610000000000355e+01 1.594910000000000082e+03
6.199999999999999956e-02 6.760950000000000015e-01 2.641734999999999900e+01 9.604980000000000473e+01 1.595710000000000036e+03
6.300000000000000044e-02 6.767914999999999903e-01 2.756859999999999999e+01 9.896899999999999409e+01 1.596474999999999909e+03
6.400000000000000133e-02 6.774670000000000414e-01 2.862930000000000064e+01 1.017789999999999964e+02 1.597220000000000027e+03
6.500000000000000222e-02 6.781260000000000066e-01 2.960650000000000048e+01 1.044967500000000058e+02 1.597944999999999936e+03
6.600000000000000311e-02 6.787725000000000009e-01 3.050785000000000124e+01 1.071419999999999959e+02 1.598644999999999982e+03
6.700000000000000400e-02 6.794109999999999872e-01 3.134085000000000321e+01 1.097324999999999875e+02 1.599335000000000036e+03
6.800000000000000488e-02 6.800429999999999531e-01 3.211209999999999809e+01 1.122839999999999918e+02 1.600014999999999873e+03
6.900000000000000577e-02 6.806719999999999438e-01 3.282679999999999865e+01 1.148085000000000093e+02 1.600684999999999945e+03
7.000000000000000666e-02 6.812975000000000003e-01 3.348830000000000240e+01 1.173119999999999976e+02 1.601345000000000027e+03
7.100000000000000755e-02 6.819205000000000405e-01 3.409779999999999944e+01 1.197955000000000041e+02 1.602005000000000109e+03
7.200000000000000844e-02 6.825369999999999493e-01 3.465465000000000373e+01 1.222545000000000073e+02 1.602659999999999854e+03
7.300000000000000933e-02 6.831454999999999611e-01 3.515605000000000047e+01 1.246779999999999973e+02 1.603304999999999836e+03
7.399999999999999634e-02 6.837404999999999733e-01 3.559785000000000110e+01 1.270525000000000091e+02 1.603929999999999836e+03
7.499999999999999722e-02 6.843175000000000230e-01 3.597459999999999525e+01 1.293574999999999875e+02 1.604549999999999955e+03
7.599999999999999811e-02 6.848715000000000774e-01 3.628040000000000020e+01 1.315735000000000241e+02 1.605144999999999982e+03
7.699999999999999900e-02 6.853964999999999641e-01 3.650929999999999609e+01 1.336789999999999736e+02 1.605710000000000036e+03
7.799999999999999989e-02 6.858889999999999709e-01 3.665590000000000259e+01 1.356525000000000034e+02 1.606250000000000000e+03
7.900000000000000078e-02 6.863429999999999254e-01 3.671549999999999869e+01 1.374745000000000061e+02 1.606750000000000000e+03
8.000000000000000167e-02 6.867555000000000742e-01 3.668469999999999942e+01 1.391279999999999859e+02 1.607220000000000027e+03
8.100000000000000255e-02 6.871234999999999982e-01 3.656140000000000612e+01 1.406009999999999991e+02 1.607639999999999873e+03
8.200000000000000344e-02 6.874449999999999728e-01 3.634530000000000172e+01 1.418824999999999932e+02 1.608005000000000109e+03
8.300000000000000433e-02 6.877195000000000391e-01 3.603750000000000142e+01 1.429685000000000059e+02 1.608329999999999927e+03
8.400000000000000522e-02 6.879465000000000163e-01 3.564110000000000156e+01 1.438584999999999923e+02 1.608610000000000127e+03
8.500000000000000611e-02 6.881269999999999332e-01 3.516060000000000230e+01 1.445545000000000186e+02 1.608829999999999927e+03
8.600000000000000699e-02 6.882635000000000280e-01 3.460219999999999629e+01 1.450649999999999977e+02 1.609009999999999991e+03
8.700000000000000788e-02 6.883585000000000953e-01 3.397360000000000468e+01 1.453999999999999773e+02 1.609140000000000100e+03
8.800000000000000877e-02 6.884155000000000690e-01 3.328369999999999607e+01 1.455755000000000052e+02 1.609230000000000018e+03
8.899999999999999578e-02 6.884390000000000231e-01 3.254254999999999853e+01 1.456075000000000159e+02 1.609279999999999973e+03
8.999999999999999667e-02 6.884334999999999205e-01 3.176104999999999734e+01 1.455160000000000196e+02 1.609295000000000073e+03
9.099999999999999756e-02 6.884040000000000159e-01 3.095035000000000025e+01 1.453209999999999980e+02 1.609279999999999973e+03
9.199999999999999845e-02 6.883555000000000090e-01 3.012185000000000201e+01 1.450430000000000064e+02 1.609240000000000009e+03
9.299999999999999933e-02 6.882930000000000437e-01 2.928650000000000020e+01 1.447044999999999959e+02 1.609180000000000064e+03
9.400000000000000022e-02 6.882205000000000128e-01 2.845469999999999899e+01 1.443254999999999768e+02 1.609105000000000018e+03
9.500000000000000111e-02 6.881429999999999492e-01 2.763564999999999827e+01 1.439239999999999782e+02 1.609014999999999873e+03
9.600000000000000200e-02 6.880640000000000089e-01 2.683705000000000140e+01 1.435169999999999959e+02 1.608925000000000182e+03
9.700000000000000289e-02 6.879865000000000563e-01 2.606494999999999962e+01 1.431165000000000020e+02 1.608835000000000036e+03
9.800000000000000377e-02 6.879115000000000091e-01 2.532339999999999947e+01 1.427330000000000041e+02 1.608740000000000009e+03
9.900000000000000466e-02 6.878414999999999946e-01 2.461469999999999914e+01 1.423735000000000070e+02 1.608644999999999982e+03
1.000000000000000056e-01 6.877754999999999841e-01 2.393900000000000006e+01 1.420405000000000086e+02 1.608565000000000055e+03
1.010000000000000064e-01 6.877134999999999776e-01 2.329455000000000098e+01 1.417319999999999993e+02 1.608480000000000018e+03
1.020000000000000073e-01 6.876550000000000162e-01 2.267835000000000178e+01 1.414454999999999814e+02 1.608400000000000091e+03
1.030000000000000082e-01 6.875975000000000836e-01 2.208575000000000088e+01 1.411734999999999900e+02 1.608325000000000045e+03
1.040000000000000091e-01 6.875390000000000112e-01 2.151115000000000066e+01 1.409080000000000155e+02 1.608250000000000000e+03
1.050000000000000100e-01 6.874765000000000459e-01 2.094859999999999900e+01 1.406394999999999982e+02 1.608180000000000064e+03
1.059999999999999970e-01 6.874085000000000889e-01 2.039150000000000063e+01 1.403564999999999827e+02 1.608099999999999909e+03
1.069999999999999979e-01 6.873320000000000540e-01 1.983364999999999867e+01 1.400490000000000066e+02 1.608019999999999982e+03
1.079999999999999988e-01 6.872454999999999536e-01 1.926910000000000167e+01 1.397074999999999818e+02 1.607934999999999945e+03
1.089999999999999997e-01 6.871469999999999523e-01 1.869270000000000209e+01 1.393235000000000241e+02 1.607829999999999927e+03
1.100000000000000006e-01 6.870350000000000623e-01 1.810024999999999906e+01 1.388904999999999745e+02 1.607724999999999909e+03
1.110000000000000014e-01 6.869094999999999507e-01 1.748855000000000004e+01 1.384035000000000082e+02 1.607605000000000018e+03
1.120000000000000023e-01 6.867695000000000327e-01 1.685600000000000165e+01 1.378609999999999900e+02 1.607470000000000027e+03
1.130000000000000032e-01 6.866164999999999630e-01 1.620224999999999937e+01 1.372634999999999934e+02 1.607325000000000045e+03
1.140000000000000041e-01 6.864500000000000046e-01 1.552830000000000155e+01 1.366145000000000209e+02 1.607170000000000073e+03
1.150000000000000050e-01 6.862740000000000506e-01 1.483665000000000056e+01 1.359189999999999827e+02 1.606994999999999891e+03
1.160000000000000059e-01 6.860889999999999489e-01 1.413102499999999928e+01 1.351859999999999786e+02 1.606815000000000055e+03
1.170000000000000068e-01 6.858990000000000364e-01 1.341645000000000110e+01 1.344265000000000043e+02 1.606625000000000000e+03
1.180000000000000077e-01 6.857060000000000377e-01 1.269871000000000016e+01 1.336504999999999939e+02 1.606434999999999945e+03
1.190000000000000085e-01 6.855139999999999567e-01 1.198440000000000083e+01 1.328720000000000141e+02 1.606244999999999891e+03
1.200000000000000094e-01 6.853259999999999907e-01 1.128057500000000068e+01 1.321050000000000182e+02 1.606050000000000182e+03
1.209999999999999964e-01 6.851460000000000328e-01 1.059431999999999974e+01 1.313629999999999995e+02 1.605860000000000127e+03
1.219999999999999973e-01 6.849764999999999882e-01 9.932784999999999087e+00 1.306595000000000084e+02 1.605680000000000064e+03
1.229999999999999982e-01 6.848210000000000131e-01 9.302550000000000097e+00 1.300070000000000050e+02 1.605505000000000109e+03
1.239999999999999991e-01 6.846814999999999429e-01 8.709505000000000052e+00 1.294159999999999968e+02 1.605349999999999909e+03
1.250000000000000000e-01 6.845605000000000162e-01 8.158649999999999736e+00 1.288954999999999984e+02 1.605210000000000036e+03
1.260000000000000009e-01 6.844585000000000807e-01 7.653999999999999915e+00 1.284524999999999864e+02 1.605079999999999927e+03
1.270000000000000018e-01 6.843770000000000131e-01 7.198154999999999859e+00 1.280920000000000130e+02 1.604980000000000018e+03
1.280000000000000027e-01 6.843155000000000765e-01 6.792510000000000048e+00 1.278144999999999953e+02 1.604894999999999982e+03
1.290000000000000036e-01 6.842745000000000077e-01 6.437160000000000437e+00 1.276200000000000045e+02 1.604825000000000045e+03
1.300000000000000044e-01 6.842519999999999714e-01 6.130924999999999514e+00 1.275039999999999907e+02 1.604779999999999973e+03
1.310000000000000053e-01 6.842470000000000496e-01 5.871494999999999465e+00 1.274619999999999891e+02 1.604755000000000109e+03
1.320000000000000062e-01 6.842565000000000452e-01 5.655585000000000306e+00 1.274859999999999900e+02 1.604744999999999891e+03
1.330000000000000071e-01 6.842799999999999994e-01 5.479105000000000558e+00 1.275674999999999955e+02 1.604750000000000000e+03
1.340000000000000080e-01 6.843140000000000889e-01 5.337400000000000588e+00 1.276965000000000003e+02 1.604765000000000100e+03
1.350000000000000089e-01 6.843555000000000055e-01 5.225434999999999164e+00 1.278625000000000114e+02 1.604795000000000073e+03
1.360000000000000098e-01 6.844025000000000247e-01 5.138035000000000352e+00 1.280554999999999950e+02 1.604829999999999927e+03
1.370000000000000107e-01 6.844529999999999781e-01 5.070069999999999411e+00 1.282649999999999864e+02 1.604869999999999891e+03
1.380000000000000115e-01 6.845045000000000712e-01 5.016610000000000014e+00 1.284809999999999945e+02 1.604914999999999964e+03
1.390000000000000124e-01 6.845544999999999547e-01 4.973079999999999501e+00 1.286954999999999814e+02 1.604964999999999918e+03
1.400000000000000133e-01 6.846025000000000027e-01 4.935370000000000701e+00 1.289010000000000105e+02 1.605009999999999991e+03
1.410000000000000142e-01 6.846460000000000878e-01 4.899890000000000079e+00 1.290914999999999964e+02 1.605059999999999945e+03
1.420000000000000151e-01 6.846855000000000580e-01 4.863624999999999865e+00 1.292630000000000052e+02 1.605095000000000027e+03
1.430000000000000160e-01 6.847185000000000077e-01 4.824135000000000062e+00 1.294110000000000014e+02 1.605134999999999991e+03
1.440000000000000169e-01 6.847464999999999247e-01 4.779575000000000351e+00 1.295339999999999918e+02 1.605170000000000073e+03
1.450000000000000178e-01 6.847680000000000433e-01 4.728619999999999379e+00 1.296310000000000002e+02 1.605190000000000055e+03
1.459999999999999909e-01 6.847834999999999894e-01 4.670474999999999710e+00 1.297024999999999864e+02 1.605215000000000146e+03
1.469999999999999918e-01 6.847929999999999851e-01 4.604790000000000383e+00 1.297485000000000070e+02 1.605230000000000018e+03
1.479999999999999927e-01 6.847974999999999479e-01 4.531604999999999883e+00 1.297715000000000032e+02 1.605240000000000009e+03
1.489999999999999936e-01 6.847974999999999479e-01 4.451295000000000002e+00 1.297730000000000246e+02 1.605244999999999891e+03
1.499999999999999944e-01 6.847929999999999851e-01 4.364519999999999733e+00 1.297545000000000073e+02 1.605244999999999891e+03
1.509999999999999953e-01 6.847849999999999770e-01 4.272120000000000140e+00 1.297199999999999989e+02 1.605235000000000127e+03
1.519999999999999962e-01 6.847735000000000349e-01 4.175065000000000026e+00 1.296705000000000041e+02 1.605230000000000018e+03
1.529999999999999971e-01 6.847600000000000353e-01 4.074435000000000251e+00 1.296094999999999970e+02 1.605220000000000027e+03
1.539999999999999980e-01 6.847440000000000193e-01 3.971284999999999954e+00 1.295380000000000109e+02 1.605199999999999818e+03
1.549999999999999989e-01 6.847265000000000157e-01 3.866675000000000306e+00 1.294590000000000032e+02 1.605184999999999945e+03
1.559999999999999998e-01 6.847075000000000244e-01 3.761560000000000237e+00 1.293735000000000070e+02 1.605164999999999964e+03
1.570000000000000007e-01 6.846875000000000044e-01 3.656785000000000174e+00 1.292824999999999989e+02 1.605144999999999982e+03
1.580000000000000016e-01 6.846664999999999557e-01 3.553069999999999951e+00 1.291875000000000000e+02 1.605119999999999891e+03
1.590000000000000024e-01 6.846444999999999892e-01 3.450985000000000191e+00 1.290874999999999773e+02 1.605099999999999909e+03
