# t [s], A [cm^2], U [cm/s], P [cPa], c [cm/s]
1.000000000000000021e-03 1.347450000000000037e-01 4.492881499999999972e-01 1.018897000000000048e+02 2.055849999999999909e+03
2.000000000000000042e-03 1.347065000000000068e-01 2.169901000000000302e+00 9.808724999999999739e+01 2.055400000000000091e+03
3.000000000000000062e-03 1.346019999999999994e-01 4.232542500000000096e+00 9.307704999999999984e+01 2.054219999999999800e+03
4.000000000000000083e-03 1.344605000000000106e-01 6.521498000000000239e+00 8.789824999999999022e+01 2.052644999999999982e+03
5.000000000000000104e-03 1.343094999999999983e-01 8.943400000000000460e+00 8.345974999999999966e+01 2.050969999999999800e+03
6.000000000000000125e-03 1.341634999999999911e-01 1.128812999999999889e+01 7.990819999999999368e+01 2.049380000000000109e+03
7.000000000000000146e-03 1.340270000000000072e-01 1.334800500000000056e+01 7.688259999999999650e+01 2.047919999999999845e+03
8.000000000000000167e-03 1.339024999999999799e-01 1.507797000000000054e+01 7.417859999999998877e+01 2.046599999999999909e+03
9.000000000000001055e-03 1.337935000000000096e-01 1.652840000000000131e+01 7.187864999999999327e+01 2.045465000000000146e+03
1.000000000000000194e-02 1.337004999999999999e-01 1.772785000000000011e+01 7.002655000000000030e+01 2.044505000000000109e+03
1.099999999999999936e-02 1.336239999999999928e-01 1.868795000000000073e+01 6.856409999999999627e+01 2.043730000000000018e+03
1.200000000000000025e-02 1.335625000000000007e-01 1.942074999999999818e+01 6.740914999999999679e+01 2.043115000000000009e+03
1.300000000000000114e-02 1.335129999999999928e-01 1.993285000000000196e+01 6.645414999999999850e+01 2.042619999999999891e+03
1.400000000000000203e-02 1.334710000000000063e-01 2.025090000000000146e+01 6.561439999999998918e+01 2.042215000000000146e+03
1.499999999999999944e-02 1.334380000000000011e-01 2.046475000000000222e+01 6.496654999999999802e+01 2.041905000000000200e+03
1.600000000000000033e-02 1.334170000000000078e-01 2.072120000000000317e+01 6.480180000000000007e+01 2.041710000000000036e+03
1.700000000000000122e-02 1.334159999999999791e-01 2.115794999999999959e+01 6.547995000000000232e+01 2.041715000000000146e+03
1.800000000000000211e-02 1.334390000000000021e-01 2.182665000000000077e+01 6.718300000000000693e+01 2.041965000000000146e+03
1.900000000000000300e-02 1.334870000000000223e-01 2.266069999999999851e+01 6.975190000000000623e+01 2.042460000000000036e+03
2.000000000000000042e-02 1.335520000000000040e-01 2.350254999999999939e+01 7.270629999999999882e+01 2.043134999999999991e+03
2.100000000000000130e-02 1.336224999999999774e-01 2.416879999999999740e+01 7.541855000000001041e+01 2.043875000000000000e+03
2.200000000000000219e-02 1.336855000000000127e-01 2.451859999999999928e+01 7.734024999999999750e+01 2.044545000000000073e+03
2.299999999999999961e-02 1.337299999999999878e-01 2.449709999999999965e+01 7.818004999999999427e+01 2.045030000000000200e+03
2.400000000000000050e-02 1.337520000000000098e-01 2.414204999999999757e+01 7.796729999999999450e+01 2.045295000000000073e+03
2.500000000000000139e-02 1.337540000000000118e-01 2.355584999999999951e+01 7.699324999999998909e+01 2.045329999999999927e+03
2.600000000000000228e-02 1.337404999999999844e-01 2.285974999999999824e+01 7.566894999999999527e+01 2.045210000000000036e+03
2.700000000000000316e-02 1.337194999999999911e-01 2.215024999999999977e+01 7.436560000000000059e+01 2.045004999999999882e+03
2.800000000000000058e-02 1.336970000000000103e-01 2.147359999999999758e+01 7.330070000000000618e+01 2.044774999999999864e+03
2.900000000000000147e-02 1.336764999999999759e-01 2.082385000000000019e+01 7.250110000000000809e+01 2.044565000000000055e+03
3.000000000000000236e-02 1.336579999999999990e-01 2.016069999999999851e+01 7.184305000000000518e+01 2.044369999999999891e+03
3.099999999999999978e-02 1.336390000000000078e-01 1.943699999999999761e+01 7.113854999999999507e+01 2.044175000000000182e+03
3.200000000000000067e-02 1.336164999999999992e-01 1.862604999999999933e+01 7.023245000000000005e+01 2.043949999999999818e+03
3.300000000000000155e-02 1.335890000000000133e-01 1.773884999999999934e+01 6.907759999999998968e+01 2.043670000000000073e+03
3.400000000000000244e-02 1.335569999999999813e-01 1.682805000000000106e+01 6.776545000000000130e+01 2.043340000000000146e+03
3.500000000000000333e-02 1.335224999999999884e-01 1.597684999999999889e+01 6.650700000000000500e+01 2.042989999999999782e+03
3.600000000000000422e-02 1.334930000000000005e-01 1.527759999999999962e+01 6.557160000000000366e+01 2.042675000000000182e+03
3.700000000000000511e-02 1.334720000000000073e-01 1.480640000000000001e+01 6.520529999999999404e+01 2.042450000000000045e+03
3.799999999999999906e-02 1.334654999999999869e-01 1.460229999999999961e+01 6.555639999999999645e+01 2.042375000000000000e+03
3.899999999999999994e-02 1.334764999999999979e-01 1.465634999999999977e+01 6.662874999999999659e+01 2.042470000000000255e+03
4.000000000000000083e-02 1.335034999999999972e-01 1.491305000000000014e+01 6.827549999999999386e+01 2.042735000000000127e+03
4.100000000000000172e-02 1.335425000000000084e-01 1.528174999999999883e+01 7.022995000000000232e+01 2.043125000000000000e+03
4.200000000000000261e-02 1.335874999999999979e-01 1.565439999999999898e+01 7.216085000000001060e+01 2.043595000000000027e+03
4.300000000000000350e-02 1.336324999999999874e-01 1.592449999999999832e+01 7.373709999999999809e+01 2.044049999999999955e+03
4.400000000000000439e-02 1.336680000000000090e-01 1.600309999999999988e+01 7.468319999999999936e+01 2.044419999999999845e+03
4.499999999999999833e-02 1.336890000000000023e-01 1.582880000000000109e+01 7.481765000000000043e+01 2.044644999999999982e+03
4.599999999999999922e-02 1.336904999999999899e-01 1.537199999999999989e+01 7.406735000000000468e+01 2.044664999999999964e+03
4.700000000000000011e-02 1.336709999999999843e-01 1.463255000000000017e+01 7.246134999999999593e+01 2.044474999999999909e+03
4.800000000000000100e-02 1.336309999999999998e-01 1.363439999999999941e+01 7.010785000000001332e+01 2.044069999999999936e+03
4.900000000000000189e-02 1.335715000000000097e-01 1.241785499999999942e+01 6.716499999999999204e+01 2.043470000000000027e+03
5.000000000000000278e-02 1.334964999999999902e-01 1.103228499999999990e+01 6.381149999999999523e+01 2.042699999999999818e+03
5.100000000000000366e-02 1.334104999999999874e-01 9.530689999999999884e+00 6.022379999999999711e+01 2.041809999999999945e+03
5.200000000000000455e-02 1.333159999999999901e-01 7.966350000000000264e+00 5.656250000000000000e+01 2.040835000000000036e+03
5.300000000000000544e-02 1.332180000000000031e-01 6.391284999999999883e+00 5.296809999999999974e+01 2.039820000000000164e+03
5.399999999999999939e-02 1.331205000000000027e-01 4.856424999999999770e+00 4.956255000000000166e+01 2.038799999999999955e+03
5.500000000000000028e-02 1.330255000000000187e-01 3.411793199999999970e+00 4.645479999999999876e+01 2.037820000000000164e+03
5.600000000000000117e-02 1.329380000000000006e-01 2.106945000000000068e+00 4.374639999999999418e+01 2.036904999999999973e+03
5.700000000000000205e-02 1.328595000000000192e-01 9.904249999999999998e-01 4.153435000000000343e+01 2.036090000000000146e+03
5.800000000000000294e-02 1.327944999999999820e-01 1.083700000000000774e-01 3.991114999999999924e+01 2.035400000000000091e+03
5.900000000000000383e-02 1.327444999999999875e-01 -4.976089999999999680e-01 3.896085000000000065e+01 2.034875000000000000e+03
6.000000000000000472e-02 1.327129999999999976e-01 -7.930475100000000666e-01 3.875350000000000250e+01 2.034525000000000091e+03
6.099999999999999867e-02 1.327004999999999990e-01 -7.531319999999999126e-01 3.933799999999999386e+01 2.034384999999999991e+03
6.199999999999999956e-02 1.327099999999999946e-01 -3.647905000000000175e-01 4.073635000000000161e+01 2.034460000000000036e+03
6.300000000000000044e-02 1.327415000000000123e-01 3.720849999999999991e-01 4.293934999999999746e+01 2.034765000000000100e+03
6.400000000000000133e-02 1.327949999999999964e-01 1.444435499999999983e+00 4.590595000000000425e+01 2.035295000000000073e+03
6.500000000000000222e-02 1.328699999999999881e-01 2.826849399999999957e+00 4.956490000000000151e+01 2.036049999999999955e+03
6.600000000000000311e-02 1.329639999999999989e-01 4.483259999999999579e+00 5.382005000000000194e+01 2.037005000000000109e+03
6.700000000000000400e-02 1.330755000000000132e-01 6.369305000000000661e+00 5.855649999999999977e+01 2.038144999999999982e+03
6.800000000000000488e-02 1.332010000000000138e-01 8.434915000000000163e+00 6.364880000000000138e+01 2.039429999999999836e+03
6.900000000000000577e-02 1.333380000000000121e-01 1.062744000000000000e+01 6.896859999999999502e+01 2.040845000000000027e+03
7.000000000000000666e-02 1.334825000000000039e-01 1.289402000000000115e+01 7.439224999999999000e+01 2.042345000000000027e+03
7.100000000000000755e-02 1.336315000000000142e-01 1.518449999999999989e+01 7.980759999999999366e+01 2.043894999999999982e+03
7.200000000000000844e-02 1.337824999999999986e-01 1.745360000000000156e+01 8.511905000000000143e+01 2.045465000000000146e+03
7.300000000000000933e-02 1.339329999999999965e-01 1.966264999999999930e+01 9.025180000000000291e+01 2.047039999999999964e+03
7.399999999999999634e-02 1.340794999999999904e-01 2.178139999999999787e+01 9.515440000000000964e+01 2.048585000000000036e+03
7.499999999999999722e-02 1.342220000000000080e-01 2.378815000000000168e+01 9.979935000000000400e+01 2.050079999999999927e+03
7.599999999999999811e-02 1.343584999999999918e-01 2.567074999999999818e+01 1.041825000000000045e+02 2.051525000000000091e+03
7.699999999999999900e-02 1.344889999999999974e-01 2.742524999999999835e+01 1.083205000000000098e+02 2.052909999999999854e+03
7.799999999999999989e-02 1.346140000000000114e-01 2.905555000000000021e+01 1.122464999999999975e+02 2.054244999999999891e+03
7.900000000000000078e-02 1.347339999999999927e-01 3.057169999999999987e+01 1.160070000000000050e+02 2.055519999999999982e+03
8.000000000000000167e-02 1.348495000000000110e-01 3.198780000000000001e+01 1.196520000000000010e+02 2.056755000000000109e+03
8.100000000000000255e-02 1.349624999999999853e-01 3.332029999999999603e+01 1.232344999999999970e+02 2.057960000000000036e+03
8.200000000000000344e-02 1.350735000000000130e-01 3.458599999999999852e+01 1.268015000000000043e+02 2.059144999999999982e+03
8.300000000000000433e-02 1.351835000000000120e-01 3.580020000000000380e+01 1.303919999999999959e+02 2.060324999999999818e+03
8.400000000000000522e-02 1.352939999999999976e-01 3.697534999999999883e+01 1.340319999999999823e+02 2.061505000000000109e+03
8.500000000000000611e-02 1.354055000000000120e-01 3.812024999999999864e+01 1.377340000000000089e+02 2.062695000000000164e+03
8.600000000000000699e-02 1.355179999999999996e-01 3.923895000000000266e+01 1.414954999999999927e+02 2.063904999999999745e+03
8.700000000000000788e-02 1.356315000000000159e-01 4.033089999999999975e+01 1.453014999999999759e+02 2.065119999999999891e+03
8.800000000000000877e-02 1.357459999999999778e-01 4.139110000000000156e+01 1.491214999999999975e+02 2.066345000000000255e+03
8.899999999999999578e-02 1.358604999999999952e-01 4.241049999999999898e+01 1.529194999999999993e+02 2.067574999999999818e+03
8.999999999999999667e-02 1.359744999999999981e-01 4.337675000000000125e+01 1.566490000000000009e+02 2.068795000000000073e+03
9.099999999999999756e-02 1.360864999999999991e-01 4.427524999999999977e+01 1.602609999999999957e+02 2.069994999999999891e+03
9.199999999999999845e-02 1.361944999999999961e-01 4.509009999999999962e+01 1.637034999999999911e+02 2.071159999999999854e+03
9.299999999999999933e-02 1.362984999999999891e-01 4.580499999999999972e+01 1.669284999999999854e+02 2.072279999999999745e+03
9.400000000000000022e-02 1.363960000000000172e-01 4.640429999999999922e+01 1.698905000000000030e+02 2.073335000000000036e+03
9.500000000000000111e-02 1.364865000000000106e-01 4.687389999999999901e+01 1.725495000000000232e+02 2.074315000000000055e+03
9.600000000000000200e-02 1.365695000000000103e-01 4.720215000000000316e+01 1.748760000000000048e+02 2.075210000000000036e+03
9.700000000000000289e-02 1.366430000000000144e-01 4.738045000000000329e+01 1.768464999999999918e+02 2.076015000000000327e+03
9.800000000000000377e-02 1.367065000000000086e-01 4.740364999999999895e+01 1.784490000000000123e+02 2.076710000000000036e+03
9.900000000000000466e-02 1.367595000000000061e-01 4.727044999999999675e+01 1.796820000000000164e+02 2.077295000000000073e+03
1.000000000000000056e-01 1.368030000000000079e-01 4.698375000000000057e+01 1.805519999999999925e+02 2.077769999999999982e+03
1.010000000000000064e-01 1.368360000000000132e-01 4.655030000000000001e+01 1.810790000000000077e+02 2.078140000000000327e+03
1.020000000000000073e-01 1.368594999999999950e-01 4.598059999999999548e+01 1.812875000000000227e+02 2.078400000000000091e+03
1.030000000000000082e-01 1.368734999999999813e-01 4.528855000000000075e+01 1.812119999999999891e+02 2.078565000000000055e+03
1.040000000000000091e-01 1.368790000000000007e-01 4.449065000000000225e+01 1.808919999999999959e+02 2.078640000000000327e+03
1.050000000000000100e-01 1.368779999999999997e-01 4.360550000000000637e+01 1.803704999999999927e+02 2.078630000000000109e+03
1.059999999999999970e-01 1.368699999999999917e-01 4.265274999999999750e+01 1.796929999999999836e+02 2.078559999999999945e+03
1.069999999999999979e-01 1.368570000000000064e-01 4.165250000000000341e+01 1.789035000000000082e+02 2.078429999999999836e+03
1.079999999999999988e-01 1.368405000000000038e-01 4.062440000000000140e+01 1.780455000000000041e+02 2.078260000000000218e+03
1.089999999999999997e-01 1.368210000000000259e-01 3.958679999999999666e+01 1.771564999999999941e+02 2.078054999999999836e+03
1.100000000000000006e-01 1.368000000000000049e-01 3.855615000000000236e+01 1.762710000000000150e+02 2.077829999999999927e+03
1.110000000000000014e-01 1.367780000000000107e-01 3.754670000000000130e+01 1.754155000000000086e+02 2.077599999999999909e+03
1.120000000000000023e-01 1.367565000000000031e-01 3.656949999999999790e+01 1.746094999999999970e+02 2.077369999999999891e+03
1.130000000000000032e-01 1.367349999999999954e-01 3.563259999999999650e+01 1.738650000000000091e+02 2.077139999999999873e+03
1.140000000000000041e-01 1.367150000000000032e-01 3.474089999999999634e+01 1.731870000000000118e+02 2.076920000000000073e+03
1.150000000000000050e-01 1.366964999999999986e-01 3.389600000000000080e+01 1.725734999999999957e+02 2.076710000000000036e+03
1.160000000000000059e-01 1.366784999999999806e-01 3.309640000000000271e+01 1.720140000000000100e+02 2.076519999999999982e+03
1.170000000000000068e-01 1.366620000000000057e-01 3.233804999999999552e+01 1.714945000000000164e+02 2.076340000000000146e+03
1.180000000000000077e-01 1.366465000000000041e-01 3.161449999999999960e+01 1.709960000000000093e+02 2.076164999999999964e+03
1.190000000000000085e-01 1.366310000000000024e-01 3.091749999999999687e+01 1.704954999999999927e+02 2.075994999999999891e+03
1.200000000000000094e-01 1.366149999999999864e-01 3.023769999999999669e+01 1.699699999999999989e+02 2.075819999999999709e+03
1.209999999999999964e-01 1.365989999999999982e-01 2.956504999999999939e+01 1.693940000000000055e+02 2.075644999999999982e+03
1.219999999999999973e-01 1.365814999999999946e-01 2.888960000000000150e+01 1.687450000000000045e+02 2.075454999999999927e+03
1.229999999999999982e-01 1.365615000000000023e-01 2.820179999999999865e+01 1.680024999999999977e+02 2.075239999999999782e+03
1.239999999999999991e-01 1.365389999999999937e-01 2.749354999999999905e+01 1.671490000000000009e+02 2.075000000000000000e+03
1.250000000000000000e-01 1.365139999999999965e-01 2.675820000000000221e+01 1.661734999999999900e+02 2.074730000000000018e+03
1.260000000000000009e-01 1.364854999999999818e-01 2.599119999999999919e+01 1.650685000000000002e+02 2.074425000000000182e+03
1.270000000000000018e-01 1.364540000000000197e-01 2.519019999999999726e+01 1.638335000000000150e+02 2.074085000000000036e+03
1.280000000000000027e-01 1.364184999999999981e-01 2.435555000000000092e+01 1.624745000000000061e+02 2.073704999999999927e+03
1.290000000000000036e-01 1.363800000000000012e-01 2.349000000000000199e+01 1.610020000000000095e+02 2.073289999999999964e+03
1.300000000000000044e-01 1.363385000000000014e-01 2.259870000000000090e+01 1.594345000000000141e+02 2.072849999999999909e+03
1.310000000000000053e-01 1.362935000000000119e-01 2.168905000000000172e+01 1.577934999999999945e+02 2.072369999999999891e+03
1.320000000000000062e-01 1.362474999999999936e-01 2.077035000000000053e+01 1.561055000000000064e+02 2.071869999999999891e+03
1.330000000000000071e-01 1.361990000000000145e-01 1.985320000000000107e+01 1.543994999999999891e+02 2.071360000000000127e+03
1.340000000000000080e-01 1.361505000000000076e-01 1.894939999999999714e+01 1.527055000000000007e+02 2.070840000000000146e+03
1.350000000000000089e-01 1.361014999999999864e-01 1.807075000000000031e+01 1.510545000000000186e+02 2.070320000000000164e+03
1.360000000000000098e-01 1.360540000000000083e-01 1.722914999999999708e+01 1.494755000000000109e+02 2.069809999999999945e+03
1.370000000000000107e-01 1.360080000000000178e-01 1.643565000000000254e+01 1.479950000000000045e+02 2.069315000000000055e+03
1.380000000000000115e-01 1.359650000000000025e-01 1.570004999999999917e+01 1.466349999999999909e+02 2.068845000000000255e+03
1.390000000000000124e-01 1.359245000000000037e-01 1.503054999999999986e+01 1.454150000000000205e+02 2.068409999999999854e+03
1.400000000000000133e-01 1.358874999999999944e-01 1.443339999999999890e+01 1.443470000000000084e+02 2.068010000000000218e+03
1.410000000000000142e-01 1.358544999999999892e-01 1.391280000000000072e+01 1.434385000000000048e+02 2.067654999999999745e+03
1.420000000000000151e-01 1.358254999999999879e-01 1.347050000000000125e+01 1.426924999999999955e+02 2.067340000000000146e+03
1.430000000000000160e-01 1.358010000000000050e-01 1.310624999999999929e+01 1.421039999999999850e+02 2.067074999999999818e+03
1.440000000000000169e-01 1.357810000000000128e-01 1.281765000000000043e+01 1.416670000000000016e+02 2.066850000000000364e+03
1.450000000000000178e-01 1.357654999999999834e-01 1.260034999999999883e+01 1.413684999999999832e+02 2.066675000000000182e+03
1.459999999999999909e-01 1.357534999999999992e-01 1.244865000000000066e+01 1.411935000000000002e+02 2.066545000000000073e+03
1.469999999999999918e-01 1.357450000000000045e-01 1.235529999999999973e+01 1.411239999999999952e+02 2.066444999999999709e+03
1.479999999999999927e-01 1.357395000000000129e-01 1.231240000000000023e+01 1.411424999999999841e+02 2.066380000000000109e+03
1.489999999999999936e-01 1.357369999999999965e-01 1.231145000000000067e+01 1.412284999999999968e+02 2.066350000000000364e+03
1.499999999999999944e-01 1.357360000000000233e-01 1.234369999999999834e+01 1.413640000000000043e+02 2.066340000000000146e+03
1.509999999999999953e-01 1.357369999999999965e-01 1.240050000000000097e+01 1.415310000000000059e+02 2.066345000000000255e+03
1.519999999999999962e-01 1.357395000000000129e-01 1.247384999999999877e+01 1.417125000000000057e+02 2.066364999999999782e+03
1.529999999999999971e-01 1.357430000000000025e-01 1.255604999999999905e+01 1.418949999999999818e+02 2.066394999999999982e+03
1.539999999999999980e-01 1.357464999999999922e-01 1.264045000000000130e+01 1.420649999999999977e+02 2.066430000000000291e+03
1.549999999999999989e-01 1.357495000000000229e-01 1.272139999999999915e+01 1.422144999999999868e+02 2.066465000000000146e+03
1.559999999999999998e-01 1.357530000000000125e-01 1.279429999999999978e+01 1.423360000000000127e+02 2.066494999999999891e+03
1.570000000000000007e-01 1.357555000000000012e-01 1.285565000000000069e+01 1.424250000000000114e+02 2.066524999999999636e+03
1.580000000000000016e-01 1.357575000000000032e-01 1.290305000000000035e+01 1.424795000000000016e+02 2.066550000000000182e+03
1.590000000000000024e-01 1.357585000000000042e-01 1.293529999999999980e+01 1.425000000000000000e+02 2.066559999999999945e+03
