# t [s], A [cm^2], U [cm/s], P [cPa], c [cm/s]
1.000000000000000021e-03 1.259234999999999938e-01 2.888359999999999816e-01 9.490080000000000382e+01 2.074460000000000036e+03
2.000000000000000042e-03 1.258990000000000109e-01 1.685034499999999991e+00 9.182959999999999923e+01 2.074140000000000327e+03
3.000000000000000062e-03 1.258235000000000048e-01 3.404184000000000321e+00 8.769839999999999236e+01 2.073175000000000182e+03
4.000000000000000083e-03 1.257150000000000212e-01 5.328224999999999767e+00 8.317414999999999736e+01 2.071815000000000055e+03
5.000000000000000104e-03 1.255949999999999844e-01 7.398880000000000123e+00 7.904019999999999868e+01 2.070315000000000055e+03
6.000000000000000125e-03 1.254755000000000176e-01 9.480285000000000295e+00 7.560869999999999891e+01 2.068845000000000255e+03
7.000000000000000146e-03 1.253624999999999878e-01 1.139120499999999936e+01 7.270869999999999322e+01 2.067470000000000255e+03
8.000000000000000167e-03 1.252560000000000062e-01 1.303838999999999970e+01 7.010344999999999516e+01 2.066204999999999927e+03
9.000000000000001055e-03 1.251599999999999935e-01 1.443890999999999991e+01 6.779089999999999350e+01 2.065074999999999818e+03
1.000000000000000194e-02 1.250764999999999794e-01 1.562584999999999980e+01 6.584825000000000728e+01 2.064105000000000018e+03
1.099999999999999936e-02 1.250065000000000204e-01 1.661164999999999736e+01 6.427479999999999905e+01 2.063295000000000073e+03
1.200000000000000025e-02 1.249480000000000035e-01 1.740129999999999910e+01 6.301259999999999906e+01 2.062630000000000109e+03
1.300000000000000114e-02 1.249000000000000110e-01 1.799425000000000097e+01 6.197064999999999912e+01 2.062090000000000146e+03
1.400000000000000203e-02 1.248589999999999978e-01 1.839385000000000048e+01 6.104390000000000072e+01 2.061644999999999982e+03
1.499999999999999944e-02 1.248239999999999905e-01 1.863945000000000007e+01 6.019899999999999807e+01 2.061265000000000327e+03
1.600000000000000033e-02 1.247959999999999903e-01 1.882475000000000165e+01 5.956539999999999679e+01 2.060965000000000146e+03
1.700000000000000122e-02 1.247795000000000015e-01 1.907265000000000299e+01 5.941389999999999816e+01 2.060789999999999964e+03
1.800000000000000211e-02 1.247784999999999866e-01 1.947925000000000040e+01 6.001095000000000113e+01 2.060795000000000073e+03
1.900000000000000300e-02 1.247970000000000051e-01 2.006725000000000136e+01 6.145220000000000482e+01 2.061010000000000218e+03
2.000000000000000042e-02 1.248340000000000005e-01 2.077570000000000050e+01 6.358014999999999617e+01 2.061434999999999945e+03
2.100000000000000130e-02 1.248829999999999940e-01 2.148695000000000022e+01 6.602445000000000164e+01 2.062010000000000218e+03
2.200000000000000219e-02 1.249365000000000059e-01 2.207220000000000226e+01 6.832994999999999663e+01 2.062640000000000327e+03
2.299999999999999961e-02 1.249865000000000004e-01 2.243489999999999895e+01 7.010490000000000066e+01 2.063234999999999673e+03
2.400000000000000050e-02 1.250245000000000106e-01 2.253600000000000136e+01 7.113039999999999452e+01 2.063704999999999927e+03
2.500000000000000139e-02 1.250494999999999801e-01 2.239625000000000199e+01 7.139750000000000796e+01 2.064014999999999873e+03
2.600000000000000228e-02 1.250600000000000045e-01 2.207789999999999964e+01 7.107115000000000293e+01 2.064170000000000073e+03
2.700000000000000316e-02 1.250604999999999911e-01 2.165654999999999930e+01 7.040309999999999491e+01 2.064185000000000400e+03
2.800000000000000058e-02 1.250539999999999985e-01 2.119379999999999953e+01 6.963415000000000532e+01 2.064119999999999891e+03
2.900000000000000147e-02 1.250439999999999885e-01 2.072100000000000009e+01 6.891910000000000025e+01 2.064010000000000218e+03
3.000000000000000236e-02 1.250334999999999919e-01 2.023624999999999829e+01 6.829685000000000628e+01 2.063885000000000218e+03
3.099999999999999978e-02 1.250215000000000076e-01 1.971490000000000009e+01 6.770645000000000380e+01 2.063755000000000109e+03
3.200000000000000067e-02 1.250074999999999936e-01 1.912624999999999886e+01 6.703665000000000873e+01 2.063595000000000255e+03
3.300000000000000155e-02 1.249895000000000034e-01 1.845165000000000077e+01 6.618685000000000684e+01 2.063390000000000327e+03
3.400000000000000244e-02 1.249669999999999948e-01 1.769715000000000060e+01 6.511955000000000382e+01 2.063135000000000218e+03
3.500000000000000333e-02 1.249404999999999960e-01 1.689809999999999945e+01 6.388819999999999766e+01 2.062824999999999818e+03
3.600000000000000422e-02 1.249109999999999943e-01 1.611374999999999957e+01 6.263335000000000008e+01 2.062489999999999782e+03
3.700000000000000511e-02 1.248819999999999930e-01 1.541419999999999924e+01 6.154949999999999477e+01 2.062159999999999854e+03
3.799999999999999906e-02 1.248589999999999978e-01 1.486374999999999957e+01 6.083424999999999727e+01 2.061880000000000109e+03
3.899999999999999994e-02 1.248444999999999971e-01 1.450550000000000139e+01 6.063530000000000086e+01 2.061710000000000036e+03
4.000000000000000083e-02 1.248410000000000075e-01 1.435154999999999959e+01 6.101135000000000019e+01 2.061659999999999854e+03
4.100000000000000172e-02 1.248505000000000031e-01 1.438100000000000023e+01 6.191675000000000040e+01 2.061750000000000000e+03
4.200000000000000261e-02 1.248704999999999954e-01 1.454465000000000074e+01 6.321105000000000018e+01 2.061970000000000255e+03
4.300000000000000350e-02 1.248980000000000090e-01 1.477554999999999907e+01 6.468864999999999554e+01 2.062284999999999854e+03
4.400000000000000439e-02 1.249294999999999989e-01 1.500114999999999910e+01 6.611915000000000475e+01 2.062639999999999873e+03
4.499999999999999833e-02 1.249590000000000006e-01 1.515449999999999875e+01 6.728690000000000282e+01 2.062989999999999782e+03
4.599999999999999922e-02 1.249840000000000118e-01 1.518285000000000018e+01 6.802279999999998950e+01 2.063269999999999982e+03
4.700000000000000011e-02 1.249989999999999990e-01 1.505205000000000126e+01 6.822259999999999991e+01 2.063449999999999818e+03
4.800000000000000100e-02 1.250030000000000030e-01 1.474704999999999977e+01 6.785009999999999764e+01 2.063505000000000109e+03
4.900000000000000189e-02 1.249939999999999940e-01 1.426940000000000097e+01 6.692879999999999541e+01 2.063414999999999964e+03
5.000000000000000278e-02 1.249730000000000008e-01 1.363260000000000005e+01 6.552570000000000050e+01 2.063170000000000073e+03
5.100000000000000366e-02 1.249404999999999960e-01 1.285805000000000042e+01 6.373250000000000171e+01 2.062805000000000291e+03
5.200000000000000455e-02 1.248994999999999966e-01 1.197056500000000057e+01 6.164855000000000018e+01 2.062329999999999927e+03
5.300000000000000544e-02 1.248495000000000021e-01 1.099622000000000099e+01 5.936915000000000475e+01 2.061760000000000218e+03
5.399999999999999939e-02 1.247945000000000026e-01 9.961185000000000400e+00 5.698019999999999641e+01 2.061119999999999891e+03
5.500000000000000028e-02 1.247360000000000135e-01 8.891975000000000406e+00 5.455745000000000289e+01 2.060439999999999600e+03
5.600000000000000117e-02 1.246754999999999947e-01 7.816144999999999676e+00 5.217005000000000337e+01 2.059730000000000018e+03
5.700000000000000205e-02 1.246150000000000035e-01 6.763185000000000002e+00 4.988555000000000206e+01 2.059029999999999745e+03
5.800000000000000294e-02 1.245560000000000000e-01 5.765295000000000059e+00 4.777389999999999759e+01 2.058345000000000255e+03
5.900000000000000383e-02 1.245014999999999872e-01 4.856914999999999871e+00 4.590995000000000203e+01 2.057699999999999818e+03
6.000000000000000472e-02 1.244520000000000071e-01 4.073934999999999640e+00 4.437265000000000015e+01 2.057125000000000000e+03
6.099999999999999867e-02 1.244115000000000082e-01 3.452074999999999783e+00 4.324249999999999972e+01 2.056635000000000218e+03
6.199999999999999956e-02 1.243805000000000049e-01 3.024790000000000312e+00 4.259609999999999985e+01 2.056264999999999873e+03
6.300000000000000044e-02 1.243609999999999993e-01 2.821089999999999876e+00 4.250045000000000073e+01 2.056029999999999745e+03
6.400000000000000133e-02 1.243549999999999933e-01 2.863564999999999916e+00 4.300724999999999909e+01 2.055944999999999709e+03
6.500000000000000222e-02 1.243640000000000023e-01 3.166795000000000027e+00 4.414794999999999447e+01 2.056034999999999854e+03
6.600000000000000311e-02 1.243895000000000139e-01 3.736424999999999663e+00 4.593115000000000236e+01 2.056315000000000055e+03
6.700000000000000400e-02 1.244304999999999994e-01 4.568900000000000183e+00 4.834140000000000015e+01 2.056775000000000091e+03
6.800000000000000488e-02 1.244870000000000004e-01 5.651880000000000237e+00 5.134085000000000321e+01 2.057414999999999964e+03
6.900000000000000577e-02 1.245590000000000031e-01 6.965194999999999581e+00 5.487189999999999657e+01 2.058234999999999673e+03
7.000000000000000666e-02 1.246450000000000058e-01 8.482310000000000016e+00 5.886185000000000400e+01 2.059220000000000255e+03
7.100000000000000755e-02 1.247430000000000067e-01 1.017196000000000033e+01 6.322775000000000034e+01 2.060349999999999909e+03
7.200000000000000844e-02 1.248515000000000041e-01 1.200014000000000003e+01 6.788214999999999577e+01 2.061605000000000018e+03
7.300000000000000933e-02 1.249679999999999958e-01 1.393206500000000148e+01 7.273859999999999104e+01 2.062960000000000036e+03
7.399999999999999634e-02 1.250910000000000077e-01 1.593369999999999820e+01 7.771649999999999636e+01 2.064390000000000327e+03
7.499999999999999722e-02 1.252179999999999960e-01 1.797354999999999947e+01 8.274500000000000455e+01 2.065880000000000109e+03
7.599999999999999811e-02 1.253479999999999872e-01 2.002400000000000091e+01 8.776634999999998854e+01 2.067404999999999745e+03
7.699999999999999900e-02 1.254790000000000072e-01 2.206179999999999808e+01 9.273740000000000805e+01 2.068944999999999709e+03
7.799999999999999989e-02 1.256099999999999994e-01 2.406875000000000142e+01 9.762954999999999472e+01 2.070494999999999891e+03
7.900000000000000078e-02 1.257400000000000184e-01 2.603144999999999953e+01 1.024282999999999930e+02 2.072034999999999854e+03
8.000000000000000167e-02 1.258684999999999943e-01 2.794084999999999752e+01 1.071308499999999952e+02 2.073564999999999600e+03
8.100000000000000255e-02 1.259959999999999969e-01 2.979184999999999661e+01 1.117425000000000068e+02 2.075074999999999818e+03
8.200000000000000344e-02 1.261219999999999841e-01 3.158174999999999955e+01 1.162750000000000057e+02 2.076574999999999818e+03
8.300000000000000433e-02 1.262455000000000105e-01 3.331004999999999683e+01 1.207404999999999973e+02 2.078055000000000291e+03
8.400000000000000522e-02 1.263684999999999947e-01 3.497695000000000221e+01 1.251520000000000152e+02 2.079524999999999636e+03
8.500000000000000611e-02 1.264905000000000057e-01 3.658285000000000053e+01 1.295184999999999889e+02 2.080985000000000127e+03
8.600000000000000699e-02 1.266110000000000013e-01 3.812770000000000437e+01 1.338435000000000059e+02 2.082430000000000291e+03
8.700000000000000788e-02 1.267300000000000093e-01 3.961055000000000348e+01 1.381254999999999882e+02 2.083869999999999891e+03
8.800000000000000877e-02 1.268485000000000029e-01 4.102944999999999709e+01 1.423584999999999923e+02 2.085289999999999964e+03
8.899999999999999578e-02 1.269655000000000089e-01 4.238129999999999598e+01 1.465289999999999964e+02 2.086704999999999927e+03
8.999999999999999667e-02 1.270804999999999851e-01 4.366194999999999737e+01 1.506204999999999927e+02 2.088095000000000255e+03
9.099999999999999756e-02 1.271940000000000015e-01 4.486629999999999541e+01 1.546134999999999877e+02 2.089465000000000146e+03
9.199999999999999845e-02 1.273050000000000015e-01 4.598850000000000193e+01 1.584855000000000018e+02 2.090800000000000182e+03
9.299999999999999933e-02 1.274125000000000119e-01 4.702209999999999468e+01 1.622119999999999891e+02 2.092105000000000018e+03
9.400000000000000022e-02 1.275165000000000048e-01 4.796049999999999613e+01 1.657699999999999818e+02 2.093364999999999782e+03
9.500000000000000111e-02 1.276160000000000072e-01 4.879685000000000628e+01 1.691349999999999909e+02 2.094574999999999818e+03
9.600000000000000200e-02 1.277099999999999902e-01 4.952450000000000330e+01 1.722835000000000036e+02 2.095730000000000018e+03
9.700000000000000289e-02 1.277995000000000103e-01 5.013724999999999454e+01 1.751949999999999932e+02 2.096815000000000055e+03
9.800000000000000377e-02 1.278819999999999957e-01 5.062964999999999804e+01 1.778500000000000227e+02 2.097829999999999927e+03
9.900000000000000466e-02 1.279585000000000028e-01 5.099734999999999729e+01 1.802330000000000041e+02 2.098760000000000218e+03
1.000000000000000056e-01 1.280275000000000163e-01 5.123730000000000473e+01 1.823324999999999818e+02 2.099614999999999782e+03
1.010000000000000064e-01 1.280900000000000094e-01 5.134830000000000183e+01 1.841404999999999745e+02 2.100375000000000000e+03
1.020000000000000073e-01 1.281440000000000079e-01 5.133100000000000307e+01 1.856560000000000059e+02 2.101050000000000182e+03
1.030000000000000082e-01 1.281909999999999994e-01 5.118834999999999980e+01 1.868809999999999718e+02 2.101630000000000109e+03
1.040000000000000091e-01 1.282300000000000106e-01 5.092539999999999623e+01 1.878265000000000100e+02 2.102119999999999891e+03
1.050000000000000100e-01 1.282619999999999871e-01 5.054939999999999856e+01 1.885074999999999932e+02 2.102515000000000327e+03
1.059999999999999970e-01 1.282864999999999978e-01 5.006980000000000075e+01 1.889440000000000168e+02 2.102829999999999927e+03
1.069999999999999979e-01 1.283044999999999880e-01 4.949765000000000015e+01 1.891599999999999966e+02 2.103059999999999945e+03
1.079999999999999988e-01 1.283170000000000144e-01 4.884535000000000338e+01 1.891850000000000023e+02 2.103215000000000146e+03
1.089999999999999997e-01 1.283235000000000070e-01 4.812619999999999720e+01 1.890484999999999900e+02 2.103315000000000055e+03
1.100000000000000006e-01 1.283259999999999956e-01 4.735389999999999588e+01 1.887800000000000011e+02 2.103345000000000255e+03
1.110000000000000014e-01 1.283245000000000080e-01 4.654205000000000325e+01 1.884110000000000014e+02 2.103335000000000036e+03
1.120000000000000023e-01 1.283195000000000030e-01 4.570354999999999990e+01 1.879680000000000177e+02 2.103279999999999745e+03
1.130000000000000032e-01 1.283119999999999816e-01 4.485035000000000593e+01 1.874770000000000039e+02 2.103195000000000164e+03
1.140000000000000041e-01 1.283030000000000004e-01 4.399295000000000044e+01 1.869590000000000032e+02 2.103090000000000146e+03
1.150000000000000050e-01 1.282919999999999894e-01 4.314020000000000010e+01 1.864295000000000186e+02 2.102965000000000146e+03
1.160000000000000059e-01 1.282810000000000061e-01 4.229899999999999949e+01 1.859019999999999868e+02 2.102824999999999818e+03
1.170000000000000068e-01 1.282694999999999808e-01 4.147429999999999950e+01 1.853834999999999980e+02 2.102684999999999945e+03
1.180000000000000077e-01 1.282570000000000099e-01 4.066910000000000025e+01 1.848754999999999882e+02 2.102534999999999854e+03
1.190000000000000085e-01 1.282444999999999835e-01 3.988450000000000273e+01 1.843770000000000095e+02 2.102385000000000218e+03
1.200000000000000094e-01 1.282324999999999993e-01 3.911979999999999791e+01 1.838824999999999932e+02 2.102234999999999673e+03
1.209999999999999964e-01 1.282200000000000006e-01 3.837270000000000181e+01 1.833829999999999814e+02 2.102079999999999927e+03
1.219999999999999973e-01 1.282065000000000010e-01 3.763969999999999771e+01 1.828679999999999950e+02 2.101920000000000073e+03
1.229999999999999982e-01 1.281935000000000158e-01 3.691625000000000512e+01 1.823240000000000123e+02 2.101755000000000109e+03
1.239999999999999991e-01 1.281785000000000008e-01 3.619740000000000180e+01 1.817370000000000232e+02 2.101569999999999709e+03
1.250000000000000000e-01 1.281629999999999991e-01 3.547759999999999536e+01 1.810945000000000107e+02 2.101385000000000218e+03
1.260000000000000009e-01 1.281454999999999955e-01 3.475155000000000172e+01 1.803840000000000146e+02 2.101170000000000073e+03
1.270000000000000018e-01 1.281269999999999909e-01 3.401440000000000197e+01 1.795939999999999941e+02 2.100940000000000055e+03
1.280000000000000027e-01 1.281059999999999977e-01 3.326200000000000045e+01 1.787164999999999964e+02 2.100684999999999945e+03
1.290000000000000036e-01 1.280824999999999880e-01 3.249114999999999753e+01 1.777454999999999927e+02 2.100400000000000091e+03
1.300000000000000044e-01 1.280570000000000042e-01 3.169984999999999786e+01 1.766800000000000068e+02 2.100090000000000146e+03
1.310000000000000053e-01 1.280290000000000039e-01 3.088755000000000095e+01 1.755204999999999984e+02 2.099755000000000109e+03
1.320000000000000062e-01 1.279984999999999873e-01 3.005499999999999972e+01 1.742725000000000080e+02 2.099385000000000218e+03
1.330000000000000071e-01 1.279659999999999964e-01 2.920459999999999923e+01 1.729445000000000050e+02 2.098994999999999891e+03
1.340000000000000080e-01 1.279309999999999892e-01 2.834004999999999797e+01 1.715490000000000066e+02 2.098574999999999818e+03
1.350000000000000089e-01 1.278944999999999943e-01 2.746634999999999849e+01 1.701009999999999991e+02 2.098130000000000109e+03
1.360000000000000098e-01 1.278569999999999984e-01 2.658954999999999913e+01 1.686175000000000068e+02 2.097675000000000182e+03
1.370000000000000107e-01 1.278179999999999872e-01 2.571654999999999802e+01 1.671189999999999998e+02 2.097204999999999927e+03
1.380000000000000115e-01 1.277785000000000171e-01 2.485464999999999947e+01 1.656250000000000000e+02 2.096724999999999909e+03
1.390000000000000124e-01 1.277389999999999914e-01 2.401150000000000162e+01 1.641544999999999845e+02 2.096250000000000000e+03
1.400000000000000133e-01 1.277000000000000079e-01 2.319444999999999979e+01 1.627264999999999873e+02 2.095779999999999745e+03
1.410000000000000142e-01 1.276619999999999977e-01 2.241049999999999898e+01 1.613594999999999970e+02 2.095315000000000055e+03
1.420000000000000151e-01 1.276249999999999885e-01 2.166584999999999894e+01 1.600679999999999836e+02 2.094869999999999891e+03
1.430000000000000160e-01 1.275900000000000090e-01 2.096569999999999823e+01 1.588634999999999877e+02 2.094440000000000055e+03
1.440000000000000169e-01 1.275570000000000037e-01 2.031405000000000172e+01 1.577554999999999836e+02 2.094039999999999964e+03
1.450000000000000178e-01 1.275260000000000005e-01 1.971379999999999910e+01 1.567500000000000000e+02 2.093664999999999964e+03
1.459999999999999909e-01 1.274980000000000002e-01 1.916640000000000299e+01 1.558480000000000132e+02 2.093319999999999709e+03
1.469999999999999918e-01 1.274720000000000020e-01 1.867220000000000013e+01 1.550494999999999948e+02 2.093005000000000109e+03
1.479999999999999927e-01 1.274485000000000201e-01 1.823015000000000185e+01 1.543519999999999754e+02 2.092720000000000255e+03
1.489999999999999936e-01 1.274285000000000001e-01 1.783859999999999957e+01 1.537484999999999786e+02 2.092465000000000146e+03
1.499999999999999944e-01 1.274095000000000089e-01 1.749460000000000193e+01 1.532314999999999827e+02 2.092234999999999673e+03
1.509999999999999953e-01 1.273940000000000072e-01 1.719490000000000052e+01 1.527934999999999945e+02 2.092039999999999964e+03
1.519999999999999962e-01 1.273799999999999932e-01 1.693550000000000111e+01 1.524239999999999782e+02 2.091864999999999782e+03
1.529999999999999971e-01 1.273680000000000090e-01 1.671229999999999905e+01 1.521139999999999759e+02 2.091715000000000146e+03
1.539999999999999980e-01 1.273575000000000124e-01 1.652089999999999748e+01 1.518549999999999898e+02 2.091590000000000146e+03
1.549999999999999989e-01 1.273485000000000034e-01 1.635710000000000264e+01 1.516374999999999886e+02 2.091474999999999909e+03
1.559999999999999998e-01 1.273409999999999820e-01 1.621675000000000111e+01 1.514535000000000196e+02 2.091380000000000109e+03
1.570000000000000007e-01 1.273340000000000027e-01 1.609580000000000055e+01 1.512950000000000159e+02 2.091295000000000073e+03
1.580000000000000016e-01 1.273285000000000111e-01 1.599054999999999893e+01 1.511564999999999941e+02 2.091224999999999909e+03
1.590000000000000024e-01 1.273235000000000061e-01 1.589775000000000027e+01 1.510319999999999823e+02 2.091154999999999745e+03
