# t [s], A [cm^2], U [cm/s], P [cPa], c [cm/s]
1.000000000000000021e-03 4.740719999999999934e-01 4.561799999999997801e-03 9.955089999999999861e+01 1.647755000000000109e+03
2.000000000000000042e-03 4.740655000000000285e-01 -4.849550000000000215e-04 9.952729999999999677e+01 1.647750000000000000e+03
3.000000000000000062e-03 4.741015000000000090e-01 8.414094999999999214e-02 9.962035000000000196e+01 1.647769999999999982e+03
4.000000000000000083e-03 4.741365000000000163e-01 1.736045499999999964e-01 9.973890000000000100e+01 1.647800000000000182e+03
5.000000000000000104e-03 4.741250000000000187e-01 1.592531500000000100e-01 9.970814999999998918e+01 1.647805000000000064e+03
6.000000000000000125e-03 4.740849999999999786e-01 7.600099999999998523e-02 9.952870000000000061e+01 1.647759999999999991e+03
7.000000000000000146e-03 4.740499999999999714e-01 -4.136499999999987409e-03 9.928974999999999795e+01 1.647710000000000036e+03
8.000000000000000167e-03 4.739980000000000304e-01 -1.313444999999999752e-01 9.894509999999999650e+01 1.647634999999999991e+03
9.000000000000001055e-03 4.739090000000000247e-01 -3.621550000000000047e-01 9.840844999999998777e+01 1.647519999999999982e+03
1.000000000000000194e-02 4.737755000000000161e-01 -7.101199999999999735e-01 9.762805000000000177e+01 1.647340000000000146e+03
1.099999999999999936e-02 4.735865000000000213e-01 -1.194310000000000205e+00 9.654265000000000896e+01 1.647099999999999909e+03
1.200000000000000025e-02 4.733359999999999790e-01 -1.817635000000000112e+00 9.510589999999999122e+01 1.646764999999999873e+03
1.300000000000000114e-02 4.730404999999999749e-01 -2.517580000000000151e+00 9.335975000000000534e+01 1.646355000000000018e+03
1.400000000000000203e-02 4.727394999999999792e-01 -3.173094999999999999e+00 9.144684999999999775e+01 1.645890000000000100e+03
1.499999999999999944e-02 4.724700000000000011e-01 -3.661139999999999617e+00 8.955004999999999882e+01 1.645404999999999973e+03
1.600000000000000033e-02 4.722509999999999764e-01 -3.908270000000000355e+00 8.781319999999999482e+01 1.644945000000000164e+03
1.700000000000000122e-02 4.720794999999999852e-01 -3.907212499999999977e+00 8.629739999999999611e+01 1.644514999999999873e+03
1.800000000000000211e-02 4.719349999999999934e-01 -3.702973499999999696e+00 8.498024999999999807e+01 1.644115000000000009e+03
1.900000000000000300e-02 4.717940000000000467e-01 -3.364933999999999870e+00 8.378319999999999368e+01 1.643744999999999891e+03
2.000000000000000042e-02 4.716350000000000264e-01 -2.958767299999999878e+00 8.261150000000000659e+01 1.643375000000000000e+03
2.100000000000000130e-02 4.714485000000000481e-01 -2.526418000000000053e+00 8.138920000000000243e+01 1.642994999999999891e+03
2.200000000000000219e-02 4.712365000000000026e-01 -2.078700000000000436e+00 8.008195000000000618e+01 1.642599999999999909e+03
2.299999999999999961e-02 4.710079999999999822e-01 -1.601384999999999836e+00 7.869909999999998718e+01 1.642190000000000055e+03
2.400000000000000050e-02 4.707764999999999866e-01 -1.070899999999999963e+00 7.727844999999999231e+01 1.641764999999999873e+03
2.500000000000000139e-02 4.705500000000000238e-01 -4.721100000000002517e-01 7.586189999999999145e+01 1.641339999999999918e+03
2.600000000000000228e-02 4.703310000000000546e-01 1.888000000000000789e-01 7.447204999999999586e+01 1.640920000000000073e+03
2.700000000000000316e-02 4.701115000000000155e-01 8.802800000000001734e-01 7.309834999999999638e+01 1.640500000000000000e+03
2.800000000000000058e-02 4.698784999999999767e-01 1.550029999999999797e+00 7.169630000000000791e+01 1.640070000000000164e+03
2.900000000000000147e-02 4.696175000000000210e-01 2.135964999999999669e+00 7.019745000000000346e+01 1.639625000000000000e+03
3.000000000000000236e-02 4.693135000000000501e-01 2.580154999999999976e+00 6.852734999999999843e+01 1.639144999999999982e+03
3.099999999999999978e-02 4.689590000000000147e-01 2.842039999999999900e+00 6.662675000000000125e+01 1.638610000000000127e+03
3.200000000000000067e-02 4.685549999999999438e-01 2.907704999999999540e+00 6.446970000000000312e+01 1.638019999999999982e+03
3.300000000000000155e-02 4.681109999999999993e-01 2.792634999999999756e+00 6.207444999999999879e+01 1.637380000000000109e+03
3.400000000000000244e-02 4.676439999999999486e-01 2.537619999999999987e+00 5.950355000000000416e+01 1.636694999999999936e+03
3.500000000000000333e-02 4.671750000000000069e-01 2.199309999999999654e+00 5.685425000000000040e+01 1.635985000000000127e+03
3.600000000000000422e-02 4.667255000000000154e-01 1.839244999999999575e+00 5.424299999999999500e+01 1.635280000000000200e+03
3.700000000000000511e-02 4.663154999999999939e-01 1.513779999999999681e+00 5.178820000000000334e+01 1.634605000000000018e+03
3.799999999999999906e-02 4.659590000000000121e-01 1.267915000000000347e+00 4.959590000000000032e+01 1.633985000000000127e+03
3.899999999999999994e-02 4.656669999999999976e-01 1.132709999999999884e+00 4.775065000000000026e+01 1.633445000000000164e+03
4.000000000000000083e-02 4.654440000000000244e-01 1.126330000000000053e+00 4.631149999999999523e+01 1.633000000000000000e+03
4.100000000000000172e-02 4.652924999999999978e-01 1.257319999999999993e+00 4.531345000000000312e+01 1.632664999999999964e+03
4.200000000000000261e-02 4.652124999999999733e-01 1.528715000000000046e+00 4.477145000000000152e+01 1.632449999999999818e+03
4.300000000000000350e-02 4.652034999999999920e-01 1.941820000000000102e+00 4.468689999999999429e+01 1.632349999999999909e+03
4.400000000000000439e-02 4.652650000000000396e-01 2.498764999999999681e+00 4.505330000000000013e+01 1.632375000000000000e+03
4.499999999999999833e-02 4.653944999999999887e-01 3.203330000000000233e+00 4.586055000000000348e+01 1.632519999999999982e+03
4.599999999999999922e-02 4.655930000000000346e-01 4.060156499999999724e+00 4.709685000000000343e+01 1.632775000000000091e+03
4.700000000000000011e-02 4.658579999999999943e-01 5.072871000000000130e+00 4.874855000000000160e+01 1.633154999999999973e+03
4.800000000000000100e-02 4.661874999999999769e-01 6.241745500000000391e+00 5.079869999999999663e+01 1.633639999999999873e+03
4.900000000000000189e-02 4.665779999999999372e-01 7.561745000000000161e+00 5.322424999999999784e+01 1.634224999999999909e+03
5.000000000000000278e-02 4.670239999999999947e-01 9.021414999999999296e+00 5.599479999999999791e+01 1.634914999999999964e+03
5.100000000000000366e-02 4.675179999999999891e-01 1.060294000000000025e+01 5.907150000000000034e+01 1.635694999999999936e+03
5.200000000000000455e-02 4.680514999999999537e-01 1.228306499999999879e+01 6.240760000000000218e+01 1.636550000000000182e+03
5.300000000000000544e-02 4.686150000000000038e-01 1.403466999999999842e+01 6.595080000000000098e+01 1.637469999999999800e+03
5.399999999999999939e-02 4.692000000000000060e-01 1.582924500000000023e+01 6.964555000000000007e+01 1.638440000000000055e+03
5.500000000000000028e-02 4.697970000000000201e-01 1.763878000000000057e+01 7.343685000000000684e+01 1.639450000000000045e+03
5.600000000000000117e-02 4.703979999999999828e-01 1.943759999999999977e+01 7.727334999999999354e+01 1.640490000000000009e+03
5.700000000000000205e-02 4.709969999999999990e-01 2.120380000000000109e+01 8.111025000000000773e+01 1.641534999999999854e+03
5.800000000000000294e-02 4.715889999999999804e-01 2.292010000000000147e+01 8.491129999999999711e+01 1.642585000000000036e+03
5.900000000000000383e-02 4.721715000000000217e-01 2.457379999999999853e+01 8.864965000000000828e+01 1.643625000000000000e+03
6.000000000000000472e-02 4.727425000000000099e-01 2.615660000000000096e+01 9.230840000000000600e+01 1.644654999999999973e+03
6.099999999999999867e-02 4.733009999999999717e-01 2.766420000000000101e+01 9.587914999999999566e+01 1.645670000000000073e+03
6.199999999999999956e-02 4.738480000000000469e-01 2.909519999999999840e+01 9.936129999999999995e+01 1.646664999999999964e+03
6.300000000000000044e-02 4.743850000000000566e-01 3.045044999999999646e+01 1.027594500000000011e+02 1.647639999999999873e+03
6.400000000000000133e-02 4.749125000000000152e-01 3.173225000000000051e+01 1.060827999999999918e+02 1.648599999999999909e+03
6.500000000000000222e-02 4.754335000000000089e-01 3.294335000000000235e+01 1.093420500000000004e+02 1.649539999999999964e+03
6.600000000000000311e-02 4.759484999999999966e-01 3.408670000000000044e+01 1.125485000000000042e+02 1.650474999999999909e+03
6.700000000000000400e-02 4.764590000000000214e-01 3.516440000000000055e+01 1.157094999999999914e+02 1.651390000000000100e+03
6.800000000000000488e-02 4.769655000000000422e-01 3.617770000000000152e+01 1.188329999999999984e+02 1.652299999999999955e+03
6.900000000000000577e-02 4.774669999999999748e-01 3.712640000000000384e+01 1.219194999999999993e+02 1.653199999999999818e+03
7.000000000000000666e-02 4.779634999999999856e-01 3.800910000000000366e+01 1.249680000000000035e+02 1.654089999999999918e+03
7.100000000000000755e-02 4.784530000000000172e-01 3.882300000000000040e+01 1.279699999999999989e+02 1.654974999999999909e+03
7.200000000000000844e-02 4.789335000000000120e-01 3.956435000000000457e+01 1.309159999999999968e+02 1.655835000000000036e+03
7.300000000000000933e-02 4.794015000000000359e-01 4.022840000000000060e+01 1.337905000000000086e+02 1.656684999999999945e+03
7.399999999999999634e-02 4.798559999999999492e-01 4.081040000000000134e+01 1.365774999999999864e+02 1.657505000000000109e+03
7.499999999999999722e-02 4.802925000000000111e-01 4.130554999999999666e+01 1.392595000000000027e+02 1.658304999999999836e+03
7.599999999999999811e-02 4.807090000000000529e-01 4.170955000000000013e+01 1.418174999999999955e+02 1.659074999999999818e+03
7.699999999999999900e-02 4.811024999999999885e-01 4.201879999999999882e+01 1.442355000000000018e+02 1.659799999999999955e+03
7.799999999999999989e-02 4.814709999999999823e-01 4.223080000000000211e+01 1.464979999999999905e+02 1.660490000000000009e+03
7.900000000000000078e-02 4.818124999999999769e-01 4.234414999999999907e+01 1.485910000000000082e+02 1.661130000000000109e+03
8.000000000000000167e-02 4.821259999999999990e-01 4.235855000000000103e+01 1.505064999999999884e+02 1.661730000000000018e+03
8.100000000000000255e-02 4.824094999999999911e-01 4.227514999999999645e+01 1.522365000000000066e+02 1.662275000000000091e+03
8.200000000000000344e-02 4.826639999999999819e-01 4.209600000000000364e+01 1.537780000000000200e+02 1.662769999999999982e+03
8.300000000000000433e-02 4.828879999999999839e-01 4.182455000000000211e+01 1.551295000000000073e+02 1.663204999999999927e+03
8.400000000000000522e-02 4.830834999999999990e-01 4.146540000000000248e+01 1.562955000000000041e+02 1.663595000000000027e+03
8.500000000000000611e-02 4.832509999999999861e-01 4.102450000000000330e+01 1.572804999999999893e+02 1.663930000000000064e+03
8.600000000000000699e-02 4.833914999999999740e-01 4.050869999999999749e+01 1.580939999999999941e+02 1.664215000000000146e+03
8.700000000000000788e-02 4.835069999999999646e-01 3.992610000000000525e+01 1.587454999999999927e+02 1.664454999999999927e+03
8.800000000000000877e-02 4.835994999999999600e-01 3.928565000000000396e+01 1.592509999999999764e+02 1.664650000000000091e+03
8.899999999999999578e-02 4.836715000000000320e-01 3.859714999999999918e+01 1.596240000000000236e+02 1.664804999999999836e+03
8.999999999999999667e-02 4.837259999999999893e-01 3.787080000000000268e+01 1.598824999999999932e+02 1.664920000000000073e+03
9.099999999999999756e-02 4.837660000000000293e-01 3.711710000000000065e+01 1.600444999999999993e+02 1.665005000000000109e+03
9.199999999999999845e-02 4.837934999999999874e-01 3.634624999999999773e+01 1.601274999999999977e+02 1.665065000000000055e+03
9.299999999999999933e-02 4.838120000000000198e-01 3.556794999999999618e+01 1.601494999999999891e+02 1.665099999999999909e+03
9.400000000000000022e-02 4.838239999999999763e-01 3.479099999999999682e+01 1.601265000000000214e+02 1.665119999999999891e+03
9.500000000000000111e-02 4.838305000000000522e-01 3.402280000000000371e+01 1.600729999999999791e+02 1.665125000000000000e+03
9.600000000000000200e-02 4.838335000000000274e-01 3.326935000000000286e+01 1.600014999999999930e+02 1.665125000000000000e+03
9.700000000000000289e-02 4.838350000000000151e-01 3.253495000000000203e+01 1.599205000000000041e+02 1.665110000000000127e+03
9.800000000000000377e-02 4.838355000000000294e-01 3.182199999999999918e+01 1.598360000000000127e+02 1.665095000000000027e+03
9.900000000000000466e-02 4.838345000000000562e-01 3.113129999999999598e+01 1.597515000000000214e+02 1.665079999999999927e+03
1.000000000000000056e-01 4.838320000000000398e-01 3.046195000000000164e+01 1.596655000000000086e+02 1.665059999999999945e+03
1.010000000000000064e-01 4.838274999999999659e-01 2.981174999999999642e+01 1.595759999999999934e+02 1.665034999999999854e+03
1.020000000000000073e-01 4.838195000000000134e-01 2.917719999999999914e+01 1.594764999999999873e+02 1.665009999999999991e+03
1.030000000000000082e-01 4.838074999999999459e-01 2.855419999999999803e+01 1.593619999999999948e+02 1.664974999999999909e+03
1.040000000000000091e-01 4.837905000000000122e-01 2.793809999999999860e+01 1.592224999999999966e+02 1.664940000000000055e+03
1.050000000000000100e-01 4.837664999999999882e-01 2.732390000000000185e+01 1.590509999999999877e+02 1.664889999999999873e+03
1.059999999999999970e-01 4.837345000000000117e-01 2.670694999999999908e+01 1.588394999999999868e+02 1.664829999999999927e+03
1.069999999999999979e-01 4.836934999999999985e-01 2.608279999999999887e+01 1.585794999999999959e+02 1.664764999999999873e+03
1.079999999999999988e-01 4.836429999999999896e-01 2.544769999999999754e+01 1.582665000000000077e+02 1.664674999999999955e+03
1.089999999999999997e-01 4.835829999999999851e-01 2.479885000000000161e+01 1.578950000000000102e+02 1.664579999999999927e+03
1.100000000000000006e-01 4.835114999999999830e-01 2.413419999999999987e+01 1.574639999999999986e+02 1.664465000000000146e+03
1.110000000000000014e-01 4.834309999999999441e-01 2.345299999999999940e+01 1.569720000000000084e+02 1.664335000000000036e+03
1.120000000000000023e-01 4.833399999999999919e-01 2.275554999999999950e+01 1.564225000000000136e+02 1.664184999999999945e+03
1.130000000000000032e-01 4.832409999999999761e-01 2.204339999999999833e+01 1.558195000000000050e+02 1.664025000000000091e+03
1.140000000000000041e-01 4.831349999999999811e-01 2.131909999999999883e+01 1.551700000000000159e+02 1.663849999999999909e+03
1.150000000000000050e-01 4.830234999999999945e-01 2.058634999999999948e+01 1.544825000000000159e+02 1.663659999999999854e+03
1.160000000000000059e-01 4.829075000000000450e-01 1.984960000000000235e+01 1.537669999999999959e+02 1.663470000000000027e+03
1.170000000000000068e-01 4.827899999999999414e-01 1.911414999999999864e+01 1.530349999999999966e+02 1.663264999999999873e+03
1.180000000000000077e-01 4.826719999999999899e-01 1.838575000000000159e+01 1.522994999999999948e+02 1.663065000000000055e+03
1.190000000000000085e-01 4.825564999999999438e-01 1.767030000000000101e+01 1.515720000000000027e+02 1.662860000000000127e+03
1.200000000000000094e-01 4.824455000000000271e-01 1.697384999999999877e+01 1.508659999999999854e+02 1.662659999999999854e+03
1.209999999999999964e-01 4.823399999999999910e-01 1.630229999999999890e+01 1.501935000000000002e+02 1.662469999999999800e+03
1.219999999999999973e-01 4.822425000000000184e-01 1.566090000000000160e+01 1.495649999999999977e+02 1.662284999999999854e+03
1.229999999999999982e-01 4.821539999999999715e-01 1.505424999999999969e+01 1.489894999999999925e+02 1.662115000000000009e+03
1.239999999999999991e-01 4.820754999999999901e-01 1.448629999999999995e+01 1.484745000000000061e+02 1.661960000000000036e+03
1.250000000000000000e-01 4.820074999999999776e-01 1.395990000000000109e+01 1.480255000000000223e+02 1.661819999999999936e+03
1.260000000000000009e-01 4.819510000000000183e-01 1.347685000000000066e+01 1.476460000000000150e+02 1.661699999999999818e+03
1.270000000000000018e-01 4.819050000000000278e-01 1.303785000000000061e+01 1.473365000000000009e+02 1.661594999999999800e+03
1.280000000000000027e-01 4.818704999999999794e-01 1.264270499999999942e+01 1.470955000000000155e+02 1.661514999999999873e+03
1.290000000000000036e-01 4.818459999999999965e-01 1.229005000000000081e+01 1.469209999999999923e+02 1.661445000000000164e+03
1.300000000000000044e-01 4.818310000000000093e-01 1.197781499999999966e+01 1.468064999999999998e+02 1.661394999999999982e+03
1.310000000000000053e-01 4.818234999999999602e-01 1.170317999999999969e+01 1.467464999999999975e+02 1.661365000000000009e+03
1.320000000000000062e-01 4.818235000000000157e-01 1.146283000000000030e+01 1.467334999999999923e+02 1.661339999999999918e+03
1.330000000000000071e-01 4.818290000000000073e-01 1.125311500000000109e+01 1.467599999999999909e+02 1.661335000000000036e+03
1.340000000000000080e-01 4.818384999999999474e-01 1.107017000000000095e+01 1.468170000000000073e+02 1.661340000000000146e+03
1.350000000000000089e-01 4.818514999999999882e-01 1.091021500000000088e+01 1.468979999999999961e+02 1.661349999999999909e+03
1.360000000000000098e-01 4.818669999999999898e-01 1.076951500000000017e+01 1.469939999999999998e+02 1.661365000000000009e+03
1.370000000000000107e-01 4.818829999999999503e-01 1.064466499999999982e+01 1.470999999999999943e+02 1.661384999999999991e+03
1.380000000000000115e-01 4.818994999999999806e-01 1.053249500000000083e+01 1.472090000000000032e+02 1.661404999999999973e+03
1.390000000000000124e-01 4.819160000000000110e-01 1.043015499999999918e+01 1.473170000000000073e+02 1.661434999999999945e+03
1.400000000000000133e-01 4.819309999999999983e-01 1.033532499999999921e+01 1.474200000000000159e+02 1.661454999999999927e+03
1.410000000000000142e-01 4.819455000000000267e-01 1.024586500000000022e+01 1.475160000000000196e+02 1.661480000000000018e+03
1.420000000000000151e-01 4.819579999999999975e-01 1.016019000000000005e+01 1.476019999999999754e+02 1.661500000000000000e+03
1.430000000000000160e-01 4.819694999999999951e-01 1.007693500000000064e+01 1.476779999999999973e+02 1.661519999999999982e+03
1.440000000000000169e-01 4.819789999999999353e-01 9.995014999999998651e+00 1.477434999999999832e+02 1.661539999999999964e+03
1.450000000000000178e-01 4.819869999999999433e-01 9.913669999999999760e+00 1.477980000000000018e+02 1.661555000000000064e+03
1.459999999999999909e-01 4.819934999999999636e-01 9.832285000000000608e+00 1.478429999999999893e+02 1.661565000000000055e+03
1.469999999999999918e-01 4.819989999999999553e-01 9.750650000000000261e+00 1.478790000000000191e+02 1.661579999999999927e+03
1.479999999999999927e-01 4.820030000000000148e-01 9.668530000000000513e+00 1.479064999999999941e+02 1.661585000000000036e+03
1.489999999999999936e-01 4.820065000000000044e-01 9.585929999999999396e+00 1.479275000000000091e+02 1.661590000000000146e+03
1.499999999999999944e-01 4.820090000000000208e-01 9.502974999999999284e+00 1.479420000000000073e+02 1.661595000000000027e+03
1.509999999999999953e-01 4.820110000000000228e-01 9.419824999999999449e+00 1.479515000000000100e+02 1.661599999999999909e+03
1.519999999999999962e-01 4.820119999999999960e-01 9.336829999999999075e+00 1.479580000000000268e+02 1.661605000000000018e+03
1.529999999999999971e-01 4.820130000000000248e-01 9.254190000000001248e+00 1.479605000000000246e+02 1.661605000000000018e+03
1.539999999999999980e-01 4.820140000000000535e-01 9.172259999999999636e+00 1.479610000000000127e+02 1.661605000000000018e+03
1.549999999999999989e-01 4.820145000000000124e-01 9.091280000000001138e+00 1.479600000000000080e+02 1.661605000000000018e+03
1.559999999999999998e-01 4.820145000000000124e-01 9.011454999999999771e+00 1.479569999999999936e+02 1.661605000000000018e+03
1.570000000000000007e-01 4.820149999999999713e-01 8.932845000000000368e+00 1.479524999999999864e+02 1.661610000000000127e+03
1.580000000000000016e-01 4.820145000000000124e-01 8.855599999999999028e+00 1.479459999999999980e+02 1.661610000000000127e+03
1.590000000000000024e-01 4.820139999999999980e-01 8.779630000000000933e+00 1.479365000000000236e+02 1.661605000000000018e+03
