# t [s], A [cm^2], U [cm/s], P [cPa], c [cm/s]
1.000000000000000021e-03 7.577304999999999735e-01 6.511999999999996958e-03 1.052579999999999956e+02 1.806259999999999991e+03
2.000000000000000042e-03 7.577240000000000641e-01 7.437850000000000190e-03 1.052295000000000016e+02 1.806259999999999991e+03
3.000000000000000062e-03 7.578070000000000084e-01 1.512059500000000056e-01 1.054069999999999965e+02 1.806289999999999964e+03
4.000000000000000083e-03 7.578365000000000240e-01 2.247919999999999918e-01 1.054960000000000093e+02 1.806309999999999945e+03
5.000000000000000104e-03 7.577580000000000426e-01 1.264664999999999817e-01 1.052754999999999939e+02 1.806275000000000091e+03
6.000000000000000125e-03 7.576745000000000285e-01 7.936500000000012989e-03 1.049145000000000039e+02 1.806210000000000036e+03
7.000000000000000146e-03 7.575720000000000232e-01 -1.571000000000000174e-01 1.044180000000000064e+02 1.806115000000000009e+03
8.000000000000000167e-03 7.573830000000000284e-01 -4.900799999999998491e-01 1.036049999999999898e+02 1.805974999999999909e+03
9.000000000000001055e-03 7.571010000000000240e-01 -1.000129999999999963e+00 1.024004500000000064e+02 1.805755000000000109e+03
1.000000000000000194e-02 7.567015000000000269e-01 -1.714234999999999953e+00 1.007060000000000031e+02 1.805449999999999818e+03
1.099999999999999936e-02 7.561689999999999801e-01 -2.635485000000000078e+00 9.844544999999999391e+01 1.805035000000000082e+03
1.200000000000000025e-02 7.555665000000000298e-01 -3.623874999999999957e+00 9.575540000000000873e+01 1.804530000000000200e+03
1.300000000000000114e-02 7.550090000000000412e-01 -4.437491999999999770e+00 9.298480000000000700e+01 1.803985000000000127e+03
1.400000000000000203e-02 7.545815000000000161e-01 -4.880316500000000168e+00 9.049339999999999407e+01 1.803470000000000027e+03
1.499999999999999944e-02 7.542949999999999378e-01 -4.896359999999999602e+00 8.846920000000000073e+01 1.803019999999999982e+03
1.600000000000000033e-02 7.540955000000000297e-01 -4.564059999999999562e+00 8.687805000000000177e+01 1.802639999999999873e+03
1.700000000000000122e-02 7.539035000000000597e-01 -4.031934999999999825e+00 8.552729999999999677e+01 1.802295000000000073e+03
1.800000000000000211e-02 7.536545000000000050e-01 -3.442820000000000213e+00 8.417895000000000039e+01 1.801954999999999927e+03
1.900000000000000300e-02 7.533209999999999074e-01 -2.876984300000000161e+00 8.265960000000001173e+01 1.801594999999999800e+03
2.000000000000000042e-02 7.529194999999999638e-01 -2.333924999999999805e+00 8.092279999999999518e+01 1.801195000000000164e+03
2.100000000000000130e-02 7.524920000000000497e-01 -1.757879999999999887e+00 7.903969999999999629e+01 1.800769999999999982e+03
2.200000000000000219e-02 7.520785000000000942e-01 -1.089119999999999866e+00 7.713145000000000095e+01 1.800335000000000036e+03
2.299999999999999961e-02 7.516960000000000308e-01 -3.111099999999997756e-01 7.528704999999999359e+01 1.799909999999999854e+03
2.400000000000000050e-02 7.513285000000000657e-01 5.273800000000004040e-01 7.350600000000000023e+01 1.799494999999999891e+03
2.500000000000000139e-02 7.509314999999999740e-01 1.319324999999999859e+00 7.168459999999998900e+01 1.799065000000000055e+03
2.600000000000000228e-02 7.504509999999999792e-01 1.928225000000000078e+00 6.964390000000000214e+01 1.798610000000000127e+03
2.700000000000000316e-02 7.498394999999999921e-01 2.227785000000000348e+00 6.718710000000000093e+01 1.798079999999999927e+03
2.800000000000000058e-02 7.490730000000000999e-01 2.140240000000000364e+00 6.416749999999998977e+01 1.797449999999999818e+03
2.900000000000000147e-02 7.481615000000000348e-01 1.660644999999999705e+00 6.054470000000000596e+01 1.796715000000000146e+03
3.000000000000000236e-02 7.471489999999999521e-01 8.584950000000004522e-01 5.640885000000000105e+01 1.795884999999999991e+03
3.099999999999999978e-02 7.461005000000000553e-01 -1.433499999999998664e-01 5.196470000000000056e+01 1.794985000000000127e+03
3.200000000000000067e-02 7.450864999999999849e-01 -1.201929999999999943e+00 4.748519999999999897e+01 1.794065000000000055e+03
3.300000000000000155e-02 7.441699999999999982e-01 -2.185150000000000148e+00 4.325515000000000043e+01 1.793179999999999836e+03
3.400000000000000244e-02 7.433955000000000979e-01 -2.992900000000000560e+00 3.952280000000000371e+01 1.792375000000000000e+03
3.500000000000000333e-02 7.427874999999999339e-01 -3.564070000000000071e+00 3.646940000000000026e+01 1.791690000000000055e+03
3.600000000000000422e-02 7.423549999999999871e-01 -3.873012499999999747e+00 3.419969999999999999e+01 1.791150000000000091e+03
3.700000000000000511e-02 7.420934999999999615e-01 -3.919000000000000039e+00 3.274869999999999948e+01 1.790775000000000091e+03
3.799999999999999906e-02 7.419934999999999725e-01 -3.713379999999999903e+00 3.210009999999999764e+01 1.790549999999999955e+03
3.899999999999999994e-02 7.420430000000000081e-01 -3.268664999999999932e+00 3.220850000000000080e+01 1.790494999999999891e+03
4.000000000000000083e-02 7.422329999999999206e-01 -2.592312999999999867e+00 3.301859999999999928e+01 1.790579999999999927e+03
4.100000000000000172e-02 7.425550000000000761e-01 -1.686225000000000085e+00 3.447639999999999816e+01 1.790805000000000064e+03
4.200000000000000261e-02 7.430029999999999690e-01 -5.510099999999997777e-01 3.653184999999999860e+01 1.791164999999999964e+03
4.300000000000000350e-02 7.435674999999999368e-01 8.076300000000000701e-01 3.913390000000000413e+01 1.791644999999999982e+03
4.400000000000000439e-02 7.442360000000000086e-01 2.373205000000000453e+00 4.222354999999999592e+01 1.792230000000000018e+03
4.499999999999999833e-02 7.449904999999999999e-01 4.115504999999999747e+00 4.572755000000000081e+01 1.792909999999999854e+03
4.599999999999999922e-02 7.458095000000000141e-01 5.991379999999999484e+00 4.955634999999999479e+01 1.793664999999999964e+03
4.700000000000000011e-02 7.466675000000000395e-01 7.948061999999999294e+00 5.360694999999999766e+01 1.794474999999999909e+03
4.800000000000000100e-02 7.475399999999999823e-01 9.929034999999998945e+00 5.776955000000000240e+01 1.795329999999999927e+03
4.900000000000000189e-02 7.484029999999999294e-01 1.187983999999999973e+01 6.193670000000000186e+01 1.796190000000000055e+03
5.000000000000000278e-02 7.492385000000000295e-01 1.375317500000000059e+01 6.601274999999999693e+01 1.797049999999999955e+03
5.100000000000000366e-02 7.500320000000000320e-01 1.551229499999999994e+01 6.992095000000000482e+01 1.797884999999999991e+03
5.200000000000000455e-02 7.507770000000000277e-01 1.713300000000000267e+01 7.360894999999999300e+01 1.798690000000000055e+03
5.300000000000000544e-02 7.514700000000000824e-01 1.860300000000000153e+01 7.704984999999999218e+01 1.799450000000000045e+03
5.399999999999999939e-02 7.521139999999999493e-01 1.992089999999999961e+01 8.024094999999999800e+01 1.800164999999999964e+03
5.500000000000000028e-02 7.527159999999999407e-01 2.109394999999999953e+01 8.320060000000000855e+01 1.800835000000000036e+03
5.600000000000000117e-02 7.532834999999999948e-01 2.213575000000000159e+01 8.596285000000000309e+01 1.801465000000000146e+03
5.700000000000000205e-02 7.538279999999999426e-01 2.306419999999999959e+01 8.857285000000000252e+01 1.802065000000000055e+03
5.800000000000000294e-02 7.543595000000000717e-01 2.389934999999999832e+01 9.108084999999999809e+01 1.802639999999999873e+03
5.900000000000000383e-02 7.548880000000000035e-01 2.466170000000000329e+01 9.353749999999999432e+01 1.803200000000000045e+03
6.000000000000000472e-02 7.554220000000000379e-01 2.537020000000000053e+01 9.598865000000000691e+01 1.803759999999999991e+03
6.099999999999999867e-02 7.559690000000000021e-01 2.604070000000000107e+01 9.847204999999999586e+01 1.804319999999999936e+03
6.199999999999999956e-02 7.565310000000000645e-01 2.668444999999999823e+01 1.010115999999999872e+02 1.804884999999999991e+03
6.300000000000000044e-02 7.571094999999999908e-01 2.730729999999999791e+01 1.036181500000000000e+02 1.805465000000000146e+03
6.400000000000000133e-02 7.577009999999999579e-01 2.790910000000000224e+01 1.062860000000000014e+02 1.806054999999999836e+03
6.500000000000000222e-02 7.582999999999999741e-01 2.848445000000000249e+01 1.089945000000000022e+02 1.806650000000000091e+03
6.600000000000000311e-02 7.588975000000000026e-01 2.902329999999999899e+01 1.117104999999999961e+02 1.807250000000000000e+03
6.700000000000000400e-02 7.594840000000000479e-01 2.951249999999999929e+01 1.143934999999999889e+02 1.807845000000000027e+03
6.800000000000000488e-02 7.600495000000000445e-01 2.993755000000000166e+01 1.169944999999999879e+02 1.808425000000000182e+03
6.900000000000000577e-02 7.605835000000000790e-01 3.028359999999999985e+01 1.194660000000000082e+02 1.808980000000000018e+03
7.000000000000000666e-02 7.610770000000000035e-01 3.053719999999999857e+01 1.217624999999999886e+02 1.809505000000000109e+03
7.100000000000000755e-02 7.615220000000000322e-01 3.068714999999999904e+01 1.238439999999999941e+02 1.809980000000000018e+03
7.200000000000000844e-02 7.619120000000000337e-01 3.072525000000000261e+01 1.256775000000000091e+02 1.810414999999999964e+03
7.300000000000000933e-02 7.622444999999999915e-01 3.064644999999999797e+01 1.272420000000000044e+02 1.810784999999999854e+03
7.399999999999999634e-02 7.625165000000000415e-01 3.044950000000000045e+01 1.285240000000000009e+02 1.811105000000000018e+03
7.499999999999999722e-02 7.627279999999999616e-01 3.013669999999999760e+01 1.295215000000000032e+02 1.811365000000000009e+03
7.599999999999999811e-02 7.628829999999999778e-01 2.971415000000000006e+01 1.302415000000000020e+02 1.811565000000000055e+03
7.699999999999999900e-02 7.629835000000000367e-01 2.919120000000000203e+01 1.307005000000000052e+02 1.811704999999999927e+03
7.799999999999999989e-02 7.630360000000000475e-01 2.858044999999999902e+01 1.309230000000000018e+02 1.811795000000000073e+03
7.900000000000000078e-02 7.630470000000000308e-01 2.789709999999999823e+01 1.309404999999999859e+02 1.811835000000000036e+03
8.000000000000000167e-02 7.630254999999999121e-01 2.715820000000000078e+01 1.307874999999999943e+02 1.811835000000000036e+03
8.100000000000000255e-02 7.629779999999999340e-01 2.638215000000000288e+01 1.305040000000000191e+02 1.811805000000000064e+03
8.200000000000000344e-02 7.629135000000000222e-01 2.558735000000000070e+01 1.301289999999999907e+02 1.811750000000000000e+03
8.300000000000000433e-02 7.628405000000000324e-01 2.479155000000000086e+01 1.297015000000000100e+02 1.811680000000000064e+03
8.400000000000000522e-02 7.627654999999999852e-01 2.401079999999999970e+01 1.292565000000000168e+02 1.811595000000000027e+03
8.500000000000000611e-02 7.626939999999999831e-01 2.325854999999999961e+01 1.288245000000000005e+02 1.811515000000000100e+03
8.600000000000000699e-02 7.626304999999999890e-01 2.254500000000000171e+01 1.284290000000000020e+02 1.811434999999999945e+03
8.700000000000000788e-02 7.625779999999999781e-01 2.187684999999999746e+01 1.280860000000000127e+02 1.811360000000000127e+03
8.800000000000000877e-02 7.625370000000000203e-01 2.125675000000000026e+01 1.278034999999999997e+02 1.811295000000000073e+03
8.899999999999999578e-02 7.625075000000000047e-01 2.068384999999999962e+01 1.275815000000000055e+02 1.811244999999999891e+03
8.999999999999999667e-02 7.624859999999999971e-01 2.015384999999999849e+01 1.274130000000000109e+02 1.811200000000000045e+03
9.099999999999999756e-02 7.624695000000000222e-01 1.965960000000000107e+01 1.272835000000000036e+02 1.811159999999999854e+03
9.199999999999999845e-02 7.624545000000000350e-01 1.919180000000000064e+01 1.271749999999999972e+02 1.811130000000000109e+03
9.299999999999999933e-02 7.624360000000000026e-01 1.873959999999999937e+01 1.270649999999999977e+02 1.811099999999999909e+03
9.400000000000000022e-02 7.624085000000000445e-01 1.829155000000000086e+01 1.269300000000000068e+02 1.811069999999999936e+03
9.500000000000000111e-02 7.623670000000000169e-01 1.783619999999999806e+01 1.267459999999999951e+02 1.811025000000000091e+03
9.600000000000000200e-02 7.623074999999999157e-01 1.736289999999999978e+01 1.264915000000000020e+02 1.810970000000000027e+03
9.700000000000000289e-02 7.622275000000000578e-01 1.686245000000000260e+01 1.261475000000000080e+02 1.810904999999999973e+03
9.800000000000000377e-02 7.621229999999999949e-01 1.632789999999999964e+01 1.257005000000000052e+02 1.810809999999999945e+03
9.900000000000000466e-02 7.619934999999999903e-01 1.575469999999999970e+01 1.251415000000000077e+02 1.810700000000000045e+03
1.000000000000000056e-01 7.618395000000000028e-01 1.514150000000000063e+01 1.244685000000000059e+02 1.810559999999999945e+03
1.010000000000000064e-01 7.616625000000000201e-01 1.448990000000000045e+01 1.236854999999999905e+02 1.810400000000000091e+03
1.020000000000000073e-01 7.614655000000000173e-01 1.380465000000000053e+01 1.228034999999999997e+02 1.810224999999999909e+03
1.030000000000000082e-01 7.612529999999999575e-01 1.309337999999999980e+01 1.218400000000000034e+02 1.810025000000000091e+03
1.040000000000000091e-01 7.610295000000000254e-01 1.236620999999999881e+01 1.208170000000000073e+02 1.809815000000000055e+03
1.050000000000000100e-01 7.608019999999999783e-01 1.163513500000000001e+01 1.197615000000000123e+02 1.809595000000000027e+03
1.059999999999999970e-01 7.605760000000000298e-01 1.091337000000000046e+01 1.187030000000000030e+02 1.809369999999999891e+03
1.069999999999999979e-01 7.603584999999999372e-01 1.021468000000000131e+01 1.176700000000000017e+02 1.809150000000000091e+03
1.079999999999999988e-01 7.601560000000000539e-01 9.552445000000000519e+00 1.166940000000000026e+02 1.808940000000000055e+03
1.089999999999999997e-01 7.599735000000000795e-01 8.939130000000000464e+00 1.158015000000000043e+02 1.808735000000000127e+03
1.100000000000000006e-01 7.598154999999999770e-01 8.385405000000000442e+00 1.150149999999999864e+02 1.808559999999999945e+03
1.110000000000000014e-01 7.596855000000000135e-01 7.899815000000000254e+00 1.143540000000000134e+02 1.808405000000000200e+03
1.120000000000000023e-01 7.595855000000000246e-01 7.488120000000000331e+00 1.138315000000000055e+02 1.808280000000000200e+03
1.130000000000000032e-01 7.595164999999999278e-01 7.153364999999999974e+00 1.134530000000000030e+02 1.808175000000000182e+03
1.140000000000000041e-01 7.594784999999999453e-01 6.895640000000000214e+00 1.132185000000000059e+02 1.808105000000000018e+03
1.150000000000000050e-01 7.594680000000000319e-01 6.712279999999999802e+00 1.131229999999999905e+02 1.808070000000000164e+03
1.160000000000000059e-01 7.594834999999999781e-01 6.598169999999999646e+00 1.131539999999999964e+02 1.808054999999999836e+03
1.170000000000000068e-01 7.595205000000000428e-01 6.546145000000000103e+00 1.132964999999999947e+02 1.808065000000000055e+03
1.180000000000000077e-01 7.595754999999999590e-01 6.547505000000000130e+00 1.135310000000000059e+02 1.808094999999999800e+03
1.190000000000000085e-01 7.596430000000000682e-01 6.592494999999999550e+00 1.138369999999999891e+02 1.808150000000000091e+03
1.200000000000000094e-01 7.597190000000000332e-01 6.670930000000000248e+00 1.141924999999999955e+02 1.808210000000000036e+03
1.209999999999999964e-01 7.597994999999999610e-01 6.772590000000000110e+00 1.145759999999999934e+02 1.808279999999999973e+03
1.219999999999999973e-01 7.598799999999999999e-01 6.887739999999999974e+00 1.149695000000000107e+02 1.808355000000000018e+03
1.229999999999999982e-01 7.599575000000000635e-01 7.007455000000000211e+00 1.153534999999999968e+02 1.808430000000000064e+03
1.239999999999999991e-01 7.600284999999999958e-01 7.123884999999999579e+00 1.157139999999999986e+02 1.808505000000000109e+03
1.250000000000000000e-01 7.600919999999999899e-01 7.230489999999999640e+00 1.160404999999999944e+02 1.808570000000000164e+03
1.260000000000000009e-01 7.601459999999999884e-01 7.322129999999999583e+00 1.163240000000000123e+02 1.808634999999999991e+03
1.270000000000000018e-01 7.601895000000000735e-01 7.395119999999999472e+00 1.165600000000000023e+02 1.808684999999999945e+03
1.280000000000000027e-01 7.602234999999999410e-01 7.447219999999999729e+00 1.167469999999999999e+02 1.808730000000000018e+03
1.290000000000000036e-01 7.602474999999999650e-01 7.477594999999999992e+00 1.168859999999999957e+02 1.808764999999999873e+03
1.300000000000000044e-01 7.602630000000000221e-01 7.486644999999999328e+00 1.169805000000000064e+02 1.808795000000000073e+03
1.310000000000000053e-01 7.602709999999999191e-01 7.475904999999999134e+00 1.170364999999999895e+02 1.808805000000000064e+03
1.320000000000000062e-01 7.602729999999999766e-01 7.447815000000000296e+00 1.170610000000000070e+02 1.808820000000000164e+03
1.330000000000000071e-01 7.602714999999999890e-01 7.405525000000000801e+00 1.170614999999999952e+02 1.808825000000000045e+03
1.340000000000000080e-01 7.602679999999999438e-01 7.352630000000000443e+00 1.170474999999999994e+02 1.808824999999999818e+03
1.350000000000000089e-01 7.602640000000000509e-01 7.292925000000000324e+00 1.170264999999999986e+02 1.808824999999999818e+03
1.360000000000000098e-01 7.602610000000000756e-01 7.230154999999999887e+00 1.170065000000000026e+02 1.808824999999999818e+03
1.370000000000000107e-01 7.602605000000000057e-01 7.167775000000000674e+00 1.169944999999999879e+02 1.808824999999999818e+03
1.380000000000000115e-01 7.602634999999999810e-01 7.108755000000000379e+00 1.169954999999999927e+02 1.808829999999999927e+03
1.390000000000000124e-01 7.602705000000000712e-01 7.055400000000000560e+00 1.170140000000000100e+02 1.808835000000000036e+03
1.400000000000000133e-01 7.602819999999999023e-01 7.009290000000000020e+00 1.170504999999999995e+02 1.808840000000000146e+03
1.410000000000000142e-01 7.602974999999999595e-01 6.971174999999999677e+00 1.171064999999999969e+02 1.808849999999999909e+03
1.420000000000000151e-01 7.603165000000000617e-01 6.941060000000000230e+00 1.171790000000000020e+02 1.808869999999999891e+03
1.430000000000000160e-01 7.603379999999999583e-01 6.918260000000000076e+00 1.172650000000000006e+02 1.808884999999999991e+03
1.440000000000000169e-01 7.603610000000000646e-01 6.901510000000000034e+00 1.173605000000000018e+02 1.808904999999999973e+03
1.450000000000000178e-01 7.603839999999999488e-01 6.889165000000000205e+00 1.174590000000000032e+02 1.808924999999999955e+03
1.459999999999999909e-01 7.604064999999999852e-01 6.879369999999999763e+00 1.175564999999999998e+02 1.808944999999999936e+03
1.469999999999999918e-01 7.604265000000000052e-01 6.870229999999999393e+00 1.176465000000000032e+02 1.808960000000000036e+03
1.479999999999999927e-01 7.604435000000000500e-01 6.860015000000000640e+00 1.177245000000000061e+02 1.808980000000000018e+03
1.489999999999999936e-01 7.604564999999999797e-01 6.847265000000000157e+00 1.177854999999999990e+02 1.808994999999999891e+03
1.499999999999999944e-01 7.604655000000000165e-01 6.830915000000000070e+00 1.178280000000000030e+02 1.809005000000000109e+03
1.509999999999999953e-01 7.604694999999999094e-01 6.810360000000000191e+00 1.178495000000000061e+02 1.809015000000000100e+03
1.519999999999999962e-01 7.604690000000000616e-01 6.785484999999999545e+00 1.178509999999999991e+02 1.809014999999999873e+03
1.529999999999999971e-01 7.604649999999999466e-01 6.756664999999999921e+00 1.178325000000000102e+02 1.809014999999999873e+03
1.539999999999999980e-01 7.604569999999999386e-01 6.724705000000000155e+00 1.177974999999999994e+02 1.809005000000000109e+03
1.549999999999999989e-01 7.604469999999999841e-01 6.690839999999999677e+00 1.177494999999999976e+02 1.808994999999999891e+03
1.559999999999999998e-01 7.604349999999999721e-01 6.656615000000000393e+00 1.176935000000000002e+02 1.808990000000000009e+03
1.570000000000000007e-01 7.604225000000000012e-01 6.623884999999999579e+00 1.176339999999999861e+02 1.808974999999999909e+03
1.580000000000000016e-01 7.604115000000000180e-01 6.594660000000000188e+00 1.175765000000000100e+02 1.808960000000000036e+03
1.590000000000000024e-01 7.604020000000000223e-01 6.571094999999999686e+00 1.175280000000000058e+02 1.808949999999999818e+03
