# t [s], A [cm^2], U [cm/s], P [cPa], c [cm/s]
1.000000000000000021e-03 2.078745000000000176e-01 2.179294999999999982e-01 1.037164999999999964e+02 2.213795000000000073e+03
2.000000000000000042e-03 2.078185000000000171e-01 1.706227500000000230e+00 1.003738999999999919e+02 2.213360000000000127e+03
3.000000000000000062e-03 2.076660000000000172e-01 3.620840500000000350e+00 9.549885000000000446e+01 2.212234999999999673e+03
4.000000000000000083e-03 2.074584999999999901e-01 5.813588499999999826e+00 9.001130000000000564e+01 2.210734999999999673e+03
5.000000000000000104e-03 2.072370000000000045e-01 8.197559999999999292e+00 8.496725000000000705e+01 2.209140000000000327e+03
6.000000000000000125e-03 2.070255000000000012e-01 1.056979999999999897e+01 8.077700000000000102e+01 2.207644999999999982e+03
7.000000000000000146e-03 2.068294999999999995e-01 1.266901999999999973e+01 7.718495000000000061e+01 2.206284999999999854e+03
8.000000000000000167e-03 2.066514999999999880e-01 1.439784000000000042e+01 7.395480000000000587e+01 2.205074999999999818e+03
9.000000000000001055e-03 2.064975000000000005e-01 1.580230000000000068e+01 7.118285000000000196e+01 2.204050000000000182e+03
1.000000000000000194e-02 2.063709999999999989e-01 1.692340000000000089e+01 6.896219999999999573e+01 2.203215000000000146e+03
1.099999999999999936e-02 2.062709999999999821e-01 1.778860000000000241e+01 6.727580000000000382e+01 2.202559999999999945e+03
1.200000000000000025e-02 2.061955000000000038e-01 1.842140000000000200e+01 6.605719999999999459e+01 2.202074999999999818e+03
1.300000000000000114e-02 2.061385000000000023e-01 1.882280000000000086e+01 6.515869999999999607e+01 2.201720000000000255e+03
1.400000000000000203e-02 2.060934999999999850e-01 1.900760000000000005e+01 6.441525000000000034e+01 2.201449999999999818e+03
1.499999999999999944e-02 2.060599999999999932e-01 1.907319999999999993e+01 6.386185000000000400e+01 2.201250000000000000e+03
1.600000000000000033e-02 2.060469999999999802e-01 1.919950000000000045e+01 6.383480000000000132e+01 2.201175000000000182e+03
1.700000000000000122e-02 2.060655000000000125e-01 1.955900000000000105e+01 6.478364999999999441e+01 2.201305000000000291e+03
1.800000000000000211e-02 2.061255000000000170e-01 2.021215000000000117e+01 6.693630000000000280e+01 2.201704999999999927e+03
1.900000000000000300e-02 2.062215000000000020e-01 2.106654999999999944e+01 7.008010000000000161e+01 2.202340000000000146e+03
2.000000000000000042e-02 2.063385000000000080e-01 2.191955000000000098e+01 7.359799999999999898e+01 2.203130000000000109e+03
2.100000000000000130e-02 2.064539999999999986e-01 2.255004999999999882e+01 7.671359999999999957e+01 2.203925000000000182e+03
2.200000000000000219e-02 2.065460000000000074e-01 2.280744999999999933e+01 7.879534999999999911e+01 2.204570000000000164e+03
2.299999999999999961e-02 2.066020000000000079e-01 2.266100000000000136e+01 7.957505000000000450e+01 2.204980000000000018e+03
2.400000000000000050e-02 2.066199999999999981e-01 2.219380000000000308e+01 7.919894999999999641e+01 2.205130000000000109e+03
2.500000000000000139e-02 2.066089999999999871e-01 2.155385000000000062e+01 7.811140000000000327e+01 2.205079999999999927e+03
2.600000000000000228e-02 2.065830000000000166e-01 2.088725000000000165e+01 7.684194999999999709e+01 2.204914999999999964e+03
2.700000000000000316e-02 2.065549999999999886e-01 2.028340000000000032e+01 7.579439999999999600e+01 2.204730000000000018e+03
2.800000000000000058e-02 2.065325000000000077e-01 1.975180000000000291e+01 7.511920000000000641e+01 2.204569999999999709e+03
2.900000000000000147e-02 2.065150000000000041e-01 1.923349999999999937e+01 7.470335000000000036e+01 2.204449999999999818e+03
3.000000000000000236e-02 2.064975000000000005e-01 1.863714999999999833e+01 7.426189999999999714e+01 2.204329999999999927e+03
3.099999999999999978e-02 2.064714999999999745e-01 1.788510000000000133e+01 7.348595000000000255e+01 2.204159999999999854e+03
3.200000000000000067e-02 2.064305000000000168e-01 1.695284999999999798e+01 7.219010000000000105e+01 2.203895000000000437e+03
3.300000000000000155e-02 2.063730000000000009e-01 1.588835000000000086e+01 7.040959999999999752e+01 2.203519999999999982e+03
3.400000000000000244e-02 2.063055000000000028e-01 1.480540000000000056e+01 6.841330000000000666e+01 2.203070000000000164e+03
3.500000000000000333e-02 2.062399999999999789e-01 1.385190000000000055e+01 6.662874999999999659e+01 2.202619999999999891e+03
3.600000000000000422e-02 2.061890000000000112e-01 1.316619999999999990e+01 6.550755000000000905e+01 2.202269999999999982e+03
3.700000000000000511e-02 2.061669999999999892e-01 1.283634999999999948e+01 6.538319999999998799e+01 2.202099999999999909e+03
3.799999999999999906e-02 2.061795000000000155e-01 1.287679999999999936e+01 6.636934999999999718e+01 2.202159999999999854e+03
3.899999999999999994e-02 2.062260000000000204e-01 1.322649999999999970e+01 6.832874999999999943e+01 2.202449999999999818e+03
4.000000000000000083e-02 2.063004999999999978e-01 1.376679999999999993e+01 7.091294999999999504e+01 2.202934999999999945e+03
4.100000000000000172e-02 2.063889999999999891e-01 1.435064999999999991e+01 7.365149999999999864e+01 2.203519999999999982e+03
4.200000000000000261e-02 2.064759999999999929e-01 1.483330000000000126e+01 7.605924999999999159e+01 2.204104999999999563e+03
4.300000000000000350e-02 2.065474999999999950e-01 1.509795000000000087e+01 7.773260000000000502e+01 2.204595000000000255e+03
4.400000000000000439e-02 2.065914999999999835e-01 1.507124999999999915e+01 7.841349999999999909e+01 2.204909999999999854e+03
4.499999999999999833e-02 2.066014999999999935e-01 1.472625000000000028e+01 7.801239999999999952e+01 2.204994999999999891e+03
4.599999999999999922e-02 2.065770000000000106e-01 1.407659999999999911e+01 7.659229999999999450e+01 2.204849999999999909e+03
4.700000000000000011e-02 2.065190000000000081e-01 1.316399999999999970e+01 7.432499999999998863e+01 2.204475000000000364e+03
4.800000000000000100e-02 2.064334999999999920e-01 1.204387000000000008e+01 7.143640000000000612e+01 2.203909999999999854e+03
4.900000000000000189e-02 2.063280000000000114e-01 1.077348999999999890e+01 6.815614999999999668e+01 2.203199999999999818e+03
5.000000000000000278e-02 2.062090000000000034e-01 9.404869999999998953e+00 6.468330000000000268e+01 2.202399999999999636e+03
5.100000000000000366e-02 2.060819999999999874e-01 7.982569999999999943e+00 6.117179999999999751e+01 2.201550000000000182e+03
5.200000000000000455e-02 2.059524999999999828e-01 6.545664999999999623e+00 5.773389999999999844e+01 2.200675000000000182e+03
5.300000000000000544e-02 2.058250000000000079e-01 5.131625000000000547e+00 5.445544999999999902e+01 2.199805000000000291e+03
5.399999999999999939e-02 2.057029999999999970e-01 3.780355000000000132e+00 5.141415000000000646e+01 2.198974999999999909e+03
5.500000000000000028e-02 2.055890000000000217e-01 2.536770499999999817e+00 4.869535000000000480e+01 2.198199999999999818e+03
5.600000000000000117e-02 2.054880000000000040e-01 1.450987500000000097e+00 4.639990000000000236e+01 2.197510000000000218e+03
5.700000000000000205e-02 2.054044999999999899e-01 5.761699999999999600e-01 4.464329999999999643e+01 2.196934999999999945e+03
5.800000000000000294e-02 2.053424999999999834e-01 -3.550500000000000878e-02 4.354680000000000462e+01 2.196494999999999891e+03
5.900000000000000383e-02 2.053065000000000029e-01 -3.377014999999999878e-01 4.322405000000000541e+01 2.196230000000000018e+03
6.000000000000000472e-02 2.052994999999999959e-01 -2.946710000000000163e-01 4.376570000000000249e+01 2.196170000000000073e+03
6.099999999999999867e-02 2.053264999999999951e-01 1.150869999999999393e-01 4.522724999999999795e+01 2.196320000000000164e+03
6.199999999999999956e-02 2.053869999999999862e-01 8.967594999999999317e-01 4.762064999999999770e+01 2.196704999999999927e+03
6.300000000000000044e-02 2.054819999999999980e-01 2.038866500000000137e+00 5.091244999999999976e+01 2.197320000000000164e+03
6.400000000000000133e-02 2.056100000000000150e-01 3.514435500000000268e+00 5.502615000000000123e+01 2.198159999999999854e+03
6.500000000000000222e-02 2.057670000000000055e-01 5.283330000000000304e+00 5.984989999999999810e+01 2.199210000000000036e+03
6.600000000000000311e-02 2.059505000000000086e-01 7.295299999999999230e+00 6.524559999999999604e+01 2.200430000000000291e+03
6.700000000000000400e-02 2.061544999999999905e-01 9.493380000000000152e+00 7.106014999999999304e+01 2.201800000000000182e+03
6.800000000000000488e-02 2.063744999999999885e-01 1.181747499999999995e+01 7.713599999999999568e+01 2.203279999999999745e+03
6.900000000000000577e-02 2.066034999999999955e-01 1.420808999999999855e+01 8.332189999999999941e+01 2.204829999999999927e+03
7.000000000000000666e-02 2.068364999999999787e-01 1.660930000000000106e+01 8.948189999999999600e+01 2.206425000000000182e+03
7.100000000000000755e-02 2.070700000000000041e-01 1.897200000000000131e+01 9.550364999999999327e+01 2.208014999999999873e+03
7.200000000000000844e-02 2.072990000000000110e-01 2.125634999999999764e+01 1.013027500000000032e+02 2.209585000000000036e+03
7.300000000000000933e-02 2.075215000000000254e-01 2.343270000000000053e+01 1.068282499999999970e+02 2.211114999999999782e+03
7.399999999999999634e-02 2.077344999999999886e-01 2.548235000000000028e+01 1.120585000000000093e+02 2.212585000000000036e+03
7.499999999999999722e-02 2.079380000000000117e-01 2.739685000000000059e+01 1.170024999999999977e+02 2.214000000000000000e+03
7.599999999999999811e-02 2.081324999999999981e-01 2.917634999999999934e+01 1.216889999999999930e+02 2.215350000000000364e+03
7.699999999999999900e-02 2.083190000000000042e-01 3.082740000000000080e+01 1.261629999999999967e+02 2.216640000000000327e+03
7.799999999999999989e-02 2.084985000000000033e-01 3.236039999999999850e+01 1.304730000000000132e+02 2.217885000000000218e+03
7.900000000000000078e-02 2.086719999999999964e-01 3.378755000000000308e+01 1.346665000000000134e+02 2.219100000000000364e+03
8.000000000000000167e-02 2.088419999999999999e-01 3.512010000000000076e+01 1.387824999999999989e+02 2.220279999999999745e+03
8.100000000000000255e-02 2.090090000000000003e-01 3.636749999999999972e+01 1.428470000000000084e+02 2.221444999999999709e+03
8.200000000000000344e-02 2.091735000000000122e-01 3.753615000000000634e+01 1.468714999999999975e+02 2.222594999999999800e+03
8.300000000000000433e-02 2.093359999999999943e-01 3.862900000000000489e+01 1.508514999999999873e+02 2.223735000000000127e+03
8.400000000000000522e-02 2.094964999999999744e-01 3.964565000000000339e+01 1.547715000000000032e+02 2.224850000000000364e+03
8.500000000000000611e-02 2.096534999999999926e-01 4.058265000000000100e+01 1.586055000000000064e+02 2.225949999999999818e+03
8.600000000000000699e-02 2.098070000000000213e-01 4.143420000000000414e+01 1.623185000000000002e+02 2.227019999999999982e+03
8.700000000000000788e-02 2.099550000000000027e-01 4.219249999999999545e+01 1.658734999999999786e+02 2.228054999999999836e+03
8.800000000000000877e-02 2.100960000000000050e-01 4.284850000000000136e+01 1.692295000000000016e+02 2.229045000000000073e+03
8.899999999999999578e-02 2.102295000000000136e-01 4.339244999999999663e+01 1.723485000000000014e+02 2.229989999999999782e+03
8.999999999999999667e-02 2.103530000000000122e-01 4.381475000000000364e+01 1.751929999999999836e+02 2.230855000000000018e+03
9.099999999999999756e-02 2.104659999999999864e-01 4.410594999999999999e+01 1.777284999999999968e+02 2.231649999999999636e+03
9.199999999999999845e-02 2.105670000000000042e-01 4.425809999999999889e+01 1.799269999999999925e+02 2.232364999999999782e+03
9.299999999999999933e-02 2.106544999999999945e-01 4.426480000000000103e+01 1.817659999999999911e+02 2.232989999999999782e+03
9.400000000000000022e-02 2.107279999999999986e-01 4.412219999999999942e+01 1.832295000000000016e+02 2.233510000000000218e+03
9.500000000000000111e-02 2.107870000000000021e-01 4.382939999999999969e+01 1.843120000000000118e+02 2.233935000000000400e+03
9.600000000000000200e-02 2.108320000000000194e-01 4.338889999999999958e+01 1.850169999999999959e+02 2.234260000000000218e+03
9.700000000000000289e-02 2.108619999999999939e-01 4.280710000000000548e+01 1.853559999999999945e+02 2.234484999999999673e+03
9.800000000000000377e-02 2.108784999999999965e-01 4.209375000000000000e+01 1.853545000000000016e+02 2.234614999999999782e+03
9.900000000000000466e-02 2.108820000000000139e-01 4.126234999999999786e+01 1.850430000000000064e+02 2.234650000000000091e+03
1.000000000000000056e-01 2.108734999999999915e-01 4.032925000000000182e+01 1.844625000000000057e+02 2.234599999999999909e+03
1.010000000000000064e-01 2.108555000000000013e-01 3.931300000000000239e+01 1.836585000000000036e+02 2.234485000000000127e+03
1.020000000000000073e-01 2.108289999999999886e-01 3.823359999999999559e+01 1.826795000000000186e+02 2.234305000000000291e+03
1.030000000000000082e-01 2.107950000000000101e-01 3.711155000000000115e+01 1.815749999999999886e+02 2.234074999999999818e+03
1.040000000000000091e-01 2.107565000000000133e-01 3.596705000000000041e+01 1.803919999999999959e+02 2.233815000000000055e+03
1.050000000000000100e-01 2.107144999999999990e-01 3.481895000000000095e+01 1.791754999999999995e+02 2.233525000000000091e+03
1.059999999999999970e-01 2.106709999999999972e-01 3.368449999999999989e+01 1.779639999999999986e+02 2.233224999999999909e+03
1.069999999999999979e-01 2.106274999999999953e-01 3.257815000000000083e+01 1.767880000000000109e+02 2.232920000000000073e+03
1.079999999999999988e-01 2.105845000000000078e-01 3.151190000000000069e+01 1.756719999999999970e+02 2.232625000000000000e+03
1.089999999999999997e-01 2.105434999999999945e-01 3.049399999999999977e+01 1.746315000000000168e+02 2.232329999999999927e+03
1.100000000000000006e-01 2.105045000000000111e-01 2.952955000000000041e+01 1.736739999999999782e+02 2.232055000000000291e+03
1.110000000000000014e-01 2.104685000000000028e-01 2.862004999999999910e+01 1.727980000000000018e+02 2.231800000000000182e+03
1.120000000000000023e-01 2.104345000000000243e-01 2.776375000000000171e+01 1.719939999999999998e+02 2.231559999999999945e+03
1.130000000000000032e-01 2.104030000000000067e-01 2.695555000000000234e+01 1.712454999999999927e+02 2.231335000000000036e+03
1.140000000000000041e-01 2.103729999999999767e-01 2.618779999999999930e+01 1.705294999999999845e+02 2.231119999999999891e+03
1.150000000000000050e-01 2.103440000000000032e-01 2.545064999999999955e+01 1.698195000000000050e+02 2.230914999999999964e+03
1.160000000000000059e-01 2.103145000000000153e-01 2.473274999999999935e+01 1.690855000000000246e+02 2.230704999999999927e+03
1.170000000000000068e-01 2.102835000000000121e-01 2.402210000000000178e+01 1.682969999999999970e+02 2.230489999999999782e+03
1.180000000000000077e-01 2.102499999999999925e-01 2.330664999999999765e+01 1.674234999999999900e+02 2.230255000000000109e+03
1.190000000000000085e-01 2.102134999999999976e-01 2.257535000000000025e+01 1.664395000000000095e+02 2.230000000000000000e+03
1.200000000000000094e-01 2.101724999999999843e-01 2.181859999999999999e+01 1.653229999999999791e+02 2.229715000000000146e+03
1.209999999999999964e-01 2.101264999999999938e-01 2.102899999999999991e+01 1.640595000000000141e+02 2.229394999999999982e+03
1.219999999999999973e-01 2.100750000000000117e-01 2.020195000000000007e+01 1.626409999999999911e+02 2.229039999999999964e+03
1.229999999999999982e-01 2.100180000000000102e-01 1.933575000000000088e+01 1.610685000000000002e+02 2.228644999999999982e+03
1.239999999999999991e-01 2.099555000000000171e-01 1.843199999999999861e+01 1.593520000000000039e+02 2.228215000000000146e+03
1.250000000000000000e-01 2.098875000000000046e-01 1.749549999999999983e+01 1.575079999999999814e+02 2.227744999999999891e+03
1.260000000000000009e-01 2.098150000000000015e-01 1.653395000000000081e+01 1.555614999999999952e+02 2.227239999999999782e+03
1.270000000000000018e-01 2.097394999999999954e-01 1.555780000000000030e+01 1.535444999999999993e+02 2.226720000000000255e+03
1.280000000000000027e-01 2.096615000000000006e-01 1.457934999999999803e+01 1.514920000000000186e+02 2.226175000000000182e+03
1.290000000000000036e-01 2.095819999999999905e-01 1.361230000000000118e+01 1.494435000000000002e+02 2.225630000000000109e+03
1.300000000000000044e-01 2.095035000000000092e-01 1.267089999999999961e+01 1.474360000000000070e+02 2.225079999999999927e+03
1.310000000000000053e-01 2.094260000000000010e-01 1.176924999999999955e+01 1.455084999999999980e+02 2.224545000000000073e+03
1.320000000000000062e-01 2.093524999999999969e-01 1.092042999999999964e+01 1.436940000000000168e+02 2.224029999999999745e+03
1.330000000000000071e-01 2.092824999999999824e-01 1.013586000000000098e+01 1.420215000000000032e+02 2.223545000000000073e+03
1.340000000000000080e-01 2.092180000000000151e-01 9.424834999999999852e+00 1.405130000000000052e+02 2.223090000000000146e+03
1.350000000000000089e-01 2.091589999999999838e-01 8.794055000000000177e+00 1.391829999999999927e+02 2.222680000000000291e+03
1.360000000000000098e-01 2.091075000000000017e-01 8.247529999999999362e+00 1.380395000000000039e+02 2.222315000000000055e+03
1.370000000000000107e-01 2.090624999999999845e-01 7.786464999999999748e+00 1.370825000000000102e+02 2.221994999999999891e+03
1.380000000000000115e-01 2.090245000000000020e-01 7.409394999999999953e+00 1.363050000000000068e+02 2.221725000000000364e+03
1.390000000000000124e-01 2.089924999999999977e-01 7.112465000000000259e+00 1.356949999999999932e+02 2.221500000000000000e+03
1.400000000000000133e-01 2.089670000000000138e-01 6.889759999999999884e+00 1.352355000000000018e+02 2.221315000000000055e+03
1.410000000000000142e-01 2.089475000000000082e-01 6.733729999999999549e+00 1.349060000000000059e+02 2.221170000000000073e+03
1.420000000000000151e-01 2.089320000000000066e-01 6.635609999999999786e+00 1.346845000000000141e+02 2.221059999999999945e+03
1.430000000000000160e-01 2.089210000000000234e-01 6.585874999999999702e+00 1.345480000000000018e+02 2.220975000000000364e+03
1.440000000000000169e-01 2.089135000000000020e-01 6.574650000000000105e+00 1.344730000000000132e+02 2.220920000000000073e+03
1.450000000000000178e-01 2.089080000000000104e-01 6.592109999999999914e+00 1.344379999999999882e+02 2.220875000000000000e+03
1.459999999999999909e-01 2.089044999999999930e-01 6.628820000000000157e+00 1.344214999999999804e+02 2.220850000000000364e+03
1.469999999999999918e-01 2.089010000000000034e-01 6.676040000000000418e+00 1.344064999999999941e+02 2.220824999999999818e+03
1.479999999999999927e-01 2.088984999999999870e-01 6.725945000000000285e+00 1.343770000000000095e+02 2.220800000000000182e+03
1.489999999999999936e-01 2.088949999999999974e-01 6.771860000000000213e+00 1.343204999999999814e+02 2.220779999999999745e+03
1.499999999999999944e-01 2.088915000000000077e-01 6.808324999999999960e+00 1.342289999999999850e+02 2.220750000000000000e+03
1.509999999999999953e-01 2.088860000000000161e-01 6.831249999999999822e+00 1.340960000000000036e+02 2.220715000000000146e+03
1.519999999999999962e-01 2.088800000000000101e-01 6.837875000000000369e+00 1.339180000000000064e+02 2.220670000000000073e+03
1.529999999999999971e-01 2.088720000000000021e-01 6.826734999999999332e+00 1.336954999999999814e+02 2.220619999999999891e+03
1.539999999999999980e-01 2.088625000000000065e-01 6.797599999999999199e+00 1.334314999999999998e+02 2.220555000000000291e+03
1.549999999999999989e-01 2.088519999999999821e-01 6.751305000000000334e+00 1.331295000000000073e+02 2.220484999999999673e+03
1.559999999999999998e-01 2.088399999999999979e-01 6.689564999999999984e+00 1.327970000000000255e+02 2.220400000000000091e+03
1.570000000000000007e-01 2.088269999999999849e-01 6.614749999999999908e+00 1.324399999999999977e+02 2.220315000000000055e+03
1.580000000000000016e-01 2.088129999999999986e-01 6.529659999999999798e+00 1.320679999999999836e+02 2.220220000000000255e+03
1.590000000000000024e-01 2.087990000000000124e-01 6.437255000000000393e+00 1.316875000000000000e+02 2.220125000000000000e+03
