# t [s], A [cm^2], U [cm/s], P [cPa], c [cm/s]
1.000000000000000021e-03 4.689889999999999892e-01 3.614399999999996782e-03 9.547829999999999018e+01 1.456065000000000055e+03
2.000000000000000042e-03 4.689830000000000387e-01 -1.065849999999997529e-04 9.546430000000000859e+01 1.456059999999999945e+03
3.000000000000000062e-03 4.689975000000000116e-01 2.770454999999999793e-02 9.548820000000000618e+01 1.456070000000000164e+03
4.000000000000000083e-03 4.690360000000000085e-01 1.059761499999999912e-01 9.557999999999999829e+01 1.456095000000000027e+03
5.000000000000000104e-03 4.690549999999999997e-01 1.503821500000000200e-01 9.563589999999999236e+01 1.456110000000000127e+03
6.000000000000000125e-03 4.690364999999999673e-01 1.221211500000000116e-01 9.558899999999999864e+01 1.456105000000000018e+03
7.000000000000000146e-03 4.690020000000000300e-01 5.935899999999999510e-02 9.546399999999999864e+01 1.456075000000000045e+03
8.000000000000000167e-03 4.689735000000000431e-01 5.815000000000014602e-03 9.531234999999999502e+01 1.456035000000000082e+03
9.000000000000001055e-03 4.689375000000000071e-01 -6.816850000000002074e-02 9.511289999999999623e+01 1.455990000000000009e+03
1.000000000000000194e-02 4.688775000000000581e-01 -2.024749999999999606e-01 9.481770000000000209e+01 1.455920000000000073e+03
1.099999999999999936e-02 4.687875000000000236e-01 -4.081099999999999728e-01 9.439844999999999686e+01 1.455820000000000164e+03
1.200000000000000025e-02 4.686635000000000106e-01 -6.928100000000000369e-01 9.382724999999999227e+01 1.455684999999999945e+03
1.300000000000000114e-02 4.684954999999999536e-01 -1.069055000000000089e+00 9.306839999999999691e+01 1.455500000000000000e+03
1.400000000000000203e-02 4.682830000000000048e-01 -1.530380000000000074e+00 9.210384999999999422e+01 1.455259999999999991e+03
1.499999999999999944e-02 4.680385000000000240e-01 -2.033174999999999955e+00 9.096099999999999852e+01 1.454964999999999918e+03
1.600000000000000033e-02 4.677884999999999405e-01 -2.505830000000000446e+00 8.971070000000000277e+01 1.454639999999999873e+03
1.700000000000000122e-02 4.675559999999999716e-01 -2.875879999999999548e+00 8.844100000000000250e+01 1.454295000000000073e+03
1.800000000000000211e-02 4.673555000000000348e-01 -3.094098500000000307e+00 8.722579999999999245e+01 1.453954999999999927e+03
1.900000000000000300e-02 4.671879999999999922e-01 -3.144502499999999756e+00 8.610529999999999973e+01 1.453619999999999891e+03
2.000000000000000042e-02 4.670435000000000558e-01 -3.040896000000000043e+00 8.508214999999999861e+01 1.453305000000000064e+03
2.100000000000000130e-02 4.669069999999999609e-01 -2.815881999999999774e+00 8.412969999999999970e+01 1.452994999999999891e+03
2.200000000000000219e-02 4.667630000000000390e-01 -2.507961000000000329e+00 8.320580000000001064e+01 1.452699999999999818e+03
2.299999999999999961e-02 4.666004999999999736e-01 -2.150436999999999710e+00 8.226749999999999829e+01 1.452390000000000100e+03
2.400000000000000050e-02 4.664145000000000096e-01 -1.764124999999999943e+00 8.128334999999999866e+01 1.452065000000000055e+03
2.500000000000000139e-02 4.662064999999999682e-01 -1.354860000000000175e+00 8.024064999999998804e+01 1.451730000000000018e+03
2.600000000000000228e-02 4.659834999999999949e-01 -9.159549999999998526e-01 7.914609999999998990e+01 1.451375000000000000e+03
2.700000000000000316e-02 4.657545000000000157e-01 -4.344099999999997408e-01 7.802070000000000505e+01 1.451019999999999982e+03
2.800000000000000058e-02 4.655265000000000097e-01 1.013150000000000439e-01 7.689070000000000960e+01 1.450650000000000091e+03
2.900000000000000147e-02 4.653055000000000385e-01 6.944700000000001427e-01 7.577800000000000580e+01 1.450289999999999964e+03
3.000000000000000236e-02 4.650900000000000034e-01 1.335995000000000044e+00 7.469245000000000800e+01 1.449930000000000064e+03
3.099999999999999978e-02 4.648759999999999559e-01 2.003960000000000186e+00 7.362794999999999845e+01 1.449574999999999818e+03
3.200000000000000067e-02 4.646544999999999703e-01 2.666174999999999962e+00 7.256309999999999150e+01 1.449219999999999800e+03
3.300000000000000155e-02 4.644154999999999811e-01 3.285165000000000113e+00 7.146535000000000082e+01 1.448865000000000009e+03
3.400000000000000244e-02 4.641505000000000214e-01 3.824270000000000280e+00 7.029749999999999943e+01 1.448490000000000009e+03
3.500000000000000333e-02 4.638519999999999865e-01 4.253845000000000098e+00 6.902639999999999532e+01 1.448095000000000027e+03
3.600000000000000422e-02 4.635185000000000000e-01 4.556250000000000355e+00 6.763025000000000375e+01 1.447670000000000073e+03
3.700000000000000511e-02 4.631524999999999670e-01 4.728535000000000821e+00 6.610490000000000066e+01 1.447215000000000146e+03
3.799999999999999906e-02 4.627624999999999655e-01 4.782580000000000275e+00 6.446585000000000321e+01 1.446730000000000018e+03
3.899999999999999994e-02 4.623614999999999808e-01 4.742379999999999818e+00 6.274765000000000015e+01 1.446230000000000018e+03
4.000000000000000083e-02 4.619604999999999961e-01 4.639405000000000001e+00 6.099904999999999688e+01 1.445720000000000027e+03
4.100000000000000172e-02 4.615759999999999863e-01 4.507775000000000531e+00 5.927689999999999770e+01 1.445210000000000036e+03
4.200000000000000261e-02 4.612195000000000045e-01 4.379430000000000156e+00 5.763954999999999984e+01 1.444724999999999909e+03
4.300000000000000350e-02 4.609010000000000051e-01 4.281304999999999694e+00 5.614079999999999870e+01 1.444269999999999982e+03
4.400000000000000439e-02 4.606280000000000374e-01 4.233464999999999812e+00 5.482609999999999673e+01 1.443860000000000127e+03
4.499999999999999833e-02 4.604055000000000231e-01 4.249419999999999753e+00 5.373019999999999641e+01 1.443509999999999991e+03
4.599999999999999922e-02 4.602344999999999908e-01 4.336907500000000582e+00 5.287715000000000032e+01 1.443219999999999800e+03
4.700000000000000011e-02 4.601169999999999982e-01 4.499905000000000044e+00 5.228125000000000000e+01 1.443000000000000000e+03
4.800000000000000100e-02 4.600520000000000165e-01 4.740495000000000125e+00 5.194924999999999926e+01 1.442855000000000018e+03
4.900000000000000189e-02 4.600405000000000189e-01 5.060545000000000293e+00 5.188299999999999557e+01 1.442789999999999964e+03
5.000000000000000278e-02 4.600810000000000177e-01 5.462884999999999991e+00 5.208135000000000048e+01 1.442795000000000073e+03
5.100000000000000366e-02 4.601745000000000418e-01 5.951740000000000030e+00 5.254234999999999900e+01 1.442884999999999991e+03
5.200000000000000455e-02 4.603210000000000357e-01 6.532424999999999926e+00 5.326370000000000005e+01 1.443050000000000182e+03
5.300000000000000544e-02 4.605204999999999993e-01 7.210515000000000008e+00 5.424275000000000091e+01 1.443284999999999854e+03
5.399999999999999939e-02 4.607725000000000293e-01 7.990675000000000416e+00 5.547619999999999862e+01 1.443599999999999909e+03
5.500000000000000028e-02 4.610775000000000290e-01 8.875365000000000393e+00 5.695850000000000080e+01 1.443985000000000127e+03
5.600000000000000117e-02 4.614320000000000088e-01 9.863984999999999559e+00 5.868099999999999739e+01 1.444450000000000045e+03
5.700000000000000205e-02 4.618340000000000223e-01 1.095226000000000077e+01 6.063080000000000069e+01 1.444974999999999909e+03
5.800000000000000294e-02 4.622779999999999667e-01 1.213199499999999986e+01 6.279075000000000273e+01 1.445570000000000164e+03
5.900000000000000383e-02 4.627594999999999903e-01 1.339140000000000086e+01 6.513859999999999673e+01 1.446224999999999909e+03
6.000000000000000472e-02 4.632720000000000171e-01 1.471600499999999911e+01 6.764855000000000018e+01 1.446925000000000182e+03
6.099999999999999867e-02 4.638094999999999857e-01 1.608926999999999907e+01 7.029149999999999920e+01 1.447675000000000182e+03
6.199999999999999956e-02 4.643639999999999990e-01 1.749383500000000069e+01 7.303685000000000116e+01 1.448465000000000146e+03
6.300000000000000044e-02 4.649300000000000654e-01 1.891250000000000142e+01 7.585354999999999848e+01 1.449280000000000200e+03
6.400000000000000133e-02 4.655025000000000412e-01 2.032894999999999897e+01 7.871205000000000496e+01 1.450115000000000009e+03
6.500000000000000222e-02 4.660750000000000171e-01 2.172865000000000180e+01 8.158490000000000464e+01 1.450960000000000036e+03
6.600000000000000311e-02 4.666440000000000032e-01 2.309915000000000163e+01 8.444814999999999827e+01 1.451815000000000055e+03
6.700000000000000400e-02 4.672060000000000102e-01 2.443014999999999759e+01 8.728174999999998818e+01 1.452670000000000073e+03
6.800000000000000488e-02 4.677584999999999660e-01 2.571379999999999910e+01 9.007050000000000978e+01 1.453509999999999991e+03
6.900000000000000577e-02 4.683005000000000084e-01 2.694435000000000002e+01 9.280219999999999914e+01 1.454345000000000027e+03
7.000000000000000666e-02 4.688304999999999834e-01 2.811775000000000091e+01 9.547020000000000550e+01 1.455164999999999964e+03
7.100000000000000755e-02 4.693479999999999874e-01 2.923154999999999859e+01 9.806955000000000666e+01 1.455970000000000027e+03
7.200000000000000844e-02 4.698529999999999651e-01 3.028440000000000154e+01 1.005990500000000054e+02 1.456759999999999991e+03
7.300000000000000933e-02 4.703465000000000007e-01 3.127575000000000216e+01 1.030595500000000015e+02 1.457525000000000091e+03
7.399999999999999634e-02 4.708284999999999831e-01 3.220565000000000566e+01 1.054526500000000055e+02 1.458279999999999973e+03
7.499999999999999722e-02 4.712999999999999967e-01 3.307430000000000092e+01 1.077814999999999941e+02 1.459014999999999873e+03
7.599999999999999811e-02 4.717604999999999715e-01 3.388195000000000334e+01 1.100484999999999900e+02 1.459730000000000018e+03
7.699999999999999900e-02 4.722104999999999775e-01 3.462870000000000203e+01 1.122560000000000002e+02 1.460429999999999836e+03
7.799999999999999989e-02 4.726500000000000146e-01 3.531435000000000457e+01 1.144050000000000011e+02 1.461119999999999891e+03
7.900000000000000078e-02 4.730794999999999861e-01 3.593850000000000477e+01 1.164959999999999951e+02 1.461784999999999854e+03
8.000000000000000167e-02 4.734970000000000012e-01 3.650010000000000332e+01 1.185275000000000034e+02 1.462434999999999945e+03
8.100000000000000255e-02 4.739025000000000043e-01 3.699814999999999543e+01 1.204969999999999999e+02 1.463065000000000055e+03
8.200000000000000344e-02 4.742945000000000078e-01 3.743110000000000070e+01 1.224000000000000057e+02 1.463680000000000064e+03
8.300000000000000433e-02 4.746725000000000527e-01 3.779749999999999943e+01 1.242314999999999969e+02 1.464275000000000091e+03
8.400000000000000522e-02 4.750345000000000262e-01 3.809584999999999866e+01 1.259865000000000066e+02 1.464845000000000027e+03
8.500000000000000611e-02 4.753789999999999960e-01 3.832495000000000118e+01 1.276585000000000036e+02 1.465389999999999873e+03
8.600000000000000699e-02 4.757055000000000033e-01 3.848390000000000555e+01 1.292410000000000139e+02 1.465910000000000082e+03
8.700000000000000788e-02 4.760130000000000194e-01 3.857224999999999682e+01 1.307295000000000016e+02 1.466405000000000200e+03
8.800000000000000877e-02 4.763000000000000012e-01 3.859000000000000341e+01 1.321165000000000020e+02 1.466869999999999891e+03
8.899999999999999578e-02 4.765654999999999752e-01 3.853785000000000593e+01 1.333994999999999891e+02 1.467305000000000064e+03
8.999999999999999667e-02 4.768094999999999972e-01 3.841694999999999993e+01 1.345740000000000123e+02 1.467704999999999927e+03
9.099999999999999756e-02 4.770315000000000527e-01 3.822894999999999754e+01 1.356384999999999934e+02 1.468069999999999936e+03
9.199999999999999845e-02 4.772309999999999608e-01 3.797599999999999909e+01 1.365914999999999964e+02 1.468405000000000200e+03
9.299999999999999933e-02 4.774085000000000134e-01 3.766079999999999472e+01 1.374329999999999927e+02 1.468704999999999927e+03
9.400000000000000022e-02 4.775635000000000296e-01 3.728624999999999545e+01 1.381634999999999991e+02 1.468969999999999800e+03
9.500000000000000111e-02 4.776974999999999971e-01 3.685575000000000045e+01 1.387855000000000132e+02 1.469204999999999927e+03
9.600000000000000200e-02 4.778099999999999570e-01 3.637314999999999543e+01 1.393009999999999877e+02 1.469400000000000091e+03
9.700000000000000289e-02 4.779025000000000079e-01 3.584250000000000114e+01 1.397144999999999868e+02 1.469565000000000055e+03
9.800000000000000377e-02 4.779760000000000120e-01 3.526824999999999477e+01 1.400305000000000177e+02 1.469700000000000045e+03
9.900000000000000466e-02 4.780305000000000248e-01 3.465534999999999854e+01 1.402549999999999955e+02 1.469809999999999945e+03
1.000000000000000056e-01 4.780685000000000073e-01 3.400900000000000034e+01 1.403940000000000055e+02 1.469884999999999991e+03
1.010000000000000064e-01 4.780909999999999882e-01 3.333460000000000178e+01 1.404544999999999959e+02 1.469934999999999945e+03
1.020000000000000073e-01 4.780995000000000106e-01 3.263785000000000025e+01 1.404445000000000050e+02 1.469964999999999918e+03
1.030000000000000082e-01 4.780959999999999654e-01 3.192464999999999975e+01 1.403720000000000141e+02 1.469970000000000027e+03
1.040000000000000091e-01 4.780814999999999926e-01 3.120080000000000098e+01 1.402459999999999809e+02 1.469954999999999927e+03
1.050000000000000100e-01 4.780590000000000117e-01 3.047190000000000154e+01 1.400749999999999886e+02 1.469925000000000182e+03
1.059999999999999970e-01 4.780289999999999817e-01 2.974329999999999785e+01 1.398675000000000068e+02 1.469880000000000109e+03
1.069999999999999979e-01 4.779935000000000156e-01 2.901995000000000147e+01 1.396314999999999884e+02 1.469819999999999936e+03
1.079999999999999988e-01 4.779535000000000311e-01 2.830594999999999928e+01 1.393739999999999952e+02 1.469759999999999991e+03
1.089999999999999997e-01 4.779109999999999747e-01 2.760495000000000232e+01 1.391030000000000086e+02 1.469684999999999945e+03
1.100000000000000006e-01 4.778655000000000541e-01 2.691949999999999932e+01 1.388224999999999909e+02 1.469605000000000018e+03
1.110000000000000014e-01 4.778189999999999937e-01 2.625144999999999840e+01 1.385364999999999895e+02 1.469525000000000091e+03
1.120000000000000023e-01 4.777715000000000156e-01 2.560159999999999769e+01 1.382490000000000236e+02 1.469440000000000055e+03
1.130000000000000032e-01 4.777224999999999944e-01 2.496999999999999886e+01 1.379610000000000127e+02 1.469355000000000018e+03
1.140000000000000041e-01 4.776730000000000143e-01 2.435589999999999833e+01 1.376719999999999970e+02 1.469264999999999873e+03
1.150000000000000050e-01 4.776214999999999766e-01 2.375789999999999935e+01 1.373824999999999932e+02 1.469175000000000182e+03
1.160000000000000059e-01 4.775685000000000069e-01 2.317379999999999995e+01 1.370889999999999986e+02 1.469085000000000036e+03
1.170000000000000068e-01 4.775129999999999653e-01 2.260115000000000052e+01 1.367905000000000086e+02 1.468994999999999891e+03
1.180000000000000077e-01 4.774539999999999895e-01 2.203730000000000189e+01 1.364830000000000041e+02 1.468894999999999982e+03
1.190000000000000085e-01 4.773915000000000242e-01 2.147919999999999874e+01 1.361630000000000109e+02 1.468789999999999964e+03
1.200000000000000094e-01 4.773244999999999849e-01 2.092395000000000138e+01 1.358269999999999982e+02 1.468690000000000055e+03
1.209999999999999964e-01 4.772524999999999684e-01 2.036864999999999881e+01 1.354710000000000036e+02 1.468574999999999818e+03
1.219999999999999973e-01 4.771745000000000569e-01 1.981064999999999898e+01 1.350929999999999893e+02 1.468460000000000036e+03
1.229999999999999982e-01 4.770904999999999729e-01 1.924755000000000038e+01 1.346895000000000095e+02 1.468340000000000146e+03
1.239999999999999991e-01 4.769999999999999796e-01 1.867739999999999867e+01 1.342584999999999980e+02 1.468210000000000036e+03
1.250000000000000000e-01 4.769034999999999802e-01 1.809860000000000113e+01 1.337990000000000066e+02 1.468069999999999936e+03
1.260000000000000009e-01 4.768000000000000016e-01 1.751014999999999944e+01 1.333110000000000070e+02 1.467925000000000182e+03
1.270000000000000018e-01 4.766909999999999759e-01 1.691145000000000209e+01 1.327934999999999945e+02 1.467769999999999982e+03
1.280000000000000027e-01 4.765759999999999996e-01 1.630255000000000010e+01 1.322489999999999952e+02 1.467605000000000018e+03
1.290000000000000036e-01 4.764554999999999763e-01 1.568404999999999916e+01 1.316790000000000020e+02 1.467434999999999945e+03
1.300000000000000044e-01 4.763310000000000044e-01 1.505700000000000038e+01 1.310865000000000009e+02 1.467259999999999991e+03
1.310000000000000053e-01 4.762029999999999874e-01 1.442319499999999977e+01 1.304749999999999943e+02 1.467075000000000045e+03
1.320000000000000062e-01 4.760725000000000096e-01 1.378463999999999956e+01 1.298489999999999895e+02 1.466889999999999873e+03
1.330000000000000071e-01 4.759400000000000297e-01 1.314405999999999963e+01 1.292139999999999986e+02 1.466695000000000164e+03
1.340000000000000080e-01 4.758074999999999943e-01 1.250429000000000102e+01 1.285755000000000052e+02 1.466505000000000109e+03
1.350000000000000089e-01 4.756765000000000576e-01 1.186867499999999964e+01 1.279385000000000048e+02 1.466309999999999945e+03
1.360000000000000098e-01 4.755475000000000119e-01 1.124054999999999893e+01 1.273100000000000023e+02 1.466119999999999891e+03
1.370000000000000107e-01 4.754220000000000113e-01 1.062360999999999933e+01 1.266949999999999932e+02 1.465930000000000064e+03
1.380000000000000115e-01 4.753014999999999879e-01 1.002128000000000085e+01 1.261004999999999967e+02 1.465744999999999891e+03
1.390000000000000124e-01 4.751870000000000260e-01 9.437129999999999797e+00 1.255320000000000107e+02 1.465570000000000164e+03
1.400000000000000133e-01 4.750794999999999879e-01 8.874465000000000714e+00 1.249939999999999998e+02 1.465400000000000091e+03
1.410000000000000142e-01 4.749794999999999989e-01 8.336190000000000211e+00 1.244920000000000044e+02 1.465240000000000009e+03
1.420000000000000151e-01 4.748884999999999357e-01 7.824984999999999857e+00 1.240300000000000011e+02 1.465090000000000146e+03
1.430000000000000160e-01 4.748064999999999647e-01 7.343045000000000044e+00 1.236105000000000018e+02 1.464954999999999927e+03
1.440000000000000169e-01 4.747334999999999749e-01 6.892064999999999664e+00 1.232359999999999900e+02 1.464829999999999927e+03
1.450000000000000178e-01 4.746704999999999952e-01 6.473135000000000083e+00 1.229080000000000013e+02 1.464720000000000027e+03
1.459999999999999909e-01 4.746175000000000255e-01 6.086850000000000094e+00 1.226264999999999930e+02 1.464619999999999891e+03
1.469999999999999918e-01 4.745734999999999815e-01 5.733204999999999885e+00 1.223905000000000030e+02 1.464534999999999854e+03
1.479999999999999927e-01 4.745380000000000154e-01 5.411669999999999980e+00 1.221989999999999981e+02 1.464464999999999918e+03
1.489999999999999936e-01 4.745110000000000161e-01 5.121179999999999843e+00 1.220490000000000066e+02 1.464404999999999973e+03
1.499999999999999944e-01 4.744914999999999550e-01 4.860240000000000116e+00 1.219375000000000000e+02 1.464355000000000018e+03
1.509999999999999953e-01 4.744785000000000252e-01 4.626945000000000086e+00 1.218599999999999994e+02 1.464320000000000164e+03
1.519999999999999962e-01 4.744709999999999761e-01 4.419109999999999872e+00 1.218119999999999976e+02 1.464295000000000073e+03
1.529999999999999971e-01 4.744680000000000009e-01 4.234309999999999796e+00 1.217895000000000039e+02 1.464275000000000091e+03
1.539999999999999980e-01 4.744690000000000296e-01 4.069975000000000342e+00 1.217870000000000061e+02 1.464264999999999873e+03
1.549999999999999989e-01 4.744724999999999637e-01 3.923490000000000144e+00 1.217999999999999972e+02 1.464255000000000109e+03
1.559999999999999998e-01 4.744774999999999965e-01 3.792229999999999990e+00 1.218224999999999909e+02 1.464250000000000000e+03
1.570000000000000007e-01 4.744835000000000025e-01 3.673680000000000057e+00 1.218515000000000015e+02 1.464255000000000109e+03
1.580000000000000016e-01 4.744889999999999941e-01 3.565430000000000099e+00 1.218820000000000050e+02 1.464259999999999991e+03
1.590000000000000024e-01 4.744939999999999714e-01 3.465265000000000040e+00 1.219095000000000084e+02 1.464259999999999991e+03
