# t [s], A [cm^2], U [cm/s], P [cPa], c [cm/s]
1.000000000000000021e-03 5.749480000000000146e-01 3.466450000000002862e-03 1.034650000000000034e+02 1.570130000000000109e+03
2.000000000000000042e-03 5.749420000000000641e-01 4.203784999999999814e-03 1.034445000000000050e+02 1.570125000000000000e+03
3.000000000000000062e-03 5.749994999999999967e-01 1.131340000000000123e-01 1.035579999999999927e+02 1.570154999999999973e+03
4.000000000000000083e-03 5.750395000000000367e-01 1.964634000000000102e-01 1.036630000000000109e+02 1.570190000000000055e+03
5.000000000000000104e-03 5.750094999999999512e-01 1.537531500000000051e-01 1.035844999999999914e+02 1.570170000000000073e+03
6.000000000000000125e-03 5.749515000000000597e-01 5.059950000000001946e-02 1.033549999999999898e+02 1.570119999999999891e+03
7.000000000000000146e-03 5.748914999999999997e-01 -6.340549999999994801e-02 1.030395000000000039e+02 1.570045000000000073e+03
8.000000000000000167e-03 5.747904999999999820e-01 -2.658850000000000380e-01 1.025534999999999997e+02 1.569920000000000073e+03
9.000000000000001055e-03 5.746269999999999989e-01 -6.008650000000000935e-01 1.018114999999999952e+02 1.569735000000000127e+03
1.000000000000000194e-02 5.743954999999999478e-01 -1.068815000000000071e+00 1.007694500000000062e+02 1.569474999999999909e+03
1.099999999999999936e-02 5.740804999999999936e-01 -1.685795000000000154e+00 9.936690000000000111e+01 1.569115000000000009e+03
1.200000000000000025e-02 5.736744999999999761e-01 -2.444830000000000059e+00 9.756584999999999752e+01 1.568639999999999873e+03
1.300000000000000114e-02 5.732089999999999685e-01 -3.258330000000000393e+00 9.543725000000000591e+01 1.568069999999999936e+03
1.400000000000000203e-02 5.727470000000000061e-01 -3.972475000000000200e+00 9.317040000000000077e+01 1.567440000000000055e+03
1.499999999999999944e-02 5.723464999999999803e-01 -4.438450999999999702e+00 9.099500000000000455e+01 1.566799999999999955e+03
1.600000000000000033e-02 5.720370000000000177e-01 -4.574898000000000131e+00 8.908605000000000018e+01 1.566210000000000036e+03
1.700000000000000122e-02 5.718084999999999418e-01 -4.387073500000000514e+00 8.751030000000000086e+01 1.565684999999999945e+03
1.800000000000000211e-02 5.716280000000000250e-01 -3.948589000000000127e+00 8.622325000000000728e+01 1.565224999999999909e+03
1.900000000000000300e-02 5.714515000000000011e-01 -3.364671500000000037e+00 8.510450000000000159e+01 1.564805000000000064e+03
2.000000000000000042e-02 5.712420000000000275e-01 -2.733308000000000071e+00 8.401115000000000066e+01 1.564394999999999982e+03
2.100000000000000130e-02 5.709819999999999895e-01 -2.116435000000000066e+00 8.282805000000000462e+01 1.563965000000000146e+03
2.200000000000000219e-02 5.706729999999999858e-01 -1.529550000000000187e+00 8.150045000000000073e+01 1.563505000000000109e+03
2.299999999999999961e-02 5.703314999999999912e-01 -9.516149999999998776e-01 8.003730000000000189e+01 1.563019999999999982e+03
2.400000000000000050e-02 5.699790000000000134e-01 -3.485849999999999227e-01 7.848875000000001023e+01 1.562500000000000000e+03
2.500000000000000139e-02 5.696305000000000396e-01 3.015300000000000757e-01 7.691169999999999618e+01 1.561980000000000018e+03
2.600000000000000228e-02 5.692889999999999340e-01 9.917699999999998184e-01 7.533834999999999127e+01 1.561450000000000045e+03
2.700000000000000316e-02 5.689435000000000464e-01 1.681794999999999929e+00 7.375845000000001050e+01 1.560920000000000073e+03
2.800000000000000058e-02 5.685725000000000362e-01 2.304899999999999949e+00 7.211764999999999759e+01 1.560369999999999891e+03
2.900000000000000147e-02 5.681515000000000315e-01 2.782720000000000304e+00 7.033070000000000732e+01 1.559785000000000082e+03
3.000000000000000236e-02 5.676579999999999959e-01 3.043390000000000040e+00 6.830405000000000371e+01 1.559139999999999873e+03
3.099999999999999978e-02 5.670779999999999710e-01 3.038475000000000037e+00 6.596260000000000900e+01 1.558414999999999964e+03
3.200000000000000067e-02 5.664135000000000142e-01 2.754794999999999661e+00 6.327320000000000277e+01 1.557610000000000127e+03
3.300000000000000155e-02 5.656784999999999730e-01 2.217849999999999877e+00 6.025869999999999749e+01 1.556714999999999918e+03
3.400000000000000244e-02 5.649005000000000276e-01 1.486924999999999386e+00 5.699954999999999927e+01 1.555755000000000109e+03
3.500000000000000333e-02 5.641154999999999919e-01 6.432700000000002305e-01 5.362260000000000559e+01 1.554755000000000109e+03
3.600000000000000422e-02 5.633610000000000007e-01 -2.240849999999996456e-01 5.028209999999999980e+01 1.553750000000000000e+03
3.700000000000000511e-02 5.626705000000000734e-01 -1.031530000000000058e+00 4.713809999999999434e+01 1.552785000000000082e+03
3.799999999999999906e-02 5.620724999999999749e-01 -1.710039999999999782e+00 4.433679999999999666e+01 1.551905000000000200e+03
3.899999999999999994e-02 5.615860000000000296e-01 -2.210014999999999841e+00 4.199640000000000128e+01 1.551139999999999873e+03
4.000000000000000083e-02 5.612219999999999986e-01 -2.501545000000000130e+00 4.019930000000000092e+01 1.550514999999999873e+03
4.100000000000000172e-02 5.609850000000000669e-01 -2.571464499999999820e+00 3.899110000000000298e+01 1.550045000000000073e+03
4.200000000000000261e-02 5.608735000000000248e-01 -2.418739500000000042e+00 3.838450000000000273e+01 1.549755000000000109e+03
4.300000000000000350e-02 5.608819999999999917e-01 -2.049549999999999983e+00 3.836625000000000085e+01 1.549630000000000109e+03
4.400000000000000439e-02 5.610034999999999883e-01 -1.473269999999999857e+00 3.890545000000000186e+01 1.549684999999999945e+03
4.499999999999999833e-02 5.612300000000000066e-01 -7.002000000000001556e-01 3.996099999999999852e+01 1.549889999999999873e+03
4.599999999999999922e-02 5.615529999999999688e-01 2.589199999999998170e-01 4.148624999999999829e+01 1.550244999999999891e+03
4.700000000000000011e-02 5.619629999999999903e-01 1.391850000000000254e+00 4.343205000000000382e+01 1.550735000000000127e+03
4.800000000000000100e-02 5.624500000000000055e-01 2.683184999999999931e+00 4.574665000000000248e+01 1.551349999999999909e+03
4.900000000000000189e-02 5.630030000000000312e-01 4.112770000000000259e+00 4.837519999999999953e+01 1.552065000000000055e+03
5.000000000000000278e-02 5.636084999999999567e-01 5.654910000000000103e+00 5.125880000000000791e+01 1.552869999999999891e+03
5.100000000000000366e-02 5.642534999999999634e-01 7.278679499999999969e+00 5.433440000000000225e+01 1.553744999999999891e+03
5.200000000000000455e-02 5.649215000000000764e-01 8.949234000000000577e+00 5.753589999999999804e+01 1.554680000000000064e+03
5.300000000000000544e-02 5.655995000000000328e-01 1.063002499999999984e+01 6.079629999999999512e+01 1.555634999999999991e+03
5.399999999999999939e-02 5.662724999999999564e-01 1.228514000000000017e+01 6.405095000000000027e+01 1.556615000000000009e+03
5.500000000000000028e-02 5.669290000000000163e-01 1.388185999999999964e+01 6.724080000000000723e+01 1.557585000000000036e+03
5.600000000000000117e-02 5.675585000000000768e-01 1.539255999999999958e+01 7.031584999999999752e+01 1.558539999999999964e+03
5.700000000000000205e-02 5.681549999999999656e-01 1.679615000000000080e+01 7.323760000000000048e+01 1.559460000000000036e+03
5.800000000000000294e-02 5.687140000000000528e-01 1.807880000000000109e+01 7.598060000000000969e+01 1.560339999999999918e+03
5.900000000000000383e-02 5.692349999999999355e-01 1.923364999999999725e+01 7.853290000000001214e+01 1.561174999999999955e+03
6.000000000000000472e-02 5.697185000000000166e-01 2.026050000000000040e+01 8.089545000000001096e+01 1.561954999999999927e+03
6.099999999999999867e-02 5.701694999999999958e-01 2.116444999999999865e+01 8.308025000000000659e+01 1.562684999999999945e+03
6.199999999999999956e-02 5.705925000000000580e-01 2.195504999999999995e+01 8.510855000000000814e+01 1.563375000000000000e+03
6.300000000000000044e-02 5.709929999999999728e-01 2.264504999999999768e+01 8.700800000000000978e+01 1.564029999999999973e+03
6.400000000000000133e-02 5.713785000000000114e-01 2.324899999999999878e+01 8.881010000000000559e+01 1.564644999999999982e+03
6.500000000000000222e-02 5.717555000000000831e-01 2.378240000000000265e+01 9.054775000000000773e+01 1.565240000000000009e+03
6.600000000000000311e-02 5.721300000000000274e-01 2.426044999999999874e+01 9.225270000000000437e+01 1.565820000000000164e+03
6.700000000000000400e-02 5.725074999999999470e-01 2.469744999999999990e+01 9.395335000000000036e+01 1.566400000000000091e+03
6.800000000000000488e-02 5.728919999999999568e-01 2.510560000000000258e+01 9.567324999999999591e+01 1.566974999999999909e+03
6.900000000000000577e-02 5.732859999999999623e-01 2.549474999999999980e+01 9.742920000000000869e+01 1.567555000000000064e+03
7.000000000000000666e-02 5.736915000000000209e-01 2.587129999999999797e+01 9.923054999999999382e+01 1.568150000000000091e+03
7.100000000000000755e-02 5.741070000000000340e-01 2.623839999999999861e+01 1.010780499999999904e+02 1.568755000000000109e+03
7.200000000000000844e-02 5.745310000000000139e-01 2.659550000000000125e+01 1.029645000000000010e+02 1.569369999999999891e+03
7.300000000000000933e-02 5.749589999999999979e-01 2.693860000000000099e+01 1.048750000000000000e+02 1.569990000000000009e+03
7.399999999999999634e-02 5.753850000000000353e-01 2.726060000000000016e+01 1.067874999999999943e+02 1.570615000000000009e+03
7.499999999999999722e-02 5.758039999999999825e-01 2.755205000000000126e+01 1.086750000000000114e+02 1.571230000000000018e+03
7.599999999999999811e-02 5.762089999999999712e-01 2.780189999999999984e+01 1.105060000000000002e+02 1.571829999999999927e+03
7.699999999999999900e-02 5.765930000000000222e-01 2.799824999999999875e+01 1.122469999999999999e+02 1.572409999999999854e+03
7.799999999999999989e-02 5.769480000000000164e-01 2.812940000000000040e+01 1.138669999999999902e+02 1.572950000000000045e+03
7.900000000000000078e-02 5.772694999999999910e-01 2.818444999999999823e+01 1.153350000000000080e+02 1.573454999999999927e+03
8.000000000000000167e-02 5.775509999999999255e-01 2.815425000000000111e+01 1.166244999999999976e+02 1.573904999999999973e+03
8.100000000000000255e-02 5.777885000000000382e-01 2.803174999999999883e+01 1.177145000000000010e+02 1.574300000000000182e+03
8.200000000000000344e-02 5.779805000000000081e-01 2.781259999999999977e+01 1.185895000000000010e+02 1.574625000000000000e+03
8.300000000000000433e-02 5.781239999999999712e-01 2.749530000000000030e+01 1.192409999999999997e+02 1.574889999999999873e+03
8.400000000000000522e-02 5.782209999999999850e-01 2.708109999999999928e+01 1.196680000000000064e+02 1.575085000000000036e+03
8.500000000000000611e-02 5.782715000000000494e-01 2.657435000000000258e+01 1.198760000000000048e+02 1.575210000000000036e+03
8.600000000000000699e-02 5.782784999999999176e-01 2.598190000000000310e+01 1.198750000000000000e+02 1.575269999999999982e+03
8.700000000000000788e-02 5.782469999999999555e-01 2.531309999999999860e+01 1.196834999999999951e+02 1.575269999999999982e+03
8.800000000000000877e-02 5.781800000000000272e-01 2.457914999999999850e+01 1.193230000000000075e+02 1.575210000000000036e+03
8.899999999999999578e-02 5.780834999999999724e-01 2.379269999999999996e+01 1.188179999999999978e+02 1.575105000000000018e+03
8.999999999999999667e-02 5.779634999999999634e-01 2.296770000000000067e+01 1.181965000000000003e+02 1.574949999999999818e+03
9.099999999999999756e-02 5.778259999999999508e-01 2.211824999999999974e+01 1.174875000000000114e+02 1.574769999999999982e+03
9.199999999999999845e-02 5.776769999999999960e-01 2.125869999999999749e+01 1.167194999999999965e+02 1.574559999999999945e+03
9.299999999999999933e-02 5.775215000000000209e-01 2.040259999999999962e+01 1.159194999999999993e+02 1.574335000000000036e+03
9.400000000000000022e-02 5.773660000000000458e-01 1.956244999999999834e+01 1.151144999999999925e+02 1.574099999999999909e+03
9.500000000000000111e-02 5.772135000000000460e-01 1.874929999999999808e+01 1.143259999999999934e+02 1.573865000000000009e+03
9.600000000000000200e-02 5.770684999999999842e-01 1.797204999999999941e+01 1.135734999999999957e+02 1.573634999999999991e+03
9.700000000000000289e-02 5.769330000000000291e-01 1.723754999999999882e+01 1.128714999999999975e+02 1.573414999999999964e+03
9.800000000000000377e-02 5.768100000000000449e-01 1.655010000000000048e+01 1.122300000000000040e+02 1.573200000000000045e+03
9.900000000000000466e-02 5.766985000000000028e-01 1.591155000000000008e+01 1.116529999999999916e+02 1.573009999999999991e+03
1.000000000000000056e-01 5.766000000000000014e-01 1.532124999999999915e+01 1.111415000000000077e+02 1.572835000000000036e+03
1.010000000000000064e-01 5.765124999999999833e-01 1.477625000000000099e+01 1.106910000000000025e+02 1.572679999999999836e+03
1.020000000000000073e-01 5.764340000000000019e-01 1.427169999999999916e+01 1.102930000000000064e+02 1.572534999999999854e+03
1.030000000000000082e-01 5.763614999999999711e-01 1.380089999999999861e+01 1.099360000000000070e+02 1.572404999999999973e+03
1.040000000000000091e-01 5.762929999999999442e-01 1.335610000000000142e+01 1.096069999999999993e+02 1.572279999999999973e+03
1.050000000000000100e-01 5.762249999999999872e-01 1.292866000000000071e+01 1.092895000000000039e+02 1.572164999999999964e+03
1.059999999999999970e-01 5.761534999999999851e-01 1.250961500000000015e+01 1.089679999999999893e+02 1.572055000000000064e+03
1.069999999999999979e-01 5.760760000000000325e-01 1.209016000000000091e+01 1.086264999999999930e+02 1.571934999999999945e+03
1.079999999999999988e-01 5.759900000000000020e-01 1.166207999999999956e+01 1.082505000000000024e+02 1.571809999999999945e+03
1.089999999999999997e-01 5.758919999999999595e-01 1.121829499999999946e+01 1.078265000000000100e+02 1.571674999999999955e+03
1.100000000000000006e-01 5.757809999999999873e-01 1.075281000000000020e+01 1.073455000000000013e+02 1.571519999999999982e+03
1.110000000000000014e-01 5.756554999999999866e-01 1.026160499999999942e+01 1.067994999999999948e+02 1.571349999999999909e+03
1.120000000000000023e-01 5.755155000000000687e-01 9.742149999999998755e+00 1.061860000000000070e+02 1.571164999999999964e+03
1.130000000000000032e-01 5.753604999999999414e-01 9.194140000000000867e+00 1.055045000000000073e+02 1.570960000000000036e+03
1.140000000000000041e-01 5.751930000000000653e-01 8.619049999999999656e+00 1.047590000000000003e+02 1.570730000000000018e+03
1.150000000000000050e-01 5.750140000000000251e-01 8.020459999999999923e+00 1.039575000000000102e+02 1.570485000000000127e+03
1.160000000000000059e-01 5.748265000000000180e-01 7.403509999999999813e+00 1.031106000000000051e+02 1.570230000000000018e+03
1.170000000000000068e-01 5.746339999999999781e-01 6.775114999999999554e+00 1.022315499999999986e+02 1.569960000000000036e+03
1.180000000000000077e-01 5.744390000000000329e-01 6.143319999999999226e+00 1.013368000000000109e+02 1.569690000000000055e+03
1.190000000000000085e-01 5.742460000000000342e-01 5.517050000000000232e+00 1.004435500000000019e+02 1.569414999999999964e+03
1.200000000000000094e-01 5.740589999999999860e-01 4.905784999999999840e+00 9.957050000000000978e+01 1.569134999999999991e+03
1.209999999999999964e-01 5.738809999999999745e-01 4.319100000000000605e+00 9.873545000000000016e+01 1.568875000000000000e+03
1.219999999999999973e-01 5.737170000000000325e-01 3.766201000000000132e+00 9.795624999999999716e+01 1.568619999999999891e+03
1.229999999999999982e-01 5.735694999999999544e-01 3.255581000000000280e+00 9.724850000000000705e+01 1.568389999999999873e+03
1.239999999999999991e-01 5.734409999999999785e-01 2.794597500000000068e+00 9.662610000000000809e+01 1.568179999999999836e+03
1.250000000000000000e-01 5.733334999999999404e-01 2.389210999999999974e+00 9.610044999999999504e+01 1.567994999999999891e+03
1.260000000000000009e-01 5.732485000000000497e-01 2.043714000000000031e+00 9.567849999999999966e+01 1.567845000000000027e+03
1.270000000000000018e-01 5.731870000000000021e-01 1.760602000000000000e+00 9.536455000000000837e+01 1.567720000000000027e+03
1.280000000000000027e-01 5.731485000000000607e-01 1.540519000000000194e+00 9.515914999999999679e+01 1.567630000000000109e+03
1.290000000000000036e-01 5.731315000000000159e-01 1.382289000000000101e+00 9.505924999999999159e+01 1.567570000000000164e+03
1.300000000000000044e-01 5.731349999999999500e-01 1.283020000000000049e+00 9.505850000000000932e+01 1.567545000000000073e+03
1.310000000000000053e-01 5.731569999999999165e-01 1.238339999999999996e+00 9.514785000000000537e+01 1.567545000000000073e+03
1.320000000000000062e-01 5.731944999999999402e-01 1.242557499999999981e+00 9.531569999999999254e+01 1.567565000000000055e+03
1.330000000000000071e-01 5.732450000000000045e-01 1.289046499999999984e+00 9.554890000000000327e+01 1.567615000000000009e+03
1.340000000000000080e-01 5.733055000000000234e-01 1.370481499999999908e+00 9.583305000000000007e+01 1.567679999999999836e+03
1.350000000000000089e-01 5.733719999999999928e-01 1.479156499999999985e+00 9.615319999999999823e+01 1.567759999999999991e+03
1.360000000000000098e-01 5.734430000000000360e-01 1.607309499999999947e+00 9.649479999999999791e+01 1.567849999999999909e+03
1.370000000000000107e-01 5.735140000000000793e-01 1.747368000000000032e+00 9.684375000000000000e+01 1.567945000000000164e+03
1.380000000000000115e-01 5.735829999999999540e-01 1.892204999999999915e+00 9.718725000000000591e+01 1.568045000000000073e+03
1.390000000000000124e-01 5.736485000000000056e-01 2.035330000000000084e+00 9.751390000000000668e+01 1.568139999999999873e+03
1.400000000000000133e-01 5.737075000000000369e-01 2.171059999999999768e+00 9.781435000000000457e+01 1.568230000000000018e+03
1.410000000000000142e-01 5.737594999999999779e-01 2.294640000000000235e+00 9.808099999999998886e+01 1.568315000000000055e+03
1.420000000000000151e-01 5.738035000000000219e-01 2.402300000000000324e+00 9.830840000000000600e+01 1.568384999999999991e+03
1.430000000000000160e-01 5.738379999999999592e-01 2.491305000000000103e+00 9.849324999999998909e+01 1.568444999999999936e+03
1.440000000000000169e-01 5.738639999999999297e-01 2.559915000000000163e+00 9.863405000000000200e+01 1.568494999999999891e+03
1.450000000000000178e-01 5.738810000000000855e-01 2.607400000000000162e+00 9.873130000000000450e+01 1.568534999999999854e+03
1.459999999999999909e-01 5.738900000000000112e-01 2.633899999999999686e+00 9.878685000000000116e+01 1.568559999999999945e+03
1.469999999999999918e-01 5.738910000000000400e-01 2.640394999999999825e+00 9.880410000000000537e+01 1.568575000000000045e+03
1.479999999999999927e-01 5.738860000000000072e-01 2.628560000000000230e+00 9.878745000000000687e+01 1.568579999999999927e+03
1.489999999999999936e-01 5.738750000000000240e-01 2.600604999999999833e+00 9.874199999999999022e+01 1.568574999999999818e+03
1.499999999999999944e-01 5.738604999999999956e-01 2.559184999999999821e+00 9.867350000000000421e+01 1.568559999999999945e+03
1.509999999999999953e-01 5.738425000000000331e-01 2.507220000000000226e+00 9.858769999999999811e+01 1.568545000000000073e+03
1.519999999999999962e-01 5.738229999999999720e-01 2.447740000000000027e+00 9.849039999999999395e+01 1.568519999999999982e+03
1.529999999999999971e-01 5.738030000000000630e-01 2.383764999999999912e+00 9.838689999999999714e+01 1.568494999999999891e+03
1.539999999999999980e-01 5.737824999999999731e-01 2.318150000000000155e+00 9.828209999999999980e+01 1.568469999999999800e+03
1.549999999999999989e-01 5.737634999999999819e-01 2.253480000000000150e+00 9.818004999999999427e+01 1.568440000000000055e+03
1.559999999999999998e-01 5.737459999999999782e-01 2.191964999999999719e+00 9.808389999999999986e+01 1.568414999999999964e+03
1.570000000000000007e-01 5.737305000000000321e-01 2.135374999999999801e+00 9.799594999999999345e+01 1.568389999999999873e+03
1.580000000000000016e-01 5.737164999999999626e-01 2.084999999999999964e+00 9.791714999999999236e+01 1.568360000000000127e+03
1.590000000000000024e-01 5.737050000000000205e-01 2.041619999999999990e+00 9.784784999999999400e+01 1.568340000000000146e+03
