# t [s], A [cm^2], U [cm/s], P [cPa], c [cm/s]
1.000000000000000021e-03 7.076000000000000068e-01 7.263999999999999624e-03 1.008629999999999995e+02 1.796440000000000055e+03
2.000000000000000042e-03 7.075915000000000399e-01 6.351600000000000648e-03 1.008274999999999864e+02 1.796429999999999836e+03
3.000000000000000062e-03 7.076744999999999841e-01 1.643450999999999940e-01 1.010150000000000006e+02 1.796470000000000027e+03
4.000000000000000083e-03 7.076979999999999382e-01 2.406335000000000002e-01 1.010923999999999978e+02 1.796480000000000018e+03
5.000000000000000104e-03 7.076035000000000519e-01 1.153870000000000173e-01 1.008064999999999998e+02 1.796425000000000182e+03
6.000000000000000125e-03 7.075130000000000585e-01 -1.874099999999995214e-02 1.003870000000000005e+02 1.796345000000000027e+03
7.000000000000000146e-03 7.073949999999999960e-01 -2.210450000000000470e-01 9.980490000000000350e+01 1.796235000000000127e+03
8.000000000000000167e-03 7.071784999999999322e-01 -6.262550000000000061e-01 9.885069999999998913e+01 1.796049999999999955e+03
9.000000000000001055e-03 7.068775000000000475e-01 -1.208755000000000024e+00 9.749060000000000059e+01 1.795789999999999964e+03
1.000000000000000194e-02 7.064624999999999932e-01 -1.999155000000000015e+00 9.562524999999999409e+01 1.795424999999999955e+03
1.099999999999999936e-02 7.059104999999999963e-01 -3.013850000000000140e+00 9.315510000000000446e+01 1.794934999999999945e+03
1.200000000000000025e-02 7.052959999999999230e-01 -4.081179999999999808e+00 9.025460000000001060e+01 1.794345000000000027e+03
1.300000000000000114e-02 7.047570000000000778e-01 -4.898277999999999466e+00 8.736914999999999054e+01 1.793735000000000127e+03
1.400000000000000203e-02 7.043889999999999318e-01 -5.233971999999999625e+00 8.493424999999999159e+01 1.793184999999999945e+03
1.499999999999999944e-02 7.041900000000000936e-01 -5.049139999999999517e+00 8.313654999999999973e+01 1.792730000000000018e+03
1.600000000000000033e-02 7.040794999999999693e-01 -4.479630000000000223e+00 8.186465000000001169e+01 1.792375000000000000e+03
1.700000000000000122e-02 7.039520000000000222e-01 -3.744114999999999860e+00 8.080885000000000673e+01 1.792069999999999936e+03
1.800000000000000211e-02 7.037249999999999339e-01 -3.037125000000000075e+00 7.962720000000000198e+01 1.791744999999999891e+03
1.900000000000000300e-02 7.033739999999999437e-01 -2.448885000000000201e+00 7.810365000000000180e+01 1.791369999999999891e+03
2.000000000000000042e-02 7.029360000000000053e-01 -1.946000000000000174e+00 7.622705000000000553e+01 1.790930000000000064e+03
2.100000000000000130e-02 7.024785000000000057e-01 -1.420620000000000216e+00 7.415565000000000850e+01 1.790449999999999818e+03
2.200000000000000219e-02 7.020589999999999886e-01 -7.729550000000000587e-01 7.209950000000000614e+01 1.789960000000000036e+03
2.299999999999999961e-02 7.016974999999999740e-01 2.241999999999988447e-02 7.019640000000001123e+01 1.789494999999999891e+03
2.400000000000000050e-02 7.013670000000000737e-01 8.927400000000000890e-01 6.843834999999999980e+01 1.789050000000000182e+03
2.500000000000000139e-02 7.010049999999999892e-01 1.684495000000000076e+00 6.666424999999999557e+01 1.788615000000000009e+03
2.600000000000000228e-02 7.005369999999999653e-01 2.208775000000000155e+00 6.461025000000000773e+01 1.788125000000000000e+03
2.700000000000000316e-02 6.999025000000000940e-01 2.299819999999999531e+00 6.199854999999999450e+01 1.787545000000000073e+03
2.800000000000000058e-02 6.990754999999999608e-01 1.870064999999999866e+00 5.863870000000000005e+01 1.786819999999999936e+03
2.900000000000000147e-02 6.980800000000000338e-01 9.414899999999999380e-01 5.450589999999999691e+01 1.785944999999999936e+03
3.000000000000000236e-02 6.969805000000000028e-01 -3.601999999999998536e-01 4.976375000000000171e+01 1.784945000000000164e+03
3.099999999999999978e-02 6.958685000000000009e-01 -1.845450000000000479e+00 4.472494999999999976e+01 1.783869999999999891e+03
3.200000000000000067e-02 6.948315000000000463e-01 -3.312464999999999549e+00 3.977325000000000443e+01 1.782795000000000073e+03
3.300000000000000155e-02 6.939429999999999765e-01 -4.590119999999999756e+00 3.528105000000000047e+01 1.781789999999999964e+03
3.400000000000000244e-02 6.932475000000000165e-01 -5.561500000000000554e+00 3.154749999999999943e+01 1.780920000000000073e+03
3.500000000000000333e-02 6.927645000000000053e-01 -6.167968500000000631e+00 2.876545000000000130e+01 1.780230000000000018e+03
3.600000000000000422e-02 6.924930000000000252e-01 -6.399124999999999730e+00 2.701785000000000281e+01 1.779750000000000000e+03
3.700000000000000511e-02 6.924179999999999779e-01 -6.275364999999999860e+00 2.629565000000000197e+01 1.779490000000000009e+03
3.799999999999999906e-02 6.925175000000000081e-01 -5.828585000000000349e+00 2.652929999999999922e+01 1.779440000000000055e+03
3.899999999999999994e-02 6.927740000000000009e-01 -5.087054999999999438e+00 2.762295000000000300e+01 1.779585000000000036e+03
4.000000000000000083e-02 6.931709999999999816e-01 -4.068150000000000155e+00 2.948064999999999714e+01 1.779900000000000091e+03
4.100000000000000172e-02 6.936990000000000656e-01 -2.780120000000000147e+00 3.201935000000000286e+01 1.780384999999999991e+03
4.200000000000000261e-02 6.943479999999999652e-01 -1.230314999999999603e+00 3.516669999999999874e+01 1.781014999999999873e+03
4.300000000000000350e-02 6.951049999999999729e-01 5.646750000000002601e-01 3.885089999999999577e+01 1.781765000000000100e+03
4.400000000000000439e-02 6.959520000000000151e-01 2.571734999999999882e+00 4.298789999999999623e+01 1.782630000000000109e+03
4.499999999999999833e-02 6.968644999999999978e-01 4.739264999999999617e+00 4.747440000000000282e+01 1.783575000000000045e+03
4.599999999999999922e-02 6.978134999999999755e-01 7.000500000000000611e+00 5.218755000000000166e+01 1.784590000000000146e+03
4.700000000000000011e-02 6.987689999999999735e-01 9.280942000000001357e+00 5.699179999999999779e+01 1.785639999999999873e+03
4.800000000000000100e-02 6.997025000000000050e-01 1.150695999999999941e+01 6.175169999999999959e+01 1.786695000000000164e+03
4.900000000000000189e-02 7.005900000000000460e-01 1.361430499999999988e+01 6.634449999999999648e+01 1.787730000000000018e+03
5.000000000000000278e-02 7.014164999999999983e-01 1.555340500000000148e+01 7.067239999999999611e+01 1.788730000000000018e+03
5.100000000000000366e-02 7.021720000000000184e-01 1.729244999999999877e+01 7.466960000000000264e+01 1.789659999999999854e+03
5.200000000000000455e-02 7.028560000000000363e-01 1.881685000000000230e+01 7.830469999999999686e+01 1.790525000000000091e+03
5.300000000000000544e-02 7.034715000000000273e-01 2.012700000000000244e+01 8.157859999999999445e+01 1.791315000000000055e+03
5.399999999999999939e-02 7.040279999999999871e-01 2.123499999999999943e+01 8.451919999999999789e+01 1.792039999999999964e+03
5.500000000000000028e-02 7.045375000000000387e-01 2.216120000000000090e+01 8.717445000000000732e+01 1.792699999999999818e+03
5.600000000000000117e-02 7.050115000000000132e-01 2.293195000000000050e+01 8.960630000000000450e+01 1.793304999999999836e+03
5.700000000000000205e-02 7.054650000000000087e-01 2.357719999999999771e+01 9.188434999999999775e+01 1.793875000000000000e+03
5.800000000000000294e-02 7.059120000000000950e-01 2.412879999999999825e+01 9.408064999999999145e+01 1.794420000000000073e+03
5.900000000000000383e-02 7.063649999999999096e-01 2.461890000000000001e+01 9.626465000000000316e+01 1.794954999999999927e+03
6.000000000000000472e-02 7.068354999999999499e-01 2.507699999999999818e+01 9.849800000000000466e+01 1.795494999999999891e+03
6.099999999999999867e-02 7.073315000000000019e-01 2.552805000000000035e+01 1.008293999999999926e+02 1.796049999999999955e+03
6.199999999999999956e-02 7.078575000000000284e-01 2.598944999999999794e+01 1.032879999999999967e+02 1.796625000000000000e+03
6.300000000000000044e-02 7.084129999999999594e-01 2.646914999999999907e+01 1.058845000000000027e+02 1.797230000000000018e+03
6.400000000000000133e-02 7.089920000000000666e-01 2.696540000000000248e+01 1.086030000000000086e+02 1.797860000000000127e+03
6.500000000000000222e-02 7.095850000000000213e-01 2.746695000000000064e+01 1.114074999999999989e+02 1.798509999999999991e+03
6.600000000000000311e-02 7.101794999999999636e-01 2.795490000000000208e+01 1.142419999999999902e+02 1.799164999999999964e+03
6.700000000000000400e-02 7.107594999999999885e-01 2.840534999999999854e+01 1.170399999999999920e+02 1.799819999999999936e+03
6.800000000000000488e-02 7.113110000000000266e-01 2.879214999999999947e+01 1.197270000000000039e+02 1.800449999999999818e+03
6.900000000000000577e-02 7.118189999999999795e-01 2.908964999999999890e+01 1.222289999999999992e+02 1.801045000000000073e+03
7.000000000000000666e-02 7.122699999999999587e-01 2.927515000000000001e+01 1.244795000000000016e+02 1.801585000000000036e+03
7.100000000000000755e-02 7.126554999999999973e-01 2.933014999999999972e+01 1.264215000000000089e+02 1.802069999999999936e+03
7.200000000000000844e-02 7.129674999999999763e-01 2.924215000000000231e+01 1.280144999999999982e+02 1.802474999999999909e+03
7.300000000000000933e-02 7.132034999999999902e-01 2.900469999999999970e+01 1.292340000000000089e+02 1.802799999999999955e+03
7.399999999999999634e-02 7.133625000000000105e-01 2.861764999999999759e+01 1.300709999999999980e+02 1.803039999999999964e+03
7.499999999999999722e-02 7.134479999999999711e-01 2.808719999999999928e+01 1.305349999999999966e+02 1.803200000000000045e+03
7.599999999999999811e-02 7.134660000000000446e-01 2.742535000000000167e+01 1.306490000000000009e+02 1.803275000000000091e+03
7.699999999999999900e-02 7.134229999999999183e-01 2.664894999999999925e+01 1.304495000000000005e+02 1.803279999999999973e+03
7.799999999999999989e-02 7.133309999999999373e-01 2.577919999999999945e+01 1.299844999999999970e+02 1.803215000000000146e+03
7.900000000000000078e-02 7.132004999999999040e-01 2.484025000000000105e+01 1.293064999999999998e+02 1.803095000000000027e+03
8.000000000000000167e-02 7.130429999999999824e-01 2.385820000000000007e+01 1.284755000000000109e+02 1.802945000000000164e+03
8.100000000000000255e-02 7.128700000000000037e-01 2.285924999999999940e+01 1.275504999999999995e+02 1.802755000000000109e+03
8.200000000000000344e-02 7.126930000000000209e-01 2.186885000000000190e+01 1.265895000000000010e+02 1.802554999999999836e+03
8.300000000000000433e-02 7.125224999999999476e-01 2.090984999999999872e+01 1.256449999999999960e+02 1.802349999999999909e+03
8.400000000000000522e-02 7.123654999999999848e-01 2.000165000000000148e+01 1.247614999999999981e+02 1.802150000000000091e+03
8.500000000000000611e-02 7.122290000000000010e-01 1.915909999999999869e+01 1.239745000000000061e+02 1.801969999999999800e+03
8.600000000000000699e-02 7.121170000000000000e-01 1.839195000000000135e+01 1.233074999999999903e+02 1.801804999999999836e+03
8.700000000000000788e-02 7.120300000000000518e-01 1.770454999999999757e+01 1.227740000000000009e+02 1.801675000000000182e+03
8.800000000000000877e-02 7.119679999999999342e-01 1.709609999999999985e+01 1.223745000000000118e+02 1.801570000000000164e+03
8.899999999999999578e-02 7.119280000000000053e-01 1.656090000000000018e+01 1.220995000000000061e+02 1.801484999999999900e+03
8.999999999999999667e-02 7.119059999999999278e-01 1.608909999999999840e+01 1.219309999999999974e+02 1.801430000000000064e+03
9.099999999999999756e-02 7.118964999999999321e-01 1.566740000000000066e+01 1.218419999999999987e+02 1.801389999999999873e+03
9.199999999999999845e-02 7.118914999999998994e-01 1.527990000000000137e+01 1.218015000000000043e+02 1.801369999999999891e+03
9.299999999999999933e-02 7.118860000000000188e-01 1.490930000000000000e+01 1.217745000000000033e+02 1.801349999999999909e+03
9.400000000000000022e-02 7.118714999999999904e-01 1.453774999999999906e+01 1.217249999999999943e+02 1.801329999999999927e+03
9.500000000000000111e-02 7.118415000000000159e-01 1.414825000000000088e+01 1.216179999999999950e+02 1.801300000000000182e+03
9.600000000000000200e-02 7.117910000000000625e-01 1.372534999999999883e+01 1.214230000000000018e+02 1.801255000000000109e+03
9.700000000000000289e-02 7.117145000000000277e-01 1.325659999999999883e+01 1.211140000000000043e+02 1.801184999999999945e+03
9.800000000000000377e-02 7.116100000000000758e-01 1.273319499999999849e+01 1.206740000000000066e+02 1.801095000000000027e+03
9.900000000000000466e-02 7.114770000000000261e-01 1.215066500000000005e+01 1.200949999999999989e+02 1.800970000000000027e+03
1.000000000000000056e-01 7.113165000000000182e-01 1.150933999999999990e+01 1.193760000000000048e+02 1.800819999999999936e+03
1.010000000000000064e-01 7.111315000000000275e-01 1.081417000000000073e+01 1.185294999999999987e+02 1.800639999999999873e+03
1.020000000000000073e-01 7.109270000000000866e-01 1.007462999999999909e+01 1.175750000000000028e+02 1.800434999999999945e+03
1.030000000000000082e-01 7.107094999999999940e-01 9.304064999999999586e+00 1.165409999999999968e+02 1.800210000000000036e+03
1.040000000000000091e-01 7.104869999999999797e-01 8.518829999999999458e+00 1.154629999999999939e+02 1.799974999999999909e+03
1.050000000000000100e-01 7.102669999999999817e-01 7.737125000000000696e+00 1.143789999999999907e+02 1.799735000000000127e+03
1.059999999999999970e-01 7.100584999999999258e-01 6.978030000000000399e+00 1.133305000000000007e+02 1.799494999999999891e+03
1.069999999999999979e-01 7.098685000000000134e-01 6.260340000000000238e+00 1.123565000000000111e+02 1.799275000000000091e+03
1.079999999999999988e-01 7.097044999999999604e-01 5.601230000000000153e+00 1.114945000000000022e+02 1.799069999999999936e+03
1.089999999999999997e-01 7.095719999999999805e-01 5.015420000000000655e+00 1.107744999999999891e+02 1.798889999999999873e+03
1.100000000000000006e-01 7.094750000000000778e-01 4.514324999999999477e+00 1.102205000000000013e+02 1.798750000000000000e+03
1.110000000000000014e-01 7.094154999999999767e-01 4.105439999999999756e+00 1.098469999999999942e+02 1.798644999999999982e+03
1.120000000000000023e-01 7.093935000000000102e-01 3.792105000000000281e+00 1.096604999999999990e+02 1.798579999999999927e+03
1.130000000000000032e-01 7.094084999999999974e-01 3.573465000000000114e+00 1.096569999999999965e+02 1.798559999999999945e+03
1.140000000000000041e-01 7.094560000000000866e-01 3.444725000000000037e+00 1.098255000000000052e+02 1.798575000000000045e+03
1.150000000000000050e-01 7.095320000000000515e-01 3.397650000000000059e+00 1.101450000000000102e+02 1.798625000000000000e+03
1.160000000000000059e-01 7.096309999999999008e-01 3.421194999999999986e+00 1.105914999999999964e+02 1.798704999999999927e+03
1.170000000000000068e-01 7.097474999999999756e-01 3.502254999999999896e+00 1.111349999999999909e+02 1.798809999999999945e+03
1.180000000000000077e-01 7.098729999999999762e-01 3.626495000000000246e+00 1.117445000000000022e+02 1.798929999999999836e+03
1.190000000000000085e-01 7.100035000000000096e-01 3.779074999999999740e+00 1.123880000000000052e+02 1.799065000000000055e+03
1.200000000000000094e-01 7.101319999999999855e-01 3.945405000000000051e+00 1.130339999999999918e+02 1.799204999999999927e+03
1.209999999999999964e-01 7.102524999999999533e-01 4.111769999999999925e+00 1.136555000000000035e+02 1.799339999999999918e+03
1.219999999999999973e-01 7.103619999999999379e-01 4.265825000000000422e+00 1.142270000000000039e+02 1.799470000000000027e+03
1.229999999999999982e-01 7.104555000000000176e-01 4.397054999999999936e+00 1.147289999999999992e+02 1.799585000000000036e+03
1.239999999999999991e-01 7.105319999999999414e-01 4.497030000000000527e+00 1.151470000000000056e+02 1.799679999999999836e+03
1.250000000000000000e-01 7.105885000000000673e-01 4.559594999999999843e+00 1.154705000000000013e+02 1.799764999999999873e+03
1.260000000000000009e-01 7.106255000000000210e-01 4.580949999999999633e+00 1.156949999999999932e+02 1.799825000000000045e+03
1.270000000000000018e-01 7.106429999999999136e-01 4.559630000000000294e+00 1.158215000000000003e+02 1.799865000000000009e+03
1.280000000000000027e-01 7.106425000000000658e-01 4.496375000000000455e+00 1.158540000000000134e+02 1.799884999999999991e+03
1.290000000000000036e-01 7.106259999999999799e-01 4.393934999999999924e+00 1.158004999999999995e+02 1.799884999999999991e+03
1.300000000000000044e-01 7.105960000000000054e-01 4.256795000000000329e+00 1.156724999999999994e+02 1.799865000000000009e+03
1.310000000000000053e-01 7.105550000000000477e-01 4.090804999999999580e+00 1.154840000000000089e+02 1.799835000000000036e+03
1.320000000000000062e-01 7.105069999999999997e-01 3.902800000000000047e+00 1.152495000000000118e+02 1.799789999999999964e+03
1.330000000000000071e-01 7.104539999999999189e-01 3.700134999999999952e+00 1.149849999999999994e+02 1.799735000000000127e+03
1.340000000000000080e-01 7.104000000000000314e-01 3.490255000000000329e+00 1.147049999999999983e+02 1.799679999999999836e+03
1.350000000000000089e-01 7.103470000000000617e-01 3.280240000000000045e+00 1.144235000000000042e+02 1.799619999999999891e+03
1.360000000000000098e-01 7.102964999999999973e-01 3.076394999999999769e+00 1.141525000000000034e+02 1.799559999999999945e+03
1.370000000000000107e-01 7.102509999999999657e-01 2.883939999999999948e+00 1.139004999999999939e+02 1.799505000000000109e+03
1.380000000000000115e-01 7.102114999999999956e-01 2.706809999999999938e+00 1.136730000000000018e+02 1.799454999999999927e+03
1.390000000000000124e-01 7.101774999999999061e-01 2.547460000000000058e+00 1.134739999999999895e+02 1.799405000000000200e+03
1.400000000000000133e-01 7.101485000000000714e-01 2.406940000000000079e+00 1.133019999999999925e+02 1.799365000000000009e+03
1.410000000000000142e-01 7.101245000000000474e-01 2.284945000000000004e+00 1.131550000000000011e+02 1.799329999999999927e+03
1.420000000000000151e-01 7.101030000000000397e-01 2.180019999999999847e+00 1.130259999999999962e+02 1.799295000000000073e+03
1.430000000000000160e-01 7.100830000000000197e-01 2.089820000000000011e+00 1.129089999999999918e+02 1.799264999999999873e+03
1.440000000000000169e-01 7.100629999999999997e-01 2.011390000000000011e+00 1.127950000000000017e+02 1.799235000000000127e+03
1.450000000000000178e-01 7.100409999999999222e-01 1.941454999999999931e+00 1.126754999999999995e+02 1.799210000000000036e+03
1.459999999999999909e-01 7.100150000000000627e-01 1.876730000000000231e+00 1.125424999999999898e+02 1.799175000000000182e+03
1.469999999999999918e-01 7.099834999999999896e-01 1.814149999999999929e+00 1.123884999999999934e+02 1.799140000000000100e+03
1.479999999999999927e-01 7.099465000000000359e-01 1.751060000000000061e+00 1.122090000000000032e+02 1.799099999999999909e+03
1.489999999999999936e-01 7.099029999999999507e-01 1.685418499999999931e+00 1.119985000000000070e+02 1.799049999999999955e+03
1.499999999999999944e-01 7.098524999999999974e-01 1.615847500000000103e+00 1.117570000000000050e+02 1.799000000000000000e+03
1.509999999999999953e-01 7.097959999999999825e-01 1.541734500000000008e+00 1.114840000000000089e+02 1.798934999999999945e+03
1.519999999999999962e-01 7.097324999999999884e-01 1.463227499999999903e+00 1.111819999999999879e+02 1.798865000000000009e+03
1.529999999999999971e-01 7.096649999999999903e-01 1.381224000000000007e+00 1.108545000000000016e+02 1.798795000000000073e+03
1.539999999999999980e-01 7.095934999999999881e-01 1.297311000000000103e+00 1.105090000000000003e+02 1.798715000000000146e+03
1.549999999999999989e-01 7.095199999999999285e-01 1.213691999999999993e+00 1.101510000000000105e+02 1.798634999999999991e+03
1.559999999999999998e-01 7.094464999999999799e-01 1.133037499999999920e+00 1.097899999999999920e+02 1.798554999999999836e+03
1.570000000000000007e-01 7.093749999999999778e-01 1.058377200000000018e+00 1.094344999999999999e+02 1.798470000000000027e+03
1.580000000000000016e-01 7.093054999999999222e-01 9.929424000000000028e-01 1.090930000000000035e+02 1.798389999999999873e+03
1.590000000000000024e-01 7.092424999999999979e-01 9.399656999999999041e-01 1.087759999999999962e+02 1.798315000000000055e+03
