# t [s], A [cm^2], U [cm/s], P [cPa], c [cm/s]
1.000000000000000021e-03 1.508784999999999987e-01 4.573809999999999820e-01 9.910339999999999350e+01 1.938875000000000000e+03
2.000000000000000042e-03 1.508369999999999989e-01 2.190877500000000033e+00 9.547030000000000882e+01 1.938425000000000182e+03
3.000000000000000062e-03 1.507185000000000052e-01 4.257367499999999971e+00 9.073349999999999227e+01 1.937204999999999927e+03
4.000000000000000083e-03 1.505539999999999934e-01 6.540639999999999787e+00 8.580740000000000123e+01 1.935535000000000082e+03
5.000000000000000104e-03 1.503764999999999963e-01 8.960065000000000168e+00 8.154034999999998945e+01 1.933735000000000127e+03
6.000000000000000125e-03 1.502025000000000166e-01 1.132963499999999968e+01 7.811545000000000982e+01 1.932000000000000000e+03
7.000000000000000146e-03 1.500384999999999913e-01 1.344952500000000128e+01 7.522990000000000066e+01 1.930389999999999873e+03
8.000000000000000167e-03 1.498869999999999925e-01 1.525418499999999966e+01 7.264915000000000589e+01 1.928924999999999955e+03
9.000000000000001055e-03 1.497525000000000106e-01 1.678409999999999869e+01 7.041044999999999732e+01 1.927639999999999873e+03
1.000000000000000194e-02 1.496365000000000056e-01 1.807175000000000153e+01 6.856829999999999359e+01 1.926539999999999964e+03
1.099999999999999936e-02 1.495384999999999909e-01 1.912875000000000014e+01 6.708190000000000452e+01 1.925630000000000109e+03
1.200000000000000025e-02 1.494580000000000075e-01 1.996894999999999953e+01 6.588685000000000969e+01 1.924884999999999991e+03
1.300000000000000114e-02 1.493924999999999836e-01 2.060280000000000200e+01 6.490919999999999845e+01 1.924284999999999854e+03
1.400000000000000203e-02 1.493375000000000119e-01 2.104319999999999879e+01 6.406405000000000882e+01 1.923800000000000182e+03
1.499999999999999944e-02 1.492915000000000214e-01 2.134055000000000035e+01 6.334104999999999563e+01 1.923394999999999982e+03
1.600000000000000033e-02 1.492570000000000008e-01 2.160389999999999944e+01 6.289990000000000236e+01 1.923099999999999909e+03
1.700000000000000122e-02 1.492394999999999972e-01 2.196855000000000047e+01 6.303620000000000800e+01 1.922954999999999927e+03
1.800000000000000211e-02 1.492465000000000042e-01 2.253054999999999808e+01 6.401154999999999973e+01 1.923030000000000200e+03
1.900000000000000300e-02 1.492815000000000114e-01 2.329344999999999999e+01 6.586969999999999459e+01 1.923369999999999891e+03
2.000000000000000042e-02 1.493420000000000025e-01 2.416114999999999924e+01 6.835965000000000202e+01 1.923940000000000055e+03
2.100000000000000130e-02 1.494175000000000086e-01 2.497489999999999810e+01 7.100300000000000011e+01 1.924659999999999854e+03
2.200000000000000219e-02 1.494949999999999890e-01 2.557244999999999990e+01 7.325759999999999650e+01 1.925400000000000091e+03
2.299999999999999961e-02 1.495604999999999851e-01 2.584179999999999922e+01 7.469689999999999941e+01 1.926039999999999964e+03
2.400000000000000050e-02 1.496044999999999736e-01 2.575169999999999959e+01 7.513239999999998986e+01 1.926485000000000127e+03
2.500000000000000139e-02 1.496224999999999916e-01 2.535060000000000002e+01 7.464404999999999291e+01 1.926679999999999836e+03
2.600000000000000228e-02 1.496179999999999732e-01 2.473980000000000246e+01 7.351704999999999757e+01 1.926664999999999964e+03
2.700000000000000316e-02 1.495964999999999934e-01 2.403430000000000177e+01 7.212250000000000227e+01 1.926480000000000018e+03
2.800000000000000058e-02 1.495675000000000199e-01 2.332620000000000005e+01 7.078974999999999795e+01 1.926220000000000027e+03
2.900000000000000147e-02 1.495370000000000033e-01 2.266364999999999696e+01 6.971735000000001037e+01 1.925940000000000055e+03
3.000000000000000236e-02 1.495104999999999906e-01 2.204829999999999757e+01 6.894319999999999027e+01 1.925684999999999945e+03
3.099999999999999978e-02 1.494880000000000098e-01 2.144869999999999877e+01 6.837309999999999377e+01 1.925474999999999909e+03
3.200000000000000067e-02 1.494675000000000031e-01 2.082200000000000273e+01 6.784624999999999773e+01 1.925275000000000091e+03
3.300000000000000155e-02 1.494460000000000233e-01 2.013649999999999807e+01 6.721115000000000350e+01 1.925075000000000045e+03
3.400000000000000244e-02 1.494205000000000116e-01 1.938774999999999693e+01 6.638840000000000430e+01 1.924839999999999918e+03
3.500000000000000333e-02 1.493900000000000228e-01 1.860519999999999996e+01 6.540395000000000891e+01 1.924555000000000064e+03
3.600000000000000422e-02 1.493565000000000031e-01 1.784724999999999895e+01 6.438625000000000398e+01 1.924250000000000000e+03
3.700000000000000511e-02 1.493250000000000133e-01 1.718750000000000000e+01 6.353074999999999761e+01 1.923945000000000164e+03
3.799999999999999906e-02 1.492994999999999739e-01 1.669570000000000221e+01 6.304375000000000284e+01 1.923700000000000045e+03
3.899999999999999994e-02 1.492860000000000020e-01 1.641979999999999862e+01 6.308325000000000671e+01 1.923570000000000164e+03
4.000000000000000083e-02 1.492884999999999907e-01 1.637300000000000111e+01 6.371294999999999220e+01 1.923579999999999927e+03
4.100000000000000172e-02 1.493079999999999963e-01 1.652929999999999922e+01 6.488130000000001019e+01 1.923750000000000000e+03
4.200000000000000261e-02 1.493424999999999891e-01 1.682795000000000130e+01 6.642799999999999727e+01 1.924059999999999945e+03
4.300000000000000350e-02 1.493880000000000208e-01 1.718404999999999916e+01 6.811455000000000837e+01 1.924480000000000018e+03
4.400000000000000439e-02 1.494369999999999865e-01 1.750309999999999988e+01 6.966835000000000377e+01 1.924930000000000064e+03
4.499999999999999833e-02 1.494820000000000038e-01 1.769529999999999959e+01 7.082890000000000441e+01 1.925360000000000127e+03
4.599999999999999922e-02 1.495150000000000090e-01 1.768750000000000000e+01 7.138720000000000709e+01 1.925674999999999955e+03
4.700000000000000011e-02 1.495315000000000116e-01 1.743049999999999855e+01 7.121084999999999354e+01 1.925835000000000036e+03
4.800000000000000100e-02 1.495254999999999779e-01 1.690189999999999770e+01 7.025309999999998922e+01 1.925784999999999854e+03
4.900000000000000189e-02 1.494965000000000044e-01 1.610435000000000016e+01 6.854694999999999538e+01 1.925525000000000091e+03
5.000000000000000278e-02 1.494444999999999801e-01 1.506180000000000163e+01 6.618890000000000384e+01 1.925039999999999964e+03
5.100000000000000366e-02 1.493710000000000038e-01 1.381279999999999930e+01 6.331659999999999400e+01 1.924355000000000018e+03
5.200000000000000455e-02 1.492799999999999960e-01 1.240528499999999923e+01 6.008745000000000402e+01 1.923510000000000218e+03
5.300000000000000544e-02 1.491764999999999897e-01 1.089162499999999945e+01 5.666029999999999944e+01 1.922529999999999973e+03
5.399999999999999939e-02 1.490635000000000154e-01 9.324980000000000047e+00 5.318390000000000128e+01 1.921474999999999909e+03
5.500000000000000028e-02 1.489469999999999961e-01 7.757855000000000167e+00 4.979120000000000346e+01 1.920380000000000109e+03
5.600000000000000117e-02 1.488305000000000045e-01 6.240954999999999586e+00 4.659915000000000163e+01 1.919284999999999854e+03
5.700000000000000205e-02 1.487189999999999901e-01 4.823210000000000441e+00 4.371085000000000065e+01 1.918224999999999909e+03
5.800000000000000294e-02 1.486155000000000115e-01 3.551515999999999895e+00 4.121855000000000047e+01 1.917244999999999891e+03
5.900000000000000383e-02 1.485235000000000027e-01 2.470358500000000124e+00 3.920669999999999789e+01 1.916375000000000000e+03
6.000000000000000472e-02 1.484469999999999956e-01 1.620828000000000157e+00 3.775150000000000006e+01 1.915634999999999991e+03
6.099999999999999867e-02 1.483885000000000065e-01 1.039128999999999969e+00 3.691984999999999673e+01 1.915069999999999936e+03
6.199999999999999956e-02 1.483500000000000096e-01 7.547809999999999242e-01 3.676550000000000296e+01 1.914694999999999936e+03
6.300000000000000044e-02 1.483344999999999803e-01 7.887484999999999635e-01 3.732475000000000165e+01 1.914529999999999973e+03
6.400000000000000133e-02 1.483435000000000170e-01 1.151863000000000081e+00 3.861254999999999882e+01 1.914590000000000146e+03
6.500000000000000222e-02 1.483770000000000089e-01 1.843788500000000052e+00 4.061885000000000190e+01 1.914884999999999991e+03
6.600000000000000311e-02 1.484349999999999836e-01 2.852772500000000377e+00 4.330830000000000268e+01 1.915409999999999854e+03
6.700000000000000400e-02 1.485170000000000101e-01 4.156175000000000175e+00 4.662069999999999936e+01 1.916164999999999964e+03
6.800000000000000488e-02 1.486219999999999763e-01 5.721845000000000070e+00 5.047475000000000023e+01 1.917125000000000000e+03
6.900000000000000577e-02 1.487459999999999893e-01 7.509959999999999525e+00 5.477280000000000371e+01 1.918284999999999854e+03
7.000000000000000666e-02 1.488875000000000060e-01 9.475419999999999732e+00 5.940719999999999601e+01 1.919599999999999909e+03
7.100000000000000755e-02 1.490420000000000078e-01 1.157008000000000081e+01 6.426670000000000016e+01 1.921050000000000182e+03
7.200000000000000844e-02 1.492065000000000197e-01 1.374549000000000021e+01 6.924235000000000184e+01 1.922599999999999909e+03
7.300000000000000933e-02 1.493774999999999964e-01 1.595465000000000089e+01 7.423329999999999984e+01 1.924220000000000027e+03
7.399999999999999634e-02 1.495515000000000039e-01 1.815429999999999922e+01 7.915094999999999459e+01 1.925869999999999891e+03
7.499999999999999722e-02 1.497255000000000114e-01 2.030630000000000024e+01 8.392224999999999113e+01 1.927525000000000091e+03
7.599999999999999811e-02 1.498970000000000025e-01 2.237914999999999921e+01 8.849209999999999354e+01 1.929160000000000082e+03
7.699999999999999900e-02 1.500630000000000019e-01 2.434844999999999970e+01 9.282435000000000969e+01 1.930759999999999991e+03
7.799999999999999989e-02 1.502235000000000098e-01 2.619785000000000252e+01 9.690189999999999770e+01 1.932295000000000073e+03
7.900000000000000078e-02 1.503764999999999963e-01 2.791894999999999882e+01 1.007268499999999989e+02 1.933775000000000091e+03
8.000000000000000167e-02 1.505219999999999891e-01 2.951064999999999827e+01 1.043156500000000051e+02 1.935184999999999945e+03
8.100000000000000255e-02 1.506605000000000028e-01 3.097869999999999990e+01 1.077009999999999934e+02 1.936529999999999973e+03
8.200000000000000344e-02 1.507924999999999960e-01 3.233449999999999847e+01 1.109234999999999900e+02 1.937815000000000055e+03
8.300000000000000433e-02 1.509194999999999842e-01 3.359349999999999881e+01 1.140314999999999941e+02 1.939050000000000182e+03
8.400000000000000522e-02 1.510420000000000096e-01 3.477355000000000018e+01 1.170750000000000028e+02 1.940250000000000000e+03
8.500000000000000611e-02 1.511619999999999908e-01 3.589345000000000141e+01 1.201009999999999991e+02 1.941424999999999955e+03
8.600000000000000699e-02 1.512815000000000132e-01 3.697105000000000530e+01 1.231514999999999986e+02 1.942585000000000036e+03
8.700000000000000788e-02 1.514010000000000078e-01 3.802199999999999847e+01 1.262590000000000146e+02 1.943759999999999991e+03
8.800000000000000877e-02 1.515215000000000034e-01 3.905839999999999890e+01 1.294439999999999884e+02 1.944934999999999945e+03
8.899999999999999578e-02 1.516440000000000010e-01 4.008820000000000050e+01 1.327154999999999916e+02 1.946134999999999991e+03
8.999999999999999667e-02 1.517689999999999872e-01 4.111449999999999960e+01 1.360674999999999955e+02 1.947355000000000018e+03
9.099999999999999756e-02 1.518960000000000032e-01 4.213555000000000206e+01 1.394830000000000041e+02 1.948594999999999800e+03
9.199999999999999845e-02 1.520245000000000068e-01 4.314499999999999602e+01 1.429340000000000259e+02 1.949855000000000018e+03
9.299999999999999933e-02 1.521540000000000115e-01 4.413250000000000028e+01 1.463810000000000002e+02 1.951119999999999891e+03
9.400000000000000022e-02 1.522830000000000017e-01 4.508424999999999727e+01 1.497814999999999941e+02 1.952384999999999991e+03
9.500000000000000111e-02 1.524105000000000043e-01 4.598440000000000083e+01 1.530854999999999961e+02 1.953639999999999873e+03
9.600000000000000200e-02 1.525350000000000039e-01 4.681550000000000011e+01 1.562450000000000045e+02 1.954859999999999900e+03
9.700000000000000289e-02 1.526544999999999985e-01 4.756009999999999849e+01 1.592110000000000127e+02 1.956039999999999964e+03
9.800000000000000377e-02 1.527675000000000005e-01 4.820130000000000337e+01 1.619409999999999741e+02 1.957154999999999973e+03
9.900000000000000466e-02 1.528729999999999811e-01 4.872374999999999545e+01 1.643965000000000032e+02 1.958195000000000164e+03
1.000000000000000056e-01 1.529690000000000216e-01 4.911459999999999582e+01 1.665464999999999804e+02 1.959150000000000091e+03
1.010000000000000064e-01 1.530549999999999966e-01 4.936410000000000053e+01 1.683704999999999927e+02 1.960000000000000000e+03
1.020000000000000073e-01 1.531299999999999883e-01 4.946560000000000201e+01 1.698534999999999968e+02 1.960750000000000000e+03
1.030000000000000082e-01 1.531929999999999958e-01 4.941655000000000086e+01 1.709925000000000068e+02 1.961384999999999991e+03
1.040000000000000091e-01 1.532439999999999913e-01 4.921795000000000186e+01 1.717930000000000064e+02 1.961904999999999973e+03
1.050000000000000100e-01 1.532835000000000170e-01 4.887494999999999834e+01 1.722690000000000055e+02 1.962300000000000182e+03
1.059999999999999970e-01 1.533110000000000028e-01 4.839600000000000080e+01 1.724424999999999955e+02 1.962589999999999918e+03
1.069999999999999979e-01 1.533284999999999787e-01 4.779285000000000139e+01 1.723410000000000082e+02 1.962769999999999982e+03
1.079999999999999988e-01 1.533349999999999991e-01 4.708015000000000327e+01 1.720000000000000000e+02 1.962845000000000027e+03
1.089999999999999997e-01 1.533324999999999827e-01 4.627455000000000496e+01 1.714565000000000055e+02 1.962840000000000146e+03
1.100000000000000006e-01 1.533225000000000005e-01 4.539410000000000167e+01 1.707504999999999882e+02 1.962750000000000000e+03
1.110000000000000014e-01 1.533065000000000122e-01 4.445774999999999721e+01 1.699245000000000232e+02 1.962599999999999909e+03
1.120000000000000023e-01 1.532844999999999902e-01 4.348449999999999704e+01 1.690165000000000077e+02 1.962389999999999873e+03
1.130000000000000032e-01 1.532585000000000197e-01 4.249249999999999972e+01 1.680645000000000095e+02 1.962139999999999873e+03
1.140000000000000041e-01 1.532304999999999917e-01 4.149869999999999948e+01 1.671025000000000205e+02 1.961869999999999891e+03
1.150000000000000050e-01 1.532009999999999761e-01 4.051820000000000022e+01 1.661599999999999966e+02 1.961579999999999927e+03
1.160000000000000059e-01 1.531704999999999872e-01 3.956364999999999554e+01 1.652595000000000027e+02 1.961284999999999854e+03
1.170000000000000068e-01 1.531409999999999993e-01 3.864509999999999934e+01 1.644174999999999898e+02 1.960994999999999891e+03
1.180000000000000077e-01 1.531124999999999847e-01 3.776970000000000027e+01 1.636454999999999984e+02 1.960710000000000036e+03
1.190000000000000085e-01 1.530854999999999855e-01 3.694149999999999778e+01 1.629465000000000146e+02 1.960440000000000055e+03
1.200000000000000094e-01 1.530600000000000016e-01 3.616164999999999452e+01 1.623185000000000002e+02 1.960190000000000055e+03
1.209999999999999964e-01 1.530369999999999786e-01 3.542844999999999800e+01 1.617520000000000095e+02 1.959960000000000036e+03
1.219999999999999973e-01 1.530154999999999987e-01 3.473774999999999835e+01 1.612344999999999970e+02 1.959740000000000009e+03
1.229999999999999982e-01 1.529949999999999921e-01 3.408320000000000505e+01 1.607484999999999786e+02 1.959539999999999964e+03
1.239999999999999991e-01 1.529754999999999865e-01 3.345680000000000121e+01 1.602740000000000009e+02 1.959345000000000027e+03
1.250000000000000000e-01 1.529564999999999952e-01 3.284915000000000163e+01 1.597874999999999943e+02 1.959154999999999973e+03
1.260000000000000009e-01 1.529375000000000040e-01 3.225029999999999575e+01 1.592674999999999841e+02 1.958954999999999927e+03
1.270000000000000018e-01 1.529169999999999974e-01 3.165024999999999977e+01 1.586910000000000025e+02 1.958755000000000109e+03
1.280000000000000027e-01 1.528944999999999887e-01 3.103914999999999935e+01 1.580380000000000109e+02 1.958529999999999973e+03
1.290000000000000036e-01 1.528694999999999915e-01 3.040820000000000078e+01 1.572905000000000086e+02 1.958284999999999854e+03
1.300000000000000044e-01 1.528415000000000190e-01 2.974984999999999857e+01 1.564335000000000093e+02 1.958009999999999991e+03
1.310000000000000053e-01 1.528105000000000158e-01 2.905830000000000268e+01 1.554590000000000032e+02 1.957704999999999927e+03
1.320000000000000062e-01 1.527755000000000085e-01 2.832990000000000208e+01 1.543620000000000232e+02 1.957359999999999900e+03
1.330000000000000071e-01 1.527359999999999829e-01 2.756300000000000239e+01 1.531430000000000007e+02 1.956974999999999909e+03
1.340000000000000080e-01 1.526925000000000088e-01 2.675849999999999795e+01 1.518089999999999975e+02 1.956545000000000073e+03
1.350000000000000089e-01 1.526454999999999895e-01 2.591959999999999908e+01 1.503700000000000045e+02 1.956085000000000036e+03
1.360000000000000098e-01 1.525940000000000074e-01 2.505165000000000219e+01 1.488429999999999893e+02 1.955590000000000146e+03
1.370000000000000107e-01 1.525400000000000089e-01 2.416215000000000046e+01 1.472489999999999952e+02 1.955059999999999945e+03
1.380000000000000115e-01 1.524834999999999940e-01 2.326010000000000133e+01 1.456119999999999948e+02 1.954509999999999991e+03
1.390000000000000124e-01 1.524249999999999772e-01 2.235589999999999833e+01 1.439569999999999936e+02 1.953934999999999945e+03
1.400000000000000133e-01 1.523665000000000158e-01 2.146079999999999899e+01 1.423120000000000118e+02 1.953360000000000127e+03
1.410000000000000142e-01 1.523065000000000113e-01 2.058630000000000138e+01 1.407044999999999959e+02 1.952775000000000091e+03
1.420000000000000151e-01 1.522485000000000088e-01 1.974399999999999977e+01 1.391614999999999895e+02 1.952204999999999927e+03
1.430000000000000160e-01 1.521914999999999796e-01 1.894454999999999956e+01 1.377060000000000173e+02 1.951654999999999973e+03
1.440000000000000169e-01 1.521374999999999811e-01 1.819780000000000086e+01 1.363605000000000018e+02 1.951125000000000000e+03
1.450000000000000178e-01 1.520874999999999866e-01 1.751214999999999833e+01 1.351419999999999959e+02 1.950630000000000109e+03
1.459999999999999909e-01 1.520404999999999951e-01 1.689405000000000001e+01 1.340634999999999764e+02 1.950170000000000073e+03
1.469999999999999918e-01 1.519984999999999808e-01 1.634825000000000017e+01 1.331330000000000098e+02 1.949755000000000109e+03
1.479999999999999927e-01 1.519610000000000127e-01 1.587740000000000151e+01 1.323550000000000182e+02 1.949384999999999991e+03
1.489999999999999936e-01 1.519289999999999807e-01 1.548205000000000098e+01 1.317275000000000205e+02 1.949065000000000055e+03
1.499999999999999944e-01 1.519024999999999959e-01 1.516069999999999851e+01 1.312459999999999809e+02 1.948795000000000073e+03
1.509999999999999953e-01 1.518805000000000016e-01 1.491019999999999968e+01 1.308999999999999773e+02 1.948570000000000164e+03
1.519999999999999962e-01 1.518629999999999980e-01 1.472555000000000014e+01 1.306775000000000091e+02 1.948394999999999982e+03
1.529999999999999971e-01 1.518504999999999994e-01 1.460050000000000026e+01 1.305635000000000048e+02 1.948269999999999982e+03
1.539999999999999980e-01 1.518410000000000037e-01 1.452785000000000082e+01 1.305414999999999850e+02 1.948174999999999955e+03
1.549999999999999989e-01 1.518359999999999987e-01 1.449960000000000093e+01 1.305929999999999893e+02 1.948119999999999891e+03
1.559999999999999998e-01 1.518339999999999967e-01 1.450744999999999862e+01 1.307010000000000218e+02 1.948089999999999918e+03
1.570000000000000007e-01 1.518335000000000101e-01 1.454289999999999949e+01 1.308470000000000084e+02 1.948085000000000036e+03
1.580000000000000016e-01 1.518355000000000121e-01 1.459789999999999921e+01 1.310155000000000030e+02 1.948095000000000027e+03
1.590000000000000024e-01 1.518390000000000017e-01 1.466460000000000008e+01 1.311909999999999741e+02 1.948119999999999891e+03
