# t [s], A [cm^2], U [cm/s], P [cPa], c [cm/s]
1.000000000000000021e-03 6.990210000000000035e-01 7.284600000000002185e-03 1.067884999999999991e+02 1.817840000000000146e+03
2.000000000000000042e-03 6.990110000000000490e-01 7.710000000000008513e-05 1.067549999999999955e+02 1.817829999999999927e+03
3.000000000000000062e-03 6.990750000000000020e-01 1.166309999999999986e-01 1.069020000000000010e+02 1.817860000000000127e+03
4.000000000000000083e-03 6.991150000000000420e-01 2.062671499999999825e-01 1.070229999999999961e+02 1.817884999999999991e+03
5.000000000000000104e-03 6.990650000000000475e-01 1.449600000000000055e-01 1.068849999999999909e+02 1.817860000000000127e+03
6.000000000000000125e-03 6.989965000000000206e-01 4.294700000000001294e-02 1.065960000000000036e+02 1.817809999999999945e+03
7.000000000000000146e-03 6.989324999999999566e-01 -6.151800000000001711e-02 1.062369999999999948e+02 1.817740000000000009e+03
8.000000000000000167e-03 6.988134999999999764e-01 -2.828549999999999676e-01 1.056620000000000061e+02 1.817639999999999873e+03
9.000000000000001055e-03 6.986235000000000639e-01 -6.547200000000000797e-01 1.047795000000000130e+02 1.817474999999999909e+03
1.000000000000000194e-02 6.983475000000000099e-01 -1.198420000000000041e+00 1.035091000000000037e+02 1.817244999999999891e+03
1.099999999999999936e-02 6.979630000000000001e-01 -1.937044999999999906e+00 1.017574999999999932e+02 1.816920000000000073e+03
1.200000000000000025e-02 6.975000000000000089e-01 -2.794195000000000206e+00 9.956964999999999577e+01 1.816505000000000109e+03
1.300000000000000114e-02 6.970385000000000053e-01 -3.587140000000000661e+00 9.718170000000000641e+01 1.816034999999999854e+03
1.400000000000000203e-02 6.966529999999999667e-01 -4.133009000000000377e+00 9.489320000000000732e+01 1.815570000000000164e+03
1.499999999999999944e-02 6.963705000000000034e-01 -4.343304500000000345e+00 9.290359999999999729e+01 1.815134999999999991e+03
1.600000000000000033e-02 6.961649999999999228e-01 -4.241240000000000343e+00 9.124809999999999377e+01 1.814750000000000000e+03
1.700000000000000122e-02 6.959840000000000471e-01 -3.921804999999999986e+00 8.982240000000000180e+01 1.814400000000000091e+03
1.800000000000000211e-02 6.957774999999999377e-01 -3.494822000000000095e+00 8.846144999999999925e+01 1.814059999999999945e+03
1.900000000000000300e-02 6.955170000000000519e-01 -3.038187000000000193e+00 8.702084999999999582e+01 1.813710000000000036e+03
2.000000000000000042e-02 6.952019999999999866e-01 -2.575117500000000170e+00 8.543319999999999936e+01 1.813335000000000036e+03
2.100000000000000130e-02 6.948559999999999182e-01 -2.080175000000000107e+00 8.372100000000000364e+01 1.812934999999999945e+03
2.200000000000000219e-02 6.945099999999999607e-01 -1.508260000000000156e+00 8.196524999999999750e+01 1.812525000000000091e+03
2.299999999999999961e-02 6.941844999999999821e-01 -8.303300000000002346e-01 8.025034999999999741e+01 1.812119999999999891e+03
2.400000000000000050e-02 6.938800000000000523e-01 -5.880999999999980687e-02 7.861390000000000100e+01 1.811724999999999909e+03
2.500000000000000139e-02 6.935774999999999579e-01 7.462449999999998251e-01 7.701994999999999436e+01 1.811339999999999918e+03
2.600000000000000228e-02 6.932404999999999262e-01 1.489360000000000017e+00 7.536355000000000359e+01 1.810944999999999936e+03
2.700000000000000316e-02 6.928330000000000322e-01 2.064225000000000421e+00 7.350014999999999077e+01 1.810514999999999873e+03
2.800000000000000058e-02 6.923259999999999970e-01 2.382710000000000328e+00 7.129124999999999091e+01 1.810025000000000091e+03
2.900000000000000147e-02 6.917115000000000347e-01 2.399510000000000254e+00 6.865094999999999459e+01 1.809460000000000036e+03
3.000000000000000236e-02 6.910039999999999516e-01 2.124394999999999811e+00 6.557829999999999870e+01 1.808819999999999936e+03
3.099999999999999978e-02 6.902395000000000058e-01 1.617589999999999861e+00 6.216494999999999749e+01 1.808105000000000018e+03
3.200000000000000067e-02 6.894639999999999658e-01 9.715299999999995606e-01 5.857549999999999812e+01 1.807355000000000018e+03
3.300000000000000155e-02 6.887240000000000029e-01 2.866999999999997328e-01 5.501135000000000019e+01 1.806599999999999909e+03
3.400000000000000244e-02 6.880580000000000584e-01 -3.490500000000000824e-01 5.167149999999999466e+01 1.805884999999999991e+03
3.500000000000000333e-02 6.874925000000000619e-01 -8.722500000000001918e-01 4.872245000000000203e+01 1.805224999999999909e+03
3.600000000000000422e-02 6.870410000000000128e-01 -1.246499999999999719e+00 4.628164999999999907e+01 1.804670000000000073e+03
3.700000000000000511e-02 6.867054999999999687e-01 -1.457715000000000094e+00 4.441509999999999536e+01 1.804220000000000027e+03
3.799999999999999906e-02 6.864850000000000119e-01 -1.505544999999999911e+00 4.314555000000000007e+01 1.803889999999999873e+03
3.899999999999999994e-02 6.863730000000000109e-01 -1.394063349999999923e+00 4.246674999999999756e+01 1.803680000000000064e+03
4.000000000000000083e-02 6.863654999999999617e-01 -1.124700000000000033e+00 4.235855000000000103e+01 1.803595000000000027e+03
4.100000000000000172e-02 6.864609999999999879e-01 -6.929050000000001042e-01 4.279845000000000255e+01 1.803630000000000109e+03
4.200000000000000261e-02 6.866579999999999906e-01 -8.906499999999994976e-02 4.376725000000000421e+01 1.803779999999999973e+03
4.300000000000000350e-02 6.869555000000000522e-01 6.973599999999999799e-01 4.524835000000000207e+01 1.804034999999999854e+03
4.400000000000000439e-02 6.873515000000000041e-01 1.672404999999999697e+00 4.722259999999999991e+01 1.804404999999999973e+03
4.499999999999999833e-02 6.878405000000000769e-01 2.832885000000000097e+00 4.966165000000000163e+01 1.804869999999999891e+03
4.599999999999999922e-02 6.884114999999999540e-01 4.163819999999999411e+00 5.252264999999999873e+01 1.805434999999999945e+03
4.700000000000000011e-02 6.890505000000000102e-01 5.638379999999999725e+00 5.574609999999999843e+01 1.806079999999999927e+03
4.800000000000000100e-02 6.897400000000000198e-01 7.220424999999999649e+00 5.925739999999999696e+01 1.806800000000000182e+03
4.900000000000000189e-02 6.904609999999999914e-01 8.868287999999999727e+00 6.297180000000000177e+01 1.807570000000000164e+03
5.000000000000000278e-02 6.911964999999999915e-01 1.053933999999999926e+01 6.680115000000000691e+01 1.808369999999999891e+03
5.100000000000000366e-02 6.919305000000000039e-01 1.219404500000000091e+01 7.066149999999998954e+01 1.809190000000000055e+03
5.200000000000000455e-02 6.926490000000000702e-01 1.379929000000000094e+01 7.447950000000000159e+01 1.810014999999999873e+03
5.300000000000000544e-02 6.933445000000000302e-01 1.533004000000000033e+01 7.819764999999999588e+01 1.810825000000000045e+03
5.399999999999999939e-02 6.940109999999999335e-01 1.676989999999999981e+01 8.177639999999999532e+01 1.811619999999999891e+03
5.500000000000000028e-02 6.946479999999999322e-01 1.811039999999999850e+01 8.519469999999999743e+01 1.812390000000000100e+03
5.600000000000000117e-02 6.952559999999999851e-01 1.934975000000000023e+01 8.844790000000000418e+01 1.813119999999999891e+03
5.700000000000000205e-02 6.958385000000000264e-01 2.049119999999999919e+01 9.154509999999999081e+01 1.813829999999999927e+03
5.800000000000000294e-02 6.964004999999999779e-01 2.154124999999999801e+01 9.450504999999999711e+01 1.814505000000000109e+03
5.900000000000000383e-02 6.969460000000000655e-01 2.250829999999999842e+01 9.735275000000000034e+01 1.815164999999999964e+03
6.000000000000000472e-02 6.974810000000000176e-01 2.340109999999999957e+01 1.001140499999999918e+02 1.815799999999999955e+03
6.099999999999999867e-02 6.980079999999999618e-01 2.422745000000000104e+01 1.028144499999999937e+02 1.816420000000000073e+03
6.199999999999999956e-02 6.985315000000000829e-01 2.499370000000000047e+01 1.054725999999999999e+02 1.817030000000000200e+03
6.300000000000000044e-02 6.990520000000000067e-01 2.570329999999999870e+01 1.081009999999999991e+02 1.817634999999999991e+03
6.400000000000000133e-02 6.995694999999999553e-01 2.635719999999999885e+01 1.107044999999999959e+02 1.818235000000000127e+03
6.500000000000000222e-02 7.000804999999999945e-01 2.695345000000000013e+01 1.132779999999999916e+02 1.818825000000000045e+03
6.600000000000000311e-02 7.005835000000000257e-01 2.748785000000000167e+01 1.158075000000000045e+02 1.819404999999999973e+03
6.700000000000000400e-02 7.010720000000000285e-01 2.795449999999999946e+01 1.182735000000000127e+02 1.819974999999999909e+03
6.800000000000000488e-02 7.015415000000000401e-01 2.834684999999999988e+01 1.206525000000000034e+02 1.820525000000000091e+03
6.900000000000000577e-02 7.019870000000000276e-01 2.865834999999999866e+01 1.229180000000000064e+02 1.821049999999999955e+03
7.000000000000000666e-02 7.024044999999999872e-01 2.888329999999999842e+01 1.250434999999999945e+02 1.821550000000000182e+03
7.100000000000000755e-02 7.027885000000000382e-01 2.901715000000000089e+01 1.270060000000000002e+02 1.822014999999999873e+03
7.200000000000000844e-02 7.031359999999999832e-01 2.905705000000000027e+01 1.287845000000000084e+02 1.822440000000000055e+03
7.300000000000000933e-02 7.034449999999999870e-01 2.900159999999999982e+01 1.303634999999999877e+02 1.822829999999999927e+03
7.399999999999999634e-02 7.037124999999999631e-01 2.885110000000000241e+01 1.317324999999999875e+02 1.823164999999999964e+03
7.499999999999999722e-02 7.039389999999999814e-01 2.860725000000000051e+01 1.328855000000000075e+02 1.823460000000000036e+03
7.599999999999999811e-02 7.041235000000000133e-01 2.827364999999999995e+01 1.338199999999999932e+02 1.823704999999999927e+03
7.699999999999999900e-02 7.042675000000000463e-01 2.785515000000000185e+01 1.345405000000000086e+02 1.823900000000000091e+03
7.799999999999999989e-02 7.043719999999999981e-01 2.735849999999999937e+01 1.350539999999999736e+02 1.824055000000000064e+03
7.900000000000000078e-02 7.044405000000000250e-01 2.679204999999999970e+01 1.353745000000000118e+02 1.824159999999999854e+03
8.000000000000000167e-02 7.044755000000000322e-01 2.616579999999999728e+01 1.355174999999999841e+02 1.824224999999999909e+03
8.100000000000000255e-02 7.044820000000000526e-01 2.549125000000000085e+01 1.355045000000000073e+02 1.824250000000000000e+03
8.200000000000000344e-02 7.044639999999999791e-01 2.478089999999999904e+01 1.353584999999999923e+02 1.824250000000000000e+03
8.300000000000000433e-02 7.044265000000000665e-01 2.404795000000000016e+01 1.351050000000000182e+02 1.824215000000000146e+03
8.400000000000000522e-02 7.043755000000000432e-01 2.330559999999999832e+01 1.347710000000000150e+02 1.824170000000000073e+03
8.500000000000000611e-02 7.043155000000000943e-01 2.256615000000000038e+01 1.343830000000000098e+02 1.824095000000000027e+03
8.600000000000000699e-02 7.042505000000000015e-01 2.184074999999999989e+01 1.339645000000000152e+02 1.824014999999999873e+03
8.700000000000000788e-02 7.041840000000000321e-01 2.113844999999999885e+01 1.335374999999999943e+02 1.823929999999999836e+03
8.800000000000000877e-02 7.041195000000000093e-01 2.046589999999999776e+01 1.331185000000000116e+02 1.823845000000000027e+03
8.899999999999999578e-02 7.040579999999999616e-01 1.982714999999999961e+01 1.327189999999999941e+02 1.823755000000000109e+03
8.999999999999999667e-02 7.040009999999999879e-01 1.922354999999999947e+01 1.323460000000000036e+02 1.823674999999999955e+03
9.099999999999999756e-02 7.039469999999999894e-01 1.865384999999999849e+01 1.320004999999999882e+02 1.823594999999999800e+03
9.199999999999999845e-02 7.038955000000000073e-01 1.811459999999999937e+01 1.316790000000000020e+02 1.823514999999999873e+03
9.299999999999999933e-02 7.038450000000000539e-01 1.760075000000000145e+01 1.313750000000000000e+02 1.823440000000000055e+03
9.400000000000000022e-02 7.037930000000000019e-01 1.710559999999999903e+01 1.310780000000000030e+02 1.823369999999999891e+03
9.500000000000000111e-02 7.037370000000000569e-01 1.662199999999999989e+01 1.307750000000000057e+02 1.823299999999999955e+03
9.600000000000000200e-02 7.036750000000000504e-01 1.614229999999999876e+01 1.304530000000000030e+02 1.823224999999999909e+03
9.700000000000000289e-02 7.036040000000000072e-01 1.565894999999999904e+01 1.301000000000000227e+02 1.823144999999999982e+03
9.800000000000000377e-02 7.035225000000000506e-01 1.516544999999999987e+01 1.297030000000000030e+02 1.823055000000000064e+03
9.900000000000000466e-02 7.034289999999999710e-01 1.465590000000000082e+01 1.292539999999999907e+02 1.822954999999999927e+03
1.000000000000000056e-01 7.033229999999999205e-01 1.412600000000000122e+01 1.287454999999999927e+02 1.822844999999999800e+03
1.010000000000000064e-01 7.032034999999999814e-01 1.357310000000000016e+01 1.281734999999999900e+02 1.822720000000000027e+03
1.020000000000000073e-01 7.030710000000000015e-01 1.299646500000000060e+01 1.275395000000000039e+02 1.822590000000000146e+03
1.030000000000000082e-01 7.029279999999999973e-01 1.239728500000000011e+01 1.268479999999999990e+02 1.822440000000000055e+03
1.040000000000000091e-01 7.027759999999999563e-01 1.177867999999999959e+01 1.261080000000000041e+02 1.822279999999999973e+03
1.050000000000000100e-01 7.026185000000000347e-01 1.114561499999999938e+01 1.253300000000000125e+02 1.822110000000000127e+03
1.059999999999999970e-01 7.024569999999999981e-01 1.050467000000000084e+01 1.245310000000000059e+02 1.821945000000000164e+03
1.069999999999999979e-01 7.022969999999999491e-01 9.863685000000000258e+00 1.237274999999999920e+02 1.821764999999999873e+03
1.079999999999999988e-01 7.021420000000000439e-01 9.231269999999998532e+00 1.229395000000000095e+02 1.821595000000000027e+03
1.089999999999999997e-01 7.019960000000000644e-01 8.616495000000000459e+00 1.221864999999999952e+02 1.821424999999999955e+03
1.100000000000000006e-01 7.018619999999999859e-01 8.028340000000000032e+00 1.214879999999999995e+02 1.821269999999999982e+03
1.110000000000000014e-01 7.017444999999999933e-01 7.475240000000000329e+00 1.208619999999999948e+02 1.821125000000000000e+03
1.120000000000000023e-01 7.016454999999999220e-01 6.964570000000000149e+00 1.203245000000000005e+02 1.820994999999999891e+03
1.130000000000000032e-01 7.015675000000000106e-01 6.502449999999999619e+00 1.198875000000000028e+02 1.820894999999999982e+03
1.140000000000000041e-01 7.015115000000000656e-01 6.093244999999999578e+00 1.195605000000000047e+02 1.820805000000000064e+03
1.150000000000000050e-01 7.014780000000000459e-01 5.739514999999999922e+00 1.193470000000000084e+02 1.820744999999999891e+03
1.160000000000000059e-01 7.014669999999999517e-01 5.441905000000000214e+00 1.192479999999999905e+02 1.820710000000000036e+03
1.170000000000000068e-01 7.014765000000000583e-01 5.199184999999999945e+00 1.192590000000000003e+02 1.820700000000000045e+03
1.180000000000000077e-01 7.015059999999999629e-01 5.008454999999999657e+00 1.193729999999999905e+02 1.820710000000000036e+03
1.190000000000000085e-01 7.015514999999999946e-01 4.865339999999999776e+00 1.195780000000000030e+02 1.820735000000000127e+03
1.200000000000000094e-01 7.016115000000000546e-01 4.764359999999999928e+00 1.198610000000000042e+02 1.820784999999999854e+03
1.209999999999999964e-01 7.016820000000000279e-01 4.699239999999999640e+00 1.202065000000000055e+02 1.820845000000000027e+03
1.219999999999999973e-01 7.017605000000000093e-01 4.663299999999999557e+00 1.205989999999999895e+02 1.820920000000000073e+03
1.229999999999999982e-01 7.018434999999999535e-01 4.649760000000000559e+00 1.210219999999999914e+02 1.821005000000000109e+03
1.239999999999999991e-01 7.019290000000000251e-01 4.652050000000000018e+00 1.214604999999999961e+02 1.821094999999999800e+03
1.250000000000000000e-01 7.020135000000000680e-01 4.664019999999999833e+00 1.219004999999999939e+02 1.821184999999999945e+03
1.260000000000000009e-01 7.020950000000000246e-01 4.680144999999999555e+00 1.223309999999999889e+02 1.821279999999999973e+03
1.270000000000000018e-01 7.021724999999999772e-01 4.695615000000000094e+00 1.227404999999999973e+02 1.821364999999999782e+03
1.280000000000000027e-01 7.022440000000000904e-01 4.706405000000000172e+00 1.231219999999999999e+02 1.821450000000000045e+03
1.290000000000000036e-01 7.023085000000000022e-01 4.709329999999999572e+00 1.234699999999999989e+02 1.821529999999999973e+03
1.300000000000000044e-01 7.023664999999998937e-01 4.702020000000000088e+00 1.237800000000000011e+02 1.821599999999999909e+03
1.310000000000000053e-01 7.024164999999999992e-01 4.682914999999999495e+00 1.240494999999999948e+02 1.821664999999999964e+03
1.320000000000000062e-01 7.024595000000000145e-01 4.651184999999999903e+00 1.242794999999999987e+02 1.821714999999999918e+03
1.330000000000000071e-01 7.024954999999999394e-01 4.606709999999999638e+00 1.244710000000000036e+02 1.821759999999999991e+03
1.340000000000000080e-01 7.025244999999999962e-01 4.549954999999999750e+00 1.246260000000000048e+02 1.821804999999999836e+03
1.350000000000000089e-01 7.025479999999999503e-01 4.481915000000000759e+00 1.247469999999999999e+02 1.821835000000000036e+03
1.360000000000000098e-01 7.025660000000000238e-01 4.403954999999999842e+00 1.248389999999999986e+02 1.821865000000000009e+03
1.370000000000000107e-01 7.025794999999999124e-01 4.317739999999999689e+00 1.249050000000000011e+02 1.821880000000000109e+03
1.380000000000000115e-01 7.025894999999999779e-01 4.225070000000000547e+00 1.249499999999999886e+02 1.821894999999999982e+03
1.390000000000000124e-01 7.025970000000000271e-01 4.127765000000000128e+00 1.249770000000000039e+02 1.821909999999999854e+03
1.400000000000000133e-01 7.026014999999999899e-01 4.027544999999999931e+00 1.249890000000000043e+02 1.821914999999999964e+03
1.410000000000000142e-01 7.026045000000000762e-01 3.925945000000000018e+00 1.249904999999999973e+02 1.821920000000000073e+03
1.420000000000000151e-01 7.026054999999999939e-01 3.824230000000000018e+00 1.249809999999999945e+02 1.821920000000000073e+03
1.430000000000000160e-01 7.026049999999999240e-01 3.723364999999999814e+00 1.249639999999999986e+02 1.821914999999999964e+03
1.440000000000000169e-01 7.026035000000000474e-01 3.623975000000000168e+00 1.249385000000000048e+02 1.821909999999999854e+03
1.450000000000000178e-01 7.026000000000000023e-01 3.526384999999999881e+00 1.249039999999999964e+02 1.821909999999999854e+03
1.459999999999999909e-01 7.025939999999999408e-01 3.430664999999999853e+00 1.248599999999999994e+02 1.821904999999999973e+03
1.469999999999999918e-01 7.025859999999999328e-01 3.336699999999999999e+00 1.248050000000000068e+02 1.821889999999999873e+03
1.479999999999999927e-01 7.025749999999999496e-01 3.244259999999999700e+00 1.247369999999999948e+02 1.821875000000000000e+03
1.489999999999999936e-01 7.025609999999999911e-01 3.153094999999999981e+00 1.246550000000000011e+02 1.821860000000000127e+03
1.499999999999999944e-01 7.025440000000000573e-01 3.063030000000000364e+00 1.245559999999999974e+02 1.821840000000000146e+03
1.509999999999999953e-01 7.025230000000000086e-01 2.974009999999999820e+00 1.244399999999999977e+02 1.821819999999999936e+03
1.519999999999999962e-01 7.024979999999999558e-01 2.886179999999999968e+00 1.243064999999999998e+02 1.821789999999999964e+03
1.529999999999999971e-01 7.024699999999999278e-01 2.799895000000000245e+00 1.241564999999999941e+02 1.821755000000000109e+03
1.539999999999999980e-01 7.024394999999999945e-01 2.715720000000000134e+00 1.239899999999999949e+02 1.821720000000000027e+03
1.549999999999999989e-01 7.024055000000000160e-01 2.634434999999999860e+00 1.238094999999999999e+02 1.821680000000000064e+03
1.559999999999999998e-01 7.023690000000000211e-01 2.556964999999999932e+00 1.236170000000000044e+02 1.821639999999999873e+03
1.570000000000000007e-01 7.023314999999999975e-01 2.484379999999999811e+00 1.234155000000000086e+02 1.821594999999999800e+03
1.580000000000000016e-01 7.022924999999999862e-01 2.417794999999999916e+00 1.232090000000000032e+02 1.821549999999999955e+03
1.590000000000000024e-01 7.022535000000000860e-01 2.358369999999999855e+00 1.230004999999999882e+02 1.821505000000000109e+03
