# t [s], A [cm^2], U [cm/s], P [cPa], c [cm/s]
1.000000000000000021e-03 1.805479999999999863e-01 1.392075500000000132e-01 9.664244999999999663e+01 2.075925000000000182e+03
2.000000000000000042e-03 1.805194999999999994e-01 1.372916500000000095e+00 9.402394999999999925e+01 2.075664999999999964e+03
3.000000000000000062e-03 1.804199999999999970e-01 2.971995499999999790e+00 9.034650000000000603e+01 2.074805000000000291e+03
4.000000000000000083e-03 1.802725000000000022e-01 4.792928499999999481e+00 8.602109999999998990e+01 2.073539999999999964e+03
5.000000000000000104e-03 1.801024999999999987e-01 6.783770000000000522e+00 8.176690000000000680e+01 2.072100000000000364e+03
6.000000000000000125e-03 1.799304999999999932e-01 8.847580000000000666e+00 7.803415000000001100e+01 2.070659999999999854e+03
7.000000000000000146e-03 1.797655000000000225e-01 1.082152999999999921e+01 7.485099999999999909e+01 2.069295000000000073e+03
8.000000000000000167e-03 1.796095000000000053e-01 1.256879499999999972e+01 7.201874999999999716e+01 2.068034999999999854e+03
9.000000000000001055e-03 1.794669999999999876e-01 1.405998500000000107e+01 6.945609999999999218e+01 2.066894999999999982e+03
1.000000000000000194e-02 1.793410000000000004e-01 1.532264999999999944e+01 6.722669999999999391e+01 2.065900000000000091e+03
1.099999999999999936e-02 1.792330000000000034e-01 1.637935000000000230e+01 6.537930000000000064e+01 2.065055000000000291e+03
1.200000000000000025e-02 1.791439999999999977e-01 1.724259999999999948e+01 6.390215000000000600e+01 2.064369999999999891e+03
1.300000000000000114e-02 1.790714999999999946e-01 1.791785000000000139e+01 6.273969999999999914e+01 2.063819999999999709e+03
1.400000000000000203e-02 1.790124999999999911e-01 1.840245000000000175e+01 6.179489999999999839e+01 2.063380000000000109e+03
1.499999999999999944e-02 1.789634999999999976e-01 1.870455000000000112e+01 6.096815000000000140e+01 2.063019999999999982e+03
1.600000000000000033e-02 1.789224999999999843e-01 1.887330000000000041e+01 6.025005000000000166e+01 2.062724999999999909e+03
1.700000000000000122e-02 1.788925000000000098e-01 1.900509999999999877e+01 5.978069999999999595e+01 2.062510000000000218e+03
1.800000000000000211e-02 1.788790000000000102e-01 1.921164999999999878e+01 5.980105000000000359e+01 2.062420000000000073e+03
1.900000000000000300e-02 1.788889999999999925e-01 1.957110000000000127e+01 6.052159999999999940e+01 2.062500000000000000e+03
2.000000000000000042e-02 1.789239999999999997e-01 2.009389999999999787e+01 6.199429999999999552e+01 2.062779999999999745e+03
2.100000000000000130e-02 1.789815000000000156e-01 2.072039999999999793e+01 6.406229999999999336e+01 2.063229999999999563e+03
2.200000000000000219e-02 1.790539999999999909e-01 2.134734999999999872e+01 6.640370000000000061e+01 2.063809999999999945e+03
2.299999999999999961e-02 1.791309999999999847e-01 2.186634999999999707e+01 6.863765000000000782e+01 2.064425000000000182e+03
2.400000000000000050e-02 1.792020000000000002e-01 2.219805000000000206e+01 7.043970000000000198e+01 2.064994999999999891e+03
2.500000000000000139e-02 1.792584999999999873e-01 2.231145000000000067e+01 7.162505000000000166e+01 2.065465000000000146e+03
2.600000000000000228e-02 1.792974999999999985e-01 2.222429999999999950e+01 7.217640000000000100e+01 2.065800000000000182e+03
2.700000000000000316e-02 1.793199999999999794e-01 2.198805000000000121e+01 7.221565000000001078e+01 2.066000000000000000e+03
2.800000000000000058e-02 1.793295000000000028e-01 2.166489999999999938e+01 7.193880000000000052e+01 2.066085000000000036e+03
2.900000000000000147e-02 1.793299999999999894e-01 2.130584999999999951e+01 7.153960000000000719e+01 2.066099999999999909e+03
3.000000000000000236e-02 1.793259999999999854e-01 2.093649999999999878e+01 7.114900000000000091e+01 2.066079999999999927e+03
3.099999999999999978e-02 1.793204999999999938e-01 2.055389999999999873e+01 7.080590000000000828e+01 2.066034999999999854e+03
3.200000000000000067e-02 1.793130000000000002e-01 2.013374999999999915e+01 7.046434999999999604e+01 2.065974999999999909e+03
3.300000000000000155e-02 1.793015000000000025e-01 1.964395000000000024e+01 7.002790000000000248e+01 2.065885000000000218e+03
3.400000000000000244e-02 1.792839999999999989e-01 1.906060000000000088e+01 6.939830000000000609e+01 2.065750000000000000e+03
3.500000000000000333e-02 1.792584999999999873e-01 1.838040000000000163e+01 6.852195000000000391e+01 2.065559999999999945e+03
3.600000000000000422e-02 1.792249999999999954e-01 1.762700000000000244e+01 6.742089999999998895e+01 2.065300000000000182e+03
3.700000000000000511e-02 1.791854999999999976e-01 1.684919999999999973e+01 6.619919999999999050e+01 2.065000000000000000e+03
3.799999999999999906e-02 1.791444999999999843e-01 1.611115000000000208e+01 6.502325000000000443e+01 2.064679999999999836e+03
3.899999999999999994e-02 1.791079999999999894e-01 1.547855000000000203e+01 6.408339999999999748e+01 2.064385000000000218e+03
4.000000000000000083e-02 1.790809999999999902e-01 1.500375000000000014e+01 6.354744999999999777e+01 2.064164999999999964e+03
4.100000000000000172e-02 1.790680000000000049e-01 1.471480000000000032e+01 6.352034999999999343e+01 2.064050000000000182e+03
4.200000000000000261e-02 1.790714999999999946e-01 1.461045000000000016e+01 6.402070000000000505e+01 2.064064999999999600e+03
4.300000000000000350e-02 1.790910000000000002e-01 1.466189999999999927e+01 6.497794999999999277e+01 2.064204999999999927e+03
4.400000000000000439e-02 1.791234999999999911e-01 1.481970000000000098e+01 6.624924999999998931e+01 2.064449999999999818e+03
4.499999999999999833e-02 1.791645000000000043e-01 1.502374999999999972e+01 6.764904999999998836e+01 2.064764999999999873e+03
4.599999999999999922e-02 1.792084999999999928e-01 1.521354999999999968e+01 6.898330000000001405e+01 2.065110000000000127e+03
4.700000000000000011e-02 1.792500000000000204e-01 1.533704999999999963e+01 7.008050000000000068e+01 2.065434999999999945e+03
4.800000000000000100e-02 1.792829999999999979e-01 1.535580000000000034e+01 7.081360000000000809e+01 2.065699999999999818e+03
4.900000000000000189e-02 1.793044999999999778e-01 1.524715000000000131e+01 7.111025000000000773e+01 2.065875000000000000e+03
5.000000000000000278e-02 1.793124999999999858e-01 1.500305000000000000e+01 7.095165000000000077e+01 2.065945000000000164e+03
5.100000000000000366e-02 1.793055000000000065e-01 1.462689999999999912e+01 7.036260000000000048e+01 2.065899999999999636e+03
5.200000000000000455e-02 1.792849999999999999e-01 1.412955000000000005e+01 6.939635000000001241e+01 2.065744999999999891e+03
5.300000000000000544e-02 1.792509999999999937e-01 1.352515000000000001e+01 6.811969999999999459e+01 2.065484999999999673e+03
5.399999999999999939e-02 1.792070000000000052e-01 1.282869999999999955e+01 6.659985000000000355e+01 2.065140000000000327e+03
5.500000000000000028e-02 1.791534999999999933e-01 1.205440000000000111e+01 6.489669999999999561e+01 2.064724999999999909e+03
5.600000000000000117e-02 1.790930000000000022e-01 1.121586999999999890e+01 6.306040000000000134e+01 2.064250000000000000e+03
5.700000000000000205e-02 1.790265000000000051e-01 1.032691999999999943e+01 6.113315000000000055e+01 2.063725000000000364e+03
5.800000000000000294e-02 1.789565000000000183e-01 9.403034999999999144e+00 5.915380000000000393e+01 2.063170000000000073e+03
5.900000000000000383e-02 1.788835000000000008e-01 8.462790000000000035e+00 5.716344999999999743e+01 2.062599999999999909e+03
6.000000000000000472e-02 1.788099999999999967e-01 7.528660000000000352e+00 5.521000000000000085e+01 2.062015000000000327e+03
6.099999999999999867e-02 1.787374999999999936e-01 6.627169999999999561e+00 5.335089999999999577e+01 2.061440000000000055e+03
6.199999999999999956e-02 1.786689999999999945e-01 5.788184999999999469e+00 5.165285000000000082e+01 2.060894999999999982e+03
6.300000000000000044e-02 1.786059999999999870e-01 5.043495000000000061e+00 5.018939999999999912e+01 2.060394999999999982e+03
6.400000000000000133e-02 1.785519999999999885e-01 4.424884999999999735e+00 4.903589999999999804e+01 2.059954999999999927e+03
6.500000000000000222e-02 1.785100000000000020e-01 3.962024999999999686e+00 4.826420000000000243e+01 2.059609999999999673e+03
6.600000000000000311e-02 1.784815000000000151e-01 3.680430000000000312e+00 4.793640000000000612e+01 2.059375000000000000e+03
6.700000000000000400e-02 1.784689999999999888e-01 3.599720000000000031e+00 4.809985000000000355e+01 2.059260000000000218e+03
6.800000000000000488e-02 1.784739999999999938e-01 3.732479999999999798e+00 4.878325000000000244e+01 2.059284999999999854e+03
6.900000000000000577e-02 1.784979999999999900e-01 4.083614999999999995e+00 4.999495000000000289e+01 2.059460000000000036e+03
7.000000000000000666e-02 1.785410000000000053e-01 4.650349999999999540e+00 5.172294999999999732e+01 2.059774999999999636e+03
7.100000000000000755e-02 1.786024999999999974e-01 5.422760000000000247e+00 5.393605000000000160e+01 2.060250000000000000e+03
7.200000000000000844e-02 1.786814999999999931e-01 6.384719999999999729e+00 5.658745000000000402e+01 2.060860000000000127e+03
7.300000000000000933e-02 1.787770000000000192e-01 7.515190000000000481e+00 5.961830000000000496e+01 2.061599999999999909e+03
7.399999999999999634e-02 1.788865000000000038e-01 8.789680000000000604e+00 6.296224999999999739e+01 2.062454999999999927e+03
7.499999999999999722e-02 1.790080000000000005e-01 1.018189999999999884e+01 6.655035000000000878e+01 2.063404999999999745e+03
7.599999999999999811e-02 1.791389999999999927e-01 1.166508500000000126e+01 7.031515000000000271e+01 2.064440000000000055e+03
7.699999999999999900e-02 1.792770000000000197e-01 1.321361500000000078e+01 7.419474999999999909e+01 2.065529999999999745e+03
7.799999999999999989e-02 1.794205000000000105e-01 1.480395000000000039e+01 7.813589999999999236e+01 2.066670000000000073e+03
7.900000000000000078e-02 1.795674999999999910e-01 1.641544999999999987e+01 8.209555000000000291e+01 2.067835000000000036e+03
8.000000000000000167e-02 1.797159999999999869e-01 1.803089999999999904e+01 8.604210000000000491e+01 2.069019999999999982e+03
8.100000000000000255e-02 1.798649999999999971e-01 1.963649999999999807e+01 8.995470000000000255e+01 2.070215000000000146e+03
8.200000000000000344e-02 1.800145000000000217e-01 2.122155000000000058e+01 9.382185000000001196e+01 2.071409999999999854e+03
8.300000000000000433e-02 1.801630000000000176e-01 2.277810000000000201e+01 9.763935000000000741e+01 2.072605000000000018e+03
8.400000000000000522e-02 1.803099999999999981e-01 2.430024999999999835e+01 1.014076000000000022e+02 2.073795000000000073e+03
8.500000000000000611e-02 1.804565000000000197e-01 2.578345000000000198e+01 1.051300999999999988e+02 2.074970000000000255e+03
8.600000000000000699e-02 1.806019999999999848e-01 2.722384999999999877e+01 1.088084999999999951e+02 2.076144999999999982e+03
8.700000000000000788e-02 1.807460000000000178e-01 2.861789999999999878e+01 1.124445000000000050e+02 2.077315000000000055e+03
8.800000000000000877e-02 1.808885000000000076e-01 2.996209999999999951e+01 1.160354999999999990e+02 2.078465000000000146e+03
8.899999999999999578e-02 1.810295000000000099e-01 3.125274999999999892e+01 1.195765000000000100e+02 2.079609999999999673e+03
8.999999999999999667e-02 1.811685000000000101e-01 3.248575000000000301e+01 1.230595000000000141e+02 2.080739999999999782e+03
9.099999999999999756e-02 1.813060000000000227e-01 3.365720000000000312e+01 1.264730000000000132e+02 2.081859999999999673e+03
9.199999999999999845e-02 1.814405000000000046e-01 3.476295000000000357e+01 1.298050000000000068e+02 2.082954999999999927e+03
9.299999999999999933e-02 1.815714999999999968e-01 3.579895000000000493e+01 1.330420000000000016e+02 2.084029999999999745e+03
9.400000000000000022e-02 1.816995000000000138e-01 3.676139999999999475e+01 1.361705000000000041e+02 2.085079999999999927e+03
9.500000000000000111e-02 1.818234999999999990e-01 3.764664999999999395e+01 1.391764999999999759e+02 2.086090000000000146e+03
9.600000000000000200e-02 1.819429999999999936e-01 3.845100000000000051e+01 1.420464999999999804e+02 2.087069999999999709e+03
9.700000000000000289e-02 1.820569999999999966e-01 3.917114999999999725e+01 1.447685000000000173e+02 2.088005000000000109e+03
9.800000000000000377e-02 1.821665000000000090e-01 3.980364999999999753e+01 1.473290000000000077e+02 2.088904999999999745e+03
9.900000000000000466e-02 1.822690000000000143e-01 4.034529999999999461e+01 1.497160000000000082e+02 2.089750000000000000e+03
1.000000000000000056e-01 1.823649999999999993e-01 4.079285000000000139e+01 1.519170000000000016e+02 2.090539999999999964e+03
1.010000000000000064e-01 1.824534999999999907e-01 4.114345000000000141e+01 1.539205000000000041e+02 2.091275000000000091e+03
1.020000000000000073e-01 1.825355000000000172e-01 4.139475000000000193e+01 1.557164999999999964e+02 2.091949999999999818e+03
1.030000000000000082e-01 1.826085000000000069e-01 4.154505000000000337e+01 1.572959999999999923e+02 2.092565000000000055e+03
1.040000000000000091e-01 1.826744999999999897e-01 4.159364999999999668e+01 1.586535000000000082e+02 2.093104999999999563e+03
1.050000000000000100e-01 1.827310000000000045e-01 4.154120000000000346e+01 1.597855000000000132e+02 2.093585000000000036e+03
1.059999999999999970e-01 1.827795000000000114e-01 4.138980000000000103e+01 1.606929999999999836e+02 2.093989999999999782e+03
1.069999999999999979e-01 1.828200000000000103e-01 4.114289999999999736e+01 1.613815000000000168e+02 2.094329999999999927e+03
1.079999999999999988e-01 1.828509999999999858e-01 4.080590000000000117e+01 1.618594999999999970e+02 2.094595000000000255e+03
1.089999999999999997e-01 1.828750000000000098e-01 4.038540000000000418e+01 1.621415000000000077e+02 2.094800000000000182e+03
1.100000000000000006e-01 1.828915000000000124e-01 3.988935000000000031e+01 1.622439999999999998e+02 2.094944999999999709e+03
1.110000000000000014e-01 1.829005000000000214e-01 3.932685000000000031e+01 1.621870000000000118e+02 2.095029999999999745e+03
1.120000000000000023e-01 1.829034999999999966e-01 3.870765000000000100e+01 1.619915000000000020e+02 2.095059999999999945e+03
1.130000000000000032e-01 1.829010000000000080e-01 3.804189999999999827e+01 1.616800000000000068e+02 2.095050000000000182e+03
1.140000000000000041e-01 1.828940000000000010e-01 3.733964999999999890e+01 1.612750000000000057e+02 2.095000000000000000e+03
1.150000000000000050e-01 1.828830000000000178e-01 3.661070000000000135e+01 1.607975000000000136e+02 2.094909999999999854e+03
1.160000000000000059e-01 1.828684999999999894e-01 3.586435000000000173e+01 1.602669999999999959e+02 2.094800000000000182e+03
1.170000000000000068e-01 1.828520000000000145e-01 3.510885000000000389e+01 1.596999999999999886e+02 2.094670000000000073e+03
1.180000000000000077e-01 1.828334999999999821e-01 3.435150000000000148e+01 1.591114999999999782e+02 2.094519999999999982e+03
1.190000000000000085e-01 1.828140000000000043e-01 3.359834999999999638e+01 1.585120000000000005e+02 2.094359999999999673e+03
1.200000000000000094e-01 1.827934999999999977e-01 3.285415000000000418e+01 1.579094999999999800e+02 2.094190000000000055e+03
1.209999999999999964e-01 1.827719999999999900e-01 3.212225000000000108e+01 1.573084999999999809e+02 2.094015000000000327e+03
1.219999999999999973e-01 1.827505000000000102e-01 3.140480000000000160e+01 1.567115000000000009e+02 2.093840000000000146e+03
1.229999999999999982e-01 1.827289999999999748e-01 3.070255000000000223e+01 1.561159999999999854e+02 2.093659999999999854e+03
1.239999999999999991e-01 1.827064999999999939e-01 3.001510000000000389e+01 1.555194999999999936e+02 2.093480000000000018e+03
1.250000000000000000e-01 1.826834999999999987e-01 2.934094999999999942e+01 1.549149999999999920e+02 2.093289999999999964e+03
1.260000000000000009e-01 1.826605000000000034e-01 2.867764999999999986e+01 1.542959999999999923e+02 2.093100000000000364e+03
1.270000000000000018e-01 1.826365000000000072e-01 2.802214999999999989e+01 1.536530000000000200e+02 2.092904999999999745e+03
1.280000000000000027e-01 1.826119999999999965e-01 2.737080000000000268e+01 1.529764999999999873e+02 2.092699999999999818e+03
1.290000000000000036e-01 1.825849999999999973e-01 2.671989999999999910e+01 1.522574999999999932e+02 2.092484999999999673e+03
1.300000000000000044e-01 1.825574999999999837e-01 2.606550000000000011e+01 1.514870000000000232e+02 2.092250000000000000e+03
1.310000000000000053e-01 1.825269999999999948e-01 2.540409999999999968e+01 1.506555000000000177e+02 2.092000000000000000e+03
1.320000000000000062e-01 1.824945000000000039e-01 2.473254999999999981e+01 1.497579999999999814e+02 2.091739999999999782e+03
1.330000000000000071e-01 1.824600000000000111e-01 2.404829999999999757e+01 1.487889999999999873e+02 2.091454999999999927e+03
1.340000000000000080e-01 1.824224999999999874e-01 2.334989999999999810e+01 1.477464999999999975e+02 2.091150000000000091e+03
1.350000000000000089e-01 1.823819999999999886e-01 2.263670000000000115e+01 1.466315000000000168e+02 2.090819999999999709e+03
1.360000000000000098e-01 1.823394999999999877e-01 2.190919999999999845e+01 1.454465000000000146e+02 2.090475000000000364e+03
1.370000000000000107e-01 1.822934999999999972e-01 2.116915000000000191e+01 1.441985000000000241e+02 2.090105000000000018e+03
1.380000000000000115e-01 1.822460000000000191e-01 2.041935000000000144e+01 1.428960000000000150e+02 2.089710000000000036e+03
1.390000000000000124e-01 1.821960000000000246e-01 1.966369999999999862e+01 1.415520000000000209e+02 2.089309999999999945e+03
1.400000000000000133e-01 1.821450000000000014e-01 1.890695000000000192e+01 1.401784999999999854e+02 2.088890000000000327e+03
1.410000000000000142e-01 1.820924999999999905e-01 1.815469999999999828e+01 1.387920000000000016e+02 2.088470000000000255e+03
1.420000000000000151e-01 1.820395000000000207e-01 1.741300000000000026e+01 1.374089999999999918e+02 2.088034999999999854e+03
1.430000000000000160e-01 1.819864999999999955e-01 1.668815000000000026e+01 1.360459999999999923e+02 2.087605000000000018e+03
1.440000000000000169e-01 1.819344999999999990e-01 1.598655000000000115e+01 1.347194999999999823e+02 2.087180000000000291e+03
1.450000000000000178e-01 1.818834999999999757e-01 1.531409999999999982e+01 1.334449999999999932e+02 2.086765000000000327e+03
1.459999999999999909e-01 1.818345000000000100e-01 1.467634999999999934e+01 1.322364999999999782e+02 2.086360000000000127e+03
1.469999999999999918e-01 1.817874999999999908e-01 1.407814999999999905e+01 1.311050000000000182e+02 2.085980000000000018e+03
1.479999999999999927e-01 1.817429999999999879e-01 1.352325000000000088e+01 1.300594999999999857e+02 2.085614999999999782e+03
1.489999999999999936e-01 1.817024999999999890e-01 1.301464999999999961e+01 1.291069999999999993e+02 2.085279999999999745e+03
1.499999999999999944e-01 1.816645000000000065e-01 1.255420000000000158e+01 1.282510000000000048e+02 2.084965000000000146e+03
1.509999999999999953e-01 1.816305000000000003e-01 1.214274999999999949e+01 1.274915000000000020e+02 2.084680000000000291e+03
1.519999999999999962e-01 1.815990000000000104e-01 1.178010000000000090e+01 1.268284999999999911e+02 2.084425000000000182e+03
1.529999999999999971e-01 1.815720000000000112e-01 1.146518000000000015e+01 1.262574999999999932e+02 2.084199999999999818e+03
1.539999999999999980e-01 1.815479999999999872e-01 1.119623500000000149e+01 1.257744999999999891e+02 2.084000000000000000e+03
1.549999999999999989e-01 1.815275000000000083e-01 1.097069499999999920e+01 1.253714999999999975e+02 2.083824999999999818e+03
1.559999999999999998e-01 1.815100000000000047e-01 1.078543000000000163e+01 1.250430000000000064e+02 2.083680000000000291e+03
1.570000000000000007e-01 1.814945000000000030e-01 1.063702999999999932e+01 1.247789999999999964e+02 2.083555000000000291e+03
1.580000000000000016e-01 1.814824999999999910e-01 1.052162500000000023e+01 1.245720000000000027e+02 2.083449999999999818e+03
1.590000000000000024e-01 1.814724999999999810e-01 1.043541499999999900e+01 1.244134999999999991e+02 2.083364999999999782e+03
