# t [s], A [cm^2], U [cm/s], P [cPa], c [cm/s]
1.000000000000000021e-03 4.516565000000000163e-01 3.230900000000001826e-03 9.682865000000001032e+01 1.603500000000000000e+03
2.000000000000000042e-03 4.516525000000000123e-01 6.088994999999998957e-03 9.680780000000000030e+01 1.603490000000000009e+03
3.000000000000000062e-03 4.516999999999999904e-01 1.262808999999999737e-01 9.693479999999999563e+01 1.603519999999999982e+03
4.000000000000000083e-03 4.517280000000000184e-01 2.063832499999999903e-01 9.703464999999999918e+01 1.603549999999999955e+03
5.000000000000000104e-03 4.516980000000000439e-01 1.485420000000000074e-01 9.692680000000000007e+01 1.603530000000000200e+03
6.000000000000000125e-03 4.516494999999999815e-01 3.544800000000003504e-02 9.666460000000000719e+01 1.603470000000000027e+03
7.000000000000000146e-03 4.515974999999999850e-01 -9.508149999999992996e-02 9.630535000000000423e+01 1.603389999999999873e+03
8.000000000000000167e-03 4.515069999999999917e-01 -3.340049999999999963e-01 9.574230000000000018e+01 1.603264999999999873e+03
9.000000000000001055e-03 4.513645000000000018e-01 -7.153349999999999431e-01 9.489334999999999809e+01 1.603069999999999936e+03
1.000000000000000194e-02 4.511660000000000115e-01 -1.239110000000000156e+00 9.371295000000000641e+01 1.602789999999999964e+03
1.099999999999999936e-02 4.508969999999999922e-01 -1.924385000000000012e+00 9.213444999999998686e+01 1.602420000000000073e+03
1.200000000000000025e-02 4.505580000000000140e-01 -2.748920000000000030e+00 9.013779999999999859e+01 1.601934999999999945e+03
1.300000000000000114e-02 4.501835000000000142e-01 -3.595824999999999605e+00 8.783865000000000123e+01 1.601360000000000127e+03
1.400000000000000203e-02 4.498284999999999645e-01 -4.290884000000000142e+00 8.547220000000000084e+01 1.600750000000000000e+03
1.499999999999999944e-02 4.495370000000000199e-01 -4.688202999999999676e+00 8.328815000000000168e+01 1.600150000000000091e+03
1.600000000000000033e-02 4.493234999999999868e-01 -4.729293499999999817e+00 8.144790000000000418e+01 1.599615000000000009e+03
1.700000000000000122e-02 4.491705000000000281e-01 -4.449889999999999901e+00 7.998000000000000398e+01 1.599144999999999982e+03
1.800000000000000211e-02 4.490450000000000275e-01 -3.949390000000000178e+00 7.879464999999999009e+01 1.598740000000000009e+03
1.900000000000000300e-02 4.489104999999999901e-01 -3.345645000000000202e+00 7.773584999999999923e+01 1.598360000000000127e+03
2.000000000000000042e-02 4.487410000000000565e-01 -2.732673150000000106e+00 7.664634999999999820e+01 1.597985000000000127e+03
2.100000000000000130e-02 4.485284999999999966e-01 -2.154527999999999999e+00 7.542179999999999040e+01 1.597590000000000146e+03
2.200000000000000219e-02 4.482825000000000282e-01 -1.603674999999999740e+00 7.403594999999999970e+01 1.597159999999999854e+03
2.299999999999999961e-02 4.480195000000000149e-01 -1.041895000000000016e+00 7.252815000000001078e+01 1.596699999999999818e+03
2.400000000000000050e-02 4.477574999999999750e-01 -4.314599999999999547e-01 7.096659999999999968e+01 1.596230000000000018e+03
2.500000000000000139e-02 4.475040000000000129e-01 2.384699999999999598e-01 6.940510000000000446e+01 1.595750000000000000e+03
2.600000000000000228e-02 4.472534999999999705e-01 9.394150000000003331e-01 6.785264999999999702e+01 1.595264999999999873e+03
2.700000000000000316e-02 4.469894999999999841e-01 1.606609999999999872e+00 6.626304999999999268e+01 1.594775000000000091e+03
2.800000000000000058e-02 4.466904999999999903e-01 2.153840000000000643e+00 6.454470000000000596e+01 1.594250000000000000e+03
2.900000000000000147e-02 4.463344999999999674e-01 2.494749999999999801e+00 6.258539999999999992e+01 1.593679999999999836e+03
3.000000000000000236e-02 4.459064999999999834e-01 2.564769999999999772e+00 6.028540000000000276e+01 1.593030000000000200e+03
3.099999999999999978e-02 4.454034999999999522e-01 2.338084999999999969e+00 5.758934999999999604e+01 1.592284999999999854e+03
3.200000000000000067e-02 4.448360000000000092e-01 1.835094999999999921e+00 5.450789999999999935e+01 1.591449999999999818e+03
3.300000000000000155e-02 4.442270000000000385e-01 1.118665000000000020e+00 5.112345000000000539e+01 1.590539999999999964e+03
3.400000000000000244e-02 4.436065000000000147e-01 2.805999999999997385e-01 4.757939999999999969e+01 1.589579999999999927e+03
3.500000000000000333e-02 4.430085000000000273e-01 -5.758700000000001040e-01 4.405665000000000475e+01 1.588610000000000127e+03
3.600000000000000422e-02 4.424644999999999828e-01 -1.352809999999999846e+00 4.074625000000000341e+01 1.587684999999999945e+03
3.700000000000000511e-02 4.419990000000000308e-01 -1.970005000000000006e+00 3.782349999999999568e+01 1.586835000000000036e+03
3.799999999999999906e-02 4.416299999999999670e-01 -2.370505000000000084e+00 3.543005000000000138e+01 1.586105000000000018e+03
3.899999999999999994e-02 4.413664999999999949e-01 -2.521374999999999922e+00 3.366375000000000028e+01 1.585529999999999973e+03
4.000000000000000083e-02 4.412130000000000218e-01 -2.409556999999999949e+00 3.257759999999999678e+01 1.585125000000000000e+03
4.100000000000000172e-02 4.411674999999999902e-01 -2.035940000000000083e+00 3.218489999999999895e+01 1.584905000000000200e+03
4.200000000000000261e-02 4.412250000000000338e-01 -1.409085499999999991e+00 3.246914999999999907e+01 1.584865000000000009e+03
4.300000000000000350e-02 4.413794999999999802e-01 -5.403199999999999115e-01 3.339424999999999955e+01 1.584994999999999891e+03
4.400000000000000439e-02 4.416250000000000453e-01 5.588849999999998541e-01 3.491360000000000241e+01 1.585304999999999836e+03
4.499999999999999833e-02 4.419544999999999724e-01 1.877059999999999729e+00 3.697605000000000075e+01 1.585764999999999873e+03
4.599999999999999922e-02 4.423610000000000042e-01 3.401070000000000704e+00 3.952824999999999989e+01 1.586380000000000109e+03
4.700000000000000011e-02 4.428350000000000342e-01 5.113694999999999879e+00 4.251420000000000243e+01 1.587115000000000009e+03
4.800000000000000100e-02 4.433684999999999987e-01 6.991654999999999731e+00 4.587389999999999901e+01 1.587965000000000146e+03
4.900000000000000189e-02 4.439500000000000113e-01 9.004630000000000578e+00 4.954149999999999920e+01 1.588920000000000073e+03
5.000000000000000278e-02 4.445680000000000187e-01 1.111606999999999879e+01 5.344585000000000008e+01 1.589949999999999818e+03
5.100000000000000366e-02 4.452085000000000070e-01 1.328488999999999898e+01 5.751154999999999973e+01 1.591039999999999964e+03
5.200000000000000455e-02 4.458595000000000197e-01 1.546858999999999895e+01 6.166244999999999266e+01 1.592174999999999955e+03
5.300000000000000544e-02 4.465095000000000036e-01 1.762641999999999953e+01 6.582560000000000855e+01 1.593320000000000164e+03
5.399999999999999939e-02 4.471490000000000187e-01 1.972190000000000154e+01 6.993609999999999616e+01 1.594474999999999909e+03
5.500000000000000028e-02 4.477695000000000425e-01 2.172550000000000026e+01 7.394034999999999513e+01 1.595619999999999891e+03
5.600000000000000117e-02 4.483669999999999600e-01 2.361565000000000225e+01 7.779939999999999145e+01 1.596735000000000127e+03
5.700000000000000205e-02 4.489385000000000181e-01 2.537920000000000087e+01 8.149010000000001241e+01 1.597815000000000055e+03
5.800000000000000294e-02 4.494850000000000234e-01 2.701100000000000279e+01 8.500485000000000468e+01 1.598860000000000127e+03
5.900000000000000383e-02 4.500080000000000191e-01 2.851294999999999646e+01 8.835034999999999172e+01 1.599865000000000009e+03
6.000000000000000472e-02 4.505105000000000359e-01 2.989250000000000185e+01 9.154555000000000575e+01 1.600829999999999927e+03
6.099999999999999867e-02 4.509985000000000244e-01 3.116149999999999665e+01 9.461850000000001160e+01 1.601769999999999982e+03
6.199999999999999956e-02 4.514774999999999761e-01 3.233449999999999847e+01 9.760235000000000127e+01 1.602680000000000064e+03
6.300000000000000044e-02 4.519524999999999793e-01 3.342784999999999940e+01 1.005344499999999925e+02 1.603569999999999936e+03
6.400000000000000133e-02 4.524289999999999701e-01 3.445810000000000173e+01 1.034511499999999984e+02 1.604460000000000036e+03
6.500000000000000222e-02 4.529124999999999956e-01 3.544100000000000250e+01 1.063854000000000042e+02 1.605349999999999909e+03
6.600000000000000311e-02 4.534059999999999757e-01 3.639059999999999917e+01 1.093665000000000020e+02 1.606244999999999891e+03
6.700000000000000400e-02 4.539124999999999965e-01 3.731789999999999452e+01 1.124155000000000086e+02 1.607159999999999854e+03
6.800000000000000488e-02 4.544329999999999758e-01 3.823024999999999807e+01 1.155439999999999969e+02 1.608090000000000146e+03
6.900000000000000577e-02 4.549679999999999835e-01 3.913074999999999903e+01 1.187530000000000001e+02 1.609045000000000073e+03
7.000000000000000666e-02 4.555139999999999745e-01 4.001805000000000234e+01 1.220339999999999918e+02 1.610014999999999873e+03
7.100000000000000755e-02 4.560684999999999878e-01 4.088615000000000066e+01 1.253689999999999998e+02 1.611005000000000109e+03
7.200000000000000844e-02 4.566250000000000031e-01 4.172549999999999670e+01 1.287284999999999968e+02 1.612000000000000000e+03
7.300000000000000933e-02 4.571779999999999733e-01 4.252315000000000111e+01 1.320780000000000030e+02 1.612994999999999891e+03
7.399999999999999634e-02 4.577219999999999622e-01 4.326425000000000409e+01 1.353765000000000214e+02 1.613980000000000018e+03
7.499999999999999722e-02 4.582479999999999887e-01 4.393290000000000362e+01 1.385824999999999818e+02 1.614944999999999936e+03
7.599999999999999811e-02 4.587510000000000199e-01 4.451359999999999673e+01 1.416514999999999986e+02 1.615880000000000109e+03
7.699999999999999900e-02 4.592239999999999656e-01 4.499174999999999613e+01 1.445455000000000041e+02 1.616769999999999982e+03
7.799999999999999989e-02 4.596624999999999739e-01 4.535510000000000019e+01 1.472284999999999968e+02 1.617599999999999909e+03
7.900000000000000078e-02 4.600615000000000121e-01 4.559399999999999409e+01 1.496719999999999970e+02 1.618369999999999891e+03
8.000000000000000167e-02 4.604185000000000083e-01 4.570224999999999937e+01 1.518555000000000064e+02 1.619075000000000045e+03
8.100000000000000255e-02 4.607324999999999893e-01 4.567690000000000339e+01 1.537649999999999864e+02 1.619704999999999927e+03
8.200000000000000344e-02 4.610024999999999817e-01 4.551890000000000214e+01 1.553979999999999961e+02 1.620255000000000109e+03
8.300000000000000433e-02 4.612290000000000001e-01 4.523274999999999579e+01 1.567590000000000146e+02 1.620724999999999909e+03
8.400000000000000522e-02 4.614155000000000340e-01 4.482614999999999839e+01 1.578580000000000041e+02 1.621125000000000000e+03
8.500000000000000611e-02 4.615644999999999887e-01 4.430979999999999563e+01 1.587155000000000200e+02 1.621450000000000045e+03
8.600000000000000699e-02 4.616795000000000204e-01 4.369709999999999894e+01 1.593549999999999898e+02 1.621710000000000036e+03
8.700000000000000788e-02 4.617655000000000509e-01 4.300325000000000131e+01 1.598054999999999950e+02 1.621904999999999973e+03
8.800000000000000877e-02 4.618280000000000163e-01 4.224484999999999957e+01 1.600985000000000014e+02 1.622054999999999836e+03
8.899999999999999578e-02 4.618710000000000315e-01 4.143930000000000291e+01 1.602665000000000077e+02 1.622159999999999854e+03
8.999999999999999667e-02 4.619010000000000060e-01 4.060370000000000346e+01 1.603435000000000059e+02 1.622235000000000127e+03
9.099999999999999756e-02 4.619220000000000548e-01 3.975459999999999638e+01 1.603594999999999970e+02 1.622279999999999973e+03
9.199999999999999845e-02 4.619375000000000009e-01 3.890725000000000477e+01 1.603449999999999989e+02 1.622309999999999945e+03
9.299999999999999933e-02 4.619529999999999470e-01 3.807479999999999620e+01 1.603230000000000075e+02 1.622329999999999927e+03
9.400000000000000022e-02 4.619695000000000329e-01 3.726805000000000234e+01 1.603149999999999977e+02 1.622349999999999909e+03
9.500000000000000111e-02 4.619900000000000118e-01 3.649499999999999744e+01 1.603349999999999795e+02 1.622365000000000009e+03
9.600000000000000200e-02 4.620159999999999823e-01 3.576059999999999661e+01 1.603919999999999959e+02 1.622389999999999873e+03
9.700000000000000289e-02 4.620469999999999855e-01 3.506705000000000183e+01 1.604884999999999877e+02 1.622420000000000073e+03
9.800000000000000377e-02 4.620824999999999516e-01 3.441340000000000288e+01 1.606220000000000141e+02 1.622465000000000146e+03
9.900000000000000466e-02 4.621205000000000451e-01 3.379625000000000057e+01 1.607849999999999966e+02 1.622505000000000109e+03
1.000000000000000056e-01 4.621600000000000152e-01 3.320985000000000298e+01 1.609654999999999916e+02 1.622554999999999836e+03
1.010000000000000064e-01 4.621974999999999834e-01 3.264679999999999893e+01 1.611479999999999961e+02 1.622599999999999909e+03
1.020000000000000073e-01 4.622315000000000174e-01 3.209850000000000136e+01 1.613154999999999859e+02 1.622650000000000091e+03
1.030000000000000082e-01 4.622570000000000290e-01 3.155564999999999998e+01 1.614490000000000123e+02 1.622690000000000055e+03
1.040000000000000091e-01 4.622735000000000039e-01 3.100860000000000127e+01 1.615294999999999845e+02 1.622715000000000146e+03
1.050000000000000100e-01 4.622770000000000490e-01 3.044860000000000255e+01 1.615405000000000086e+02 1.622720000000000027e+03
1.059999999999999970e-01 4.622644999999999671e-01 2.986744999999999806e+01 1.614655000000000200e+02 1.622710000000000036e+03
1.069999999999999979e-01 4.622360000000000357e-01 2.925854999999999961e+01 1.612930000000000064e+02 1.622664999999999964e+03
1.079999999999999988e-01 4.621899999999999897e-01 2.861715000000000231e+01 1.610135000000000218e+02 1.622599999999999909e+03
1.089999999999999997e-01 4.621254999999999669e-01 2.794019999999999726e+01 1.606235000000000070e+02 1.622500000000000000e+03
1.100000000000000006e-01 4.620429999999999815e-01 2.722715000000000174e+01 1.601220000000000141e+02 1.622375000000000000e+03
1.110000000000000014e-01 4.619434999999999514e-01 2.647960000000000136e+01 1.595140000000000100e+02 1.622215000000000146e+03
1.120000000000000023e-01 4.618284999999999751e-01 2.570145000000000124e+01 1.588079999999999927e+02 1.622030000000000200e+03
1.130000000000000032e-01 4.617010000000000280e-01 2.489864999999999995e+01 1.580169999999999959e+02 1.621820000000000164e+03
1.140000000000000041e-01 4.615624999999999867e-01 2.407889999999999731e+01 1.571570000000000107e+02 1.621585000000000036e+03
1.150000000000000050e-01 4.614174999999999804e-01 2.325150000000000006e+01 1.562485000000000070e+02 1.621335000000000036e+03
1.160000000000000059e-01 4.612684999999999702e-01 2.242674999999999841e+01 1.553104999999999905e+02 1.621075000000000045e+03
1.170000000000000068e-01 4.611199999999999743e-01 2.161560000000000059e+01 1.543675000000000068e+02 1.620809999999999945e+03
1.180000000000000077e-01 4.609750000000000236e-01 2.082924999999999827e+01 1.534404999999999859e+02 1.620539999999999964e+03
1.190000000000000085e-01 4.608369999999999966e-01 2.007835000000000036e+01 1.525515000000000043e+02 1.620279999999999973e+03
1.200000000000000094e-01 4.607089999999999796e-01 1.937300000000000111e+01 1.517200000000000273e+02 1.620035000000000082e+03
1.209999999999999964e-01 4.605930000000000302e-01 1.872184999999999988e+01 1.509639999999999986e+02 1.619804999999999836e+03
1.219999999999999973e-01 4.604924999999999713e-01 1.813194999999999979e+01 1.502959999999999923e+02 1.619595000000000027e+03
1.229999999999999982e-01 4.604075000000000251e-01 1.760869999999999891e+01 1.497280000000000086e+02 1.619414999999999964e+03
1.239999999999999991e-01 4.603395000000000126e-01 1.715520000000000067e+01 1.492660000000000196e+02 1.619255000000000109e+03
1.250000000000000000e-01 4.602884999999999893e-01 1.677250000000000085e+01 1.489105000000000132e+02 1.619125000000000000e+03
1.260000000000000009e-01 4.602534999999999821e-01 1.645969999999999800e+01 1.486610000000000014e+02 1.619029999999999973e+03
1.270000000000000018e-01 4.602339999999999764e-01 1.621379999999999910e+01 1.485109999999999957e+02 1.618954999999999927e+03
1.280000000000000027e-01 4.602275000000000116e-01 1.603014999999999901e+01 1.484519999999999982e+02 1.618914999999999964e+03
1.290000000000000036e-01 4.602334999999999621e-01 1.590279999999999916e+01 1.484719999999999800e+02 1.618894999999999982e+03
1.300000000000000044e-01 4.602484999999999493e-01 1.582450000000000045e+01 1.485579999999999927e+02 1.618894999999999982e+03
1.310000000000000053e-01 4.602705000000000268e-01 1.578739999999999810e+01 1.486945000000000050e+02 1.618909999999999854e+03
1.320000000000000062e-01 4.602974999999999706e-01 1.578324999999999889e+01 1.488675000000000068e+02 1.618940000000000055e+03
1.330000000000000071e-01 4.603270000000000417e-01 1.580395000000000039e+01 1.490615000000000236e+02 1.618974999999999909e+03
1.340000000000000080e-01 4.603570000000000162e-01 1.584155000000000157e+01 1.492635000000000218e+02 1.619025000000000091e+03
1.350000000000000089e-01 4.603855000000000031e-01 1.588865000000000016e+01 1.494610000000000127e+02 1.619070000000000164e+03
1.360000000000000098e-01 4.604114999999999736e-01 1.593894999999999840e+01 1.496440000000000055e+02 1.619110000000000127e+03
1.370000000000000107e-01 4.604334999999999956e-01 1.598675000000000068e+01 1.498034999999999854e+02 1.619154999999999973e+03
1.380000000000000115e-01 4.604504999999999848e-01 1.602769999999999939e+01 1.499350000000000023e+02 1.619184999999999945e+03
1.390000000000000124e-01 4.604624999999999968e-01 1.605845000000000056e+01 1.500339999999999918e+02 1.619215000000000146e+03
1.400000000000000133e-01 4.604694999999999760e-01 1.607669999999999888e+01 1.501000000000000227e+02 1.619235000000000127e+03
1.410000000000000142e-01 4.604715000000000336e-01 1.608135000000000048e+01 1.501334999999999980e+02 1.619250000000000000e+03
1.420000000000000151e-01 4.604690000000000172e-01 1.607215000000000060e+01 1.501370000000000005e+02 1.619255000000000109e+03
1.430000000000000160e-01 4.604629999999999557e-01 1.604984999999999928e+01 1.501144999999999925e+02 1.619250000000000000e+03
1.440000000000000169e-01 4.604540000000000299e-01 1.601575000000000060e+01 1.500715000000000146e+02 1.619240000000000009e+03
1.450000000000000178e-01 4.604429999999999912e-01 1.597175000000000011e+01 1.500135000000000218e+02 1.619230000000000018e+03
1.459999999999999909e-01 4.604309999999999792e-01 1.592030000000000101e+01 1.499465000000000146e+02 1.619215000000000146e+03
1.469999999999999918e-01 4.604194999999999816e-01 1.586394999999999911e+01 1.498764999999999930e+02 1.619200000000000045e+03
1.479999999999999927e-01 4.604084999999999983e-01 1.580530000000000079e+01 1.498095000000000141e+02 1.619180000000000064e+03
1.489999999999999936e-01 4.603994999999999616e-01 1.574705000000000155e+01 1.497509999999999764e+02 1.619164999999999964e+03
1.499999999999999944e-01 4.603929999999999967e-01 1.569154999999999944e+01 1.497060000000000173e+02 1.619150000000000091e+03
1.509999999999999953e-01 4.603895000000000071e-01 1.564090000000000202e+01 1.496770000000000209e+02 1.619144999999999982e+03
1.519999999999999962e-01 4.603890000000000482e-01 1.559679999999999822e+01 1.496670000000000016e+02 1.619140000000000100e+03
1.529999999999999971e-01 4.603915000000000646e-01 1.556044999999999945e+01 1.496779999999999973e+02 1.619144999999999982e+03
1.539999999999999980e-01 4.603979999999999739e-01 1.553259999999999863e+01 1.497100000000000080e+02 1.619150000000000091e+03
1.549999999999999989e-01 4.604074999999999696e-01 1.551354999999999862e+01 1.497620000000000005e+02 1.619164999999999964e+03
1.559999999999999998e-01 4.604199999999999959e-01 1.550304999999999822e+01 1.498329999999999984e+02 1.619184999999999945e+03
1.570000000000000007e-01 4.604350000000000387e-01 1.550055000000000049e+01 1.499194999999999993e+02 1.619204999999999927e+03
1.580000000000000016e-01 4.604525000000000423e-01 1.550515000000000043e+01 1.500200000000000102e+02 1.619230000000000018e+03
1.590000000000000024e-01 4.604705000000000048e-01 1.551559999999999917e+01 1.501299999999999955e+02 1.619260000000000218e+03
