# t [s], A [cm^2], U [cm/s], P [cPa], c [cm/s]
1.000000000000000021e-03 1.199699999999999933e-01 4.389829499999999829e-01 9.166634999999999422e+01 2.018750000000000000e+03
2.000000000000000042e-03 1.199370000000000019e-01 2.040414999999999868e+00 8.811744999999999095e+01 2.018304999999999836e+03
3.000000000000000062e-03 1.198490000000000111e-01 3.950642499999999835e+00 8.348210000000000264e+01 2.017154999999999973e+03
4.000000000000000083e-03 1.197300000000000031e-01 6.072460000000000413e+00 7.874654999999999916e+01 2.015615000000000009e+03
5.000000000000000104e-03 1.196035000000000015e-01 8.322525000000000617e+00 7.473975000000000080e+01 2.013994999999999891e+03
6.000000000000000125e-03 1.194824999999999915e-01 1.049995499999999993e+01 7.155644999999999811e+01 2.012460000000000036e+03
7.000000000000000146e-03 1.193680000000000019e-01 1.240887999999999991e+01 6.882245000000000346e+01 2.011039999999999964e+03
8.000000000000000167e-03 1.192630000000000079e-01 1.401495000000000068e+01 6.634645000000000437e+01 2.009755000000000109e+03
9.000000000000001055e-03 1.191705000000000125e-01 1.537154999999999916e+01 6.422050000000000125e+01 2.008639999999999873e+03
1.000000000000000194e-02 1.190920000000000034e-01 1.650394999999999968e+01 6.248610000000000042e+01 2.007695000000000164e+03
1.099999999999999936e-02 1.190260000000000068e-01 1.742119999999999891e+01 6.108525000000000205e+01 2.006920000000000073e+03
1.200000000000000025e-02 1.189720000000000083e-01 1.813520000000000110e+01 5.994724999999999682e+01 2.006289999999999964e+03
1.300000000000000114e-02 1.189274999999999916e-01 1.865105000000000146e+01 5.897894999999999754e+01 2.005775000000000091e+03
1.400000000000000203e-02 1.188899999999999957e-01 1.899070000000000036e+01 5.810060000000000002e+01 2.005345000000000027e+03
1.499999999999999944e-02 1.188579999999999914e-01 1.923765000000000214e+01 5.738410000000000366e+01 2.004994999999999891e+03
1.600000000000000033e-02 1.188369999999999982e-01 1.953569999999999851e+01 5.711700000000000443e+01 2.004764999999999873e+03
1.700000000000000122e-02 1.188319999999999932e-01 2.002345000000000041e+01 5.766434999999999889e+01 2.004724999999999909e+03
1.800000000000000211e-02 1.188499999999999973e-01 2.075419999999999732e+01 5.922039999999999793e+01 2.004934999999999945e+03
1.900000000000000300e-02 1.188894999999999952e-01 2.166009999999999991e+01 6.163499999999999801e+01 2.005410000000000082e+03
2.000000000000000042e-02 1.189449999999999952e-01 2.257714999999999961e+01 6.442605000000000359e+01 2.006075000000000045e+03
2.100000000000000130e-02 1.190049999999999997e-01 2.331204999999999927e+01 6.695265000000000555e+01 2.006805000000000064e+03
2.200000000000000219e-02 1.190574999999999967e-01 2.371390000000000242e+01 6.864914999999999168e+01 2.007450000000000045e+03
2.299999999999999961e-02 1.190925000000000039e-01 2.372175000000000011e+01 6.921189999999999998e+01 2.007900000000000091e+03
2.400000000000000050e-02 1.191060000000000035e-01 2.337415000000000020e+01 6.867199999999999704e+01 2.008090000000000146e+03
2.500000000000000139e-02 1.190989999999999965e-01 2.278130000000000166e+01 6.733979999999999677e+01 2.008034999999999854e+03
2.600000000000000228e-02 1.190785000000000038e-01 2.207690000000000197e+01 6.565810000000000457e+01 2.007804999999999836e+03
2.700000000000000316e-02 1.190505000000000035e-01 2.137095000000000056e+01 6.403409999999999513e+01 2.007474999999999909e+03
2.800000000000000058e-02 1.190220000000000028e-01 2.071999999999999886e+01 6.271460000000000434e+01 2.007139999999999873e+03
2.900000000000000147e-02 1.189965000000000050e-01 2.012315000000000254e+01 6.174230000000000018e+01 2.006835000000000036e+03
3.000000000000000236e-02 1.189745000000000108e-01 1.953909999999999769e+01 6.099179999999999779e+01 2.006570000000000164e+03
3.099999999999999978e-02 1.189540000000000042e-01 1.891434999999999889e+01 6.025759999999999650e+01 2.006320000000000164e+03
3.200000000000000067e-02 1.189314999999999956e-01 1.821219999999999928e+01 5.935640000000000072e+01 2.006055000000000064e+03
3.300000000000000155e-02 1.189049999999999968e-01 1.743325000000000102e+01 5.820879999999999654e+01 2.005740000000000009e+03
3.400000000000000244e-02 1.188740000000000074e-01 1.662160000000000082e+01 5.687784999999999513e+01 2.005369999999999891e+03
3.500000000000000333e-02 1.188410000000000022e-01 1.585590000000000011e+01 5.555644999999999811e+01 2.004980000000000018e+03
3.600000000000000422e-02 1.188109999999999999e-01 1.522869999999999990e+01 5.451005000000000678e+01 2.004615000000000009e+03
3.700000000000000511e-02 1.187880000000000047e-01 1.482070000000000043e+01 5.399545000000000528e+01 2.004335000000000036e+03
3.799999999999999906e-02 1.187779999999999947e-01 1.467780000000000129e+01 5.418160000000000309e+01 2.004200000000000045e+03
3.899999999999999994e-02 1.187829999999999997e-01 1.479804999999999993e+01 5.509660000000000224e+01 2.004250000000000000e+03
4.000000000000000083e-02 1.188035000000000063e-01 1.513044999999999973e+01 5.661409999999999343e+01 2.004474999999999909e+03
4.100000000000000172e-02 1.188359999999999972e-01 1.558539999999999992e+01 5.847865000000000180e+01 2.004855000000000018e+03
4.200000000000000261e-02 1.188750000000000084e-01 1.605199999999999960e+01 6.035920000000000130e+01 2.005309999999999945e+03
4.300000000000000350e-02 1.189139999999999919e-01 1.641775000000000162e+01 6.191370000000000573e+01 2.005779999999999973e+03
4.400000000000000439e-02 1.189459999999999962e-01 1.658595000000000041e+01 6.284890000000000043e+01 2.006160000000000082e+03
4.499999999999999833e-02 1.189650000000000013e-01 1.648784999999999812e+01 6.296294999999999931e+01 2.006389999999999873e+03
4.599999999999999922e-02 1.189655000000000018e-01 1.608774999999999977e+01 6.216509999999999536e+01 2.006409999999999854e+03
4.700000000000000011e-02 1.189465000000000106e-01 1.538274999999999970e+01 6.047294999999999732e+01 2.006190000000000055e+03
4.800000000000000100e-02 1.189074999999999993e-01 1.439685000000000059e+01 5.799214999999999520e+01 2.005735000000000127e+03
4.900000000000000189e-02 1.188504999999999978e-01 1.317364000000000068e+01 5.488665000000000305e+01 2.005059999999999945e+03
5.000000000000000278e-02 1.187774999999999942e-01 1.176806999999999981e+01 5.134779999999999944e+01 2.004200000000000045e+03
5.100000000000000366e-02 1.186939999999999940e-01 1.024004000000000048e+01 4.756900000000000261e+01 2.003195000000000164e+03
5.200000000000000455e-02 1.186024999999999996e-01 8.649815000000000254e+00 4.372849999999999682e+01 2.002110000000000127e+03
5.300000000000000544e-02 1.185074999999999878e-01 7.055869999999999642e+00 3.998264999999999958e+01 2.000974999999999909e+03
5.399999999999999939e-02 1.184139999999999915e-01 5.514339999999999797e+00 3.646609999999999729e+01 1.999845000000000027e+03
5.500000000000000028e-02 1.183234999999999981e-01 4.079046500000000464e+00 3.329609999999999559e+01 1.998764999999999873e+03
5.600000000000000117e-02 1.182404999999999984e-01 2.801932499999999937e+00 3.057805000000000106e+01 1.997759999999999991e+03
5.700000000000000205e-02 1.181674999999999948e-01 1.732679999999999776e+00 2.840975000000000250e+01 1.996875000000000000e+03
5.800000000000000294e-02 1.181070000000000036e-01 9.175950000000000495e-01 2.688145000000000095e+01 1.996144999999999982e+03
5.900000000000000383e-02 1.180620000000000003e-01 3.976850000000000662e-01 2.607390000000000185e+01 1.995595000000000027e+03
6.000000000000000472e-02 1.180350000000000010e-01 2.062890000000000001e-01 2.605245000000000033e+01 1.995255000000000109e+03
6.099999999999999867e-02 1.180275000000000074e-01 3.665869999999999962e-01 2.686114999999999853e+01 1.995139999999999873e+03
6.199999999999999956e-02 1.180404999999999927e-01 8.896347500000000297e-01 2.851655000000000229e+01 1.995269999999999982e+03
6.300000000000000044e-02 1.180744999999999989e-01 1.773175999999999863e+00 3.100400000000000134e+01 1.995659999999999854e+03
6.400000000000000133e-02 1.181299999999999989e-01 3.001502499999999962e+00 3.427669999999999817e+01 1.996299999999999955e+03
6.500000000000000222e-02 1.182054999999999911e-01 4.546420000000000350e+00 3.825780000000000314e+01 1.997179999999999836e+03
6.600000000000000311e-02 1.182995000000000019e-01 6.369064999999999976e+00 4.284534999999999627e+01 1.998289999999999964e+03
6.700000000000000400e-02 1.184105000000000019e-01 8.422575000000000145e+00 4.791949999999999932e+01 1.999594999999999800e+03
6.800000000000000488e-02 1.185345000000000149e-01 1.065459500000000048e+01 5.335040000000000049e+01 2.001074999999999818e+03
6.900000000000000577e-02 1.186689999999999967e-01 1.301055500000000009e+01 5.900624999999999432e+01 2.002684999999999945e+03
7.000000000000000666e-02 1.188109999999999999e-01 1.543635000000000090e+01 6.476085000000000491e+01 2.004390000000000100e+03
7.100000000000000755e-02 1.189579999999999943e-01 1.788070000000000093e+01 7.049965000000000259e+01 2.006150000000000091e+03
7.200000000000000844e-02 1.191055000000000030e-01 2.029760000000000275e+01 7.612505000000000166e+01 2.007945000000000164e+03
7.300000000000000933e-02 1.192529999999999979e-01 2.264804999999999779e+01 8.156034999999999968e+01 2.009724999999999909e+03
7.399999999999999634e-02 1.193975000000000036e-01 2.490135000000000076e+01 8.675190000000000623e+01 2.011485000000000127e+03
7.499999999999999722e-02 1.195364999999999900e-01 2.703625000000000256e+01 9.167019999999999413e+01 2.013190000000000055e+03
7.599999999999999811e-02 1.196709999999999996e-01 2.904095000000000226e+01 9.631024999999999636e+01 2.014835000000000036e+03
7.699999999999999900e-02 1.197995000000000032e-01 3.091299999999999670e+01 1.006880000000000024e+02 2.016414999999999964e+03
7.799999999999999989e-02 1.199220000000000008e-01 3.265829999999999700e+01 1.048388500000000079e+02 2.017930000000000064e+03
7.900000000000000078e-02 1.200399999999999939e-01 3.428979999999999961e+01 1.088125000000000000e+02 2.019380000000000109e+03
8.000000000000000167e-02 1.201534999999999964e-01 3.582535000000000025e+01 1.126664999999999992e+02 2.020784999999999854e+03
8.100000000000000255e-02 1.202644999999999964e-01 3.728584999999999638e+01 1.164609999999999985e+02 2.022154999999999973e+03
8.200000000000000344e-02 1.203734999999999944e-01 3.869284999999999997e+01 1.202554999999999978e+02 2.023505000000000109e+03
8.300000000000000433e-02 1.204820000000000058e-01 4.006664999999999566e+01 1.240979999999999990e+02 2.024855000000000018e+03
8.400000000000000522e-02 1.205915000000000042e-01 4.142450000000000188e+01 1.280275000000000034e+02 2.026210000000000036e+03
8.500000000000000611e-02 1.207025000000000042e-01 4.277909999999999968e+01 1.320649999999999977e+02 2.027590000000000146e+03
8.600000000000000699e-02 1.208154999999999923e-01 4.413785000000000025e+01 1.362169999999999845e+02 2.029000000000000000e+03
8.700000000000000788e-02 1.209309999999999968e-01 4.550204999999999700e+01 1.404735000000000014e+02 2.030430000000000064e+03
8.800000000000000877e-02 1.210490000000000038e-01 4.686745000000000516e+01 1.448075000000000045e+02 2.031894999999999982e+03
8.899999999999999578e-02 1.211684999999999984e-01 4.822429999999999950e+01 1.491790000000000020e+02 2.033369999999999891e+03
8.999999999999999667e-02 1.212880000000000069e-01 4.955825000000000102e+01 1.535400000000000205e+02 2.034869999999999891e+03
9.099999999999999756e-02 1.214075000000000015e-01 5.085155000000000314e+01 1.578325000000000102e+02 2.036355000000000018e+03
9.199999999999999845e-02 1.215255000000000085e-01 5.208409999999999940e+01 1.619964999999999975e+02 2.037824999999999818e+03
9.299999999999999933e-02 1.216399999999999981e-01 5.323474999999999824e+01 1.659720000000000084e+02 2.039259999999999991e+03
9.400000000000000022e-02 1.217499999999999971e-01 5.428249999999999886e+01 1.697019999999999982e+02 2.040634999999999991e+03
9.500000000000000111e-02 1.218540000000000040e-01 5.520784999999999343e+01 1.731355000000000075e+02 2.041940000000000055e+03
9.600000000000000200e-02 1.219504999999999895e-01 5.599354999999999905e+01 1.762295000000000016e+02 2.043149999999999864e+03
9.700000000000000289e-02 1.220384999999999942e-01 5.662579999999999814e+01 1.789510000000000218e+02 2.044264999999999873e+03
9.800000000000000377e-02 1.221174999999999899e-01 5.709470000000000312e+01 1.812779999999999916e+02 2.045269999999999982e+03
9.900000000000000466e-02 1.221869999999999901e-01 5.739470000000000027e+01 1.832004999999999768e+02 2.046144999999999982e+03
1.000000000000000056e-01 1.222454999999999931e-01 5.752499999999999858e+01 1.847199999999999989e+02 2.046900000000000091e+03
1.010000000000000064e-01 1.222945000000000004e-01 5.748940000000000339e+01 1.858485000000000014e+02 2.047519999999999982e+03
1.020000000000000073e-01 1.223325000000000107e-01 5.729625000000000057e+01 1.866094999999999970e+02 2.048014999999999873e+03
1.030000000000000082e-01 1.223614999999999980e-01 5.695785000000000053e+01 1.870339999999999918e+02 2.048390000000000327e+03
1.040000000000000091e-01 1.223815000000000042e-01 5.648990000000000578e+01 1.871619999999999777e+02 2.048659999999999854e+03
1.050000000000000100e-01 1.223930000000000018e-01 5.591089999999999804e+01 1.870370000000000061e+02 2.048819999999999709e+03
1.059999999999999970e-01 1.223980000000000068e-01 5.524105000000000132e+01 1.867075000000000102e+02 2.048889999999999873e+03
1.069999999999999979e-01 1.223970000000000058e-01 5.450169999999999959e+01 1.862210000000000036e+02 2.048889999999999873e+03
1.079999999999999988e-01 1.223909999999999998e-01 5.371410000000000196e+01 1.856254999999999882e+02 2.048820000000000164e+03
1.089999999999999997e-01 1.223815000000000042e-01 5.289860000000000184e+01 1.849649999999999750e+02 2.048710000000000036e+03
1.100000000000000006e-01 1.223694999999999922e-01 5.207419999999999760e+01 1.842794999999999845e+02 2.048559999999999945e+03
1.110000000000000014e-01 1.223555000000000059e-01 5.125744999999999862e+01 1.836025000000000205e+02 2.048394999999999982e+03
1.120000000000000023e-01 1.223415000000000058e-01 5.046200000000000330e+01 1.829604999999999961e+02 2.048220000000000255e+03
1.130000000000000032e-01 1.223275000000000057e-01 4.969849999999999568e+01 1.823729999999999905e+02 2.048039999999999964e+03
1.140000000000000041e-01 1.223135000000000056e-01 4.897404999999999831e+01 1.818489999999999895e+02 2.047869999999999891e+03
1.150000000000000050e-01 1.223009999999999931e-01 4.829229999999999734e+01 1.813919999999999959e+02 2.047710000000000036e+03
1.160000000000000059e-01 1.222894999999999954e-01 4.765344999999999942e+01 1.809979999999999905e+02 2.047559999999999945e+03
1.170000000000000068e-01 1.222789999999999988e-01 4.705450000000000443e+01 1.806539999999999964e+02 2.047424999999999955e+03
1.180000000000000077e-01 1.222689999999999888e-01 4.648975000000000080e+01 1.803439999999999941e+02 2.047300000000000182e+03
1.190000000000000085e-01 1.222604999999999942e-01 4.595120000000000005e+01 1.800450000000000159e+02 2.047184999999999945e+03
1.200000000000000094e-01 1.222515000000000129e-01 4.542895000000000039e+01 1.797334999999999923e+02 2.047070000000000164e+03
1.209999999999999964e-01 1.222420000000000034e-01 4.491235000000000355e+01 1.793810000000000002e+02 2.046950000000000045e+03
1.219999999999999973e-01 1.222320000000000073e-01 4.439000000000000057e+01 1.789629999999999939e+02 2.046819999999999936e+03
1.229999999999999982e-01 1.222205000000000097e-01 4.385084999999999411e+01 1.784540000000000077e+02 2.046670000000000073e+03
1.239999999999999991e-01 1.222060000000000091e-01 4.328470000000000084e+01 1.778319999999999936e+02 2.046490000000000009e+03
1.250000000000000000e-01 1.221890000000000059e-01 4.268280000000000030e+01 1.770794999999999959e+02 2.046275000000000091e+03
1.260000000000000009e-01 1.221689999999999998e-01 4.203835000000000122e+01 1.761839999999999975e+02 2.046025000000000091e+03
1.270000000000000018e-01 1.221454999999999902e-01 4.134680000000000177e+01 1.751385000000000218e+02 2.045730000000000018e+03
1.280000000000000027e-01 1.221185000000000048e-01 4.060620000000000118e+01 1.739439999999999884e+02 2.045394999999999982e+03
1.290000000000000036e-01 1.220875000000000016e-01 3.981745000000000090e+01 1.726055000000000064e+02 2.045010000000000218e+03
1.300000000000000044e-01 1.220524999999999943e-01 3.898409999999999798e+01 1.711374999999999886e+02 2.044575000000000045e+03
1.310000000000000053e-01 1.220149999999999985e-01 3.811225000000000307e+01 1.695589999999999975e+02 2.044110000000000127e+03
1.320000000000000062e-01 1.219745000000000135e-01 3.721049999999999613e+01 1.678930000000000007e+02 2.043605000000000018e+03
1.330000000000000071e-01 1.219314999999999982e-01 3.628929999999999723e+01 1.661684999999999945e+02 2.043065000000000055e+03
1.340000000000000080e-01 1.218864999999999948e-01 3.536070000000000135e+01 1.644170000000000016e+02 2.042509999999999991e+03
1.350000000000000089e-01 1.218410000000000049e-01 3.443744999999999834e+01 1.626705000000000041e+02 2.041934999999999945e+03
1.360000000000000098e-01 1.217950000000000005e-01 3.353294999999999959e+01 1.609624999999999773e+02 2.041369999999999891e+03
1.370000000000000107e-01 1.217499999999999971e-01 3.266004999999999825e+01 1.593234999999999957e+02 2.040804999999999836e+03
1.380000000000000115e-01 1.217059999999999947e-01 3.183095000000000141e+01 1.577814999999999941e+02 2.040259999999999991e+03
1.390000000000000124e-01 1.216645000000000088e-01 3.105645000000000167e+01 1.563614999999999782e+02 2.039730000000000018e+03
1.400000000000000133e-01 1.216254999999999975e-01 3.034555000000000291e+01 1.550835000000000150e+02 2.039250000000000000e+03
1.410000000000000142e-01 1.215900000000000036e-01 2.970524999999999949e+01 1.539619999999999891e+02 2.038800000000000182e+03
1.420000000000000151e-01 1.215584999999999860e-01 2.914010000000000034e+01 1.530039999999999907e+02 2.038394999999999982e+03
1.430000000000000160e-01 1.215299999999999991e-01 2.865220000000000056e+01 1.522139999999999986e+02 2.038045000000000073e+03
1.440000000000000169e-01 1.215060000000000029e-01 2.824155000000000015e+01 1.515879999999999939e+02 2.037740000000000009e+03
1.450000000000000178e-01 1.214864999999999973e-01 2.790559999999999974e+01 1.511175000000000068e+02 2.037490000000000009e+03
1.459999999999999909e-01 1.214709999999999956e-01 2.763994999999999891e+01 1.507909999999999968e+02 2.037284999999999854e+03
1.469999999999999918e-01 1.214584999999999970e-01 2.743849999999999767e+01 1.505925000000000011e+02 2.037125000000000000e+03
1.479999999999999927e-01 1.214500000000000024e-01 2.729380000000000095e+01 1.505035000000000025e+02 2.037014999999999873e+03
1.489999999999999936e-01 1.214439999999999964e-01 2.719744999999999990e+01 1.505040000000000191e+02 2.036940000000000055e+03
1.499999999999999944e-01 1.214409999999999934e-01 2.714059999999999917e+01 1.505734999999999957e+02 2.036894999999999982e+03
1.509999999999999953e-01 1.214399999999999924e-01 2.711420000000000030e+01 1.506924999999999955e+02 2.036875000000000000e+03
1.519999999999999962e-01 1.214399999999999924e-01 2.710930000000000106e+01 1.508414999999999964e+02 2.036869999999999891e+03
1.529999999999999971e-01 1.214415000000000078e-01 2.711775000000000091e+01 1.510035000000000025e+02 2.036889999999999873e+03
1.539999999999999980e-01 1.214445000000000108e-01 2.713194999999999979e+01 1.511639999999999873e+02 2.036914999999999964e+03
1.549999999999999989e-01 1.214464999999999850e-01 2.714535000000000053e+01 1.513104999999999905e+02 2.036945000000000164e+03
1.559999999999999998e-01 1.214494999999999880e-01 2.715265000000000128e+01 1.514340000000000259e+02 2.036974999999999909e+03
1.570000000000000007e-01 1.214514999999999900e-01 2.714974999999999739e+01 1.515269999999999868e+02 2.037000000000000000e+03
1.580000000000000016e-01 1.214534999999999920e-01 2.713374999999999915e+01 1.515875000000000057e+02 2.037025000000000091e+03
1.590000000000000024e-01 1.214544999999999930e-01 2.710304999999999964e+01 1.516139999999999759e+02 2.037039999999999964e+03
