# t [s], A [cm^2], U [cm/s], P [cPa], c [cm/s]
1.000000000000000021e-03 1.691020000000000023e-01 1.895910000000000095e-01 1.025579999999999927e+02 2.188585000000000036e+03
2.000000000000000042e-03 1.690610000000000168e-01 1.612608000000000041e+00 9.939955000000000496e+01 2.188150000000000091e+03
3.000000000000000062e-03 1.689450000000000118e-01 3.456071000000000115e+00 9.480219999999999914e+01 2.186970000000000255e+03
4.000000000000000083e-03 1.687825000000000020e-01 5.570575125000000405e+00 8.953915000000000646e+01 2.185355000000000018e+03
5.000000000000000104e-03 1.686060000000000059e-01 7.880765000000000242e+00 8.458674999999999500e+01 2.183614999999999782e+03
6.000000000000000125e-03 1.684344999999999870e-01 1.021750000000000114e+01 8.039824999999999022e+01 2.181945000000000164e+03
7.000000000000000146e-03 1.682740000000000069e-01 1.233913500000000063e+01 7.680539999999999168e+01 2.180414999999999964e+03
8.000000000000000167e-03 1.681265000000000120e-01 1.412483500000000092e+01 7.355310000000000059e+01 2.179029999999999745e+03
9.000000000000001055e-03 1.679955000000000198e-01 1.560229999999999961e+01 7.068930000000000291e+01 2.177824999999999818e+03
1.000000000000000194e-02 1.678854999999999931e-01 1.681250000000000000e+01 6.831940000000000168e+01 2.176819999999999709e+03
1.099999999999999936e-02 1.677954999999999863e-01 1.778004999999999924e+01 6.644840000000000657e+01 2.176014999999999873e+03
1.200000000000000025e-02 1.677254999999999996e-01 1.852720000000000056e+01 6.503049999999998931e+01 2.175390000000000327e+03
1.300000000000000114e-02 1.676705000000000001e-01 1.905740000000000123e+01 6.395280000000000342e+01 2.174914999999999964e+03
1.400000000000000203e-02 1.676265000000000116e-01 1.937154999999999916e+01 6.305145000000000266e+01 2.174539999999999964e+03
1.499999999999999944e-02 1.675909999999999900e-01 1.952969999999999828e+01 6.228104999999999336e+01 2.174244999999999891e+03
1.600000000000000033e-02 1.675674999999999804e-01 1.967609999999999815e+01 6.186050000000000182e+01 2.174050000000000182e+03
1.700000000000000122e-02 1.675650000000000195e-01 1.998150000000000048e+01 6.219074999999999420e+01 2.174045000000000073e+03
1.800000000000000211e-02 1.675925000000000054e-01 2.054755000000000109e+01 6.358539999999999281e+01 2.174295000000000073e+03
1.900000000000000300e-02 1.676505000000000078e-01 2.134635000000000105e+01 6.602429999999999666e+01 2.174814999999999600e+03
2.000000000000000042e-02 1.677305000000000046e-01 2.223069999999999879e+01 6.909620000000001028e+01 2.175550000000000182e+03
2.100000000000000130e-02 1.678189999999999960e-01 2.300159999999999982e+01 7.214724999999999966e+01 2.176364999999999782e+03
2.200000000000000219e-02 1.678975000000000051e-01 2.349030000000000129e+01 7.453459999999999752e+01 2.177114999999999782e+03
2.299999999999999961e-02 1.679539999999999922e-01 2.361749999999999972e+01 7.585470000000000823e+01 2.177664999999999964e+03
2.400000000000000050e-02 1.679824999999999791e-01 2.340979999999999706e+01 7.605455000000000609e+01 2.177970000000000255e+03
2.500000000000000139e-02 1.679859999999999964e-01 2.297370000000000090e+01 7.539844999999999686e+01 2.178029999999999745e+03
2.600000000000000228e-02 1.679734999999999978e-01 2.244385000000000119e+01 7.432310000000001082e+01 2.177925000000000182e+03
2.700000000000000316e-02 1.679530000000000189e-01 2.192994999999999806e+01 7.325339999999999918e+01 2.177755000000000109e+03
2.800000000000000058e-02 1.679339999999999999e-01 2.148154999999999859e+01 7.245294999999998709e+01 2.177574999999999818e+03
2.900000000000000147e-02 1.679194999999999993e-01 2.108084999999999809e+01 7.195834999999999582e+01 2.177435000000000400e+03
3.000000000000000236e-02 1.679074999999999873e-01 2.066134999999999877e+01 7.160534999999998718e+01 2.177319999999999709e+03
3.099999999999999978e-02 1.678930000000000144e-01 2.014205000000000112e+01 7.112495000000001255e+01 2.177190000000000055e+03
3.200000000000000067e-02 1.678700000000000192e-01 1.946525000000000105e+01 7.026924999999999955e+01 2.176985000000000127e+03
3.300000000000000155e-02 1.678344999999999976e-01 1.862539999999999907e+01 6.892404999999999404e+01 2.176670000000000073e+03
3.400000000000000244e-02 1.677874999999999783e-01 1.767965000000000231e+01 6.717189999999999372e+01 2.176244999999999891e+03
3.500000000000000333e-02 1.677334999999999798e-01 1.673665000000000092e+01 6.528414999999999679e+01 2.175755000000000109e+03
3.600000000000000422e-02 1.676825000000000121e-01 1.592699999999999960e+01 6.364504999999999768e+01 2.175279999999999745e+03
3.700000000000000511e-02 1.676440000000000152e-01 1.536619999999999919e+01 6.263709999999999667e+01 2.174904999999999745e+03
3.799999999999999906e-02 1.676265000000000116e-01 1.512310000000000088e+01 6.252700000000000102e+01 2.174725000000000364e+03
3.899999999999999994e-02 1.676340000000000052e-01 1.520309999999999917e+01 6.339085000000000036e+01 2.174769999999999982e+03
4.000000000000000083e-02 1.676670000000000105e-01 1.554925000000000068e+01 6.509685000000000343e+01 2.175050000000000182e+03
4.100000000000000172e-02 1.677195000000000213e-01 1.605839999999999890e+01 6.734279999999999688e+01 2.175515000000000327e+03
4.200000000000000261e-02 1.677825000000000011e-01 1.660515000000000185e+01 6.973079999999998790e+01 2.176090000000000146e+03
4.300000000000000350e-02 1.678454999999999808e-01 1.706759999999999877e+01 7.185444999999999993e+01 2.176670000000000073e+03
4.400000000000000439e-02 1.678985000000000061e-01 1.734720000000000084e+01 7.337520000000000664e+01 2.177159999999999854e+03
4.499999999999999833e-02 1.679329999999999989e-01 1.738154999999999717e+01 7.407370000000000232e+01 2.177494999999999891e+03
4.599999999999999922e-02 1.679444999999999966e-01 1.714645000000000152e+01 7.386795000000000755e+01 2.177619999999999891e+03
4.700000000000000011e-02 1.679315000000000113e-01 1.665145000000000053e+01 7.280099999999998772e+01 2.177519999999999982e+03
4.800000000000000100e-02 1.678950000000000164e-01 1.592924999999999969e+01 7.100629999999999598e+01 2.177199999999999818e+03
4.900000000000000189e-02 1.678395000000000026e-01 1.502410000000000068e+01 6.866370000000000573e+01 2.176699999999999818e+03
5.000000000000000278e-02 1.677684999999999871e-01 1.398189999999999955e+01 6.595834999999999582e+01 2.176050000000000182e+03
5.100000000000000366e-02 1.676869999999999750e-01 1.284393000000000029e+01 6.305150000000000432e+01 2.175305000000000291e+03
5.200000000000000455e-02 1.675989999999999980e-01 1.164488000000000056e+01 6.006744999999999379e+01 2.174494999999999891e+03
5.300000000000000544e-02 1.675069999999999892e-01 1.041429000000000116e+01 5.709505000000000052e+01 2.173644999999999982e+03
5.399999999999999939e-02 1.674154999999999949e-01 9.179705000000000226e+00 5.419969999999999999e+01 2.172795000000000073e+03
5.500000000000000028e-02 1.673250000000000015e-01 7.970849999999999547e+00 5.143890000000000384e+01 2.171954999999999927e+03
5.600000000000000117e-02 1.672385000000000121e-01 6.822065000000000268e+00 4.887675000000000125e+01 2.171150000000000091e+03
5.700000000000000205e-02 1.671580000000000010e-01 5.773360000000000269e+00 4.659264999999999901e+01 2.170404999999999745e+03
5.800000000000000294e-02 1.670874999999999999e-01 4.869229999999999947e+00 4.468240000000000123e+01 2.169735000000000127e+03
5.900000000000000383e-02 1.670290000000000108e-01 4.155725000000000335e+00 4.325310000000000343e+01 2.169184999999999945e+03
6.000000000000000472e-02 1.669865000000000099e-01 3.676495000000000068e+00 4.241205000000000069e+01 2.168779999999999745e+03
6.099999999999999867e-02 1.669629999999999725e-01 3.468544999999999767e+00 4.225414999999999566e+01 2.168539999999999964e+03
6.199999999999999956e-02 1.669614999999999849e-01 3.558600000000000207e+00 4.284994999999999976e+01 2.168500000000000000e+03
6.300000000000000044e-02 1.669829999999999925e-01 3.960640000000000160e+00 4.423619999999999663e+01 2.168675000000000182e+03
6.400000000000000133e-02 1.670300000000000118e-01 4.674755000000000216e+00 4.641195000000000448e+01 2.169079999999999927e+03
6.500000000000000222e-02 1.670999999999999985e-01 5.687470000000000248e+00 4.933804999999999552e+01 2.169710000000000036e+03
6.600000000000000311e-02 1.671929999999999805e-01 6.973155000000000214e+00 5.294169999999999732e+01 2.170545000000000073e+03
6.700000000000000400e-02 1.673064999999999969e-01 8.496304999999999552e+00 5.712295000000000300e+01 2.171579999999999927e+03
6.800000000000000488e-02 1.674380000000000035e-01 1.021416500000000127e+01 6.176364999999999839e+01 2.172774999999999636e+03
6.900000000000000577e-02 1.675829999999999820e-01 1.207994000000000057e+01 6.673675000000000068e+01 2.174110000000000127e+03
7.000000000000000666e-02 1.677389999999999992e-01 1.404565000000000197e+01 7.191530000000000200e+01 2.175550000000000182e+03
7.100000000000000755e-02 1.679014999999999813e-01 1.606510000000000105e+01 7.718125000000000568e+01 2.177055000000000291e+03
7.200000000000000844e-02 1.680675000000000086e-01 1.809649999999999892e+01 8.243234999999999957e+01 2.178595000000000255e+03
7.300000000000000933e-02 1.682330000000000214e-01 2.010444999999999993e+01 8.758809999999999718e+01 2.180149999999999636e+03
7.399999999999999634e-02 1.683970000000000189e-01 2.206174999999999997e+01 9.259274999999999523e+01 2.181690000000000055e+03
7.499999999999999722e-02 1.685574999999999990e-01 2.394940000000000069e+01 9.741669999999999163e+01 2.183194999999999709e+03
7.599999999999999811e-02 1.687135000000000162e-01 2.575690000000000168e+01 1.020536500000000046e+02 2.184670000000000073e+03
7.699999999999999900e-02 1.688645000000000007e-01 2.748100000000000165e+01 1.065175500000000000e+02 2.186099999999999909e+03
7.799999999999999989e-02 1.690119999999999956e-01 2.912415000000000020e+01 1.108375000000000057e+02 2.187494999999999891e+03
7.900000000000000078e-02 1.691555000000000142e-01 3.069254999999999711e+01 1.150490000000000066e+02 2.188855000000000018e+03
8.000000000000000167e-02 1.692960000000000020e-01 3.219424999999999670e+01 1.191889999999999930e+02 2.190189999999999600e+03
8.100000000000000255e-02 1.694344999999999879e-01 3.363734999999999786e+01 1.232905000000000086e+02 2.191515000000000327e+03
8.200000000000000344e-02 1.695725000000000149e-01 3.502880000000000393e+01 1.273754999999999882e+02 2.192829999999999927e+03
8.300000000000000433e-02 1.697095000000000131e-01 3.637300000000000466e+01 1.314569999999999936e+02 2.194135000000000218e+03
8.400000000000000522e-02 1.698465000000000114e-01 3.767194999999999538e+01 1.355349999999999966e+02 2.195440000000000055e+03
8.500000000000000611e-02 1.699829999999999952e-01 3.892470000000000141e+01 1.395999999999999943e+02 2.196739999999999782e+03
8.600000000000000699e-02 1.701179999999999914e-01 4.012774999999999892e+01 1.436310000000000002e+02 2.198029999999999745e+03
8.700000000000000788e-02 1.702520000000000144e-01 4.127535000000000309e+01 1.476005000000000109e+02 2.199310000000000400e+03
8.800000000000000877e-02 1.703834999999999933e-01 4.235994999999999777e+01 1.514780000000000086e+02 2.200570000000000164e+03
8.899999999999999578e-02 1.705115000000000103e-01 4.337265000000000015e+01 1.552275000000000205e+02 2.201800000000000182e+03
8.999999999999999667e-02 1.706360000000000099e-01 4.430370000000000630e+01 1.588135000000000048e+02 2.202984999999999673e+03
9.099999999999999756e-02 1.707540000000000169e-01 4.514269999999999783e+01 1.622005000000000052e+02 2.204130000000000109e+03
9.199999999999999845e-02 1.708660000000000179e-01 4.587950000000000017e+01 1.653539999999999850e+02 2.205204999999999927e+03
9.299999999999999933e-02 1.709694999999999965e-01 4.650399999999999778e+01 1.682434999999999832e+02 2.206210000000000036e+03
9.400000000000000022e-02 1.710649999999999948e-01 4.700740000000000407e+01 1.708404999999999916e+02 2.207135000000000218e+03
9.500000000000000111e-02 1.711515000000000120e-01 4.738224999999999909e+01 1.731220000000000141e+02 2.207965000000000146e+03
9.600000000000000200e-02 1.712274999999999769e-01 4.762319999999999709e+01 1.750705000000000098e+02 2.208710000000000036e+03
9.700000000000000289e-02 1.712925000000000142e-01 4.772764999999999702e+01 1.766790000000000020e+02 2.209349999999999909e+03
9.800000000000000377e-02 1.713474999999999859e-01 4.769599999999999795e+01 1.779440000000000168e+02 2.209885000000000218e+03
9.900000000000000466e-02 1.713910000000000156e-01 4.753190000000000026e+01 1.788745000000000118e+02 2.210314999999999600e+03
1.000000000000000056e-01 1.714239999999999930e-01 4.724240000000000350e+01 1.794865000000000066e+02 2.210650000000000091e+03
1.010000000000000064e-01 1.714470000000000161e-01 4.683769999999999811e+01 1.798075000000000045e+02 2.210885000000000218e+03
1.020000000000000073e-01 1.714610000000000023e-01 4.633070000000000022e+01 1.798670000000000186e+02 2.211029999999999745e+03
1.030000000000000082e-01 1.714664999999999939e-01 4.573645000000000493e+01 1.797044999999999959e+02 2.211099999999999909e+03
1.040000000000000091e-01 1.714650000000000063e-01 4.507115000000000293e+01 1.793595000000000255e+02 2.211094999999999800e+03
1.050000000000000100e-01 1.714579999999999993e-01 4.435184999999999889e+01 1.788745000000000118e+02 2.211029999999999745e+03
1.059999999999999970e-01 1.714459999999999873e-01 4.359520000000000550e+01 1.782894999999999754e+02 2.210925000000000182e+03
1.069999999999999979e-01 1.714310000000000000e-01 4.281725000000000136e+01 1.776419999999999959e+02 2.210784999999999854e+03
1.079999999999999988e-01 1.714129999999999820e-01 4.203229999999999933e+01 1.769655000000000200e+02 2.210619999999999891e+03
1.089999999999999997e-01 1.713950000000000196e-01 4.125280000000000058e+01 1.762875000000000227e+02 2.210440000000000055e+03
1.100000000000000006e-01 1.713755000000000139e-01 4.048890000000000100e+01 1.756279999999999859e+02 2.210260000000000218e+03
1.110000000000000014e-01 1.713560000000000083e-01 3.974800000000000466e+01 1.750020000000000095e+02 2.210074999999999818e+03
1.120000000000000023e-01 1.713375000000000037e-01 3.903490000000000038e+01 1.744170000000000016e+02 2.209894999999999982e+03
1.130000000000000032e-01 1.713200000000000001e-01 3.835139999999999816e+01 1.738720000000000141e+02 2.209720000000000255e+03
1.140000000000000041e-01 1.713024999999999964e-01 3.769695000000000107e+01 1.733629999999999995e+02 2.209555000000000291e+03
1.150000000000000050e-01 1.712865000000000082e-01 3.706810000000000116e+01 1.728770000000000095e+02 2.209400000000000091e+03
1.160000000000000059e-01 1.712704999999999922e-01 3.645949999999999847e+01 1.723974999999999795e+02 2.209239999999999782e+03
1.170000000000000068e-01 1.712545000000000039e-01 3.586384999999999934e+01 1.719039999999999964e+02 2.209079999999999927e+03
1.180000000000000077e-01 1.712374999999999869e-01 3.527280000000000371e+01 1.713745000000000118e+02 2.208920000000000073e+03
1.190000000000000085e-01 1.712190000000000101e-01 3.467725000000000080e+01 1.707839999999999918e+02 2.208739999999999782e+03
1.200000000000000094e-01 1.711985000000000035e-01 3.406810000000000116e+01 1.701109999999999900e+02 2.208539999999999964e+03
1.209999999999999964e-01 1.711754999999999804e-01 3.343675000000000352e+01 1.693335000000000150e+02 2.208319999999999709e+03
1.219999999999999973e-01 1.711489999999999956e-01 3.277580000000000382e+01 1.684345000000000141e+02 2.208065000000000055e+03
1.229999999999999982e-01 1.711185000000000067e-01 3.207939999999999969e+01 1.674019999999999868e+02 2.207775000000000091e+03
1.239999999999999991e-01 1.710840000000000138e-01 3.134380000000000166e+01 1.662284999999999968e+02 2.207444999999999709e+03
1.250000000000000000e-01 1.710444999999999882e-01 3.056769999999999854e+01 1.649144999999999754e+02 2.207079999999999927e+03
1.260000000000000009e-01 1.710015000000000007e-01 2.975219999999999843e+01 1.634660000000000082e+02 2.206664999999999964e+03
1.270000000000000018e-01 1.709539999999999949e-01 2.890095000000000169e+01 1.618965000000000032e+02 2.206215000000000146e+03
1.280000000000000027e-01 1.709029999999999994e-01 2.802025000000000077e+01 1.602249999999999943e+02 2.205734999999999673e+03
1.290000000000000036e-01 1.708494999999999875e-01 2.711824999999999974e+01 1.584764999999999873e+02 2.205220000000000255e+03
1.300000000000000044e-01 1.707934999999999870e-01 2.620540000000000092e+01 1.566800000000000068e+02 2.204684999999999945e+03
1.310000000000000053e-01 1.707355000000000123e-01 2.529294999999999760e+01 1.548675000000000068e+02 2.204135000000000218e+03
1.320000000000000062e-01 1.706774999999999820e-01 2.439334999999999809e+01 1.530724999999999909e+02 2.203579999999999927e+03
1.330000000000000071e-01 1.706199999999999939e-01 2.351879999999999882e+01 1.513269999999999982e+02 2.203034999999999854e+03
1.340000000000000080e-01 1.705645000000000078e-01 2.268119999999999692e+01 1.496634999999999991e+02 2.202505000000000109e+03
1.350000000000000089e-01 1.705114999999999825e-01 2.189130000000000109e+01 1.481075000000000159e+02 2.201994999999999891e+03
1.360000000000000098e-01 1.704614999999999880e-01 2.115830000000000055e+01 1.466829999999999927e+02 2.201510000000000218e+03
1.370000000000000107e-01 1.704160000000000119e-01 2.048955000000000126e+01 1.454064999999999941e+02 2.201074999999999818e+03
1.380000000000000115e-01 1.703745000000000120e-01 1.989010000000000034e+01 1.442895000000000039e+02 2.200670000000000073e+03
1.390000000000000124e-01 1.703375000000000028e-01 1.936270000000000024e+01 1.433369999999999891e+02 2.200315000000000055e+03
1.400000000000000133e-01 1.703064999999999996e-01 1.890809999999999746e+01 1.425480000000000018e+02 2.200010000000000218e+03
1.410000000000000142e-01 1.702799999999999869e-01 1.852474999999999739e+01 1.419174999999999898e+02 2.199750000000000000e+03
1.420000000000000151e-01 1.702580000000000204e-01 1.820940000000000225e+01 1.414339999999999975e+02 2.199539999999999964e+03
1.430000000000000160e-01 1.702410000000000034e-01 1.795735000000000170e+01 1.410850000000000080e+02 2.199369999999999891e+03
1.440000000000000169e-01 1.702279999999999904e-01 1.776254999999999740e+01 1.408539999999999850e+02 2.199234999999999673e+03
1.450000000000000178e-01 1.702190000000000092e-01 1.761820000000000164e+01 1.407244999999999777e+02 2.199140000000000327e+03
1.459999999999999909e-01 1.702130000000000032e-01 1.751700000000000301e+01 1.406784999999999854e+02 2.199079999999999927e+03
1.469999999999999918e-01 1.702095000000000136e-01 1.745149999999999935e+01 1.406979999999999791e+02 2.199039999999999964e+03
1.479999999999999927e-01 1.702084999999999848e-01 1.741425000000000267e+01 1.407669999999999959e+02 2.199025000000000091e+03
1.489999999999999936e-01 1.702084999999999848e-01 1.739799999999999969e+01 1.408700000000000045e+02 2.199024999999999636e+03
1.499999999999999944e-01 1.702104999999999868e-01 1.739620000000000033e+01 1.409920000000000186e+02 2.199039999999999964e+03
1.509999999999999953e-01 1.702130000000000032e-01 1.740275000000000105e+01 1.411229999999999905e+02 2.199060000000000400e+03
1.519999999999999962e-01 1.702159999999999784e-01 1.741239999999999810e+01 1.412504999999999882e+02 2.199090000000000146e+03
1.529999999999999971e-01 1.702190000000000092e-01 1.742089999999999961e+01 1.413684999999999832e+02 2.199114999999999782e+03
1.539999999999999980e-01 1.702214999999999978e-01 1.742479999999999762e+01 1.414705000000000155e+02 2.199140000000000327e+03
1.549999999999999989e-01 1.702239999999999864e-01 1.742159999999999798e+01 1.415525000000000091e+02 2.199164999999999964e+03
1.559999999999999998e-01 1.702265000000000028e-01 1.741004999999999825e+01 1.416154999999999973e+02 2.199184999999999945e+03
1.570000000000000007e-01 1.702279999999999904e-01 1.738949999999999818e+01 1.416574999999999989e+02 2.199199999999999818e+03
1.580000000000000016e-01 1.702290000000000192e-01 1.736039999999999850e+01 1.416834999999999809e+02 2.199210000000000036e+03
1.590000000000000024e-01 1.702299999999999924e-01 1.732379999999999853e+01 1.416955000000000098e+02 2.199219999999999800e+03
