# t [s], A [cm^2], U [cm/s], P [cPa], c [cm/s]
1.000000000000000021e-03 6.366325000000000456e-01 7.663999999999997204e-03 1.065049999999999955e+02 1.738420000000000073e+03
2.000000000000000042e-03 6.366199999999999637e-01 -5.737400999999999612e-03 1.064685000000000059e+02 1.738409999999999854e+03
3.000000000000000062e-03 6.366685000000000816e-01 8.489370000000001637e-02 1.065755000000000052e+02 1.738434999999999945e+03
4.000000000000000083e-03 6.367169999999999774e-01 1.893507499999999844e-01 1.067129999999999939e+02 1.738470000000000027e+03
5.000000000000000104e-03 6.366884999999999906e-01 1.646127000000000007e-01 1.066444999999999936e+02 1.738454999999999927e+03
6.000000000000000125e-03 6.366190000000000460e-01 6.101600000000001467e-02 1.063924999999999983e+02 1.738400000000000091e+03
7.000000000000000146e-03 6.365674999999999528e-01 -1.813649999999999984e-02 1.061075000000000017e+02 1.738324999999999818e+03
8.000000000000000167e-03 6.364845000000000086e-01 -1.704179999999999584e-01 1.056899999999999977e+02 1.738230000000000018e+03
9.000000000000001055e-03 6.363445000000000906e-01 -4.524099999999999788e-01 1.050400000000000063e+02 1.738085000000000036e+03
1.000000000000000194e-02 6.361460000000001003e-01 -8.627449999999998731e-01 1.041205000000000069e+02 1.737869999999999891e+03
1.099999999999999936e-02 6.358669999999999600e-01 -1.434919999999999973e+00 1.028428499999999985e+02 1.737574999999999818e+03
1.200000000000000025e-02 6.354964999999999087e-01 -2.169645000000000046e+00 1.011491000000000042e+02 1.737179999999999836e+03
1.300000000000000114e-02 6.350819999999999244e-01 -2.953785000000000327e+00 9.914115000000001032e+01 1.736700000000000045e+03
1.400000000000000203e-02 6.346990000000000132e-01 -3.602522000000000002e+00 9.706419999999999959e+01 1.736179999999999836e+03
1.499999999999999944e-02 6.344030000000000502e-01 -3.966961099999999796e+00 9.516105000000000302e+01 1.735680000000000064e+03
1.600000000000000033e-02 6.341989999999999572e-01 -3.999984999999999680e+00 9.355514999999999759e+01 1.735230000000000018e+03
1.700000000000000122e-02 6.340520000000000600e-01 -3.753080000000000194e+00 9.222044999999999959e+01 1.734835000000000036e+03
1.800000000000000211e-02 6.339059999999999695e-01 -3.331907499999999800e+00 9.102445000000000164e+01 1.734460000000000036e+03
1.900000000000000300e-02 6.337154999999999871e-01 -2.843218499999999871e+00 8.980164999999999509e+01 1.734079999999999927e+03
2.000000000000000042e-02 6.334580000000000766e-01 -2.354392499999999888e+00 8.842499999999999716e+01 1.733670000000000073e+03
2.100000000000000130e-02 6.331394999999999662e-01 -1.876579999999999915e+00 8.684989999999999100e+01 1.733214999999999918e+03
2.200000000000000219e-02 6.327869999999999884e-01 -1.373924999999999841e+00 8.511844999999999573e+01 1.732719999999999800e+03
2.299999999999999961e-02 6.324339999999999407e-01 -7.916399999999998993e-01 8.332789999999999964e+01 1.732210000000000036e+03
2.400000000000000050e-02 6.321054999999999868e-01 -8.911000000000024457e-02 8.158095000000000141e+01 1.731700000000000045e+03
2.500000000000000139e-02 6.318084999999999951e-01 7.359999999999997655e-01 7.993985000000000696e+01 1.731210000000000036e+03
2.600000000000000228e-02 6.315294999999999659e-01 1.639404999999999779e+00 7.839994999999998981e+01 1.730740000000000009e+03
2.700000000000000316e-02 6.312400000000000233e-01 2.537640000000000118e+00 7.688749999999998863e+01 1.730284999999999854e+03
2.800000000000000058e-02 6.309035000000000615e-01 3.327004999999999768e+00 7.527899999999999636e+01 1.729809999999999945e+03
2.900000000000000147e-02 6.304885000000000073e-01 3.909095000000000208e+00 7.343675000000000352e+01 1.729284999999999854e+03
3.000000000000000236e-02 6.299770000000000092e-01 4.216284999999999172e+00 7.125090000000000146e+01 1.728694999999999936e+03
3.099999999999999978e-02 6.293720000000000425e-01 4.229915000000000092e+00 6.867644999999998845e+01 1.728014999999999873e+03
3.200000000000000067e-02 6.286974999999999092e-01 3.984239999999999782e+00 6.575204999999999700e+01 1.727250000000000000e+03
3.300000000000000155e-02 6.279924999999999535e-01 3.554990000000000094e+00 6.259355000000000047e+01 1.726429999999999836e+03
3.400000000000000244e-02 6.273009999999999975e-01 3.037795000000000023e+00 5.936780000000000257e+01 1.725585000000000036e+03
3.500000000000000333e-02 6.266629999999999701e-01 2.525935000000000041e+00 5.625730000000000075e+01 1.724755000000000109e+03
3.600000000000000422e-02 6.261090000000000266e-01 2.094405000000000516e+00 5.342884999999999707e+01 1.723985000000000127e+03
3.700000000000000511e-02 6.256554999999999200e-01 1.792190000000000172e+00 5.101174999999999926e+01 1.723304999999999836e+03
3.799999999999999906e-02 6.253109999999999502e-01 1.642799999999999816e+00 4.908924999999999983e+01 1.722744999999999891e+03
3.899999999999999994e-02 6.250719999999999610e-01 1.650095000000000089e+00 4.769969999999999999e+01 1.722315000000000055e+03
4.000000000000000083e-02 6.249339999999999895e-01 1.806762500000000049e+00 4.684590000000000032e+01 1.722019999999999982e+03
4.100000000000000172e-02 6.248895000000000977e-01 2.103078500000000073e+00 4.650840000000000174e+01 1.721859999999999900e+03
4.200000000000000261e-02 6.249325000000000019e-01 2.533675000000000122e+00 4.665975000000000250e+01 1.721829999999999927e+03
4.300000000000000350e-02 6.250605000000000189e-01 3.100874999999999826e+00 4.727445000000000164e+01 1.721934999999999945e+03
4.400000000000000439e-02 6.252739999999999965e-01 3.814095000000000013e+00 4.833480000000000132e+01 1.722154999999999973e+03
4.499999999999999833e-02 6.255735000000000046e-01 4.685902500000000082e+00 4.982954999999999757e+01 1.722500000000000000e+03
4.599999999999999922e-02 6.259595000000000020e-01 5.726604999999999279e+00 5.174949999999999761e+01 1.722960000000000036e+03
4.700000000000000011e-02 6.264285000000000547e-01 6.939189999999999969e+00 5.407985000000000042e+01 1.723530000000000200e+03
4.800000000000000100e-02 6.269735000000000724e-01 8.315950000000000841e+00 5.679474999999999341e+01 1.724210000000000036e+03
4.900000000000000189e-02 6.275850000000000595e-01 9.837629999999998986e+00 5.985375000000000512e+01 1.724985000000000127e+03
5.000000000000000278e-02 6.282484999999999875e-01 1.147517000000000031e+01 6.320159999999999911e+01 1.725839999999999918e+03
5.100000000000000366e-02 6.289489999999999803e-01 1.319258999999999915e+01 6.677174999999999727e+01 1.726769999999999982e+03
5.200000000000000455e-02 6.296709999999999807e-01 1.495131499999999924e+01 7.049145000000000039e+01 1.727740000000000009e+03
5.300000000000000544e-02 6.303989999999999316e-01 1.671400500000000022e+01 7.428810000000000002e+01 1.728750000000000000e+03
5.399999999999999939e-02 6.311215000000000019e-01 1.844794999999999874e+01 7.809560000000000457e+01 1.729775000000000091e+03
5.500000000000000028e-02 6.318300000000000027e-01 2.012740000000000151e+01 8.185904999999999632e+01 1.730795000000000073e+03
5.600000000000000117e-02 6.325194999999999013e-01 2.173404999999999987e+01 8.553810000000000002e+01 1.731805000000000064e+03
5.700000000000000205e-02 6.331860000000000266e-01 2.325715000000000288e+01 8.910665000000000191e+01 1.732795000000000073e+03
5.800000000000000294e-02 6.338310000000000333e-01 2.469230000000000302e+01 9.255525000000000091e+01 1.733759999999999991e+03
5.900000000000000383e-02 6.344555000000000611e-01 2.604010000000000247e+01 9.588400000000000034e+01 1.734700000000000045e+03
6.000000000000000472e-02 6.350645000000000318e-01 2.730454999999999899e+01 9.910390000000001010e+01 1.735615000000000009e+03
6.099999999999999867e-02 6.356600000000000028e-01 2.849159999999999826e+01 1.022331000000000074e+02 1.736505000000000109e+03
6.199999999999999956e-02 6.362470000000000070e-01 2.960820000000000007e+01 1.052903000000000020e+02 1.737375000000000000e+03
6.300000000000000044e-02 6.368289999999999784e-01 3.066100000000000136e+01 1.082973000000000070e+02 1.738235000000000127e+03
6.400000000000000133e-02 6.374085000000000445e-01 3.165575000000000117e+01 1.112715000000000032e+02 1.739079999999999927e+03
6.500000000000000222e-02 6.379869999999999708e-01 3.259640000000000271e+01 1.142265000000000015e+02 1.739920000000000073e+03
6.600000000000000311e-02 6.385655000000000081e-01 3.348474999999999824e+01 1.171705000000000041e+02 1.740760000000000218e+03
6.700000000000000400e-02 6.391435000000000866e-01 3.431999999999999318e+01 1.201025000000000063e+02 1.741589999999999918e+03
6.800000000000000488e-02 6.397174999999999390e-01 3.509879999999999711e+01 1.230169999999999959e+02 1.742424999999999955e+03
6.900000000000000577e-02 6.402840000000000753e-01 3.581570000000000675e+01 1.258979999999999961e+02 1.743244999999999891e+03
7.000000000000000666e-02 6.408389999999999365e-01 3.646394999999999698e+01 1.287264999999999873e+02 1.744050000000000182e+03
7.100000000000000755e-02 6.413770000000000859e-01 3.703575000000000017e+01 1.314795000000000016e+02 1.744845000000000027e+03
7.200000000000000844e-02 6.418935000000000057e-01 3.752355000000000018e+01 1.341304999999999836e+02 1.745605000000000018e+03
7.300000000000000933e-02 6.423834999999999962e-01 3.792050000000000409e+01 1.366560000000000059e+02 1.746339999999999918e+03
7.399999999999999634e-02 6.428430000000000533e-01 3.822115000000000151e+01 1.390319999999999823e+02 1.747034999999999854e+03
7.499999999999999722e-02 6.432690000000000907e-01 3.842145000000000010e+01 1.412384999999999877e+02 1.747690000000000055e+03
7.599999999999999811e-02 6.436584999999999113e-01 3.851935000000000286e+01 1.432604999999999791e+02 1.748284999999999854e+03
7.699999999999999900e-02 6.440099999999999714e-01 3.851435000000000031e+01 1.450865000000000009e+02 1.748835000000000036e+03
7.799999999999999989e-02 6.443225000000000202e-01 3.840755000000000052e+01 1.467090000000000032e+02 1.749335000000000036e+03
7.900000000000000078e-02 6.445959999999999468e-01 3.820179999999999865e+01 1.481260000000000048e+02 1.749769999999999982e+03
8.000000000000000167e-02 6.448309999999999320e-01 3.790129999999999910e+01 1.493405000000000200e+02 1.750154999999999973e+03
8.100000000000000255e-02 6.450294999999999224e-01 3.751180000000000092e+01 1.503564999999999827e+02 1.750485000000000127e+03
8.200000000000000344e-02 6.451919999999999877e-01 3.704075000000000273e+01 1.511850000000000023e+02 1.750755000000000109e+03
8.300000000000000433e-02 6.453229999999999800e-01 3.649674999999999869e+01 1.518394999999999868e+02 1.750980000000000018e+03
8.400000000000000522e-02 6.454249999999999154e-01 3.588989999999999725e+01 1.523340000000000032e+02 1.751164999999999964e+03
8.500000000000000611e-02 6.455005000000000326e-01 3.523145000000000238e+01 1.526899999999999977e+02 1.751300000000000182e+03
8.600000000000000699e-02 6.455560000000000187e-01 3.453329999999999700e+01 1.529259999999999877e+02 1.751394999999999982e+03
8.700000000000000788e-02 6.455940000000000012e-01 3.380780000000000030e+01 1.530639999999999930e+02 1.751470000000000027e+03
8.800000000000000877e-02 6.456189999999999429e-01 3.306700000000000017e+01 1.531274999999999977e+02 1.751510000000000218e+03
8.899999999999999578e-02 6.456349999999999589e-01 3.232224999999999682e+01 1.531355000000000075e+02 1.751530000000000200e+03
8.999999999999999667e-02 6.456450000000000244e-01 3.158344999999999914e+01 1.531075000000000159e+02 1.751545000000000073e+03
9.099999999999999756e-02 6.456524999999999626e-01 3.085885000000000034e+01 1.530600000000000023e+02 1.751545000000000073e+03
9.199999999999999845e-02 6.456585000000000241e-01 3.015435000000000088e+01 1.530039999999999907e+02 1.751539999999999964e+03
9.299999999999999933e-02 6.456640000000000157e-01 2.947364999999999924e+01 1.529484999999999957e+02 1.751525000000000091e+03
9.400000000000000022e-02 6.456690000000000484e-01 2.881814999999999927e+01 1.528960000000000150e+02 1.751514999999999873e+03
9.500000000000000111e-02 6.456735000000000113e-01 2.818679999999999808e+01 1.528464999999999918e+02 1.751505000000000109e+03
9.600000000000000200e-02 6.456760000000000277e-01 2.757694999999999652e+01 1.527944999999999993e+02 1.751489999999999782e+03
9.700000000000000289e-02 6.456749999999999989e-01 2.698424999999999940e+01 1.527330000000000041e+02 1.751474999999999909e+03
9.800000000000000377e-02 6.456669999999999909e-01 2.640334999999999965e+01 1.526519999999999868e+02 1.751445000000000164e+03
9.900000000000000466e-02 6.456505000000000161e-01 2.582800000000000296e+01 1.525395000000000039e+02 1.751414999999999964e+03
1.000000000000000056e-01 6.456239999999999757e-01 2.525195000000000078e+01 1.523840000000000146e+02 1.751375000000000000e+03
1.010000000000000064e-01 6.455834999999999768e-01 2.466884999999999906e+01 1.521730000000000018e+02 1.751315000000000055e+03
1.020000000000000073e-01 6.455294999999999783e-01 2.407294999999999874e+01 1.518960000000000150e+02 1.751244999999999891e+03
1.030000000000000082e-01 6.454584999999999351e-01 2.345935000000000059e+01 1.515440000000000111e+02 1.751155000000000200e+03
1.040000000000000091e-01 6.453705000000000691e-01 2.282420000000000115e+01 1.511105000000000018e+02 1.751039999999999964e+03
1.050000000000000100e-01 6.452655000000000474e-01 2.216519999999999868e+01 1.505925000000000011e+02 1.750904999999999973e+03
1.059999999999999970e-01 6.451430000000000220e-01 2.148149999999999693e+01 1.499884999999999877e+02 1.750750000000000000e+03
1.069999999999999979e-01 6.450044999999999806e-01 2.077420000000000044e+01 1.493025000000000091e+02 1.750565000000000055e+03
1.079999999999999988e-01 6.448519999999999808e-01 2.004594999999999771e+01 1.485409999999999968e+02 1.750365000000000009e+03
1.089999999999999997e-01 6.446875000000000799e-01 1.930120000000000147e+01 1.477135000000000105e+02 1.750150000000000091e+03
1.100000000000000006e-01 6.445134999999999614e-01 1.854599999999999937e+01 1.468340000000000032e+02 1.749909999999999854e+03
1.110000000000000014e-01 6.443339999999999623e-01 1.778770000000000095e+01 1.459184999999999945e+02 1.749664999999999964e+03
1.120000000000000023e-01 6.441525000000000167e-01 1.703450000000000131e+01 1.449840000000000089e+02 1.749414999999999964e+03
1.130000000000000032e-01 6.439734999999999765e-01 1.629534999999999911e+01 1.440500000000000114e+02 1.749154999999999973e+03
1.140000000000000041e-01 6.437999999999999279e-01 1.557934999999999981e+01 1.431349999999999909e+02 1.748904999999999973e+03
1.150000000000000050e-01 6.436349999999999572e-01 1.489509999999999934e+01 1.422584999999999980e+02 1.748654999999999973e+03
1.160000000000000059e-01 6.434830000000000272e-01 1.425081499999999934e+01 1.414375000000000000e+02 1.748425000000000182e+03
1.170000000000000068e-01 6.433459999999999734e-01 1.365365500000000054e+01 1.406870000000000118e+02 1.748204999999999927e+03
1.180000000000000077e-01 6.432255000000000056e-01 1.310933499999999974e+01 1.400190000000000055e+02 1.748009999999999991e+03
1.190000000000000085e-01 6.431240000000000290e-01 1.262207500000000060e+01 1.394430000000000121e+02 1.747835000000000036e+03
1.200000000000000094e-01 6.430415000000000436e-01 1.219438500000000047e+01 1.389644999999999868e+02 1.747684999999999945e+03
1.209999999999999964e-01 6.429780000000000495e-01 1.182696499999999951e+01 1.385849999999999795e+02 1.747565000000000055e+03
1.219999999999999973e-01 6.429329999999999767e-01 1.151889999999999858e+01 1.383034999999999854e+02 1.747470000000000027e+03
1.229999999999999982e-01 6.429050000000000598e-01 1.126756999999999920e+01 1.381139999999999759e+02 1.747394999999999982e+03
1.239999999999999991e-01 6.428914999999999491e-01 1.106913499999999928e+01 1.380090000000000146e+02 1.747344999999999800e+03
1.250000000000000000e-01 6.428920000000000190e-01 1.091848500000000044e+01 1.379784999999999968e+02 1.747320000000000164e+03
1.260000000000000009e-01 6.429030000000000022e-01 1.080998500000000107e+01 1.380115000000000123e+02 1.747309999999999945e+03
1.270000000000000018e-01 6.429215000000000346e-01 1.073735500000000087e+01 1.380939999999999941e+02 1.747320000000000164e+03
1.280000000000000027e-01 6.429470000000000462e-01 1.069430499999999995e+01 1.382149999999999750e+02 1.747335000000000036e+03
1.290000000000000036e-01 6.429755000000000331e-01 1.067454000000000036e+01 1.383619999999999948e+02 1.747365000000000009e+03
1.300000000000000044e-01 6.430055000000000076e-01 1.067221999999999937e+01 1.385240000000000009e+02 1.747400000000000091e+03
1.310000000000000053e-01 6.430365000000000109e-01 1.068195500000000031e+01 1.386914999999999907e+02 1.747440000000000055e+03
1.320000000000000062e-01 6.430655000000000676e-01 1.069913000000000025e+01 1.388559999999999945e+02 1.747480000000000018e+03
1.330000000000000071e-01 6.430924999999999558e-01 1.071966499999999911e+01 1.390124999999999886e+02 1.747519999999999982e+03
1.340000000000000080e-01 6.431169999999999387e-01 1.074023000000000039e+01 1.391555000000000177e+02 1.747554999999999836e+03
1.350000000000000089e-01 6.431374999999999176e-01 1.075818999999999903e+01 1.392820000000000107e+02 1.747589999999999918e+03
1.360000000000000098e-01 6.431550000000000322e-01 1.077177499999999988e+01 1.393909999999999911e+02 1.747614999999999782e+03
1.370000000000000107e-01 6.431694999999999496e-01 1.077958500000000086e+01 1.394830000000000041e+02 1.747644999999999982e+03
1.380000000000000115e-01 6.431810000000000027e-01 1.078095000000000070e+01 1.395585000000000093e+02 1.747664999999999964e+03
1.390000000000000124e-01 6.431899999999999284e-01 1.077583500000000072e+01 1.396194999999999879e+02 1.747684999999999945e+03
1.400000000000000133e-01 6.431974999999999776e-01 1.076454500000000003e+01 1.396689999999999827e+02 1.747699999999999818e+03
1.410000000000000142e-01 6.432029999999999692e-01 1.074781499999999923e+01 1.397100000000000080e+02 1.747710000000000036e+03
1.420000000000000151e-01 6.432089999999999197e-01 1.072667999999999999e+01 1.397454999999999927e+02 1.747724999999999909e+03
1.430000000000000160e-01 6.432145000000000223e-01 1.070250000000000057e+01 1.397805000000000177e+02 1.747735000000000127e+03
1.440000000000000169e-01 6.432215000000000016e-01 1.067662500000000136e+01 1.398160000000000025e+02 1.747750000000000000e+03
1.450000000000000178e-01 6.432295000000000096e-01 1.065039499999999961e+01 1.398580000000000041e+02 1.747755000000000109e+03
1.459999999999999909e-01 6.432400000000000340e-01 1.062513000000000041e+01 1.399074999999999989e+02 1.747775000000000091e+03
1.469999999999999918e-01 6.432519999999999349e-01 1.060193999999999903e+01 1.399660000000000082e+02 1.747789999999999964e+03
1.479999999999999927e-01 6.432664999999999633e-01 1.058163499999999857e+01 1.400364999999999895e+02 1.747809999999999945e+03
1.489999999999999936e-01 6.432839999999999669e-01 1.056466499999999975e+01 1.401184999999999832e+02 1.747835000000000036e+03
1.499999999999999944e-01 6.433035000000000281e-01 1.055126500000000078e+01 1.402115000000000009e+02 1.747855000000000018e+03
1.509999999999999953e-01 6.433249999999999247e-01 1.054124999999999979e+01 1.403154999999999859e+02 1.747884999999999991e+03
1.519999999999999962e-01 6.433480000000000310e-01 1.053419000000000061e+01 1.404275000000000091e+02 1.747914999999999964e+03
1.529999999999999971e-01 6.433720000000000550e-01 1.052942999999999962e+01 1.405459999999999923e+02 1.747944999999999936e+03
1.539999999999999980e-01 6.433964999999999268e-01 1.052626000000000062e+01 1.406684999999999945e+02 1.747980000000000018e+03
1.549999999999999989e-01 6.434210000000000207e-01 1.052383999999999986e+01 1.407919999999999732e+02 1.748015000000000100e+03
1.559999999999999998e-01 6.434450000000000447e-01 1.052149000000000001e+01 1.409150000000000205e+02 1.748050000000000182e+03
1.570000000000000007e-01 6.434679999999999289e-01 1.051863499999999974e+01 1.410339999999999918e+02 1.748085000000000036e+03
1.580000000000000016e-01 6.434904999999999653e-01 1.051495500000000050e+01 1.411479999999999961e+02 1.748115000000000009e+03
1.590000000000000024e-01 6.435115000000000141e-01 1.051035999999999859e+01 1.412574999999999932e+02 1.748144999999999982e+03
