# t [s], A [cm^2], U [cm/s], P [cPa], c [cm/s]
1.000000000000000021e-03 1.939489999999999825e-01 4.582763499999999990e-01 1.003722999999999956e+02 2.132670000000000073e+03
2.000000000000000042e-03 1.938799999999999968e-01 2.220984000000000069e+00 9.634584999999999866e+01 2.132135000000000218e+03
3.000000000000000062e-03 1.937135000000000107e-01 4.348024499999999293e+00 9.091915000000000191e+01 2.130889999999999873e+03
4.000000000000000083e-03 1.934994999999999910e-01 6.730129999999999946e+00 8.541225000000000023e+01 2.129300000000000182e+03
5.000000000000000104e-03 1.932804999999999940e-01 9.241579999999999018e+00 8.084129999999998972e+01 2.127690000000000055e+03
6.000000000000000125e-03 1.930749999999999966e-01 1.160132500000000100e+01 7.721739999999999782e+01 2.126204999999999927e+03
7.000000000000000146e-03 1.928865000000000163e-01 1.358535999999999966e+01 7.405780000000000030e+01 2.124869999999999891e+03
8.000000000000000167e-03 1.927185000000000148e-01 1.520009999999999906e+01 7.126304999999999268e+01 2.123699999999999818e+03
9.000000000000001055e-03 1.925769999999999982e-01 1.651299999999999812e+01 6.898454999999999870e+01 2.122725000000000364e+03
1.000000000000000194e-02 1.924629999999999952e-01 1.754834999999999923e+01 6.722159999999999513e+01 2.121945000000000164e+03
1.099999999999999936e-02 1.923725000000000018e-01 1.832939999999999969e+01 6.589650000000000318e+01 2.121345000000000255e+03
1.200000000000000025e-02 1.923040000000000027e-01 1.887239999999999895e+01 6.490715000000000146e+01 2.120894999999999982e+03
1.300000000000000114e-02 1.922500000000000042e-01 1.918635000000000090e+01 6.410065000000000168e+01 2.120545000000000073e+03
1.400000000000000203e-02 1.922070000000000167e-01 1.934105000000000274e+01 6.344210000000000349e+01 2.120279999999999745e+03
1.499999999999999944e-02 1.921804999999999763e-01 1.950820000000000221e+01 6.321720000000000539e+01 2.120125000000000000e+03
1.600000000000000033e-02 1.921835000000000071e-01 1.989220000000000255e+01 6.393694999999999595e+01 2.120155000000000200e+03
1.700000000000000122e-02 1.922284999999999966e-01 2.060054999999999836e+01 6.596274999999999977e+01 2.120465000000000146e+03
1.800000000000000211e-02 1.923165000000000013e-01 2.156425000000000125e+01 6.917105000000000814e+01 2.121069999999999709e+03
1.900000000000000300e-02 1.924325000000000063e-01 2.256090000000000018e+01 7.290909999999999513e+01 2.121875000000000000e+03
2.000000000000000042e-02 1.925540000000000029e-01 2.331550000000000011e+01 7.624850000000000705e+01 2.122720000000000255e+03
2.100000000000000130e-02 1.926534999999999775e-01 2.361639999999999873e+01 7.836730000000000018e+01 2.123434999999999945e+03
2.200000000000000219e-02 1.927115000000000078e-01 2.339325000000000188e+01 7.886355000000000359e+01 2.123864999999999782e+03
2.299999999999999961e-02 1.927224999999999910e-01 2.272749999999999915e+01 7.786785000000000423e+01 2.123974999999999909e+03
2.400000000000000050e-02 1.926944999999999908e-01 2.180015000000000214e+01 7.592735000000000412e+01 2.123809999999999945e+03
2.500000000000000139e-02 1.926434999999999953e-01 2.080790000000000006e+01 7.373830000000000950e+01 2.123470000000000255e+03
2.600000000000000228e-02 1.925879999999999814e-01 1.988875000000000171e+01 7.186395000000000266e+01 2.123090000000000146e+03
2.700000000000000316e-02 1.925395000000000023e-01 1.908594999999999686e+01 7.055644999999999811e+01 2.122750000000000000e+03
2.800000000000000058e-02 1.925014999999999921e-01 1.835625000000000284e+01 6.973505000000000109e+01 2.122480000000000018e+03
2.900000000000000147e-02 1.924704999999999888e-01 1.761139999999999972e+01 6.909694999999999254e+01 2.122264999999999873e+03
3.000000000000000236e-02 1.924389999999999989e-01 1.677015000000000100e+01 6.829484999999999673e+01 2.122045000000000073e+03
3.099999999999999978e-02 1.923985000000000001e-01 1.580209999999999937e+01 6.710724999999999341e+01 2.121769999999999982e+03
3.200000000000000067e-02 1.923475000000000046e-01 1.474954999999999927e+01 6.554439999999999600e+01 2.121425000000000182e+03
3.300000000000000155e-02 1.922889999999999877e-01 1.372049999999999947e+01 6.385889999999999844e+01 2.121024999999999636e+03
3.400000000000000244e-02 1.922335000000000016e-01 1.285650000000000048e+01 6.246269999999999811e+01 2.120639999999999873e+03
3.500000000000000333e-02 1.921944999999999903e-01 1.228795000000000037e+01 6.178435000000000343e+01 2.120355000000000018e+03
3.600000000000000422e-02 1.921819999999999917e-01 1.209185000000000088e+01 6.211970000000000169e+01 2.120255000000000109e+03
3.700000000000000511e-02 1.922030000000000127e-01 1.226725000000000065e+01 6.352915000000000134e+01 2.120380000000000109e+03
3.799999999999999906e-02 1.922570000000000112e-01 1.273355000000000103e+01 6.580949999999999989e+01 2.120734999999999673e+03
3.899999999999999994e-02 1.923350000000000060e-01 1.334945000000000093e+01 6.854250000000000398e+01 2.121255000000000109e+03
4.000000000000000083e-02 1.924224999999999963e-01 1.394444999999999979e+01 7.119514999999999816e+01 2.121855000000000018e+03
4.100000000000000172e-02 1.925034999999999941e-01 1.435314999999999941e+01 7.323725000000000307e+01 2.122414999999999964e+03
4.200000000000000261e-02 1.925614999999999966e-01 1.444289999999999985e+01 7.424385000000000900e+01 2.122824999999999818e+03
4.300000000000000350e-02 1.925844999999999918e-01 1.413094999999999857e+01 7.396129999999999427e+01 2.123000000000000000e+03
4.400000000000000439e-02 1.925644999999999996e-01 1.338935000000000031e+01 7.232710000000000150e+01 2.122880000000000109e+03
4.499999999999999833e-02 1.925010000000000054e-01 1.223881499999999889e+01 6.944960000000000377e+01 2.122449999999999818e+03
4.599999999999999922e-02 1.923964999999999981e-01 1.073672499999999985e+01 6.556005000000000393e+01 2.121739999999999782e+03
4.700000000000000011e-02 1.922570000000000112e-01 8.962139999999999773e+00 6.095400000000000063e+01 2.120789999999999964e+03
4.800000000000000100e-02 1.920935000000000004e-01 7.003280000000000172e+00 5.593919999999999959e+01 2.119659999999999854e+03
4.900000000000000189e-02 1.919140000000000013e-01 4.948586999999999847e+00 5.079879999999999995e+01 2.118425000000000182e+03
5.000000000000000278e-02 1.917280000000000095e-01 2.882295000000000051e+00 4.577454999999999785e+01 2.117140000000000327e+03
5.100000000000000366e-02 1.915445000000000064e-01 8.836299999999999155e-01 4.106605000000000416e+01 2.115869999999999891e+03
5.200000000000000455e-02 1.913704999999999989e-01 -9.723450000000000149e-01 3.684040000000000248e+01 2.114654999999999745e+03
5.300000000000000544e-02 1.912125000000000075e-01 -2.613680000000000003e+00 3.324374999999999858e+01 2.113555000000000291e+03
5.399999999999999939e-02 1.910764999999999825e-01 -3.971595000000000208e+00 3.041045000000000087e+01 2.112600000000000364e+03
5.500000000000000028e-02 1.909679999999999989e-01 -4.982339999999999769e+00 2.846464999999999890e+01 2.111835000000000036e+03
5.600000000000000117e-02 1.908924999999999927e-01 -5.590479999999999450e+00 2.751620000000000132e+01 2.111295000000000073e+03
5.700000000000000205e-02 1.908535000000000093e-01 -5.753219999999999779e+00 2.765019999999999811e+01 2.111000000000000000e+03
5.800000000000000294e-02 1.908545000000000103e-01 -5.444459999999999411e+00 2.891570000000000107e+01 2.110980000000000018e+03
5.900000000000000383e-02 1.908974999999999977e-01 -4.657904999999999518e+00 3.131544999999999845e+01 2.111250000000000000e+03
6.000000000000000472e-02 1.909819999999999851e-01 -3.408329500000000234e+00 3.480079999999999529e+01 2.111805000000000291e+03
6.099999999999999867e-02 1.911069999999999991e-01 -1.730829999999999869e+00 3.927244999999999919e+01 2.112640000000000327e+03
6.199999999999999956e-02 1.912674999999999792e-01 3.217849999999999877e-01 4.458740000000000236e+01 2.113730000000000018e+03
6.300000000000000044e-02 1.914605000000000057e-01 2.682990000000000208e+00 5.057014999999999816e+01 2.115045000000000073e+03
6.400000000000000133e-02 1.916780000000000150e-01 5.277167500000000011e+00 5.702625000000000455e+01 2.116539999999999964e+03
6.500000000000000222e-02 1.919150000000000023e-01 8.024359999999999715e+00 6.375679999999999836e+01 2.118164999999999964e+03
6.600000000000000311e-02 1.921634999999999871e-01 1.084470500000000115e+01 7.057019999999999982e+01 2.119885000000000218e+03
6.700000000000000400e-02 1.924164999999999903e-01 1.366233000000000075e+01 7.729290000000000305e+01 2.121650000000000091e+03
6.800000000000000488e-02 1.926694999999999935e-01 1.640875000000000128e+01 8.377715000000000600e+01 2.123414999999999964e+03
6.900000000000000577e-02 1.929144999999999888e-01 1.902580000000000027e+01 8.990694999999999482e+01 2.125135000000000218e+03
7.000000000000000666e-02 1.931499999999999884e-01 2.146790000000000020e+01 9.560195000000000221e+01 2.126784999999999854e+03
7.100000000000000755e-02 1.933705000000000007e-01 2.370364999999999966e+01 1.008191999999999950e+02 2.128344999999999800e+03
7.200000000000000844e-02 1.935755000000000114e-01 2.571690000000000254e+01 1.055550000000000068e+02 2.129800000000000182e+03
7.300000000000000933e-02 1.937649999999999928e-01 2.750609999999999999e+01 1.098400000000000034e+02 2.131149999999999636e+03
7.399999999999999634e-02 1.939390000000000003e-01 2.908310000000000173e+01 1.137355000000000018e+02 2.132394999999999982e+03
7.499999999999999722e-02 1.940999999999999948e-01 3.047115000000000151e+01 1.173259999999999934e+02 2.133550000000000182e+03
7.599999999999999811e-02 1.942515000000000214e-01 3.170155000000000101e+01 1.207104999999999961e+02 2.134630000000000109e+03
7.699999999999999900e-02 1.943949999999999845e-01 3.280984999999999729e+01 1.239915000000000020e+02 2.135659999999999854e+03
7.799999999999999989e-02 1.945344999999999991e-01 3.383270000000000266e+01 1.272644999999999982e+02 2.136659999999999854e+03
7.900000000000000078e-02 1.946734999999999993e-01 3.480405000000000371e+01 1.306115000000000066e+02 2.137659999999999854e+03
8.000000000000000167e-02 1.948150000000000159e-01 3.575225000000000364e+01 1.340919999999999845e+02 2.138670000000000073e+03
8.100000000000000255e-02 1.949605000000000088e-01 3.669794999999999874e+01 1.377404999999999973e+02 2.139704999999999927e+03
8.200000000000000344e-02 1.951104999999999923e-01 3.765279999999999916e+01 1.415625000000000000e+02 2.140779999999999745e+03
8.300000000000000433e-02 1.952665000000000095e-01 3.861899999999999977e+01 1.455380000000000109e+02 2.141885000000000218e+03
8.400000000000000522e-02 1.954265000000000030e-01 3.958965000000000600e+01 1.496214999999999975e+02 2.143029999999999745e+03
8.500000000000000611e-02 1.955894999999999995e-01 4.054975000000000307e+01 1.537495000000000118e+02 2.144189999999999600e+03
8.600000000000000699e-02 1.957534999999999969e-01 4.147804999999999609e+01 1.578435000000000059e+02 2.145360000000000127e+03
8.700000000000000788e-02 1.959155000000000202e-01 4.234860000000000468e+01 1.618179999999999836e+02 2.146514999999999873e+03
8.800000000000000877e-02 1.960724999999999829e-01 4.313320000000000221e+01 1.655860000000000127e+02 2.147635000000000218e+03
8.899999999999999578e-02 1.962210000000000065e-01 4.380330000000000013e+01 1.690640000000000214e+02 2.148699999999999818e+03
8.999999999999999667e-02 1.963590000000000058e-01 4.433200000000000074e+01 1.721769999999999925e+02 2.149694999999999709e+03
9.099999999999999756e-02 1.964830000000000187e-01 4.469579999999999842e+01 1.748650000000000091e+02 2.150590000000000146e+03
9.199999999999999845e-02 1.965919999999999890e-01 4.487614999999999554e+01 1.770819999999999936e+02 2.151375000000000000e+03
9.299999999999999933e-02 1.966829999999999967e-01 4.486039999999999850e+01 1.787995000000000232e+02 2.152039999999999964e+03
9.400000000000000022e-02 1.967554999999999998e-01 4.464265000000000327e+01 1.800080000000000098e+02 2.152569999999999709e+03
9.500000000000000111e-02 1.968090000000000117e-01 4.422409999999999997e+01 1.807164999999999964e+02 2.152970000000000255e+03
9.600000000000000200e-02 1.968440000000000190e-01 4.361280000000000001e+01 1.809505000000000052e+02 2.153230000000000018e+03
9.700000000000000289e-02 1.968614999999999948e-01 4.282304999999999495e+01 1.807504999999999882e+02 2.153369999999999891e+03
9.800000000000000377e-02 1.968624999999999958e-01 4.187520000000000664e+01 1.801709999999999923e+02 2.153390000000000327e+03
9.900000000000000466e-02 1.968484999999999818e-01 4.079390000000000072e+01 1.792740000000000009e+02 2.153305000000000291e+03
1.000000000000000056e-01 1.968225000000000113e-01 3.960715000000000430e+01 1.781279999999999859e+02 2.153130000000000109e+03
1.010000000000000064e-01 1.967865000000000031e-01 3.834494999999999720e+01 1.768044999999999902e+02 2.152885000000000218e+03
1.020000000000000073e-01 1.967440000000000022e-01 3.703770000000000095e+01 1.753745000000000118e+02 2.152585000000000036e+03
1.030000000000000082e-01 1.966959999999999820e-01 3.571504999999999797e+01 1.739035000000000082e+02 2.152250000000000000e+03
1.040000000000000091e-01 1.966455000000000009e-01 3.440465000000000373e+01 1.724509999999999934e+02 2.151889999999999873e+03
1.050000000000000100e-01 1.965945000000000054e-01 3.313080000000000069e+01 1.710685000000000002e+02 2.151530000000000200e+03
1.059999999999999970e-01 1.965449999999999975e-01 3.191389999999999816e+01 1.697955000000000041e+02 2.151175000000000182e+03
1.069999999999999979e-01 1.964989999999999792e-01 3.076940000000000097e+01 1.686605000000000132e+02 2.150845000000000255e+03
1.079999999999999988e-01 1.964569999999999927e-01 2.970765000000000100e+01 1.676795000000000186e+02 2.150539999999999964e+03
1.089999999999999997e-01 1.964200000000000113e-01 2.873355000000000103e+01 1.668545000000000016e+02 2.150269999999999982e+03
1.100000000000000006e-01 1.963874999999999926e-01 2.784649999999999892e+01 1.661759999999999877e+02 2.150034999999999854e+03
1.110000000000000014e-01 1.963604999999999934e-01 2.704104999999999848e+01 1.656239999999999952e+02 2.149829999999999927e+03
1.120000000000000023e-01 1.963365000000000249e-01 2.630720000000000169e+01 1.651684999999999945e+02 2.149659999999999854e+03
1.130000000000000032e-01 1.963170000000000193e-01 2.563135000000000119e+01 1.647719999999999914e+02 2.149510000000000218e+03
1.140000000000000041e-01 1.962980000000000003e-01 2.499714999999999776e+01 1.643919999999999959e+02 2.149375000000000000e+03
1.150000000000000050e-01 1.962805000000000244e-01 2.438664999999999949e+01 1.639830000000000041e+02 2.149239999999999782e+03
1.160000000000000059e-01 1.962609999999999910e-01 2.378134999999999977e+01 1.635020000000000095e+02 2.149095000000000255e+03
1.170000000000000068e-01 1.962389999999999968e-01 2.316344999999999743e+01 1.629064999999999941e+02 2.148940000000000055e+03
1.180000000000000077e-01 1.962129999999999985e-01 2.251700000000000301e+01 1.621630000000000109e+02 2.148750000000000000e+03
1.190000000000000085e-01 1.961819999999999953e-01 2.182860000000000156e+01 1.612439999999999998e+02 2.148529999999999745e+03
1.200000000000000094e-01 1.961439999999999850e-01 2.108865000000000123e+01 1.601315000000000168e+02 2.148260000000000218e+03
1.209999999999999964e-01 1.960999999999999965e-01 2.029155000000000086e+01 1.588204999999999814e+02 2.147940000000000055e+03
1.219999999999999973e-01 1.960485000000000144e-01 1.943614999999999782e+01 1.573154999999999859e+02 2.147579999999999927e+03
1.229999999999999982e-01 1.959899999999999975e-01 1.852594999999999814e+01 1.556324999999999932e+02 2.147164999999999964e+03
1.239999999999999991e-01 1.959245000000000014e-01 1.756889999999999930e+01 1.537995000000000232e+02 2.146704999999999927e+03
1.250000000000000000e-01 1.958544999999999869e-01 1.657675000000000054e+01 1.518524999999999920e+02 2.146204999999999927e+03
1.260000000000000009e-01 1.957800000000000096e-01 1.556454999999999878e+01 1.498340000000000032e+02 2.145679999999999836e+03
1.270000000000000018e-01 1.957030000000000158e-01 1.454960000000000164e+01 1.477919999999999732e+02 2.145130000000000109e+03
1.280000000000000027e-01 1.956249999999999933e-01 1.355075000000000074e+01 1.457749999999999773e+02 2.144579999999999927e+03
1.290000000000000036e-01 1.955479999999999996e-01 1.258704999999999963e+01 1.438324999999999818e+02 2.144034999999999854e+03
1.300000000000000044e-01 1.954735000000000222e-01 1.167668000000000106e+01 1.420089999999999861e+02 2.143500000000000000e+03
1.310000000000000053e-01 1.954029999999999934e-01 1.083635500000000107e+01 1.403449999999999989e+02 2.143000000000000000e+03
1.320000000000000062e-01 1.953380000000000116e-01 1.008015499999999953e+01 1.388714999999999975e+02 2.142529999999999745e+03
1.330000000000000071e-01 1.952804999999999958e-01 9.419069999999999609e+00 1.376129999999999995e+02 2.142114999999999782e+03
1.340000000000000080e-01 1.952300000000000146e-01 8.860310000000000130e+00 1.365819999999999936e+02 2.141750000000000000e+03
1.350000000000000089e-01 1.951880000000000004e-01 8.407360000000000610e+00 1.357835000000000036e+02 2.141449999999999818e+03
1.360000000000000098e-01 1.951545000000000085e-01 8.059889999999999333e+00 1.352115000000000009e+02 2.141204999999999927e+03
1.370000000000000107e-01 1.951289999999999969e-01 7.813839999999999009e+00 1.348520000000000039e+02 2.141014999999999873e+03
1.380000000000000115e-01 1.951114999999999933e-01 7.661895000000000344e+00 1.346839999999999975e+02 2.140880000000000109e+03
1.390000000000000124e-01 1.951005000000000100e-01 7.593960000000000043e+00 1.346800000000000068e+02 2.140800000000000182e+03
1.400000000000000133e-01 1.950965000000000060e-01 7.597795000000000520e+00 1.348095000000000141e+02 2.140760000000000218e+03
1.410000000000000142e-01 1.950975000000000070e-01 7.659675000000000011e+00 1.350384999999999991e+02 2.140755000000000109e+03
1.420000000000000151e-01 1.951019999999999976e-01 7.765054999999999374e+00 1.353335000000000150e+02 2.140784999999999854e+03
1.430000000000000160e-01 1.951094999999999913e-01 7.899264999999999759e+00 1.356600000000000250e+02 2.140835000000000036e+03
1.440000000000000169e-01 1.951189999999999869e-01 8.048090000000000188e+00 1.359884999999999877e+02 2.140894999999999982e+03
1.450000000000000178e-01 1.951284999999999825e-01 8.198344999999999771e+00 1.362909999999999968e+02 2.140960000000000036e+03
1.459999999999999909e-01 1.951375000000000193e-01 8.338305000000000078e+00 1.365439999999999827e+02 2.141019999999999982e+03
1.469999999999999918e-01 1.951444999999999985e-01 8.458055000000001655e+00 1.367295000000000016e+02 2.141074999999999818e+03
1.479999999999999927e-01 1.951499999999999901e-01 8.549739999999999895e+00 1.368340000000000032e+02 2.141114999999999782e+03
1.489999999999999936e-01 1.951534999999999798e-01 8.607720000000000482e+00 1.368505000000000109e+02 2.141135000000000218e+03
1.499999999999999944e-01 1.951529999999999931e-01 8.628589999999999094e+00 1.367750000000000057e+02 2.141135000000000218e+03
1.509999999999999953e-01 1.951499999999999901e-01 8.611135000000000872e+00 1.366105000000000018e+02 2.141114999999999782e+03
1.519999999999999962e-01 1.951434999999999975e-01 8.556150000000000588e+00 1.363619999999999948e+02 2.141074999999999818e+03
1.529999999999999971e-01 1.951344999999999885e-01 8.466235000000001065e+00 1.360405000000000086e+02 2.141010000000000218e+03
1.539999999999999980e-01 1.951224999999999765e-01 8.345465000000000799e+00 1.356570000000000107e+02 2.140929999999999836e+03
1.549999999999999989e-01 1.951085000000000180e-01 8.199054999999999538e+00 1.352270000000000039e+02 2.140829999999999927e+03
1.559999999999999998e-01 1.950925000000000020e-01 8.032935000000000159e+00 1.347649999999999864e+02 2.140720000000000255e+03
1.570000000000000007e-01 1.950755000000000128e-01 7.853394999999999904e+00 1.342850000000000250e+02 2.140605000000000018e+03
1.580000000000000016e-01 1.950584999999999958e-01 7.666660000000000252e+00 1.338025000000000091e+02 2.140480000000000018e+03
1.590000000000000024e-01 1.950399999999999912e-01 7.478559999999999874e+00 1.333290000000000077e+02 2.140354999999999563e+03
