# t [s], A [cm^2], U [cm/s], P [cPa], c [cm/s]
1.000000000000000021e-03 7.301800000000000512e-01 4.975500000000000755e-03 1.055775000000000006e+02 1.694034999999999854e+03
2.000000000000000042e-03 7.301744999999999486e-01 9.528950000000001308e-03 1.055535000000000139e+02 1.694029999999999973e+03
3.000000000000000062e-03 7.302615000000000078e-01 1.541045500000000068e-01 1.057189999999999941e+02 1.694065000000000055e+03
4.000000000000000083e-03 7.302914999999999823e-01 2.257615000000000038e-01 1.058024999999999949e+02 1.694090000000000146e+03
5.000000000000000104e-03 7.302159999999999762e-01 1.300295000000000201e-01 1.056005000000000109e+02 1.694050000000000182e+03
6.000000000000000125e-03 7.301260000000000527e-01 2.844999999999653362e-04 1.052450000000000045e+02 1.693980000000000018e+03
7.000000000000000146e-03 7.300159999999999982e-01 -1.764649999999999830e-01 1.047489999999999952e+02 1.693875000000000000e+03
8.000000000000000167e-03 7.298170000000000490e-01 -5.191649999999999876e-01 1.039470000000000027e+02 1.693710000000000036e+03
9.000000000000001055e-03 7.295224999999999627e-01 -1.033774999999999888e+00 1.027694999999999936e+02 1.693469999999999800e+03
1.000000000000000194e-02 7.291170000000000151e-01 -1.730644999999999989e+00 1.011471499999999963e+02 1.693125000000000000e+03
1.099999999999999936e-02 7.285749999999999726e-01 -2.627449999999999619e+00 9.899475000000001046e+01 1.692670000000000073e+03
1.200000000000000025e-02 7.279325000000000934e-01 -3.629990000000000272e+00 9.637690000000000623e+01 1.692099999999999909e+03
1.300000000000000114e-02 7.272974999999999302e-01 -4.519425000000000026e+00 9.357264999999999588e+01 1.691470000000000027e+03
1.400000000000000203e-02 7.267759999999999776e-01 -5.071620950000000683e+00 9.094790000000000418e+01 1.690849999999999909e+03
1.499999999999999944e-02 7.264114999999999878e-01 -5.173418999999999990e+00 8.876605000000000700e+01 1.690295000000000073e+03
1.600000000000000033e-02 7.261765000000000025e-01 -4.854480000000000572e+00 8.709020000000001005e+01 1.689835000000000036e+03
1.700000000000000122e-02 7.259974999999999623e-01 -4.248070000000000235e+00 8.579355000000001041e+01 1.689444999999999936e+03
1.800000000000000211e-02 7.257934999999999803e-01 -3.521525000000000016e+00 8.464170000000000016e+01 1.689079999999999927e+03
1.900000000000000300e-02 7.255070000000000130e-01 -2.807715500000000031e+00 8.340170000000000528e+01 1.688715000000000146e+03
2.000000000000000042e-02 7.251265000000000072e-01 -2.161789999999999878e+00 8.193385000000000673e+01 1.688309999999999945e+03
2.100000000000000130e-02 7.246785000000000032e-01 -1.559970000000000079e+00 8.022820000000000107e+01 1.687855000000000018e+03
2.200000000000000219e-02 7.242094999999999505e-01 -9.373000000000000220e-01 7.837484999999999502e+01 1.687369999999999891e+03
2.299999999999999961e-02 7.237575000000000536e-01 -2.398250000000001769e-01 7.649235000000000184e+01 1.686880000000000109e+03
2.400000000000000050e-02 7.233315000000000161e-01 5.361750000000000682e-01 7.465520000000000778e+01 1.686384999999999991e+03
2.500000000000000139e-02 7.229119999999999990e-01 1.331325000000000092e+00 7.285110000000000241e+01 1.685900000000000091e+03
2.600000000000000228e-02 7.224530000000000118e-01 2.035675000000000345e+00 7.097669999999999391e+01 1.685394999999999982e+03
2.700000000000000316e-02 7.219029999999999614e-01 2.518310000000000048e+00 6.886684999999999945e+01 1.684849999999999909e+03
2.800000000000000058e-02 7.212169999999999970e-01 2.664144999999999541e+00 6.634700000000000841e+01 1.684224999999999909e+03
2.900000000000000147e-02 7.203745000000000287e-01 2.407575000000000465e+00 6.329184999999999661e+01 1.683490000000000009e+03
3.000000000000000236e-02 7.193880000000000274e-01 1.753155000000000463e+00 5.967334999999999923e+01 1.682639999999999873e+03
3.099999999999999978e-02 7.183014999999999262e-01 7.757300000000002527e-01 5.558114999999999384e+01 1.681684999999999945e+03
3.200000000000000067e-02 7.171795000000000808e-01 -3.982499999999999929e-01 5.121049999999999613e+01 1.680664999999999964e+03
3.300000000000000155e-02 7.160964999999999137e-01 -1.619860000000000078e+00 4.682435000000000258e+01 1.679619999999999891e+03
3.400000000000000244e-02 7.151195000000000190e-01 -2.746924999999999617e+00 4.270475000000000421e+01 1.678615000000000009e+03
3.500000000000000333e-02 7.143019999999999925e-01 -3.664634999999999643e+00 3.910849999999999937e+01 1.677714999999999918e+03
3.600000000000000422e-02 7.136780000000000346e-01 -4.295304999999999929e+00 3.623590000000000089e+01 1.676960000000000036e+03
3.700000000000000511e-02 7.132639999999998981e-01 -4.598288499999999779e+00 3.421564999999999657e+01 1.676384999999999991e+03
3.799999999999999906e-02 7.130609999999999449e-01 -4.562469999999999359e+00 3.310535000000000139e+01 1.676009999999999991e+03
3.899999999999999994e-02 7.130615000000000148e-01 -4.195920000000000094e+00 3.290310000000000201e+01 1.675844999999999800e+03
4.000000000000000083e-02 7.132514999999999272e-01 -3.515379999999999949e+00 3.356600000000000250e+01 1.675894999999999982e+03
4.100000000000000172e-02 7.136149999999999993e-01 -2.538854999999999862e+00 3.502830000000000155e+01 1.676134999999999991e+03
4.200000000000000261e-02 7.141390000000000793e-01 -1.282569999999999766e+00 3.721544999999999703e+01 1.676559999999999945e+03
4.300000000000000350e-02 7.148075000000000401e-01 2.375999999999995893e-01 4.005125000000000313e+01 1.677150000000000091e+03
4.400000000000000439e-02 7.156065000000000342e-01 2.002199999999999758e+00 4.345850000000000080e+01 1.677889999999999873e+03
4.499999999999999833e-02 7.165165000000000006e-01 3.983665000000000234e+00 4.735569999999999879e+01 1.678755000000000109e+03
4.599999999999999922e-02 7.175169999999999604e-01 6.143699999999999939e+00 5.165295000000000414e+01 1.679730000000000018e+03
4.700000000000000011e-02 7.185820000000000540e-01 8.433210000000000761e+00 5.625054999999999694e+01 1.680795000000000073e+03
4.800000000000000100e-02 7.196845000000000603e-01 1.079483399999999982e+01 6.104014999999999702e+01 1.681920000000000073e+03
4.900000000000000189e-02 7.207974999999999799e-01 1.316759500000000038e+01 6.590985000000000582e+01 1.683079999999999927e+03
5.000000000000000278e-02 7.218949999999999534e-01 1.549230499999999999e+01 7.075104999999999222e+01 1.684255000000000109e+03
5.100000000000000366e-02 7.229554999999999731e-01 1.771642999999999901e+01 7.546635000000000559e+01 1.685414999999999964e+03
5.200000000000000455e-02 7.239640000000000519e-01 1.979780000000000229e+01 7.997674999999999557e+01 1.686549999999999955e+03
5.300000000000000544e-02 7.249094999999999844e-01 2.170689999999999742e+01 8.422605000000000075e+01 1.687630000000000109e+03
5.399999999999999939e-02 7.257890000000000175e-01 2.342715000000000103e+01 8.818274999999999864e+01 1.688650000000000091e+03
5.500000000000000028e-02 7.266040000000000276e-01 2.495389999999999731e+01 9.183965000000000600e+01 1.689615000000000009e+03
5.600000000000000117e-02 7.273600000000000065e-01 2.629254999999999853e+01 9.521235000000000070e+01 1.690509999999999991e+03
5.700000000000000205e-02 7.280649999999999622e-01 2.745665000000000333e+01 9.833195000000000618e+01 1.691345000000000027e+03
5.800000000000000294e-02 7.287319999999999354e-01 2.846535000000000082e+01 1.012436000000000007e+02 1.692134999999999991e+03
5.900000000000000383e-02 7.293724999999999792e-01 2.934210000000000207e+01 1.039995499999999993e+02 1.692884999999999991e+03
6.000000000000000472e-02 7.299984999999999946e-01 3.011199999999999832e+01 1.066564999999999941e+02 1.693605000000000018e+03
6.099999999999999867e-02 7.306219999999999937e-01 3.080099999999999838e+01 1.092684999999999889e+02 1.694309999999999945e+03
6.199999999999999956e-02 7.312540000000000706e-01 3.143379999999999797e+01 1.118859999999999957e+02 1.695005000000000109e+03
6.300000000000000044e-02 7.319029999999999703e-01 3.203209999999999980e+01 1.145515000000000043e+02 1.695710000000000036e+03
6.400000000000000133e-02 7.325740000000000585e-01 3.261314999999999742e+01 1.172934999999999945e+02 1.696430000000000064e+03
6.500000000000000222e-02 7.332695000000000185e-01 3.318825000000000358e+01 1.201285000000000025e+02 1.697164999999999964e+03
6.600000000000000311e-02 7.339869999999999450e-01 3.376180000000000092e+01 1.230559999999999974e+02 1.697924999999999955e+03
6.700000000000000400e-02 7.347204999999999986e-01 3.433100000000000307e+01 1.260589999999999975e+02 1.698694999999999936e+03
6.800000000000000488e-02 7.354625000000000190e-01 3.488660000000000139e+01 1.291059999999999945e+02 1.699480000000000018e+03
6.900000000000000577e-02 7.361999999999999655e-01 3.541360000000000241e+01 1.321514999999999986e+02 1.700259999999999991e+03
7.000000000000000666e-02 7.369200000000000195e-01 3.589320000000000022e+01 1.351435000000000173e+02 1.701039999999999964e+03
7.100000000000000755e-02 7.376085000000000003e-01 3.630465000000000231e+01 1.380219999999999914e+02 1.701789999999999964e+03
7.200000000000000844e-02 7.382530000000000481e-01 3.662680000000000291e+01 1.407289999999999850e+02 1.702500000000000000e+03
7.300000000000000933e-02 7.388399999999999412e-01 3.684024999999999750e+01 1.432085000000000150e+02 1.703164999999999964e+03
7.399999999999999634e-02 7.393589999999999884e-01 3.692849999999999966e+01 1.454130000000000109e+02 1.703764999999999873e+03
7.499999999999999722e-02 7.398029999999999884e-01 3.687924999999999898e+01 1.473050000000000068e+02 1.704295000000000073e+03
7.599999999999999811e-02 7.401664999999999495e-01 3.668504999999999683e+01 1.488589999999999804e+02 1.704744999999999891e+03
7.699999999999999900e-02 7.404490000000000238e-01 3.634359999999999502e+01 1.500620000000000118e+02 1.705105000000000018e+03
7.799999999999999989e-02 7.406504999999999894e-01 3.585790000000000077e+01 1.509150000000000205e+02 1.705380000000000109e+03
7.900000000000000078e-02 7.407749999999999613e-01 3.523615000000000208e+01 1.514309999999999832e+02 1.705579999999999927e+03
8.000000000000000167e-02 7.408295000000000297e-01 3.449094999999999800e+01 1.516349999999999909e+02 1.705690000000000055e+03
8.100000000000000255e-02 7.408209999999999518e-01 3.363904999999999745e+01 1.515604999999999905e+02 1.705730000000000018e+03
8.200000000000000344e-02 7.407610000000000028e-01 3.270035000000000025e+01 1.512495000000000118e+02 1.705710000000000036e+03
8.300000000000000433e-02 7.406600000000000961e-01 3.169669999999999987e+01 1.507489999999999952e+02 1.705630000000000109e+03
8.400000000000000522e-02 7.405280000000000751e-01 3.065125000000000099e+01 1.501084999999999923e+02 1.705514999999999873e+03
8.500000000000000611e-02 7.403785000000000505e-01 2.958729999999999905e+01 1.493774999999999977e+02 1.705365000000000009e+03
8.600000000000000699e-02 7.402200000000001001e-01 2.852705000000000268e+01 1.486039999999999850e+02 1.705200000000000045e+03
8.700000000000000788e-02 7.400640000000000551e-01 2.749050000000000082e+01 1.478319999999999936e+02 1.705019999999999982e+03
8.800000000000000877e-02 7.399175000000000058e-01 2.649494999999999933e+01 1.470985000000000014e+02 1.704845000000000027e+03
8.899999999999999578e-02 7.397865000000000135e-01 2.555389999999999873e+01 1.464329999999999927e+02 1.704684999999999945e+03
8.999999999999999667e-02 7.396754999999999303e-01 2.467674999999999841e+01 1.458569999999999993e+02 1.704530000000000200e+03
9.099999999999999756e-02 7.395869999999999944e-01 2.386849999999999739e+01 1.453829999999999814e+02 1.704404999999999973e+03
9.199999999999999845e-02 7.395199999999999552e-01 2.312975000000000136e+01 1.450140000000000100e+02 1.704299999999999955e+03
9.299999999999999933e-02 7.394739999999999647e-01 2.245704999999999885e+01 1.447439999999999998e+02 1.704215000000000146e+03
9.400000000000000022e-02 7.394439999999999902e-01 2.184309999999999974e+01 1.445600000000000023e+02 1.704154999999999973e+03
9.500000000000000111e-02 7.394260000000000277e-01 2.127769999999999939e+01 1.444424999999999955e+02 1.704105000000000018e+03
9.600000000000000200e-02 7.394140000000000157e-01 2.074815000000000254e+01 1.443665000000000020e+02 1.704070000000000164e+03
9.700000000000000289e-02 7.394015000000000448e-01 2.024049999999999727e+01 1.443044999999999902e+02 1.704039999999999964e+03
9.800000000000000377e-02 7.393814999999999138e-01 1.973995000000000033e+01 1.442289999999999850e+02 1.704014999999999873e+03
9.900000000000000466e-02 7.393484999999999641e-01 1.923205000000000098e+01 1.441105000000000018e+02 1.703980000000000018e+03
1.000000000000000056e-01 7.392965000000000231e-01 1.870350000000000179e+01 1.439240000000000066e+02 1.703924999999999955e+03
1.010000000000000064e-01 7.392214999999999758e-01 1.814284999999999926e+01 1.436469999999999914e+02 1.703860000000000127e+03
1.020000000000000073e-01 7.391194999999999293e-01 1.754115000000000180e+01 1.432624999999999886e+02 1.703764999999999873e+03
1.030000000000000082e-01 7.389890000000000070e-01 1.689264999999999972e+01 1.427610000000000241e+02 1.703650000000000091e+03
1.040000000000000091e-01 7.388299999999999867e-01 1.619490000000000052e+01 1.421374999999999886e+02 1.703500000000000000e+03
1.050000000000000100e-01 7.386449999999999960e-01 1.544910000000000139e+01 1.413960000000000150e+02 1.703329999999999927e+03
1.059999999999999970e-01 7.384349999999999525e-01 1.465995000000000026e+01 1.405480000000000018e+02 1.703130000000000109e+03
1.069999999999999979e-01 7.382070000000000576e-01 1.383535000000000004e+01 1.396089999999999804e+02 1.702910000000000082e+03
1.079999999999999988e-01 7.379655000000000520e-01 1.298630999999999958e+01 1.386034999999999968e+02 1.702670000000000073e+03
1.089999999999999997e-01 7.377175000000000260e-01 1.212584000000000017e+01 1.375575000000000045e+02 1.702414999999999964e+03
1.100000000000000006e-01 7.374700000000000699e-01 1.126864499999999936e+01 1.365020000000000095e+02 1.702159999999999854e+03
1.110000000000000014e-01 7.372305000000000108e-01 1.043017500000000020e+01 1.354680000000000177e+02 1.701900000000000091e+03
1.120000000000000023e-01 7.370065000000000088e-01 9.625890000000000057e+00 1.344869999999999948e+02 1.701654999999999973e+03
1.130000000000000032e-01 7.368040000000000145e-01 8.870280000000001053e+00 1.335885000000000105e+02 1.701420000000000073e+03
1.140000000000000041e-01 7.366289999999999782e-01 8.176180000000000447e+00 1.327969999999999970e+02 1.701215000000000146e+03
1.150000000000000050e-01 7.364859999999999740e-01 7.554204999999999615e+00 1.321345000000000027e+02 1.701034999999999854e+03
1.160000000000000059e-01 7.363770000000000593e-01 7.012220000000000120e+00 1.316144999999999925e+02 1.700884999999999991e+03
1.170000000000000068e-01 7.363039999999999585e-01 6.554859999999999687e+00 1.312469999999999857e+02 1.700769999999999982e+03
1.180000000000000077e-01 7.362655000000000172e-01 6.183590000000000586e+00 1.310310000000000059e+02 1.700695000000000164e+03
1.190000000000000085e-01 7.362615000000000132e-01 5.896639999999999660e+00 1.309635000000000105e+02 1.700654999999999973e+03
1.200000000000000094e-01 7.362880000000000535e-01 5.689309999999999867e+00 1.310330000000000155e+02 1.700644999999999982e+03
1.209999999999999964e-01 7.363399999999999945e-01 5.554310000000000080e+00 1.312225000000000250e+02 1.700670000000000073e+03
1.219999999999999973e-01 7.364140000000000130e-01 5.482264999999999944e+00 1.315120000000000005e+02 1.700715000000000146e+03
1.229999999999999982e-01 7.365034999999999776e-01 5.462274999999999991e+00 1.318785000000000025e+02 1.700784999999999854e+03
1.239999999999999991e-01 7.366025000000000489e-01 5.482535000000000380e+00 1.322980000000000018e+02 1.700869999999999891e+03
1.250000000000000000e-01 7.367055000000000131e-01 5.530879999999999797e+00 1.327439999999999998e+02 1.700970000000000027e+03
1.260000000000000009e-01 7.368084999999999773e-01 5.595380000000000464e+00 1.331945000000000050e+02 1.701069999999999936e+03
1.270000000000000018e-01 7.369050000000000322e-01 5.664805000000000312e+00 1.336270000000000095e+02 1.701170000000000073e+03
1.280000000000000027e-01 7.369915000000000216e-01 5.729029999999999845e+00 1.340229999999999961e+02 1.701264999999999873e+03
1.290000000000000036e-01 7.370654999999999291e-01 5.779389999999999361e+00 1.343669999999999902e+02 1.701349999999999909e+03
1.300000000000000044e-01 7.371240000000000014e-01 5.808844999999999814e+00 1.346474999999999795e+02 1.701420000000000073e+03
1.310000000000000053e-01 7.371659999999999879e-01 5.812170000000000059e+00 1.348569999999999993e+02 1.701480000000000018e+03
1.320000000000000062e-01 7.371900000000000119e-01 5.785944999999999894e+00 1.349915000000000020e+02 1.701519999999999982e+03
1.330000000000000071e-01 7.371974999999999500e-01 5.728545000000000442e+00 1.350509999999999877e+02 1.701539999999999964e+03
1.340000000000000080e-01 7.371894999999999420e-01 5.640019999999999811e+00 1.350389999999999873e+02 1.701550000000000182e+03
1.350000000000000089e-01 7.371670000000000167e-01 5.521905000000000285e+00 1.349605000000000246e+02 1.701545000000000073e+03
1.360000000000000098e-01 7.371315000000000506e-01 5.377029999999999532e+00 1.348240000000000123e+02 1.701514999999999873e+03
1.370000000000000107e-01 7.370870000000000477e-01 5.209245000000000125e+00 1.346390000000000100e+02 1.701485000000000127e+03
1.380000000000000115e-01 7.370339999999999669e-01 5.023144999999999527e+00 1.344155000000000086e+02 1.701434999999999945e+03
1.390000000000000124e-01 7.369765000000000343e-01 4.823809999999999931e+00 1.341655000000000086e+02 1.701380000000000109e+03
1.400000000000000133e-01 7.369155000000000566e-01 4.616455000000000197e+00 1.338985000000000127e+02 1.701320000000000164e+03
1.410000000000000142e-01 7.368544999999999678e-01 4.406204999999999927e+00 1.336250000000000000e+02 1.701255000000000109e+03
1.420000000000000151e-01 7.367945000000000189e-01 4.197845000000000049e+00 1.333530000000000086e+02 1.701195000000000164e+03
1.430000000000000160e-01 7.367369999999999752e-01 3.995554999999999968e+00 1.330900000000000034e+02 1.701130000000000109e+03
1.440000000000000169e-01 7.366835000000000466e-01 3.802780000000000271e+00 1.328404999999999916e+02 1.701070000000000164e+03
1.450000000000000178e-01 7.366344999999999699e-01 3.622135000000000105e+00 1.326080000000000041e+02 1.701010000000000218e+03
1.459999999999999909e-01 7.365889999999999382e-01 3.455294999999999561e+00 1.323944999999999936e+02 1.700954999999999927e+03
1.469999999999999918e-01 7.365485000000000504e-01 3.303045000000000009e+00 1.321980000000000075e+02 1.700904999999999973e+03
1.479999999999999927e-01 7.365104999999999569e-01 3.165334999999999788e+00 1.320180000000000007e+02 1.700855000000000018e+03
1.489999999999999936e-01 7.364745000000000319e-01 3.041385000000000005e+00 1.318494999999999777e+02 1.700809999999999945e+03
1.499999999999999944e-01 7.364405000000000534e-01 2.929834999999999745e+00 1.316885000000000048e+02 1.700769999999999982e+03
1.509999999999999953e-01 7.364055000000000462e-01 2.828940000000000232e+00 1.315294999999999845e+02 1.700724999999999909e+03
1.519999999999999962e-01 7.363695000000000102e-01 2.736724999999999852e+00 1.313685000000000116e+02 1.700684999999999945e+03
1.529999999999999971e-01 7.363314999999999166e-01 2.651184999999999903e+00 1.311995000000000005e+02 1.700634999999999991e+03
1.539999999999999980e-01 7.362889999999999713e-01 2.570425000000000182e+00 1.310190000000000055e+02 1.700590000000000146e+03
1.549999999999999989e-01 7.362435000000000507e-01 2.492820000000000036e+00 1.308230000000000075e+02 1.700539999999999964e+03
1.559999999999999998e-01 7.361934999999999452e-01 2.417085000000000150e+00 1.306100000000000136e+02 1.700490000000000009e+03
1.570000000000000007e-01 7.361385000000000289e-01 2.342385000000000161e+00 1.303789999999999907e+02 1.700424999999999955e+03
1.580000000000000016e-01 7.360794999999999977e-01 2.268334999999999990e+00 1.301304999999999836e+02 1.700365000000000009e+03
1.590000000000000024e-01 7.360165000000000735e-01 2.195025000000000226e+00 1.298659999999999854e+02 1.700300000000000182e+03
