# t [s], A [cm^2], U [cm/s], P [cPa], c [cm/s]
1.000000000000000021e-03 6.465104999999999880e-01 4.144049999999996348e-03 9.708820000000000050e+01 1.632375000000000000e+03
2.000000000000000042e-03 6.465024999999999800e-01 1.789844999999999978e-03 9.706389999999998963e+01 1.632365000000000009e+03
3.000000000000000062e-03 6.465629999999999988e-01 1.095707000000000070e-01 9.718039999999999168e+01 1.632400000000000091e+03
4.000000000000000083e-03 6.466069999999999318e-01 1.977652500000000035e-01 9.729175000000000750e+01 1.632424999999999955e+03
5.000000000000000104e-03 6.465735000000000232e-01 1.572460999999999998e-01 9.721039999999999281e+01 1.632414999999999964e+03
6.000000000000000125e-03 6.465079999999999716e-01 5.586200000000002275e-02 9.697514999999999930e+01 1.632360000000000127e+03
7.000000000000000146e-03 6.464445000000000885e-01 -5.046050000000001923e-02 9.666450000000000387e+01 1.632284999999999854e+03
8.000000000000000167e-03 6.463389999999999969e-01 -2.447300000000000031e-01 9.618734999999999502e+01 1.632174999999999955e+03
9.000000000000001055e-03 6.461664999999999770e-01 -5.723899999999999544e-01 9.545615000000000805e+01 1.632000000000000000e+03
1.000000000000000194e-02 6.459200000000000497e-01 -1.038584999999999869e+00 9.442189999999999372e+01 1.631755000000000109e+03
1.099999999999999936e-02 6.455809999999999604e-01 -1.665185000000000137e+00 9.301465000000000316e+01 1.631409999999999854e+03
1.200000000000000025e-02 6.451454999999999274e-01 -2.439505000000000035e+00 9.120230000000000814e+01 1.630960000000000036e+03
1.300000000000000114e-02 6.446574999999999944e-01 -3.258409999999999584e+00 8.908044999999999902e+01 1.630425000000000182e+03
1.400000000000000203e-02 6.441885000000000527e-01 -3.958574999999999733e+00 8.686320000000000618e+01 1.629835000000000036e+03
1.499999999999999944e-02 6.437990000000000101e-01 -4.397691000000000017e+00 8.478475000000000250e+01 1.629264999999999873e+03
1.600000000000000033e-02 6.435089999999999977e-01 -4.512792499999999762e+00 8.300050000000000239e+01 1.628740000000000009e+03
1.700000000000000122e-02 6.432990000000000652e-01 -4.328789999999999694e+00 8.154435000000000855e+01 1.628280000000000200e+03
1.800000000000000211e-02 6.431244999999999878e-01 -3.930860000000000021e+00 8.034165000000000134e+01 1.627869999999999891e+03
1.900000000000000300e-02 6.429400000000000670e-01 -3.423176500000000289e+00 7.925730000000000075e+01 1.627490000000000009e+03
2.000000000000000042e-02 6.427119999999999500e-01 -2.890693000000000179e+00 7.815364999999999895e+01 1.627115000000000009e+03
2.100000000000000130e-02 6.424290000000000278e-01 -2.375353000000000048e+00 7.693905000000000882e+01 1.626715000000000146e+03
2.200000000000000219e-02 6.421035000000000492e-01 -1.873385000000000300e+00 7.559039999999998827e+01 1.626285000000000082e+03
2.299999999999999961e-02 6.417580000000000506e-01 -1.352324999999999999e+00 7.414379999999999882e+01 1.625835000000000036e+03
2.400000000000000050e-02 6.414159999999999862e-01 -7.779249999999999776e-01 7.266249999999999432e+01 1.625375000000000000e+03
2.500000000000000139e-02 6.410880000000001022e-01 -1.381900000000002571e-01 7.119884999999999309e+01 1.624914999999999964e+03
2.600000000000000228e-02 6.407694999999999919e-01 5.440949999999999953e-01 6.976579999999999870e+01 1.624454999999999927e+03
2.700000000000000316e-02 6.404414999999999969e-01 1.212334999999999940e+00 6.832580000000000098e+01 1.623994999999999891e+03
2.800000000000000058e-02 6.400744999999999907e-01 1.788090000000000179e+00 6.679789999999999850e+01 1.623514999999999873e+03
2.900000000000000147e-02 6.396405000000000562e-01 2.189564999999999984e+00 6.507885000000000275e+01 1.622994999999999891e+03
3.000000000000000236e-02 6.391180000000000749e-01 2.351440000000000197e+00 6.307219999999999516e+01 1.622404999999999973e+03
3.099999999999999978e-02 6.385000000000000675e-01 2.241185000000000205e+00 6.071724999999999994e+01 1.621740000000000009e+03
3.200000000000000067e-02 6.377975000000000172e-01 1.867324999999999680e+00 5.801095000000000113e+01 1.620985000000000127e+03
3.300000000000000155e-02 6.370360000000000467e-01 1.277609999999999690e+00 5.501440000000000197e+01 1.620154999999999973e+03
3.400000000000000244e-02 6.362544999999999451e-01 5.481000000000006978e-01 5.184515000000000384e+01 1.619279999999999973e+03
3.500000000000000333e-02 6.354925000000000157e-01 -2.323550000000000892e-01 4.865744999999999720e+01 1.618390000000000100e+03
3.600000000000000422e-02 6.347905000000000353e-01 -9.773449999999996862e-01 4.561764999999999759e+01 1.617525000000000091e+03
3.700000000000000511e-02 6.341795000000000071e-01 -1.614415000000000155e+00 4.288150000000000261e+01 1.616724999999999909e+03
3.799999999999999906e-02 6.336824999999999264e-01 -2.090974999999999806e+00 4.057710000000000150e+01 1.616025000000000091e+03
3.899999999999999994e-02 6.333115000000000272e-01 -2.375125000000000153e+00 3.879564999999999486e+01 1.615454999999999927e+03
4.000000000000000083e-02 6.330709999999999393e-01 -2.452458000000000027e+00 3.758995000000000175e+01 1.615029999999999973e+03
4.100000000000000172e-02 6.329605000000000370e-01 -2.320831000000000088e+00 3.697854999999999848e+01 1.614764999999999873e+03
4.200000000000000261e-02 6.329755000000000242e-01 -1.984644999999999992e+00 3.695385000000000275e+01 1.614664999999999964e+03
4.300000000000000350e-02 6.331090000000000328e-01 -1.450289500000000009e+00 3.749130000000000251e+01 1.614720000000000027e+03
4.400000000000000439e-02 6.333539999999999726e-01 -7.236199999999999299e-01 3.855740000000000123e+01 1.614924999999999955e+03
4.499999999999999833e-02 6.337055000000000327e-01 1.903100000000002012e-01 4.011485000000000412e+01 1.615275000000000091e+03
4.599999999999999922e-02 6.341544999999999543e-01 1.285625000000000018e+00 4.212444999999999595e+01 1.615760000000000218e+03
4.700000000000000011e-02 6.346950000000000092e-01 2.553170000000000606e+00 4.454444999999999766e+01 1.616369999999999891e+03
4.800000000000000100e-02 6.353145000000000042e-01 3.978200000000000180e+00 4.732890000000000441e+01 1.617089999999999918e+03
4.900000000000000189e-02 6.360025000000000261e-01 5.539109999999999978e+00 5.042515000000000214e+01 1.617904999999999973e+03
5.000000000000000278e-02 6.367445000000000466e-01 7.207375000000000753e+00 5.377384999999999593e+01 1.618809999999999945e+03
5.100000000000000366e-02 6.375234999999999097e-01 8.949100600000001293e+00 5.730939999999999657e+01 1.619769999999999982e+03
5.200000000000000455e-02 6.383240000000000025e-01 1.072719000000000023e+01 6.096240000000000236e+01 1.620779999999999973e+03
5.300000000000000544e-02 6.391305000000000458e-01 1.250437499999999957e+01 6.466370000000000573e+01 1.621824999999999818e+03
5.399999999999999939e-02 6.399280000000000523e-01 1.424578499999999970e+01 6.834810000000000230e+01 1.622869999999999891e+03
5.500000000000000028e-02 6.407049999999999690e-01 1.592141000000000162e+01 7.195864999999999156e+01 1.623914999999999964e+03
5.600000000000000117e-02 6.414535000000000098e-01 1.750755000000000194e+01 7.544979999999999620e+01 1.624934999999999945e+03
5.700000000000000205e-02 6.421680000000000721e-01 1.898775000000000190e+01 7.878915000000000646e+01 1.625924999999999955e+03
5.800000000000000294e-02 6.428460000000000285e-01 2.035259999999999891e+01 8.195834999999999582e+01 1.626880000000000109e+03
5.900000000000000383e-02 6.434885000000000188e-01 2.159900000000000020e+01 8.495244999999999891e+01 1.627789999999999964e+03
6.000000000000000472e-02 6.440985000000000182e-01 2.272964999999999947e+01 8.777834999999998900e+01 1.628664999999999964e+03
6.099999999999999867e-02 6.446799999999999198e-01 2.375119999999999720e+01 9.045234999999999559e+01 1.629494999999999891e+03
6.199999999999999956e-02 6.452390000000000070e-01 2.467344999999999899e+01 9.299784999999999968e+01 1.630289999999999964e+03
6.300000000000000044e-02 6.457809999999999384e-01 2.550800000000000267e+01 9.544204999999999472e+01 1.631054999999999836e+03
6.400000000000000133e-02 6.463130000000000264e-01 2.626709999999999923e+01 9.781405000000000882e+01 1.631795000000000073e+03
6.500000000000000222e-02 6.468400000000000816e-01 2.696269999999999811e+01 1.001404499999999871e+02 1.632525000000000091e+03
6.600000000000000311e-02 6.473659999999999970e-01 2.760559999999999903e+01 1.024454000000000065e+02 1.633240000000000009e+03
6.700000000000000400e-02 6.478949999999999987e-01 2.820439999999999969e+01 1.047475000000000023e+02 1.633954999999999927e+03
6.800000000000000488e-02 6.484274999999999345e-01 2.876525000000000176e+01 1.070575000000000045e+02 1.634670000000000073e+03
6.900000000000000577e-02 6.489635000000000264e-01 2.929104999999999848e+01 1.093785000000000025e+02 1.635384999999999991e+03
7.000000000000000666e-02 6.495020000000000238e-01 2.978179999999999694e+01 1.117065000000000055e+02 1.636099999999999909e+03
7.100000000000000755e-02 6.500375000000000458e-01 3.023434999999999917e+01 1.140289999999999964e+02 1.636809999999999945e+03
7.200000000000000844e-02 6.505665000000000475e-01 3.064314999999999856e+01 1.163255000000000052e+02 1.637519999999999982e+03
7.300000000000000933e-02 6.510825000000000085e-01 3.100059999999999860e+01 1.185725000000000051e+02 1.638215000000000146e+03
7.399999999999999634e-02 6.515789999999999083e-01 3.129789999999999850e+01 1.207415000000000020e+02 1.638884999999999991e+03
7.499999999999999722e-02 6.520494999999999486e-01 3.152599999999999980e+01 1.228029999999999973e+02 1.639529999999999973e+03
7.599999999999999811e-02 6.524870000000000392e-01 3.167600000000000193e+01 1.247270000000000039e+02 1.640134999999999991e+03
7.699999999999999900e-02 6.528865000000000363e-01 3.174024999999999963e+01 1.264874999999999972e+02 1.640700000000000045e+03
7.799999999999999989e-02 6.532434999999999770e-01 3.171255000000000024e+01 1.280604999999999905e+02 1.641215000000000146e+03
7.900000000000000078e-02 6.535535000000000094e-01 3.158865000000000123e+01 1.294279999999999973e+02 1.641670000000000073e+03
8.000000000000000167e-02 6.538150000000000350e-01 3.136684999999999945e+01 1.305769999999999982e+02 1.642059999999999945e+03
8.100000000000000255e-02 6.540270000000000250e-01 3.104759999999999920e+01 1.315024999999999977e+02 1.642394999999999982e+03
8.200000000000000344e-02 6.541900000000000492e-01 3.063410000000000366e+01 1.322035000000000196e+02 1.642654999999999973e+03
8.300000000000000433e-02 6.543049999999999145e-01 3.013165000000000049e+01 1.326854999999999905e+02 1.642855000000000018e+03
8.400000000000000522e-02 6.543754999999999988e-01 2.954799999999999827e+01 1.329619999999999891e+02 1.642994999999999891e+03
8.500000000000000611e-02 6.544054999999999733e-01 2.889274999999999949e+01 1.330480000000000018e+02 1.643075000000000045e+03
8.600000000000000699e-02 6.543989999999999529e-01 2.817725000000000080e+01 1.329650000000000034e+02 1.643099999999999909e+03
8.700000000000000788e-02 6.543624999999999581e-01 2.741385000000000360e+01 1.327369999999999948e+02 1.643085000000000036e+03
8.800000000000000877e-02 6.542999999999999927e-01 2.661585000000000178e+01 1.323909999999999911e+02 1.643019999999999982e+03
8.899999999999999578e-02 6.542189999999999950e-01 2.579694999999999894e+01 1.319530000000000030e+02 1.642929999999999836e+03
8.999999999999999667e-02 6.541250000000000675e-01 2.497034999999999982e+01 1.314515000000000100e+02 1.642809999999999945e+03
9.099999999999999756e-02 6.540230000000000210e-01 2.414864999999999995e+01 1.309124999999999943e+02 1.642674999999999955e+03
9.199999999999999845e-02 6.539190000000000280e-01 2.334324999999999761e+01 1.303605000000000018e+02 1.642530000000000200e+03
9.299999999999999933e-02 6.538165000000000227e-01 2.256380000000000052e+01 1.298160000000000025e+02 1.642384999999999991e+03
9.400000000000000022e-02 6.537189999999999390e-01 2.181794999999999973e+01 1.292969999999999970e+02 1.642235000000000127e+03
9.500000000000000111e-02 6.536290000000000155e-01 2.111090000000000089e+01 1.288174999999999955e+02 1.642095000000000027e+03
9.600000000000000200e-02 6.535485000000000877e-01 2.044554999999999723e+01 1.283845000000000027e+02 1.641960000000000036e+03
9.700000000000000289e-02 6.534775000000000444e-01 1.982225000000000037e+01 1.280014999999999930e+02 1.641845000000000027e+03
9.800000000000000377e-02 6.534154999999999269e-01 1.923920000000000030e+01 1.276684999999999945e+02 1.641730000000000018e+03
9.900000000000000466e-02 6.533605000000000107e-01 1.869235000000000113e+01 1.273810000000000002e+02 1.641634999999999991e+03
1.000000000000000056e-01 6.533119999999998928e-01 1.817595000000000027e+01 1.271289999999999907e+02 1.641545000000000073e+03
1.010000000000000064e-01 6.532655000000000545e-01 1.768314999999999770e+01 1.269014999999999986e+02 1.641470000000000027e+03
1.020000000000000073e-01 6.532189999999999941e-01 1.720589999999999975e+01 1.266850000000000023e+02 1.641394999999999982e+03
1.030000000000000082e-01 6.531694999999999585e-01 1.673600000000000065e+01 1.264660000000000082e+02 1.641319999999999936e+03
1.040000000000000091e-01 6.531135000000000135e-01 1.626510000000000034e+01 1.262300000000000040e+02 1.641240000000000009e+03
1.050000000000000100e-01 6.530489999999999906e-01 1.578549999999999898e+01 1.259629999999999939e+02 1.641159999999999854e+03
1.059999999999999970e-01 6.529730000000000256e-01 1.529035000000000011e+01 1.256525000000000034e+02 1.641059999999999945e+03
1.069999999999999979e-01 6.528840000000000199e-01 1.477400000000000091e+01 1.252904999999999944e+02 1.640954999999999927e+03
1.079999999999999988e-01 6.527810000000000556e-01 1.423225000000000051e+01 1.248684999999999974e+02 1.640835000000000036e+03
1.089999999999999997e-01 6.526639999999999109e-01 1.366274999999999906e+01 1.243849999999999909e+02 1.640694999999999936e+03
1.100000000000000006e-01 6.525330000000000297e-01 1.306494999999999962e+01 1.238384999999999962e+02 1.640539999999999964e+03
1.110000000000000014e-01 6.523894999999999555e-01 1.244006999999999863e+01 1.232330000000000041e+02 1.640369999999999891e+03
1.120000000000000023e-01 6.522350000000000092e-01 1.179133999999999993e+01 1.225755000000000052e+02 1.640184999999999945e+03
1.130000000000000032e-01 6.520719999999999850e-01 1.112354000000000021e+01 1.218760000000000048e+02 1.639990000000000009e+03
1.140000000000000041e-01 6.519044999999999979e-01 1.044299999999999962e+01 1.211479999999999961e+02 1.639779999999999973e+03
1.150000000000000050e-01 6.517355000000000231e-01 9.757089999999999819e+00 1.204055000000000035e+02 1.639570000000000164e+03
1.160000000000000059e-01 6.515690000000000648e-01 9.074260000000000659e+00 1.196655000000000086e+02 1.639349999999999909e+03
1.170000000000000068e-01 6.514079999999999870e-01 8.403190000000000381e+00 1.189445000000000050e+02 1.639144999999999982e+03
1.180000000000000077e-01 6.512569999999999748e-01 7.752705000000000624e+00 1.182599999999999909e+02 1.638940000000000055e+03
1.190000000000000085e-01 6.511194999999999622e-01 7.131254999999999455e+00 1.176280000000000001e+02 1.638750000000000000e+03
1.200000000000000094e-01 6.509985000000000355e-01 6.546629999999999505e+00 1.170630000000000024e+02 1.638575000000000045e+03
1.209999999999999964e-01 6.508955000000000712e-01 6.005435000000000301e+00 1.165769999999999982e+02 1.638420000000000073e+03
1.219999999999999973e-01 6.508134999999999337e-01 5.512945000000000206e+00 1.161784999999999997e+02 1.638289999999999964e+03
1.229999999999999982e-01 6.507529999999999148e-01 5.072899999999999743e+00 1.158755000000000024e+02 1.638184999999999945e+03
1.239999999999999991e-01 6.507140000000000146e-01 4.687305000000000277e+00 1.156684999999999945e+02 1.638105000000000018e+03
1.250000000000000000e-01 6.506965000000000110e-01 4.356489999999999974e+00 1.155579999999999927e+02 1.638054999999999836e+03
1.260000000000000009e-01 6.506989999999999164e-01 4.079105000000000203e+00 1.155395000000000039e+02 1.638025000000000091e+03
1.270000000000000018e-01 6.507190000000000474e-01 3.852294999999999803e+00 1.156050000000000040e+02 1.638025000000000091e+03
1.280000000000000027e-01 6.507549999999999724e-01 3.671904999999999752e+00 1.157454999999999927e+02 1.638050000000000182e+03
1.290000000000000036e-01 6.508045000000000080e-01 3.532704999999999984e+00 1.159484999999999957e+02 1.638089999999999918e+03
1.300000000000000044e-01 6.508629999999999693e-01 3.428714999999999957e+00 1.162009999999999934e+02 1.638144999999999982e+03
1.310000000000000053e-01 6.509289999999999798e-01 3.353474999999999984e+00 1.164900000000000091e+02 1.638210000000000036e+03
1.320000000000000062e-01 6.509979999999999656e-01 3.300359999999999960e+00 1.167994999999999948e+02 1.638289999999999964e+03
1.330000000000000071e-01 6.510679999999999801e-01 3.262805000000000177e+00 1.171175000000000068e+02 1.638369999999999891e+03
1.340000000000000080e-01 6.511365000000000069e-01 3.234575000000000422e+00 1.174309999999999974e+02 1.638454999999999927e+03
1.350000000000000089e-01 6.512005000000000710e-01 3.209940000000000015e+00 1.177284999999999968e+02 1.638534999999999854e+03
1.360000000000000098e-01 6.512584999999999624e-01 3.183835000000000193e+00 1.180010000000000048e+02 1.638615000000000009e+03
1.370000000000000107e-01 6.513089999999999158e-01 3.151955000000000062e+00 1.182404999999999973e+02 1.638684999999999945e+03
1.380000000000000115e-01 6.513504999999999434e-01 3.110820000000000363e+00 1.184410000000000025e+02 1.638744999999999891e+03
1.390000000000000124e-01 6.513830000000000453e-01 3.057809999999999917e+00 1.185989999999999895e+02 1.638795000000000073e+03
1.400000000000000133e-01 6.514059999999999295e-01 2.991109999999999935e+00 1.187125000000000057e+02 1.638835000000000036e+03
1.410000000000000142e-01 6.514195000000000402e-01 2.909734999999999960e+00 1.187814999999999941e+02 1.638865000000000009e+03
1.420000000000000151e-01 6.514234999999999332e-01 2.813414999999999999e+00 1.188064999999999998e+02 1.638875000000000000e+03
1.430000000000000160e-01 6.514185000000000114e-01 2.702525000000000066e+00 1.187895000000000039e+02 1.638880000000000109e+03
1.440000000000000169e-01 6.514054999999999707e-01 2.578009999999999913e+00 1.187344999999999970e+02 1.638875000000000000e+03
1.450000000000000178e-01 6.513854999999999507e-01 2.441279999999999895e+00 1.186450000000000102e+02 1.638855000000000018e+03
1.459999999999999909e-01 6.513599999999999390e-01 2.294070000000000054e+00 1.185250000000000057e+02 1.638829999999999927e+03
1.469999999999999918e-01 6.513284999999999769e-01 2.138380000000000170e+00 1.183795000000000073e+02 1.638789999999999964e+03
1.479999999999999927e-01 6.512934999999999697e-01 1.976339999999999986e+00 1.182125000000000057e+02 1.638750000000000000e+03
1.489999999999999936e-01 6.512544999999999584e-01 1.810104500000000005e+00 1.180279999999999916e+02 1.638704999999999927e+03
1.499999999999999944e-01 6.512130000000000418e-01 1.641782499999999922e+00 1.178310000000000031e+02 1.638650000000000091e+03
1.509999999999999953e-01 6.511700000000000266e-01 1.473343499999999917e+00 1.176235000000000070e+02 1.638595000000000027e+03
1.519999999999999962e-01 6.511249999999999538e-01 1.306544999999999845e+00 1.174080000000000013e+02 1.638535000000000082e+03
1.529999999999999971e-01 6.510795000000000332e-01 1.142905999999999977e+00 1.171879999999999882e+02 1.638469999999999800e+03
1.539999999999999980e-01 6.510329999999999728e-01 9.836739999999999373e-01 1.169639999999999986e+02 1.638404999999999973e+03
1.549999999999999989e-01 6.509860000000000646e-01 8.297896500000000453e-01 1.167369999999999948e+02 1.638345000000000027e+03
1.559999999999999998e-01 6.509374999999999467e-01 6.819371499999999919e-01 1.165070000000000050e+02 1.638275000000000091e+03
1.570000000000000007e-01 6.508884999999999810e-01 5.405410000000000492e-01 1.162734999999999985e+02 1.638204999999999927e+03
1.580000000000000016e-01 6.508389999999999453e-01 4.058329999999999993e-01 1.160370000000000061e+02 1.638134999999999991e+03
1.590000000000000024e-01 6.507875000000000743e-01 2.778865000000000363e-01 1.157955000000000041e+02 1.638069999999999936e+03
