# t [s], A [cm^2], U [cm/s], P [cPa], c [cm/s]
1.000000000000000021e-03 1.717270000000000185e-01 3.483774999999999511e-01 9.240314999999999657e+01 2.055099999999999909e+03
2.000000000000000042e-03 1.716840000000000033e-01 1.836840000000000028e+00 8.915019999999999811e+01 2.054684999999999945e+03
3.000000000000000062e-03 1.715665000000000107e-01 3.642406999999999950e+00 8.477129999999999654e+01 2.053574999999999818e+03
4.000000000000000083e-03 1.714049999999999740e-01 5.656775999999999804e+00 8.012824999999999420e+01 2.052085000000000036e+03
5.000000000000000104e-03 1.712314999999999809e-01 7.808809999999999363e+00 7.607049999999999557e+01 2.050494999999999891e+03
6.000000000000000125e-03 1.710645000000000082e-01 9.920234999999999914e+00 7.281640000000000157e+01 2.048980000000000018e+03
7.000000000000000146e-03 1.709074999999999900e-01 1.178829499999999975e+01 7.007220000000000937e+01 2.047590000000000146e+03
8.000000000000000167e-03 1.707639999999999991e-01 1.334863999999999962e+01 6.761459999999999582e+01 2.046335000000000036e+03
9.000000000000001055e-03 1.706380000000000119e-01 1.464429999999999943e+01 6.550504999999999711e+01 2.045244999999999891e+03
1.000000000000000194e-02 1.705320000000000169e-01 1.570744999999999969e+01 6.380899999999999750e+01 2.044340000000000146e+03
1.099999999999999936e-02 1.704450000000000132e-01 1.655014999999999858e+01 6.249005000000000365e+01 2.043610000000000127e+03
1.200000000000000025e-02 1.703759999999999997e-01 1.718280000000000030e+01 6.147585000000000122e+01 2.043039999999999964e+03
1.300000000000000114e-02 1.703210000000000002e-01 1.760814999999999841e+01 6.066325000000000500e+01 2.042590000000000146e+03
1.400000000000000203e-02 1.702754999999999963e-01 1.784080000000000155e+01 5.994854999999999734e+01 2.042224999999999909e+03
1.499999999999999944e-02 1.702385000000000148e-01 1.795125000000000171e+01 5.935755000000000337e+01 2.041934999999999945e+03
1.600000000000000033e-02 1.702150000000000052e-01 1.807404999999999973e+01 5.913084999999999525e+01 2.041759999999999991e+03
1.700000000000000122e-02 1.702124999999999888e-01 1.835399999999999920e+01 5.962619999999999720e+01 2.041755000000000109e+03
1.800000000000000211e-02 1.702390000000000014e-01 1.886850000000000094e+01 6.109100000000000108e+01 2.041990000000000009e+03
1.900000000000000300e-02 1.702965000000000173e-01 1.958279999999999887e+01 6.347234999999999872e+01 2.042480000000000018e+03
2.000000000000000042e-02 1.703780000000000017e-01 2.036209999999999809e+01 6.638710000000000377e+01 2.043180000000000064e+03
2.100000000000000130e-02 1.704700000000000104e-01 2.102779999999999916e+01 6.925264999999998849e+01 2.043980000000000018e+03
2.200000000000000219e-02 1.705560000000000132e-01 2.142470000000000141e+01 7.149745000000000061e+01 2.044730000000000018e+03
2.299999999999999961e-02 1.706219999999999959e-01 2.147149999999999892e+01 7.275034999999999741e+01 2.045325000000000045e+03
2.400000000000000050e-02 1.706610000000000071e-01 2.117755000000000010e+01 7.293770000000000664e+01 2.045684999999999945e+03
2.500000000000000139e-02 1.706715000000000038e-01 2.062519999999999953e+01 7.226390000000000668e+01 2.045805000000000064e+03
2.600000000000000228e-02 1.706610000000000071e-01 1.992999999999999972e+01 7.109890000000000043e+01 2.045735000000000127e+03
2.700000000000000316e-02 1.706374999999999975e-01 1.919689999999999941e+01 6.982784999999999798e+01 2.045545000000000073e+03
2.800000000000000058e-02 1.706099999999999839e-01 1.848894999999999911e+01 6.872409999999999286e+01 2.045319999999999936e+03
2.900000000000000147e-02 1.705845000000000000e-01 1.781714999999999804e+01 6.788564999999999827e+01 2.045099999999999909e+03
3.000000000000000236e-02 1.705615000000000048e-01 1.715139999999999887e+01 6.724514999999999532e+01 2.044900000000000091e+03
3.099999999999999978e-02 1.705395000000000105e-01 1.644369999999999976e+01 6.663559999999999661e+01 2.044710000000000036e+03
3.200000000000000067e-02 1.705145000000000133e-01 1.565510000000000090e+01 6.588105000000000189e+01 2.044500000000000000e+03
3.300000000000000155e-02 1.704839999999999967e-01 1.477749999999999986e+01 6.487909999999999400e+01 2.044239999999999782e+03
3.400000000000000244e-02 1.704465000000000008e-01 1.384304999999999986e+01 6.365145000000000408e+01 2.043920000000000073e+03
3.500000000000000333e-02 1.704034999999999855e-01 1.292030000000000101e+01 6.234884999999999877e+01 2.043565000000000055e+03
3.600000000000000422e-02 1.703625000000000000e-01 1.209809999999999874e+01 6.121110000000000184e+01 2.043210000000000036e+03
3.700000000000000511e-02 1.703290000000000082e-01 1.146189999999999998e+01 6.049805000000000632e+01 2.042914999999999964e+03
3.799999999999999906e-02 1.703109999999999902e-01 1.107150000000000034e+01 6.041275000000000261e+01 2.042744999999999891e+03
3.899999999999999994e-02 1.703125000000000056e-01 1.094510000000000005e+01 6.104179999999999495e+01 2.042744999999999891e+03
4.000000000000000083e-02 1.703355000000000008e-01 1.105450000000000088e+01 6.232859999999999445e+01 2.042924999999999955e+03
4.100000000000000172e-02 1.703770000000000007e-01 1.133140000000000036e+01 6.408305000000000007e+01 2.043265000000000100e+03
4.200000000000000261e-02 1.704309999999999992e-01 1.168090000000000117e+01 6.602174999999999727e+01 2.043715000000000146e+03
4.300000000000000350e-02 1.704890000000000017e-01 1.199915000000000020e+01 6.782455000000000211e+01 2.044210000000000036e+03
4.400000000000000439e-02 1.705419999999999991e-01 1.219044999999999845e+01 6.919270000000000209e+01 2.044664999999999964e+03
4.499999999999999833e-02 1.705814999999999970e-01 1.217994999999999983e+01 6.989500000000001023e+01 2.045005000000000109e+03
4.599999999999999922e-02 1.706000000000000016e-01 1.192050000000000054e+01 6.979545000000000243e+01 2.045175000000000182e+03
4.700000000000000011e-02 1.705939999999999956e-01 1.139450000000000074e+01 6.885909999999999798e+01 2.045139999999999873e+03
4.800000000000000100e-02 1.705619999999999914e-01 1.061007000000000033e+01 6.713980000000000814e+01 2.044875000000000000e+03
4.900000000000000189e-02 1.705055000000000043e-01 9.594995000000000829e+00 6.475669999999999504e+01 2.044400000000000091e+03
5.000000000000000278e-02 1.704275000000000095e-01 8.389459999999999695e+00 6.186549999999999727e+01 2.043734999999999900e+03
5.100000000000000366e-02 1.703315000000000246e-01 7.040045000000000108e+00 5.863284999999999769e+01 2.042920000000000073e+03
5.200000000000000455e-02 1.702230000000000132e-01 5.595019999999999882e+00 5.521815000000000140e+01 2.041995000000000118e+03
5.300000000000000544e-02 1.701070000000000082e-01 4.102304000000000173e+00 5.176340000000000430e+01 2.040995000000000118e+03
5.399999999999999939e-02 1.699875000000000136e-01 2.608557000000000237e+00 4.839119999999999777e+01 2.039969999999999800e+03
5.500000000000000028e-02 1.698695000000000066e-01 1.159619999999999873e+00 4.520830000000000126e+01 2.038950000000000045e+03
5.600000000000000117e-02 1.697559999999999902e-01 -1.989300000000000512e-01 4.231095000000000539e+01 2.037974999999999909e+03
5.700000000000000205e-02 1.696515000000000106e-01 -1.421650000000000080e+00 3.978979999999999961e+01 2.037069999999999936e+03
5.800000000000000294e-02 1.695590000000000153e-01 -2.463848000000000038e+00 3.773250000000000171e+01 2.036269999999999982e+03
5.900000000000000383e-02 1.694824999999999804e-01 -3.283025000000000304e+00 3.622270000000000323e+01 2.035595000000000027e+03
6.000000000000000472e-02 1.694240000000000190e-01 -3.841050000000000075e+00 3.533630000000000138e+01 2.035085000000000036e+03
6.099999999999999867e-02 1.693874999999999964e-01 -4.106595000000000439e+00 3.513600000000000279e+01 2.034755000000000109e+03
6.199999999999999956e-02 1.693749999999999978e-01 -4.057520000000000238e+00 3.566450000000000387e+01 2.034625000000000000e+03
6.300000000000000044e-02 1.693874999999999964e-01 -3.682680000000000398e+00 3.693939999999999912e+01 2.034710000000000036e+03
6.400000000000000133e-02 1.694259999999999933e-01 -2.983049999999999979e+00 3.894969999999999999e+01 2.035019999999999982e+03
6.500000000000000222e-02 1.694910000000000028e-01 -1.971768500000000257e+00 4.165525000000000233e+01 2.035549999999999955e+03
6.600000000000000311e-02 1.695800000000000085e-01 -6.733700000000000241e-01 4.498839999999999861e+01 2.036289999999999964e+03
6.700000000000000400e-02 1.696914999999999951e-01 8.778250000000000774e-01 4.885900000000000176e+01 2.037230000000000018e+03
6.800000000000000488e-02 1.698220000000000007e-01 2.639855000000000285e+00 5.315999999999999659e+01 2.038339999999999918e+03
6.900000000000000577e-02 1.699694999999999956e-01 4.565653500000000697e+00 5.777490000000000236e+01 2.039585000000000036e+03
7.000000000000000666e-02 1.701285000000000158e-01 6.605635000000000367e+00 6.258495000000000630e+01 2.040950000000000045e+03
7.100000000000000755e-02 1.702965000000000173e-01 8.710314999999999586e+00 6.747634999999999650e+01 2.042385000000000218e+03
7.200000000000000844e-02 1.704684999999999950e-01 1.083270500000000069e+01 7.234590000000000032e+01 2.043875000000000000e+03
7.300000000000000933e-02 1.706420000000000159e-01 1.293041499999999999e+01 7.710630000000000450e+01 2.045380000000000109e+03
7.399999999999999634e-02 1.708135000000000070e-01 1.496740000000000137e+01 8.168989999999999441e+01 2.046865000000000009e+03
7.499999999999999722e-02 1.709809999999999941e-01 1.691525000000000034e+01 8.605074999999999363e+01 2.048324999999999818e+03
7.599999999999999811e-02 1.711420000000000163e-01 1.875365000000000038e+01 9.016519999999999868e+01 2.049730000000000018e+03
7.699999999999999900e-02 1.712960000000000038e-01 2.047080000000000055e+01 9.403055000000000518e+01 2.051085000000000036e+03
7.799999999999999989e-02 1.714424999999999977e-01 2.206250000000000000e+01 9.766370000000000573e+01 2.052369999999999891e+03
7.900000000000000078e-02 1.715820000000000123e-01 2.353159999999999741e+01 1.010948500000000081e+02 2.053605000000000018e+03
8.000000000000000167e-02 1.717154999999999931e-01 2.488629999999999853e+01 1.043654999999999973e+02 2.054784999999999854e+03
8.100000000000000255e-02 1.718429999999999958e-01 2.613855000000000217e+01 1.075225000000000080e+02 2.055920000000000073e+03
8.200000000000000344e-02 1.719674999999999954e-01 2.730250000000000199e+01 1.106110000000000042e+02 2.057019999999999982e+03
8.300000000000000433e-02 1.720895000000000064e-01 2.839249999999999829e+01 1.136740000000000066e+02 2.058099999999999909e+03
8.400000000000000522e-02 1.722099999999999742e-01 2.942184999999999917e+01 1.167450000000000045e+02 2.059175000000000182e+03
8.500000000000000611e-02 1.723310000000000120e-01 3.040164999999999651e+01 1.198460000000000036e+02 2.060250000000000000e+03
8.600000000000000699e-02 1.724519999999999942e-01 3.133950000000000102e+01 1.229890000000000043e+02 2.061329999999999927e+03
8.700000000000000788e-02 1.725745000000000196e-01 3.223949999999999960e+01 1.261719999999999970e+02 2.062409999999999854e+03
8.800000000000000877e-02 1.726975000000000038e-01 3.310179999999999723e+01 1.293799999999999955e+02 2.063505000000000109e+03
8.899999999999999578e-02 1.728210000000000024e-01 3.392280000000000229e+01 1.325894999999999868e+02 2.064605000000000018e+03
8.999999999999999667e-02 1.729439999999999866e-01 3.469554999999999723e+01 1.357680000000000007e+02 2.065699999999999818e+03
9.099999999999999756e-02 1.730659999999999976e-01 3.541055000000000064e+01 1.388764999999999930e+02 2.066784999999999854e+03
9.199999999999999845e-02 1.731845000000000190e-01 3.605615000000000236e+01 1.418729999999999905e+02 2.067840000000000146e+03
9.299999999999999933e-02 1.732990000000000086e-01 3.661974999999999625e+01 1.447139999999999986e+02 2.068864999999999782e+03
9.400000000000000022e-02 1.734085000000000210e-01 3.708835000000000548e+01 1.473589999999999804e+02 2.069845000000000255e+03
9.500000000000000111e-02 1.735109999999999986e-01 3.744960000000000377e+01 1.497690000000000055e+02 2.070760000000000218e+03
9.600000000000000200e-02 1.736050000000000093e-01 3.769225000000000136e+01 1.519114999999999895e+02 2.071605000000000018e+03
9.700000000000000289e-02 1.736894999999999967e-01 3.780729999999999791e+01 1.537604999999999791e+02 2.072369999999999891e+03
9.800000000000000377e-02 1.737640000000000018e-01 3.778789999999999338e+01 1.552975000000000136e+02 2.073039999999999964e+03
9.900000000000000466e-02 1.738270000000000093e-01 3.763049999999999784e+01 1.565120000000000005e+02 2.073614999999999782e+03
1.000000000000000056e-01 1.738790000000000058e-01 3.733474999999999966e+01 1.574030000000000200e+02 2.074090000000000146e+03
1.010000000000000064e-01 1.739195000000000046e-01 3.690364999999999895e+01 1.579784999999999968e+02 2.074460000000000036e+03
1.020000000000000073e-01 1.739479999999999915e-01 3.634369999999999834e+01 1.582529999999999859e+02 2.074730000000000018e+03
1.030000000000000082e-01 1.739660000000000095e-01 3.566469999999999629e+01 1.582500000000000000e+02 2.074904999999999745e+03
1.040000000000000091e-01 1.739740000000000175e-01 3.487924999999999898e+01 1.580000000000000000e+02 2.074984999999999673e+03
1.050000000000000100e-01 1.739725000000000021e-01 3.400244999999999607e+01 1.575380000000000109e+02 2.074984999999999673e+03
1.059999999999999970e-01 1.739634999999999931e-01 3.305100000000000193e+01 1.569025000000000034e+02 2.074914999999999964e+03
1.069999999999999979e-01 1.739475000000000049e-01 3.204294999999999760e+01 1.561324999999999932e+02 2.074775000000000091e+03
1.079999999999999988e-01 1.739255000000000106e-01 3.099649999999999750e+01 1.552694999999999936e+02 2.074590000000000146e+03
1.089999999999999997e-01 1.738999999999999990e-01 2.992974999999999852e+01 1.543509999999999991e+02 2.074375000000000000e+03
1.100000000000000006e-01 1.738715000000000122e-01 2.885964999999999847e+01 1.534124999999999943e+02 2.074125000000000000e+03
1.110000000000000014e-01 1.738419999999999965e-01 2.780160000000000053e+01 1.524839999999999804e+02 2.073864999999999782e+03
1.120000000000000023e-01 1.738120000000000220e-01 2.676885000000000048e+01 1.515905000000000200e+02 2.073595000000000255e+03
1.130000000000000032e-01 1.737819999999999920e-01 2.577224999999999966e+01 1.507510000000000048e+02 2.073329999999999927e+03
1.140000000000000041e-01 1.737529999999999908e-01 2.481974999999999909e+01 1.499780000000000086e+02 2.073070000000000164e+03
1.150000000000000050e-01 1.737259999999999915e-01 2.391649999999999920e+01 1.492760000000000105e+02 2.072824999999999818e+03
1.160000000000000059e-01 1.737009999999999943e-01 2.306465000000000032e+01 1.486440000000000055e+02 2.072599999999999909e+03
1.170000000000000068e-01 1.736779999999999990e-01 2.226354999999999862e+01 1.480745000000000005e+02 2.072385000000000218e+03
1.180000000000000077e-01 1.736560000000000048e-01 2.150999999999999801e+01 1.475554999999999950e+02 2.072194999999999709e+03
1.190000000000000085e-01 1.736360000000000126e-01 2.079854999999999876e+01 1.470695000000000050e+02 2.072010000000000218e+03
1.200000000000000094e-01 1.736170000000000213e-01 2.012190000000000012e+01 1.465960000000000036e+02 2.071829999999999927e+03
1.209999999999999964e-01 1.735980000000000023e-01 1.947149999999999892e+01 1.461134999999999877e+02 2.071659999999999854e+03
1.219999999999999973e-01 1.735784999999999967e-01 1.883794999999999931e+01 1.455989999999999895e+02 2.071485000000000127e+03
1.229999999999999982e-01 1.735579999999999901e-01 1.821170000000000044e+01 1.450294999999999845e+02 2.071300000000000182e+03
1.239999999999999991e-01 1.735355000000000092e-01 1.758344999999999914e+01 1.443849999999999909e+02 2.071090000000000146e+03
1.250000000000000000e-01 1.735105000000000119e-01 1.694474999999999909e+01 1.436480000000000246e+02 2.070864999999999782e+03
1.260000000000000009e-01 1.734819999999999973e-01 1.628855000000000075e+01 1.428050000000000068e+02 2.070614999999999782e+03
1.270000000000000018e-01 1.734505000000000075e-01 1.560950000000000060e+01 1.418475000000000250e+02 2.070335000000000036e+03
1.280000000000000027e-01 1.734149999999999858e-01 1.490429999999999922e+01 1.407724999999999795e+02 2.070015000000000327e+03
1.290000000000000036e-01 1.733750000000000013e-01 1.417190000000000083e+01 1.395815000000000055e+02 2.069664999999999964e+03
1.300000000000000044e-01 1.733310000000000128e-01 1.341369999999999862e+01 1.382839999999999918e+02 2.069275000000000091e+03
1.310000000000000053e-01 1.732835000000000070e-01 1.263325000000000031e+01 1.368940000000000055e+02 2.068859999999999673e+03
1.320000000000000062e-01 1.732329999999999981e-01 1.183635500000000107e+01 1.354290000000000020e+02 2.068409999999999854e+03
1.330000000000000071e-01 1.731794999999999862e-01 1.103063500000000019e+01 1.339120000000000061e+02 2.067934999999999945e+03
1.340000000000000080e-01 1.731245000000000145e-01 1.022526000000000046e+01 1.323684999999999832e+02 2.067449999999999818e+03
1.350000000000000089e-01 1.730679999999999996e-01 9.430209999999998871e+00 1.308255000000000052e+02 2.066949999999999818e+03
1.360000000000000098e-01 1.730119999999999991e-01 8.656259999999999621e+00 1.293114999999999952e+02 2.066444999999999709e+03
1.370000000000000107e-01 1.729559999999999986e-01 7.913994999999999891e+00 1.278520000000000039e+02 2.065954999999999927e+03
1.380000000000000115e-01 1.729020000000000001e-01 7.213490000000000180e+00 1.264724999999999966e+02 2.065470000000000255e+03
1.390000000000000124e-01 1.728504999999999903e-01 6.563884999999999970e+00 1.251930000000000121e+02 2.065014999999999873e+03
1.400000000000000133e-01 1.728024999999999978e-01 5.972879999999999967e+00 1.240324999999999989e+02 2.064585000000000036e+03
1.410000000000000142e-01 1.727585000000000093e-01 5.446505000000000152e+00 1.230020000000000095e+02 2.064194999999999709e+03
1.420000000000000151e-01 1.727184999999999970e-01 4.988844999999999530e+00 1.221099999999999994e+02 2.063835000000000036e+03
1.430000000000000160e-01 1.726830000000000032e-01 4.601980000000000182e+00 1.213590000000000089e+02 2.063514999999999873e+03
1.440000000000000169e-01 1.726530000000000009e-01 4.285960000000000214e+00 1.207460000000000093e+02 2.063244999999999891e+03
1.450000000000000178e-01 1.726269999999999749e-01 4.038895000000000124e+00 1.202650000000000006e+02 2.063010000000000218e+03
1.459999999999999909e-01 1.726059999999999817e-01 3.857140000000000235e+00 1.199055000000000035e+02 2.062815000000000055e+03
1.469999999999999918e-01 1.725895000000000068e-01 3.735540000000000305e+00 1.196529999999999916e+02 2.062664999999999964e+03
1.479999999999999927e-01 1.725764999999999938e-01 3.667709999999999582e+00 1.194934999999999974e+02 2.062545000000000073e+03
1.489999999999999936e-01 1.725674999999999848e-01 3.646345000000000169e+00 1.194080000000000013e+02 2.062454999999999927e+03
1.499999999999999944e-01 1.725609999999999922e-01 3.663569999999999993e+00 1.193789999999999907e+02 2.062394999999999982e+03
1.509999999999999953e-01 1.725565000000000015e-01 3.711215000000000153e+00 1.193900000000000006e+02 2.062349999999999909e+03
1.519999999999999962e-01 1.725539999999999852e-01 3.781159999999999854e+00 1.194230000000000018e+02 2.062324999999999818e+03
1.529999999999999971e-01 1.725519999999999832e-01 3.865569999999999951e+00 1.194635000000000105e+02 2.062304999999999836e+03
1.539999999999999980e-01 1.725514999999999965e-01 3.957130000000000258e+00 1.194969999999999999e+02 2.062295000000000073e+03
1.549999999999999989e-01 1.725504999999999955e-01 4.049234999999999474e+00 1.195130000000000052e+02 2.062284999999999854e+03
1.559999999999999998e-01 1.725495000000000223e-01 4.136144999999999960e+00 1.195004999999999882e+02 2.062269999999999982e+03
1.570000000000000007e-01 1.725475000000000203e-01 4.213070000000000093e+00 1.194530000000000030e+02 2.062255000000000109e+03
1.580000000000000016e-01 1.725450000000000039e-01 4.276209999999999845e+00 1.193654999999999973e+02 2.062230000000000018e+03
1.590000000000000024e-01 1.725404999999999855e-01 4.322804999999999787e+00 1.192355000000000018e+02 2.062190000000000055e+03
