# t [s], A [cm^2], U [cm/s], P [cPa], c [cm/s]
1.000000000000000021e-03 1.308209999999999928e-01 3.566705000000000014e-01 9.651585000000000036e+01 1.873585000000000036e+03
2.000000000000000042e-03 1.307969999999999966e-01 1.890139000000000014e+00 9.340729999999999222e+01 1.873305000000000064e+03
3.000000000000000062e-03 1.307134999999999825e-01 3.735903000000000418e+00 8.940314999999999657e+01 1.872355000000000018e+03
4.000000000000000083e-03 1.305900000000000116e-01 5.769226000000000631e+00 8.507554999999999268e+01 1.870980000000000018e+03
5.000000000000000104e-03 1.304484999999999950e-01 7.934849999999999959e+00 8.113004999999999711e+01 1.869420000000000073e+03
6.000000000000000125e-03 1.303059999999999774e-01 1.011435999999999957e+01 7.786220000000000141e+01 1.867860000000000127e+03
7.000000000000000146e-03 1.301690000000000069e-01 1.214869000000000021e+01 7.515549999999998931e+01 1.866375000000000000e+03
8.000000000000000167e-03 1.300395000000000023e-01 1.393759999999999977e+01 7.278379999999999939e+01 1.865000000000000000e+03
9.000000000000001055e-03 1.299204999999999943e-01 1.547814999999999941e+01 7.068099999999999739e+01 1.863755000000000109e+03
1.000000000000000194e-02 1.298149999999999860e-01 1.680049999999999955e+01 6.889204999999999757e+01 1.862659999999999854e+03
1.099999999999999936e-02 1.297240000000000060e-01 1.791989999999999839e+01 6.742409999999999570e+01 1.861724999999999909e+03
1.200000000000000025e-02 1.296464999999999979e-01 1.884290000000000020e+01 6.623279999999999745e+01 1.860940000000000055e+03
1.300000000000000114e-02 1.295820000000000027e-01 1.957600000000000051e+01 6.525965000000000771e+01 1.860289999999999964e+03
1.400000000000000203e-02 1.295280000000000042e-01 2.012519999999999953e+01 6.443840000000000146e+01 1.859750000000000000e+03
1.499999999999999944e-02 1.294819999999999860e-01 2.050600000000000023e+01 6.371344999999999459e+01 1.859309999999999945e+03
1.600000000000000033e-02 1.294434999999999891e-01 2.076395000000000124e+01 6.309655000000000058e+01 1.858940000000000055e+03
1.700000000000000122e-02 1.294134999999999869e-01 2.097980000000000089e+01 6.270650000000000546e+01 1.858659999999999854e+03
1.800000000000000211e-02 1.293960000000000110e-01 2.124774999999999991e+01 6.273794999999999789e+01 1.858500000000000000e+03
1.900000000000000300e-02 1.293944999999999956e-01 2.163779999999999859e+01 6.336570000000000391e+01 1.858500000000000000e+03
2.000000000000000042e-02 1.294119999999999993e-01 2.216649999999999920e+01 6.464414999999999623e+01 1.858690000000000055e+03
2.100000000000000130e-02 1.294480000000000075e-01 2.279014999999999702e+01 6.645940000000000225e+01 1.859070000000000164e+03
2.200000000000000219e-02 1.294984999999999886e-01 2.342119999999999891e+01 6.855169999999999675e+01 1.859590000000000146e+03
2.299999999999999961e-02 1.295554999999999901e-01 2.395819999999999794e+01 7.059229999999999450e+01 1.860184999999999945e+03
2.400000000000000050e-02 1.296120000000000050e-01 2.431615000000000038e+01 7.227740000000000009e+01 1.860780000000000200e+03
2.500000000000000139e-02 1.296609999999999985e-01 2.444814999999999827e+01 7.340545000000000186e+01 1.861304999999999836e+03
2.600000000000000228e-02 1.296970000000000067e-01 2.435190000000000055e+01 7.391544999999999277e+01 1.861700000000000045e+03
2.700000000000000316e-02 1.297195000000000153e-01 2.406320000000000192e+01 7.388005000000001132e+01 1.861945000000000164e+03
2.800000000000000058e-02 1.297290000000000110e-01 2.363909999999999911e+01 7.346195000000000164e+01 1.862065000000000055e+03
2.900000000000000147e-02 1.297284999999999966e-01 2.313855000000000217e+01 7.285285000000000366e+01 1.862085000000000036e+03
3.000000000000000236e-02 1.297230000000000050e-01 2.260645000000000238e+01 7.221550000000000580e+01 1.862029999999999973e+03
3.099999999999999978e-02 1.297139999999999960e-01 2.206520000000000081e+01 7.164664999999999395e+01 1.861950000000000045e+03
3.200000000000000067e-02 1.297045000000000003e-01 2.151539999999999964e+01 7.116649999999999920e+01 1.861849999999999909e+03
3.300000000000000155e-02 1.296940000000000037e-01 2.094275000000000020e+01 7.073414999999999964e+01 1.861750000000000000e+03
3.400000000000000244e-02 1.296825000000000061e-01 2.032900000000000063e+01 7.027830000000000155e+01 1.861634999999999991e+03
3.500000000000000333e-02 1.296685000000000199e-01 1.966270000000000095e+01 6.973345000000000482e+01 1.861500000000000000e+03
3.600000000000000422e-02 1.296519999999999895e-01 1.894745000000000346e+01 6.906950000000000500e+01 1.861329999999999927e+03
3.700000000000000511e-02 1.296315000000000106e-01 1.820479999999999876e+01 6.830920000000000414e+01 1.861130000000000109e+03
3.799999999999999906e-02 1.296100000000000030e-01 1.747225000000000250e+01 6.752799999999999159e+01 1.860904999999999973e+03
3.899999999999999994e-02 1.295874999999999944e-01 1.679650000000000176e+01 6.683905000000000030e+01 1.860680000000000064e+03
4.000000000000000083e-02 1.295685000000000031e-01 1.622419999999999973e+01 6.636674999999999613e+01 1.860485000000000127e+03
4.100000000000000172e-02 1.295560000000000045e-01 1.579165000000000063e+01 6.621725000000000705e+01 1.860349999999999909e+03
4.200000000000000261e-02 1.295514999999999861e-01 1.551785000000000103e+01 6.645260000000000389e+01 1.860300000000000182e+03
4.300000000000000350e-02 1.295580000000000065e-01 1.539985000000000070e+01 6.707484999999999786e+01 1.860355000000000018e+03
4.400000000000000439e-02 1.295739999999999947e-01 1.541324999999999967e+01 6.802365000000000350e+01 1.860514999999999873e+03
4.499999999999999833e-02 1.295995000000000064e-01 1.551644999999999897e+01 6.918559999999999377e+01 1.860764999999999873e+03
4.599999999999999922e-02 1.296299999999999952e-01 1.565680000000000049e+01 7.041315000000000168e+01 1.861079999999999927e+03
4.700000000000000011e-02 1.296640000000000015e-01 1.577869999999999884e+01 7.154765000000000441e+01 1.861410000000000082e+03
4.800000000000000100e-02 1.296950000000000047e-01 1.583004999999999995e+01 7.244169999999999732e+01 1.861730000000000018e+03
4.900000000000000189e-02 1.297205000000000163e-01 1.576839999999999975e+01 7.297739999999998872e+01 1.861990000000000009e+03
5.000000000000000278e-02 1.297369999999999912e-01 1.556380000000000052e+01 7.307739999999999725e+01 1.862164999999999964e+03
5.100000000000000366e-02 1.297419999999999962e-01 1.520020000000000060e+01 7.270824999999999250e+01 1.862220000000000027e+03
5.200000000000000455e-02 1.297340000000000160e-01 1.467439999999999856e+01 7.187774999999999181e+01 1.862144999999999982e+03
5.300000000000000544e-02 1.297129999999999950e-01 1.399419999999999931e+01 7.062675000000000125e+01 1.861934999999999945e+03
5.399999999999999939e-02 1.296795000000000031e-01 1.317569999999999908e+01 6.901935000000000286e+01 1.861599999999999909e+03
5.500000000000000028e-02 1.296355000000000146e-01 1.224070000000000036e+01 6.713230000000000075e+01 1.861144999999999982e+03
5.600000000000000117e-02 1.295810000000000017e-01 1.121431000000000111e+01 6.504699999999999704e+01 1.860595000000000027e+03
5.700000000000000205e-02 1.295199999999999962e-01 1.012366499999999903e+01 6.284324999999999761e+01 1.859970000000000027e+03
5.800000000000000294e-02 1.294534999999999991e-01 8.996969999999999246e+00 6.059629999999999939e+01 1.859289999999999964e+03
5.900000000000000383e-02 1.293845000000000134e-01 7.863179999999999836e+00 5.837640000000000384e+01 1.858579999999999927e+03
6.000000000000000472e-02 1.293144999999999989e-01 6.751935000000000464e+00 5.624934999999999974e+01 1.857860000000000127e+03
6.099999999999999867e-02 1.292455000000000132e-01 5.693570000000000242e+00 5.427824999999999989e+01 1.857150000000000091e+03
6.199999999999999956e-02 1.291805000000000037e-01 4.718885000000000218e+00 5.252439999999999998e+01 1.856480000000000018e+03
6.300000000000000044e-02 1.291209999999999858e-01 3.858694999999999986e+00 5.104805000000000348e+01 1.855859999999999900e+03
6.400000000000000133e-02 1.290689999999999893e-01 3.143010000000000304e+00 4.990735000000000099e+01 1.855324999999999818e+03
6.500000000000000222e-02 1.290270000000000028e-01 2.600005000000000344e+00 4.915684999999999860e+01 1.854880000000000109e+03
6.600000000000000311e-02 1.289965000000000139e-01 2.254755000000000287e+00 4.884499999999999886e+01 1.854554999999999836e+03
6.700000000000000400e-02 1.289790000000000103e-01 2.127955000000000041e+00 4.901104999999999734e+01 1.854360000000000127e+03
6.800000000000000488e-02 1.289760000000000073e-01 2.234774999999999956e+00 4.968250000000000455e+01 1.854319999999999936e+03
6.900000000000000577e-02 1.289885000000000059e-01 2.583955000000000002e+00 5.087265000000000015e+01 1.854430000000000064e+03
7.000000000000000666e-02 1.290175000000000072e-01 3.177255000000000162e+00 5.257939999999999969e+01 1.854715000000000146e+03
7.100000000000000755e-02 1.290624999999999967e-01 4.009344999999999715e+00 5.478454999999999586e+01 1.855164999999999964e+03
7.200000000000000844e-02 1.291240000000000165e-01 5.068030000000000257e+00 5.745494999999999663e+01 1.855779999999999973e+03
7.300000000000000933e-02 1.292010000000000103e-01 6.334950000000000969e+00 6.054410000000000025e+01 1.856549999999999955e+03
7.399999999999999634e-02 1.292915000000000036e-01 7.786514999999999631e+00 6.399474999999999625e+01 1.857474999999999909e+03
7.499999999999999722e-02 1.293954999999999966e-01 9.395115000000000549e+00 6.774214999999999520e+01 1.858529999999999973e+03
7.599999999999999811e-02 1.295094999999999996e-01 1.113046999999999898e+01 7.171744999999999948e+01 1.859695000000000164e+03
7.699999999999999900e-02 1.296329999999999982e-01 1.296094500000000060e+01 7.585124999999999318e+01 1.860960000000000036e+03
7.799999999999999989e-02 1.297625000000000028e-01 1.485495000000000054e+01 8.007685000000000741e+01 1.862295000000000073e+03
7.900000000000000078e-02 1.298974999999999991e-01 1.678219999999999956e+01 8.433314999999998918e+01 1.863690000000000055e+03
8.000000000000000167e-02 1.300344999999999973e-01 1.871480000000000032e+01 8.856714999999999804e+01 1.865110000000000127e+03
8.100000000000000255e-02 1.301734999999999975e-01 2.062800000000000011e+01 9.273554999999998927e+01 1.866554999999999836e+03
8.200000000000000344e-02 1.303119999999999834e-01 2.250115000000000265e+01 9.680559999999999832e+01 1.868000000000000000e+03
8.300000000000000433e-02 1.304484999999999950e-01 2.431765000000000043e+01 1.007558999999999969e+02 1.869430000000000064e+03
8.400000000000000522e-02 1.305830000000000046e-01 2.606535000000000224e+01 1.045749500000000012e+02 1.870835000000000036e+03
8.500000000000000611e-02 1.307145000000000112e-01 2.773604999999999876e+01 1.082615000000000123e+02 1.872220000000000027e+03
8.600000000000000699e-02 1.308429999999999871e-01 2.932565000000000310e+01 1.118215000000000003e+02 1.873575000000000045e+03
8.700000000000000788e-02 1.309674999999999867e-01 3.083290000000000219e+01 1.152674999999999983e+02 1.874889999999999873e+03
8.800000000000000877e-02 1.310894999999999977e-01 3.225934999999999775e+01 1.186140000000000043e+02 1.876184999999999945e+03
8.899999999999999578e-02 1.312085000000000057e-01 3.360804999999999865e+01 1.218799999999999955e+02 1.877444999999999936e+03
8.999999999999999667e-02 1.313249999999999973e-01 3.488325000000000387e+01 1.250805000000000007e+02 1.878684999999999945e+03
9.099999999999999756e-02 1.314395000000000147e-01 3.608919999999999817e+01 1.282309999999999945e+02 1.879904999999999973e+03
9.199999999999999845e-02 1.315520000000000023e-01 3.723004999999999853e+01 1.313419999999999845e+02 1.881099999999999909e+03
9.299999999999999933e-02 1.316634999999999889e-01 3.830904999999999916e+01 1.344200000000000159e+02 1.882289999999999964e+03
9.400000000000000022e-02 1.317734999999999879e-01 3.932824999999999704e+01 1.374664999999999964e+02 1.883464999999999918e+03
9.500000000000000111e-02 1.318819999999999992e-01 4.028834999999999411e+01 1.404764999999999873e+02 1.884625000000000000e+03
9.600000000000000200e-02 1.319894999999999818e-01 4.118845000000000312e+01 1.434429999999999836e+02 1.885775000000000091e+03
9.700000000000000289e-02 1.320955000000000046e-01 4.202639999999999532e+01 1.463525000000000205e+02 1.886910000000000082e+03
9.800000000000000377e-02 1.321990000000000109e-01 4.279850000000000421e+01 1.491885000000000048e+02 1.888025000000000091e+03
9.900000000000000466e-02 1.323004999999999876e-01 4.350030000000000285e+01 1.519320000000000164e+02 1.889115000000000009e+03
1.000000000000000056e-01 1.323989999999999889e-01 4.412624999999999886e+01 1.545635000000000048e+02 1.890174999999999955e+03
1.010000000000000064e-01 1.324940000000000007e-01 4.467060000000000031e+01 1.570615000000000236e+02 1.891194999999999936e+03
1.020000000000000073e-01 1.325850000000000084e-01 4.512734999999999985e+01 1.594060000000000059e+02 1.892170000000000073e+03
1.030000000000000082e-01 1.326704999999999968e-01 4.549054999999999893e+01 1.615769999999999982e+02 1.893099999999999909e+03
1.040000000000000091e-01 1.327514999999999945e-01 4.575509999999999877e+01 1.635575000000000045e+02 1.893970000000000027e+03
1.050000000000000100e-01 1.328259999999999996e-01 4.591634999999999422e+01 1.653329999999999984e+02 1.894775000000000091e+03
1.059999999999999970e-01 1.328934999999999977e-01 4.597069999999999368e+01 1.668919999999999959e+02 1.895514999999999873e+03
1.069999999999999979e-01 1.329545000000000032e-01 4.591615000000000180e+01 1.682264999999999873e+02 1.896179999999999836e+03
1.079999999999999988e-01 1.330080000000000151e-01 4.575180000000000291e+01 1.693310000000000173e+02 1.896764999999999873e+03
1.089999999999999997e-01 1.330540000000000056e-01 4.547849999999999682e+01 1.702059999999999889e+02 1.897275000000000091e+03
1.100000000000000006e-01 1.330930000000000168e-01 4.509879999999999711e+01 1.708539999999999850e+02 1.897700000000000045e+03
1.110000000000000014e-01 1.331239999999999923e-01 4.461670000000000158e+01 1.712835000000000036e+02 1.898045000000000073e+03
1.120000000000000023e-01 1.331479999999999886e-01 4.403825000000000500e+01 1.715049999999999955e+02 1.898309999999999945e+03
1.130000000000000032e-01 1.331644999999999912e-01 4.337069999999999936e+01 1.715330000000000155e+02 1.898500000000000000e+03
1.140000000000000041e-01 1.331745000000000012e-01 4.262290000000000134e+01 1.713845000000000027e+02 1.898619999999999891e+03
1.150000000000000050e-01 1.331780000000000186e-01 4.180460000000000065e+01 1.710805000000000007e+02 1.898670000000000073e+03
1.160000000000000059e-01 1.331765000000000032e-01 4.092669999999999675e+01 1.706415000000000077e+02 1.898654999999999973e+03
1.170000000000000068e-01 1.331694999999999962e-01 4.000050000000000239e+01 1.700899999999999750e+02 1.898595000000000027e+03
1.180000000000000077e-01 1.331585000000000130e-01 3.903750000000000142e+01 1.694485000000000241e+02 1.898480000000000018e+03
1.190000000000000085e-01 1.331434999999999980e-01 3.804909999999999570e+01 1.687395000000000209e+02 1.898325000000000045e+03
1.200000000000000094e-01 1.331255000000000077e-01 3.704625000000000057e+01 1.679834999999999923e+02 1.898134999999999991e+03
1.209999999999999964e-01 1.331054999999999877e-01 3.603920000000000101e+01 1.671984999999999957e+02 1.897920000000000073e+03
1.219999999999999973e-01 1.330839999999999801e-01 3.503699999999999903e+01 1.664019999999999868e+02 1.897690000000000055e+03
1.229999999999999982e-01 1.330604999999999982e-01 3.404760000000000275e+01 1.656064999999999827e+02 1.897445000000000164e+03
1.239999999999999991e-01 1.330370000000000164e-01 3.307750000000000057e+01 1.648229999999999791e+02 1.897190000000000055e+03
1.250000000000000000e-01 1.330125000000000057e-01 3.213179999999999836e+01 1.640575000000000045e+02 1.896934999999999945e+03
1.260000000000000009e-01 1.329885000000000095e-01 3.121379999999999910e+01 1.633145000000000095e+02 1.896670000000000073e+03
1.270000000000000018e-01 1.329649999999999999e-01 3.032545000000000357e+01 1.625939999999999941e+02 1.896414999999999964e+03
1.280000000000000027e-01 1.329409999999999759e-01 2.946710000000000207e+01 1.618934999999999889e+02 1.896154999999999973e+03
1.290000000000000036e-01 1.329174999999999940e-01 2.863795000000000002e+01 1.612084999999999866e+02 1.895900000000000091e+03
1.300000000000000044e-01 1.328944999999999987e-01 2.783569999999999922e+01 1.605324999999999989e+02 1.895650000000000091e+03
1.310000000000000053e-01 1.328715000000000035e-01 2.705740000000000123e+01 1.598555000000000064e+02 1.895400000000000091e+03
1.320000000000000062e-01 1.328479999999999939e-01 2.629894999999999783e+01 1.591684999999999945e+02 1.895150000000000091e+03
1.330000000000000071e-01 1.328245000000000120e-01 2.555594999999999928e+01 1.584615000000000009e+02 1.894889999999999873e+03
1.340000000000000080e-01 1.327995000000000148e-01 2.482354999999999734e+01 1.577235000000000014e+02 1.894625000000000000e+03
1.350000000000000089e-01 1.327745000000000175e-01 2.409684999999999988e+01 1.569440000000000168e+02 1.894349999999999909e+03
1.360000000000000098e-01 1.327480000000000049e-01 2.337120000000000175e+01 1.561140000000000043e+02 1.894065000000000055e+03
1.370000000000000107e-01 1.327194999999999903e-01 2.264205000000000112e+01 1.552255000000000109e+02 1.893755000000000109e+03
1.380000000000000115e-01 1.326895000000000158e-01 2.190579999999999927e+01 1.542724999999999795e+02 1.893430000000000064e+03
1.390000000000000124e-01 1.326574999999999838e-01 2.115934999999999988e+01 1.532504999999999882e+02 1.893089999999999918e+03
1.400000000000000133e-01 1.326235000000000053e-01 2.040050000000000097e+01 1.521569999999999823e+02 1.892720000000000027e+03
1.410000000000000142e-01 1.325864999999999960e-01 1.962834999999999752e+01 1.509925000000000068e+02 1.892329999999999927e+03
1.420000000000000151e-01 1.325479999999999992e-01 1.884270000000000067e+01 1.497595000000000027e+02 1.891920000000000073e+03
1.430000000000000160e-01 1.325069999999999859e-01 1.804480000000000217e+01 1.484639999999999986e+02 1.891480000000000018e+03
1.440000000000000169e-01 1.324639999999999984e-01 1.723685000000000045e+01 1.471125000000000114e+02 1.891019999999999982e+03
1.450000000000000178e-01 1.324194999999999955e-01 1.642215000000000202e+01 1.457160000000000082e+02 1.890539999999999964e+03
1.459999999999999909e-01 1.323729999999999907e-01 1.560504999999999853e+01 1.442864999999999895e+02 1.890045000000000073e+03
1.469999999999999918e-01 1.323249999999999982e-01 1.479054999999999964e+01 1.428360000000000127e+02 1.889534999999999854e+03
1.479999999999999927e-01 1.322765000000000191e-01 1.398444999999999894e+01 1.413799999999999955e+02 1.889014999999999873e+03
1.489999999999999936e-01 1.322274999999999978e-01 1.319284999999999997e+01 1.399329999999999927e+02 1.888494999999999891e+03
1.499999999999999944e-01 1.321784999999999766e-01 1.242214500000000044e+01 1.385105000000000075e+02 1.887970000000000027e+03
1.509999999999999953e-01 1.321299999999999975e-01 1.167870999999999881e+01 1.371270000000000095e+02 1.887454999999999927e+03
1.519999999999999962e-01 1.320830000000000060e-01 1.096862499999999940e+01 1.357969999999999970e+02 1.886944999999999936e+03
1.529999999999999971e-01 1.320365000000000011e-01 1.029743500000000012e+01 1.345314999999999941e+02 1.886454999999999927e+03
1.539999999999999980e-01 1.319919999999999982e-01 9.670090000000000074e+00 1.333419999999999845e+02 1.885974999999999909e+03
1.549999999999999989e-01 1.319494999999999973e-01 9.090740000000000265e+00 1.322364999999999782e+02 1.885519999999999982e+03
1.559999999999999998e-01 1.319099999999999995e-01 8.562469999999999359e+00 1.312214999999999918e+02 1.885099999999999909e+03
1.570000000000000007e-01 1.318729999999999902e-01 8.087355000000000516e+00 1.303004999999999995e+02 1.884699999999999818e+03
1.580000000000000016e-01 1.318390000000000117e-01 7.666354999999999364e+00 1.294739999999999895e+02 1.884329999999999927e+03
1.590000000000000024e-01 1.318075000000000219e-01 7.299364999999999881e+00 1.287410000000000139e+02 1.883994999999999891e+03
