# t [s], A [cm^2], U [cm/s], P [cPa], c [cm/s]
1.000000000000000021e-03 2.128585000000000060e-01 3.547170000000000045e-01 9.677909999999999968e+01 1.978549999999999955e+03
2.000000000000000042e-03 2.127999999999999892e-01 1.962880500000000250e+00 9.345574999999999477e+01 1.978150000000000091e+03
3.000000000000000062e-03 2.126349999999999907e-01 3.921030500000000085e+00 8.893299999999999272e+01 1.977075000000000045e+03
4.000000000000000083e-03 2.124085000000000001e-01 6.104668000000000205e+00 8.406854999999998768e+01 1.975610000000000127e+03
5.000000000000000104e-03 2.121640000000000192e-01 8.439294999999999547e+00 7.975800000000000978e+01 1.974045000000000073e+03
6.000000000000000125e-03 2.119284999999999919e-01 1.074194999999999922e+01 7.627475000000001160e+01 1.972554999999999836e+03
7.000000000000000146e-03 2.117080000000000073e-01 1.279424000000000028e+01 7.335660000000000025e+01 1.971184999999999945e+03
8.000000000000000167e-03 2.115064999999999862e-01 1.451126999999999967e+01 7.075634999999999764e+01 1.969954999999999927e+03
9.000000000000001055e-03 2.113300000000000178e-01 1.593264999999999887e+01 6.851345000000000596e+01 1.968889999999999873e+03
1.000000000000000194e-02 2.111810000000000076e-01 1.709734999999999872e+01 6.670295000000000130e+01 1.968005000000000109e+03
1.099999999999999936e-02 2.110595000000000110e-01 1.802250000000000085e+01 6.529900000000000659e+01 1.967289999999999964e+03
1.200000000000000025e-02 2.109630000000000116e-01 1.872644999999999982e+01 6.424210000000000775e+01 1.966730000000000018e+03
1.300000000000000114e-02 2.108889999999999931e-01 1.922080000000000055e+01 6.345074999999999932e+01 1.966309999999999945e+03
1.400000000000000203e-02 2.108304999999999763e-01 1.951520000000000010e+01 6.281730000000000302e+01 1.965985000000000127e+03
1.499999999999999944e-02 2.107839999999999991e-01 1.965950000000000131e+01 6.230745000000000289e+01 1.965735000000000127e+03
1.600000000000000033e-02 2.107535000000000103e-01 1.976995000000000147e+01 6.207634999999999792e+01 1.965579999999999927e+03
1.700000000000000122e-02 2.107474999999999765e-01 1.999530000000000030e+01 6.243935000000000457e+01 1.965559999999999945e+03
1.800000000000000211e-02 2.107775000000000065e-01 2.044239999999999924e+01 6.368545000000000300e+01 1.965744999999999891e+03
1.900000000000000300e-02 2.108479999999999799e-01 2.111580000000000013e+01 6.586910000000000309e+01 1.966170000000000073e+03
2.000000000000000042e-02 2.109535000000000160e-01 2.190879999999999939e+01 6.872034999999999627e+01 1.966800000000000182e+03
2.100000000000000130e-02 2.110790000000000166e-01 2.264590000000000103e+01 7.171654999999999802e+01 1.967559999999999945e+03
2.200000000000000219e-02 2.112025000000000152e-01 2.314894999999999925e+01 7.426435000000000741e+01 1.968315000000000055e+03
2.299999999999999961e-02 2.113034999999999775e-01 2.329874999999999829e+01 7.590059999999999718e+01 1.968940000000000055e+03
2.400000000000000050e-02 2.113685000000000147e-01 2.306770000000000209e+01 7.643125000000000568e+01 1.969355000000000018e+03
2.500000000000000139e-02 2.113929999999999976e-01 2.251780000000000115e+01 7.596285000000000309e+01 1.969534999999999854e+03
2.600000000000000228e-02 2.113835000000000020e-01 2.176689999999999969e+01 7.482865000000001032e+01 1.969505000000000109e+03
2.700000000000000316e-02 2.113519999999999843e-01 2.094284999999999997e+01 7.344749999999999091e+01 1.969324999999999818e+03
2.800000000000000058e-02 2.113114999999999855e-01 2.014139999999999731e+01 7.217770000000000152e+01 1.969090000000000146e+03
2.900000000000000147e-02 2.112725000000000020e-01 1.940405000000000157e+01 7.121715000000000373e+01 1.968855000000000018e+03
3.000000000000000236e-02 2.112404999999999977e-01 1.871825000000000117e+01 7.057614999999999839e+01 1.968664999999999964e+03
3.099999999999999978e-02 2.112144999999999995e-01 1.803610000000000113e+01 7.011779999999998836e+01 1.968505000000000109e+03
3.200000000000000067e-02 2.111899999999999888e-01 1.730235000000000056e+01 6.964019999999999300e+01 1.968360000000000127e+03
3.300000000000000155e-02 2.111605000000000010e-01 1.648125000000000284e+01 6.896880000000000166e+01 1.968184999999999945e+03
3.400000000000000244e-02 2.111224999999999907e-01 1.557495000000000118e+01 6.802994999999999948e+01 1.967960000000000036e+03
3.500000000000000333e-02 2.110750000000000126e-01 1.462934999999999874e+01 6.688524999999999920e+01 1.967684999999999945e+03
3.600000000000000422e-02 2.110239999999999894e-01 1.372434999999999938e+01 6.572024999999999295e+01 1.967375000000000000e+03
3.700000000000000511e-02 2.109765000000000112e-01 1.295434999999999981e+01 6.479265000000000896e+01 1.967085000000000036e+03
3.799999999999999906e-02 2.109425000000000050e-01 1.240305000000000035e+01 6.435720000000000596e+01 1.966880000000000109e+03
3.899999999999999994e-02 2.109314999999999940e-01 1.212134999999999962e+01 6.459184999999999377e+01 1.966800000000000182e+03
4.000000000000000083e-02 2.109489999999999976e-01 1.211364999999999981e+01 6.554545000000000243e+01 1.966889999999999873e+03
4.100000000000000172e-02 2.109945000000000015e-01 1.233614999999999995e+01 6.712040000000000362e+01 1.967150000000000091e+03
4.200000000000000261e-02 2.110630000000000006e-01 1.270534999999999926e+01 6.909144999999999470e+01 1.967545000000000073e+03
4.300000000000000350e-02 2.111454999999999860e-01 1.311430000000000007e+01 7.115104999999999791e+01 1.968029999999999973e+03
4.400000000000000439e-02 2.112284999999999857e-01 1.345084999999999908e+01 7.296829999999999927e+01 1.968525000000000091e+03
4.499999999999999833e-02 2.112999999999999878e-01 1.361534999999999940e+01 7.424575000000000102e+01 1.968960000000000036e+03
4.599999999999999922e-02 2.113484999999999947e-01 1.353255000000000052e+01 7.476324999999999932e+01 1.969250000000000000e+03
4.700000000000000011e-02 2.113649999999999973e-01 1.315865000000000151e+01 7.440170000000000528e+01 1.969365000000000009e+03
4.800000000000000100e-02 2.113450000000000051e-01 1.248160000000000025e+01 7.314645000000000152e+01 1.969250000000000000e+03
4.900000000000000189e-02 2.112870000000000026e-01 1.151697000000000060e+01 7.107280000000000086e+01 1.968920000000000073e+03
5.000000000000000278e-02 2.111945000000000072e-01 1.030108500000000049e+01 6.832019999999999982e+01 1.968380000000000109e+03
5.100000000000000366e-02 2.110724999999999962e-01 8.883155000000000356e+00 6.506329999999999814e+01 1.967650000000000091e+03
5.200000000000000455e-02 2.109265000000000168e-01 7.318670000000000009e+00 6.148565000000000680e+01 1.966784999999999854e+03
5.300000000000000544e-02 2.107649999999999801e-01 5.664215000000000444e+00 5.776059999999999661e+01 1.965815000000000055e+03
5.399999999999999939e-02 2.105945000000000178e-01 3.975168350000000128e+00 5.404115000000000180e+01 1.964795000000000073e+03
5.500000000000000028e-02 2.104219999999999979e-01 2.304510000000000058e+00 5.045794999999999675e+01 1.963755000000000109e+03
5.600000000000000117e-02 2.102534999999999821e-01 7.031599999999997852e-01 4.712219999999999942e+01 1.962744999999999891e+03
5.700000000000000205e-02 2.100945000000000173e-01 -7.795249999999998014e-01 4.413145000000000095e+01 1.961779999999999973e+03
5.800000000000000294e-02 2.099495000000000111e-01 -2.095565499999999748e+00 4.157479999999999620e+01 1.960905000000000200e+03
5.900000000000000383e-02 2.098240000000000105e-01 -3.198898999999999937e+00 3.953575000000000017e+01 1.960139999999999873e+03
6.000000000000000472e-02 2.097224999999999784e-01 -4.046759999999999913e+00 3.809185000000000088e+01 1.959514999999999873e+03
6.099999999999999867e-02 2.096480000000000010e-01 -4.601784999999999570e+00 3.731170000000000186e+01 1.959050000000000182e+03
6.199999999999999956e-02 2.096044999999999991e-01 -4.834350000000000591e+00 3.724940000000000140e+01 1.958775000000000091e+03
6.300000000000000044e-02 2.095945000000000169e-01 -4.724949999999999761e+00 3.793874999999999886e+01 1.958690000000000055e+03
6.400000000000000133e-02 2.096195000000000142e-01 -4.265889999999999738e+00 3.938835000000000264e+01 1.958815000000000055e+03
6.500000000000000222e-02 2.096800000000000053e-01 -3.462220000000000297e+00 4.157820000000000249e+01 1.959160000000000082e+03
6.600000000000000311e-02 2.097755000000000036e-01 -2.331681999999999810e+00 4.445950000000000557e+01 1.959710000000000036e+03
6.700000000000000400e-02 2.099044999999999939e-01 -9.036099999999998023e-01 4.795704999999999529e+01 1.960460000000000036e+03
6.800000000000000488e-02 2.100619999999999987e-01 7.828600000000001113e-01 5.197400000000000375e+01 1.961390000000000100e+03
6.900000000000000577e-02 2.102450000000000152e-01 2.681195000000000217e+00 5.639825000000000443e+01 1.962474999999999909e+03
7.000000000000000666e-02 2.104489999999999972e-01 4.740056000000000047e+00 6.110969999999999658e+01 1.963684999999999945e+03
7.100000000000000755e-02 2.106669999999999932e-01 6.905969999999999942e+00 6.598720000000000141e+01 1.964994999999999891e+03
7.200000000000000844e-02 2.108960000000000001e-01 9.125840000000000174e+00 7.091479999999999961e+01 1.966365000000000009e+03
7.300000000000000933e-02 2.111290000000000111e-01 1.134914999999999985e+01 7.578749999999999432e+01 1.967764999999999873e+03
7.399999999999999634e-02 2.113615000000000077e-01 1.353004500000000121e+01 8.051545000000000130e+01 1.969180000000000064e+03
7.499999999999999722e-02 2.115900000000000003e-01 1.562914999999999921e+01 8.502729999999999677e+01 1.970565000000000055e+03
7.599999999999999811e-02 2.118099999999999983e-01 1.761459999999999937e+01 8.927230000000000132e+01 1.971905000000000200e+03
7.699999999999999900e-02 2.120194999999999996e-01 1.946320000000000050e+01 9.322159999999999513e+01 1.973190000000000055e+03
7.799999999999999989e-02 2.122180000000000177e-01 2.116075000000000017e+01 9.686705000000000609e+01 1.974404999999999973e+03
7.900000000000000078e-02 2.124030000000000085e-01 2.270195000000000007e+01 1.002222500000000025e+02 1.975545000000000073e+03
8.000000000000000167e-02 2.125759999999999872e-01 2.408975000000000222e+01 1.033169500000000056e+02 1.976615000000000009e+03
8.100000000000000255e-02 2.127379999999999827e-01 2.533419999999999916e+01 1.061949999999999932e+02 1.977619999999999891e+03
8.200000000000000344e-02 2.128904999999999825e-01 2.645094999999999885e+01 1.089099999999999966e+02 1.978565000000000055e+03
8.300000000000000433e-02 2.130354999999999888e-01 2.745915000000000106e+01 1.115190000000000055e+02 1.979469999999999800e+03
8.400000000000000522e-02 2.131759999999999766e-01 2.837995000000000090e+01 1.140775000000000006e+02 1.980340000000000146e+03
8.500000000000000611e-02 2.133134999999999892e-01 2.923420000000000130e+01 1.166380000000000052e+02 1.981195000000000164e+03
8.600000000000000699e-02 2.134510000000000018e-01 3.004090000000000060e+01 1.192420000000000044e+02 1.982049999999999955e+03
8.700000000000000788e-02 2.135894999999999877e-01 3.081589999999999918e+01 1.219170000000000016e+02 1.982909999999999854e+03
8.800000000000000877e-02 2.137310000000000043e-01 3.157054999999999723e+01 1.246804999999999950e+02 1.983784999999999854e+03
8.899999999999999578e-02 2.138749999999999818e-01 3.231145000000000067e+01 1.275320000000000107e+02 1.984679999999999836e+03
8.999999999999999667e-02 2.140230000000000188e-01 3.303995000000000459e+01 1.304584999999999866e+02 1.985595000000000027e+03
9.099999999999999756e-02 2.141734999999999889e-01 3.375240000000000151e+01 1.334339999999999975e+02 1.986525000000000091e+03
9.199999999999999845e-02 2.143249999999999877e-01 3.444084999999999752e+01 1.364219999999999970e+02 1.987465000000000146e+03
9.299999999999999933e-02 2.144774999999999876e-01 3.509355000000000047e+01 1.393799999999999955e+02 1.988414999999999964e+03
9.400000000000000022e-02 2.146274999999999988e-01 3.569615000000000293e+01 1.422579999999999814e+02 1.989340000000000146e+03
9.500000000000000111e-02 2.147739999999999927e-01 3.623234999999999673e+01 1.450074999999999932e+02 1.990250000000000000e+03
9.600000000000000200e-02 2.149139999999999939e-01 3.668565000000000254e+01 1.475785000000000196e+02 1.991119999999999891e+03
9.700000000000000289e-02 2.150455000000000005e-01 3.703965000000000174e+01 1.499270000000000209e+02 1.991940000000000055e+03
9.800000000000000377e-02 2.151664999999999828e-01 3.727949999999999875e+01 1.520124999999999886e+02 1.992699999999999818e+03
9.900000000000000466e-02 2.152749999999999941e-01 3.739260000000000161e+01 1.538045000000000186e+02 1.993380000000000109e+03
1.000000000000000056e-01 2.153700000000000059e-01 3.736919999999999931e+01 1.552780000000000200e+02 1.993974999999999909e+03
1.010000000000000064e-01 2.154499999999999749e-01 3.720300000000000296e+01 1.564214999999999804e+02 1.994485000000000127e+03
1.020000000000000073e-01 2.155139999999999834e-01 3.689154999999999518e+01 1.572295000000000016e+02 1.994889999999999873e+03
1.030000000000000082e-01 2.155624999999999902e-01 3.643639999999999901e+01 1.577085000000000150e+02 1.995200000000000045e+03
1.040000000000000091e-01 2.155949999999999811e-01 3.584300000000000352e+01 1.578725000000000023e+02 1.995414999999999964e+03
1.050000000000000100e-01 2.156129999999999991e-01 3.512075000000000102e+01 1.577454999999999927e+02 1.995535000000000082e+03
1.059999999999999970e-01 2.156160000000000021e-01 3.428220000000000312e+01 1.573575000000000159e+02 1.995565000000000055e+03
1.069999999999999979e-01 2.156064999999999787e-01 3.334300000000000352e+01 1.567445000000000164e+02 1.995519999999999982e+03
1.079999999999999988e-01 2.155854999999999855e-01 3.232090000000000174e+01 1.559465000000000146e+02 1.995400000000000091e+03
1.089999999999999997e-01 2.155555000000000110e-01 3.123519999999999897e+01 1.550054999999999836e+02 1.995219999999999800e+03
1.100000000000000006e-01 2.155179999999999874e-01 3.010604999999999976e+01 1.539660000000000082e+02 1.994994999999999891e+03
1.110000000000000014e-01 2.154745000000000132e-01 2.895340000000000202e+01 1.528675000000000068e+02 1.994730000000000018e+03
1.120000000000000023e-01 2.154270000000000074e-01 2.779659999999999798e+01 1.517504999999999882e+02 1.994444999999999936e+03
1.130000000000000032e-01 2.153780000000000139e-01 2.665354999999999919e+01 1.506494999999999891e+02 1.994139999999999873e+03
1.140000000000000041e-01 2.153289999999999926e-01 2.553989999999999938e+01 1.495930000000000177e+02 1.993835000000000036e+03
1.150000000000000050e-01 2.152804999999999858e-01 2.446904999999999930e+01 1.486055000000000064e+02 1.993539999999999964e+03
1.160000000000000059e-01 2.152344999999999953e-01 2.345125000000000171e+01 1.477030000000000030e+02 1.993255000000000109e+03
1.170000000000000068e-01 2.151919999999999944e-01 2.249364999999999881e+01 1.468949999999999818e+02 1.992990000000000009e+03
1.180000000000000077e-01 2.151529999999999831e-01 2.160030000000000072e+01 1.461839999999999975e+02 1.992740000000000009e+03
1.190000000000000085e-01 2.151175000000000170e-01 2.077169999999999916e+01 1.455654999999999859e+02 1.992519999999999982e+03
1.200000000000000094e-01 2.150859999999999994e-01 2.000544999999999973e+01 1.450280000000000200e+02 1.992315000000000055e+03
1.209999999999999964e-01 2.150575000000000125e-01 1.929639999999999844e+01 1.445559999999999832e+02 1.992134999999999991e+03
1.219999999999999973e-01 2.150325000000000153e-01 1.863690000000000069e+01 1.441285000000000025e+02 1.991970000000000027e+03
1.229999999999999982e-01 2.150084999999999913e-01 1.801754999999999995e+01 1.437219999999999800e+02 1.991815000000000055e+03
1.239999999999999991e-01 2.149854999999999960e-01 1.742739999999999867e+01 1.433100000000000023e+02 1.991670000000000073e+03
1.250000000000000000e-01 2.149619999999999864e-01 1.685490000000000066e+01 1.428664999999999736e+02 1.991525000000000091e+03
1.260000000000000009e-01 2.149375000000000036e-01 1.628859999999999886e+01 1.423670000000000186e+02 1.991369999999999891e+03
1.270000000000000018e-01 2.149099999999999899e-01 1.571715000000000018e+01 1.417864999999999895e+02 1.991195000000000164e+03
1.280000000000000027e-01 2.148795000000000011e-01 1.513080000000000069e+01 1.411069999999999993e+02 1.991005000000000109e+03
1.290000000000000036e-01 2.148440000000000072e-01 1.452110000000000056e+01 1.403135000000000048e+02 1.990784999999999854e+03
1.300000000000000044e-01 2.148034999999999806e-01 1.388190000000000168e+01 1.393954999999999984e+02 1.990529999999999973e+03
1.310000000000000053e-01 2.147569999999999757e-01 1.320945000000000036e+01 1.383505000000000109e+02 1.990244999999999891e+03
1.320000000000000062e-01 2.147049999999999792e-01 1.250254999999999939e+01 1.371804999999999950e+02 1.989925000000000182e+03
1.330000000000000071e-01 2.146474999999999911e-01 1.176288999999999874e+01 1.358954999999999984e+02 1.989569999999999936e+03
1.340000000000000080e-01 2.145845000000000113e-01 1.099476999999999904e+01 1.345105000000000075e+02 1.989180000000000064e+03
1.350000000000000089e-01 2.145170000000000132e-01 1.020485500000000023e+01 1.330459999999999923e+02 1.988769999999999982e+03
1.360000000000000098e-01 2.144455000000000111e-01 9.402055000000000717e+00 1.315260000000000105e+02 1.988324999999999818e+03
1.370000000000000107e-01 2.143714999999999926e-01 8.596999999999999531e+00 1.299805000000000064e+02 1.987869999999999891e+03
1.380000000000000115e-01 2.142959999999999865e-01 7.801310000000000855e+00 1.284375000000000000e+02 1.987404999999999973e+03
1.390000000000000124e-01 2.142205000000000081e-01 7.027375000000000149e+00 1.269279999999999973e+02 1.986940000000000055e+03
1.400000000000000133e-01 2.141465000000000174e-01 6.287525000000000475e+00 1.254814999999999969e+02 1.986480000000000018e+03
1.410000000000000142e-01 2.140750000000000153e-01 5.593519999999999825e+00 1.241244999999999976e+02 1.986045000000000073e+03
1.420000000000000151e-01 2.140075000000000172e-01 4.956030000000000157e+00 1.228814999999999884e+02 1.985619999999999891e+03
1.430000000000000160e-01 2.139449999999999963e-01 4.384165000000000312e+00 1.217715000000000032e+02 1.985235000000000127e+03
1.440000000000000169e-01 2.138885000000000092e-01 3.885095000000000187e+00 1.208085000000000093e+02 1.984884999999999991e+03
1.450000000000000178e-01 2.138390000000000013e-01 3.463804999999999801e+00 1.200024999999999977e+02 1.984569999999999936e+03
1.459999999999999909e-01 2.137959999999999861e-01 3.122944999999999638e+00 1.193549999999999898e+02 1.984304999999999836e+03
1.469999999999999918e-01 2.137609999999999788e-01 2.862789999999999946e+00 1.188659999999999997e+02 1.984075000000000045e+03
1.479999999999999927e-01 2.137324999999999919e-01 2.681325000000000180e+00 1.185264999999999986e+02 1.983900000000000091e+03
1.489999999999999936e-01 2.137114999999999987e-01 2.574404999999999610e+00 1.183255000000000052e+02 1.983764999999999873e+03
1.499999999999999944e-01 2.136974999999999847e-01 2.536045000000000105e+00 1.182479999999999905e+02 1.983670000000000073e+03
1.509999999999999953e-01 2.136890000000000178e-01 2.558685000000000098e+00 1.182760000000000105e+02 1.983610000000000127e+03
1.519999999999999962e-01 2.136855000000000004e-01 2.633614999999999817e+00 1.183894999999999982e+02 1.983585000000000036e+03
1.529999999999999971e-01 2.136870000000000158e-01 2.751290000000000013e+00 1.185670000000000073e+02 1.983585000000000036e+03
1.539999999999999980e-01 2.136910000000000198e-01 2.901745000000000019e+00 1.187874999999999943e+02 1.983605000000000018e+03
1.549999999999999989e-01 2.136979999999999991e-01 3.074969999999999981e+00 1.190310000000000059e+02 1.983644999999999982e+03
1.559999999999999998e-01 2.137060000000000071e-01 3.261219999999999786e+00 1.192779999999999916e+02 1.983695000000000164e+03
1.570000000000000007e-01 2.137155000000000027e-01 3.451319999999999943e+00 1.195120000000000005e+02 1.983744999999999891e+03
1.580000000000000016e-01 2.137240000000000251e-01 3.636934999999999807e+00 1.197175000000000011e+02 1.983795000000000073e+03
1.590000000000000024e-01 2.137319999999999776e-01 3.810735000000000205e+00 1.198824999999999932e+02 1.983845000000000027e+03
