# t [s], A [cm^2], U [cm/s], P [cPa], c [cm/s]
1.000000000000000021e-03 5.960489999999999400e-01 5.784350000000000602e-03 1.049609999999999985e+02 1.603434999999999945e+03
2.000000000000000042e-03 5.960379999999999567e-01 -3.513370000000000035e-03 1.049339999999999975e+02 1.603429999999999836e+03
3.000000000000000062e-03 5.960805000000000131e-01 7.238249999999998852e-02 1.050150000000000006e+02 1.603450000000000045e+03
4.000000000000000083e-03 5.961305000000000076e-01 1.706875000000000198e-01 1.051389999999999958e+02 1.603480000000000018e+03
5.000000000000000104e-03 5.961195000000000244e-01 1.692600000000000215e-01 1.051214999999999975e+02 1.603480000000000018e+03
6.000000000000000125e-03 5.960609999999999520e-01 8.058800000000002073e-02 1.049370000000000118e+02 1.603440000000000055e+03
7.000000000000000146e-03 5.960104999999999986e-01 -2.479999999999704663e-04 1.046975000000000051e+02 1.603384999999999991e+03
8.000000000000000167e-03 5.959459999999999757e-01 -1.159504999999999564e-01 1.043750000000000000e+02 1.603315000000000055e+03
9.000000000000001055e-03 5.958330000000000570e-01 -3.362600000000000033e-01 1.038745000000000118e+02 1.603200000000000045e+03
1.000000000000000194e-02 5.956685000000000452e-01 -6.683499999999999996e-01 1.031550000000000011e+02 1.603034999999999854e+03
1.099999999999999936e-02 5.954399999999999693e-01 -1.124435000000000073e+00 1.021667999999999950e+02 1.602809999999999945e+03
1.200000000000000025e-02 5.951310000000000766e-01 -1.722639999999999727e+00 1.008462499999999977e+02 1.602509999999999991e+03
1.300000000000000114e-02 5.947525000000000173e-01 -2.423694999999999933e+00 9.919785000000000252e+01 1.602115000000000009e+03
1.400000000000000203e-02 5.943514999999999215e-01 -3.111674999999999969e+00 9.733924999999999272e+01 1.601664999999999964e+03
1.499999999999999944e-02 5.939860000000000140e-01 -3.645022499999999610e+00 9.545690000000000452e+01 1.601190000000000055e+03
1.600000000000000033e-02 5.936909999999999688e-01 -3.922652999999999945e+00 9.371764999999999191e+01 1.600730000000000018e+03
1.700000000000000122e-02 5.934690000000000243e-01 -3.916701500000000280e+00 9.220589999999999975e+01 1.600304999999999836e+03
1.800000000000000211e-02 5.932944999999999469e-01 -3.666360500000000133e+00 9.091055000000000064e+01 1.599920000000000073e+03
1.900000000000000300e-02 5.931275000000000297e-01 -3.249592999999999954e+00 8.974859999999999616e+01 1.599559999999999945e+03
2.000000000000000042e-02 5.929335000000000022e-01 -2.749564499999999967e+00 8.860740000000001260e+01 1.599199999999999818e+03
2.100000000000000130e-02 5.926910000000000789e-01 -2.226967499999999767e+00 8.738845000000000596e+01 1.598825000000000045e+03
2.200000000000000219e-02 5.923985000000000500e-01 -1.705154999999999976e+00 8.603929999999999723e+01 1.598420000000000073e+03
2.299999999999999961e-02 5.920695000000000263e-01 -1.171429999999999971e+00 8.456440000000000623e+01 1.597985000000000127e+03
2.400000000000000050e-02 5.917274999999999618e-01 -5.925849999999999174e-01 8.301304999999999268e+01 1.597534999999999854e+03
2.500000000000000139e-02 5.913935000000000164e-01 6.299499999999991218e-02 8.145134999999999081e+01 1.597079999999999927e+03
2.600000000000000228e-02 5.910765000000000047e-01 8.061150000000001370e-01 7.993215000000000714e+01 1.596619999999999891e+03
2.700000000000000316e-02 5.907759999999999678e-01 1.616620000000000168e+00 7.847225000000000250e+01 1.596179999999999836e+03
2.800000000000000058e-02 5.904734999999999845e-01 2.443994999999999695e+00 7.704399999999999693e+01 1.595744999999999891e+03
2.900000000000000147e-02 5.901465000000000183e-01 3.216855000000000242e+00 7.558060000000000400e+01 1.595304999999999836e+03
3.000000000000000236e-02 5.897700000000000164e-01 3.858064999999999856e+00 7.399269999999999925e+01 1.594840000000000146e+03
3.099999999999999978e-02 5.893224999999999714e-01 4.301814999999999500e+00 7.219240000000000634e+01 1.594335000000000036e+03
3.200000000000000067e-02 5.887964999999999449e-01 4.508904999999999497e+00 7.011780000000000257e+01 1.593759999999999991e+03
3.300000000000000155e-02 5.881985000000000685e-01 4.475369999999999848e+00 6.775300000000000011e+01 1.593130000000000109e+03
3.400000000000000244e-02 5.875479999999999592e-01 4.233259999999999579e+00 6.513609999999999900e+01 1.592434999999999945e+03
3.500000000000000333e-02 5.868750000000000355e-01 3.842090000000000227e+00 6.235474999999999568e+01 1.591704999999999927e+03
3.600000000000000422e-02 5.862134999999999430e-01 3.375690000000000079e+00 5.953070000000000306e+01 1.590954999999999927e+03
3.700000000000000511e-02 5.855964999999999643e-01 2.908355000000000246e+00 5.679949999999999477e+01 1.590220000000000027e+03
3.799999999999999906e-02 5.850495000000000001e-01 2.503629999999999800e+00 5.429054999999999609e+01 1.589529999999999973e+03
3.899999999999999994e-02 5.845914999999999306e-01 2.208409999999999762e+00 5.211275000000000546e+01 1.588914999999999964e+03
4.000000000000000083e-02 5.842324999999999324e-01 2.051639999999999464e+00 5.034564999999999912e+01 1.588394999999999982e+03
4.100000000000000172e-02 5.839769999999999683e-01 2.046524999999999928e+00 4.903744999999999976e+01 1.587985000000000127e+03
4.200000000000000261e-02 5.838225000000000220e-01 2.195320999999999856e+00 4.820860000000000412e+01 1.587694999999999936e+03
4.300000000000000350e-02 5.837669999999999249e-01 2.494680000000000231e+00 4.785814999999999486e+01 1.587534999999999854e+03
4.400000000000000439e-02 5.838050000000000184e-01 2.940459999999999852e+00 4.797180000000000177e+01 1.587490000000000009e+03
4.499999999999999833e-02 5.839324999999999655e-01 3.530899999999999928e+00 4.852949999999999875e+01 1.587575000000000045e+03
4.599999999999999922e-02 5.841469999999999718e-01 4.267669999999999852e+00 4.951064999999999827e+01 1.587775000000000091e+03
4.700000000000000011e-02 5.844469999999999388e-01 5.154795000000000016e+00 5.089639999999999986e+01 1.588079999999999927e+03
4.800000000000000100e-02 5.848305000000000309e-01 6.196170000000000400e+00 5.266894999999999527e+01 1.588500000000000000e+03
4.900000000000000189e-02 5.852930000000000632e-01 7.392414999999999736e+00 5.480915000000000248e+01 1.589019999999999982e+03
5.000000000000000278e-02 5.858305000000000318e-01 8.738599999999999923e+00 5.729330000000000211e+01 1.589634999999999991e+03
5.100000000000000366e-02 5.864350000000000396e-01 1.022239500000000056e+01 6.009059999999999491e+01 1.590340000000000146e+03
5.200000000000000455e-02 5.870960000000000623e-01 1.182426500000000047e+01 6.316174999999999784e+01 1.591125000000000000e+03
5.300000000000000544e-02 5.878025000000000055e-01 1.351844999999999963e+01 6.645940000000000225e+01 1.591974999999999909e+03
5.399999999999999939e-02 5.885405000000000220e-01 1.527522499999999894e+01 6.993035000000000423e+01 1.592884999999999991e+03
5.500000000000000028e-02 5.892985000000000584e-01 1.706318999999999875e+01 7.351845000000000141e+01 1.593829999999999927e+03
5.600000000000000117e-02 5.900644999999999918e-01 1.885215000000000174e+01 7.716840000000000543e+01 1.594815000000000055e+03
5.700000000000000205e-02 5.908264999999999212e-01 2.061489999999999867e+01 8.082945000000000846e+01 1.595804999999999836e+03
5.800000000000000294e-02 5.915790000000000770e-01 2.232900000000000063e+01 8.445839999999999748e+01 1.596795000000000073e+03
5.900000000000000383e-02 5.923150000000000359e-01 2.397755000000000081e+01 8.802134999999999820e+01 1.597784999999999854e+03
6.000000000000000472e-02 5.930315000000000447e-01 2.554915000000000092e+01 9.149519999999999698e+01 1.598755000000000109e+03
6.099999999999999867e-02 5.937284999999999924e-01 2.703744999999999976e+01 9.486775000000000091e+01 1.599710000000000036e+03
6.199999999999999956e-02 5.944045000000000023e-01 2.844065000000000154e+01 9.813454999999999018e+01 1.600634999999999991e+03
6.300000000000000044e-02 5.950640000000000374e-01 2.976004999999999967e+01 1.013005500000000012e+02 1.601539999999999964e+03
6.400000000000000133e-02 5.957080000000000153e-01 3.099950000000000117e+01 1.043764999999999930e+02 1.602424999999999955e+03
6.500000000000000222e-02 5.963404999999999401e-01 3.216445000000000221e+01 1.073760000000000048e+02 1.603289999999999964e+03
6.600000000000000311e-02 5.969645000000000090e-01 3.326084999999999781e+01 1.103160000000000025e+02 1.604144999999999982e+03
6.700000000000000400e-02 5.975835000000000452e-01 3.429480000000000217e+01 1.132115000000000009e+02 1.604980000000000018e+03
6.800000000000000488e-02 5.982000000000000650e-01 3.527159999999999940e+01 1.160780000000000030e+02 1.605809999999999945e+03
6.900000000000000577e-02 5.988149999999999862e-01 3.619534999999999769e+01 1.189259999999999877e+02 1.606630000000000109e+03
7.000000000000000666e-02 5.994304999999999772e-01 3.706860000000000355e+01 1.217620000000000005e+02 1.607450000000000045e+03
7.100000000000000755e-02 6.000444999999999807e-01 3.789175000000000182e+01 1.245880000000000081e+02 1.608264999999999873e+03
7.200000000000000844e-02 6.006555000000000089e-01 3.866339999999999577e+01 1.273990000000000009e+02 1.609079999999999927e+03
7.300000000000000933e-02 6.012614999999998933e-01 3.937995000000000090e+01 1.301854999999999905e+02 1.609880000000000109e+03
7.399999999999999634e-02 6.018585000000000740e-01 4.003640000000000043e+01 1.329339999999999975e+02 1.610680000000000064e+03
7.499999999999999722e-02 6.024415000000000742e-01 4.062640000000000384e+01 1.356254999999999882e+02 1.611460000000000036e+03
7.599999999999999811e-02 6.030070000000000707e-01 4.114320000000000022e+01 1.382394999999999925e+02 1.612224999999999909e+03
7.699999999999999900e-02 6.035494999999999610e-01 4.157989999999999498e+01 1.407540000000000191e+02 1.612960000000000036e+03
7.799999999999999989e-02 6.040645000000000042e-01 4.193009999999999593e+01 1.431474999999999795e+02 1.613670000000000073e+03
7.900000000000000078e-02 6.045480000000000853e-01 4.218850000000000477e+01 1.453994999999999891e+02 1.614339999999999918e+03
8.000000000000000167e-02 6.049974999999999659e-01 4.235099999999999909e+01 1.474929999999999950e+02 1.614970000000000027e+03
8.100000000000000255e-02 6.054094999999999338e-01 4.241495000000000459e+01 1.494139999999999873e+02 1.615554999999999836e+03
8.200000000000000344e-02 6.057825000000000015e-01 4.237935000000000230e+01 1.511514999999999986e+02 1.616085000000000036e+03
8.300000000000000433e-02 6.061149999999999594e-01 4.224474999999999625e+01 1.526984999999999957e+02 1.616569999999999936e+03
8.400000000000000522e-02 6.064074999999999882e-01 4.201350000000000051e+01 1.540525000000000091e+02 1.617000000000000000e+03
8.500000000000000611e-02 6.066595000000000182e-01 4.168930000000000291e+01 1.552154999999999916e+02 1.617380000000000109e+03
8.600000000000000699e-02 6.068735000000000657e-01 4.127759999999999962e+01 1.561920000000000073e+02 1.617700000000000045e+03
8.700000000000000788e-02 6.070499999999999785e-01 4.078509999999999991e+01 1.569909999999999854e+02 1.617980000000000018e+03
8.800000000000000877e-02 6.071934999999999416e-01 4.021985000000000099e+01 1.576240000000000236e+02 1.618204999999999927e+03
8.899999999999999578e-02 6.073055000000000536e-01 3.959125000000000227e+01 1.581050000000000182e+02 1.618380000000000109e+03
8.999999999999999667e-02 6.073904999999999443e-01 3.890930000000000177e+01 1.584509999999999934e+02 1.618519999999999982e+03
9.099999999999999756e-02 6.074519999999999920e-01 3.818489999999999895e+01 1.586794999999999902e+02 1.618630000000000109e+03
9.199999999999999845e-02 6.074935000000000196e-01 3.742920000000000158e+01 1.588100000000000023e+02 1.618700000000000045e+03
9.299999999999999933e-02 6.075199999999999489e-01 3.665339999999999776e+01 1.588609999999999900e+02 1.618744999999999891e+03
9.400000000000000022e-02 6.075344999999999773e-01 3.586814999999999998e+01 1.588525000000000205e+02 1.618769999999999982e+03
9.500000000000000111e-02 6.075414999999999566e-01 3.508324999999999960e+01 1.588015000000000043e+02 1.618779999999999973e+03
9.600000000000000200e-02 6.075424999999999853e-01 3.430734999999999957e+01 1.587245000000000061e+02 1.618769999999999982e+03
9.700000000000000289e-02 6.075414999999999566e-01 3.354749999999999943e+01 1.586345000000000027e+02 1.618759999999999991e+03
9.800000000000000377e-02 6.075399999999999689e-01 3.280894999999999584e+01 1.585425000000000182e+02 1.618750000000000000e+03
9.900000000000000466e-02 6.075384999999999813e-01 3.209505000000000052e+01 1.584540000000000077e+02 1.618730000000000018e+03
1.000000000000000056e-01 6.075379999999999114e-01 3.140725000000000122e+01 1.583745000000000118e+02 1.618710000000000036e+03
1.010000000000000064e-01 6.075375000000000636e-01 3.074504999999999910e+01 1.583029999999999973e+02 1.618690000000000055e+03
1.020000000000000073e-01 6.075365000000000348e-01 3.010625000000000284e+01 1.582359999999999900e+02 1.618670000000000073e+03
1.030000000000000082e-01 6.075334999999999486e-01 2.948740000000000094e+01 1.581694999999999993e+02 1.618650000000000091e+03
1.040000000000000091e-01 6.075265000000000803e-01 2.888374999999999915e+01 1.580944999999999823e+02 1.618630000000000109e+03
1.050000000000000100e-01 6.075135000000000396e-01 2.829005000000000081e+01 1.580020000000000095e+02 1.618599999999999909e+03
1.059999999999999970e-01 6.074924999999999908e-01 2.770035000000000025e+01 1.578820000000000050e+02 1.618565000000000055e+03
1.069999999999999979e-01 6.074615000000000986e-01 2.710895000000000010e+01 1.577245000000000061e+02 1.618525000000000091e+03
1.079999999999999988e-01 6.074185000000000834e-01 2.651010000000000133e+01 1.575199999999999818e+02 1.618470000000000027e+03
1.089999999999999997e-01 6.073619999999999575e-01 2.589890000000000114e+01 1.572595000000000027e+02 1.618400000000000091e+03
1.100000000000000006e-01 6.072899999999999965e-01 2.527100000000000080e+01 1.569360000000000070e+02 1.618315000000000055e+03
1.110000000000000014e-01 6.072035000000000071e-01 2.462324999999999875e+01 1.565444999999999993e+02 1.618210000000000036e+03
1.120000000000000023e-01 6.071005000000000429e-01 2.395384999999999920e+01 1.560835000000000150e+02 1.618089999999999918e+03
1.130000000000000032e-01 6.069824999999999804e-01 2.326205000000000211e+01 1.555515000000000043e+02 1.617950000000000045e+03
1.140000000000000041e-01 6.068495000000000417e-01 2.254879999999999995e+01 1.549515000000000100e+02 1.617789999999999964e+03
1.150000000000000050e-01 6.067044999999999799e-01 2.181634999999999991e+01 1.542894999999999754e+02 1.617615000000000009e+03
1.160000000000000059e-01 6.065475000000000172e-01 2.106840000000000046e+01 1.535729999999999791e+02 1.617420000000000073e+03
1.170000000000000068e-01 6.063830000000000053e-01 2.030979999999999919e+01 1.528125000000000000e+02 1.617215000000000146e+03
1.180000000000000077e-01 6.062119999999999731e-01 1.954670000000000130e+01 1.520199999999999818e+02 1.617000000000000000e+03
1.190000000000000085e-01 6.060385000000000355e-01 1.878589999999999804e+01 1.512094999999999914e+02 1.616784999999999854e+03
1.200000000000000094e-01 6.058660000000000156e-01 1.803490000000000038e+01 1.503960000000000150e+02 1.616559999999999945e+03
1.209999999999999964e-01 6.056980000000000697e-01 1.730144999999999911e+01 1.495944999999999823e+02 1.616335000000000036e+03
1.219999999999999973e-01 6.055369999999999919e-01 1.659319999999999951e+01 1.488204999999999814e+02 1.616115000000000009e+03
1.229999999999999982e-01 6.053859999999999797e-01 1.591760000000000019e+01 1.480875000000000057e+02 1.615909999999999854e+03
1.239999999999999991e-01 6.052474999999999383e-01 1.528134999999999977e+01 1.474094999999999800e+02 1.615710000000000036e+03
1.250000000000000000e-01 6.051244999999999541e-01 1.469024999999999892e+01 1.467969999999999970e+02 1.615529999999999973e+03
1.260000000000000009e-01 6.050180000000000557e-01 1.414900000000000091e+01 1.462605000000000075e+02 1.615365000000000009e+03
1.270000000000000018e-01 6.049295000000000089e-01 1.366109999999999935e+01 1.458040000000000020e+02 1.615224999999999909e+03
1.280000000000000027e-01 6.048590000000000355e-01 1.322850000000000037e+01 1.454339999999999975e+02 1.615105000000000018e+03
1.290000000000000036e-01 6.048074999999999424e-01 1.285174999999999912e+01 1.451494999999999891e+02 1.615005000000000109e+03
1.300000000000000044e-01 6.047730000000000050e-01 1.253012000000000015e+01 1.449499999999999886e+02 1.614934999999999945e+03
1.310000000000000053e-01 6.047544999999999726e-01 1.226144999999999996e+01 1.448299999999999841e+02 1.614880000000000109e+03
1.320000000000000062e-01 6.047510000000000385e-01 1.204255000000000031e+01 1.447845000000000084e+02 1.614849999999999909e+03
1.330000000000000071e-01 6.047605000000000341e-01 1.186919999999999931e+01 1.448045000000000186e+02 1.614835000000000036e+03
1.340000000000000080e-01 6.047804999999999431e-01 1.173655000000000115e+01 1.448804999999999836e+02 1.614839999999999918e+03
1.350000000000000089e-01 6.048094999999999999e-01 1.163915000000000077e+01 1.450024999999999977e+02 1.614860000000000127e+03
1.360000000000000098e-01 6.048439999999999372e-01 1.157145000000000046e+01 1.451599999999999966e+02 1.614884999999999991e+03
1.370000000000000107e-01 6.048835000000000184e-01 1.152779999999999916e+01 1.453419999999999845e+02 1.614925000000000182e+03
1.380000000000000115e-01 6.049245000000000871e-01 1.150295000000000023e+01 1.455395000000000039e+02 1.614965000000000146e+03
1.390000000000000124e-01 6.049664999999999626e-01 1.149164999999999992e+01 1.457434999999999832e+02 1.615019999999999982e+03
1.400000000000000133e-01 6.050079999999999902e-01 1.148955000000000126e+01 1.459455000000000098e+02 1.615065000000000055e+03
1.410000000000000142e-01 6.050465000000000426e-01 1.149269999999999925e+01 1.461410000000000196e+02 1.615115000000000009e+03
1.420000000000000151e-01 6.050824999999999676e-01 1.149760000000000026e+01 1.463230000000000075e+02 1.615159999999999854e+03
1.430000000000000160e-01 6.051144999999999996e-01 1.150175000000000125e+01 1.464904999999999973e+02 1.615204999999999927e+03
1.440000000000000169e-01 6.051435000000000564e-01 1.150309999999999988e+01 1.466399999999999864e+02 1.615250000000000000e+03
1.450000000000000178e-01 6.051679999999999282e-01 1.150015000000000143e+01 1.467715000000000032e+02 1.615284999999999854e+03
1.459999999999999909e-01 6.051900000000000057e-01 1.149201000000000050e+01 1.468849999999999909e+02 1.615315000000000055e+03
1.469999999999999918e-01 6.052079999999999682e-01 1.147833999999999932e+01 1.469819999999999993e+02 1.615344999999999800e+03
1.479999999999999927e-01 6.052239999999999842e-01 1.145915500000000087e+01 1.470645000000000095e+02 1.615375000000000000e+03
1.489999999999999936e-01 6.052370000000000250e-01 1.143485000000000085e+01 1.471345000000000027e+02 1.615389999999999873e+03
1.499999999999999944e-01 6.052489999999999259e-01 1.140609999999999857e+01 1.471949999999999932e+02 1.615409999999999854e+03
1.509999999999999953e-01 6.052600000000000202e-01 1.137370500000000106e+01 1.472489999999999952e+02 1.615424999999999955e+03
1.519999999999999962e-01 6.052705000000000446e-01 1.133877500000000005e+01 1.472989999999999782e+02 1.615444999999999936e+03
1.529999999999999971e-01 6.052809999999999580e-01 1.130237499999999962e+01 1.473480000000000132e+02 1.615460000000000036e+03
1.539999999999999980e-01 6.052925000000000111e-01 1.126557000000000031e+01 1.473990000000000009e+02 1.615474999999999909e+03
1.549999999999999989e-01 6.053049999999999820e-01 1.122930999999999990e+01 1.474524999999999864e+02 1.615494999999999891e+03
1.559999999999999998e-01 6.053189999999999404e-01 1.119456999999999880e+01 1.475120000000000005e+02 1.615514999999999873e+03
1.570000000000000007e-01 6.053340000000000387e-01 1.116199500000000100e+01 1.475765000000000100e+02 1.615530000000000200e+03
1.580000000000000016e-01 6.053509999999999724e-01 1.113215999999999894e+01 1.476480000000000246e+02 1.615550000000000182e+03
1.590000000000000024e-01 6.053690000000000460e-01 1.110530499999999954e+01 1.477264999999999873e+02 1.615575000000000045e+03
