# t [s], A [cm^2], U [cm/s], P [cPa], c [cm/s]
1.000000000000000021e-03 4.723784999999999790e-01 5.273849999999996596e-03 1.011945000000000050e+02 1.595579999999999927e+03
2.000000000000000042e-03 4.723705000000000265e-01 -2.025625000000000082e-03 1.011670000000000016e+02 1.595570000000000164e+03
3.000000000000000062e-03 4.724110000000000253e-01 9.211859999999999493e-02 1.012655000000000030e+02 1.595599999999999909e+03
4.000000000000000083e-03 4.724485000000000490e-01 1.897982500000000017e-01 1.013849999999999909e+02 1.595634999999999991e+03
5.000000000000000104e-03 4.724294999999999467e-01 1.667702500000000088e-01 1.013319999999999936e+02 1.595625000000000000e+03
6.000000000000000125e-03 4.723785000000000345e-01 6.322899999999997966e-02 1.011099999999999994e+02 1.595569999999999936e+03
7.000000000000000146e-03 4.723320000000000296e-01 -3.476400000000001711e-02 1.008245000000000005e+02 1.595494999999999891e+03
8.000000000000000167e-03 4.722640000000000171e-01 -1.975999999999999979e-01 1.004122999999999877e+02 1.595389999999999873e+03
9.000000000000001055e-03 4.721494999999999997e-01 -4.834300000000000264e-01 9.977960000000000207e+01 1.595230000000000018e+03
1.000000000000000194e-02 4.719889999999999919e-01 -8.888399999999999634e-01 9.889234999999999332e+01 1.595000000000000000e+03
1.099999999999999936e-02 4.717695000000000083e-01 -1.430984999999999951e+00 9.769145000000000323e+01 1.594684999999999945e+03
1.200000000000000025e-02 4.714785000000000226e-01 -2.123520000000000074e+00 9.611594999999999800e+01 1.594264999999999873e+03
1.300000000000000114e-02 4.711334999999999829e-01 -2.901810000000000223e+00 9.420150000000001000e+01 1.593750000000000000e+03
1.400000000000000203e-02 4.707839999999999803e-01 -3.617924999999999613e+00 9.211634999999999707e+01 1.593159999999999854e+03
1.499999999999999944e-02 4.704809999999999826e-01 -4.112292999999999310e+00 9.008950000000000102e+01 1.592570000000000164e+03
1.600000000000000033e-02 4.702520000000000033e-01 -4.288244500000000237e+00 8.830395000000000039e+01 1.592014999999999873e+03
1.700000000000000122e-02 4.700914999999999955e-01 -4.140308000000000099e+00 8.683170000000001210e+01 1.591519999999999982e+03
1.800000000000000211e-02 4.699689999999999701e-01 -3.738480000000000025e+00 8.562805000000000177e+01 1.591090000000000146e+03
1.900000000000000300e-02 4.698455000000000270e-01 -3.189868999999999843e+00 8.456790000000000873e+01 1.590690000000000055e+03
2.000000000000000042e-02 4.696889999999999676e-01 -2.596686624999999804e+00 8.350235000000000696e+01 1.590295000000000073e+03
2.100000000000000130e-02 4.694840000000000124e-01 -2.023523999999999656e+00 8.231405000000000882e+01 1.589875000000000000e+03
2.200000000000000219e-02 4.692324999999999968e-01 -1.483319999999999972e+00 8.095374999999999943e+01 1.589410000000000082e+03
2.299999999999999961e-02 4.689530000000000087e-01 -9.456649999999997558e-01 7.944610000000000127e+01 1.588914999999999964e+03
2.400000000000000050e-02 4.686690000000000023e-01 -3.618749999999999467e-01 7.786539999999999395e+01 1.588389999999999873e+03
2.500000000000000139e-02 4.683984999999999399e-01 3.058700000000000863e-01 7.629574999999999818e+01 1.587865000000000009e+03
2.600000000000000228e-02 4.681485000000000229e-01 1.063224999999999865e+00 7.479349999999999454e+01 1.587355000000000018e+03
2.700000000000000316e-02 4.679110000000000213e-01 1.875985000000000014e+00 7.336424999999999841e+01 1.586855000000000018e+03
2.800000000000000058e-02 4.676684999999999870e-01 2.675670000000000215e+00 7.195834999999999582e+01 1.586369999999999891e+03
2.900000000000000147e-02 4.673954999999999638e-01 3.374799999999999578e+00 7.048349999999999227e+01 1.585860000000000127e+03
3.000000000000000236e-02 4.670710000000000139e-01 3.887440000000000229e+00 6.882970000000000255e+01 1.585315000000000055e+03
3.099999999999999978e-02 4.666784999999999961e-01 4.150199999999999889e+00 6.690120000000000289e+01 1.584710000000000036e+03
3.200000000000000067e-02 4.662169999999999925e-01 4.138390000000000235e+00 6.464624999999999488e+01 1.584019999999999982e+03
3.300000000000000155e-02 4.656980000000000564e-01 3.872750000000000359e+00 6.207679999999999865e+01 1.583255000000000109e+03
3.400000000000000244e-02 4.651465000000000183e-01 3.414870000000000072e+00 5.927250000000000085e+01 1.582420000000000073e+03
3.500000000000000333e-02 4.645939999999999515e-01 2.852789999999999715e+00 5.636755000000000138e+01 1.581549999999999955e+03
3.600000000000000422e-02 4.640750000000000153e-01 2.283790000000000209e+00 5.352774999999999750e+01 1.580690000000000055e+03
3.700000000000000511e-02 4.636184999999999889e-01 1.797719999999999985e+00 5.092450000000000188e+01 1.579880000000000109e+03
3.799999999999999906e-02 4.632475000000000342e-01 1.466229999999999922e+00 4.871170000000000044e+01 1.579170000000000073e+03
3.899999999999999994e-02 4.629775000000000418e-01 1.337999999999999634e+00 4.701050000000000040e+01 1.578590000000000146e+03
4.000000000000000083e-02 4.628154999999999908e-01 1.439110000000000111e+00 4.590200000000000102e+01 1.578174999999999955e+03
4.100000000000000172e-02 4.627625000000000210e-01 1.777524249999999917e+00 4.542764999999999986e+01 1.577930000000000064e+03
4.200000000000000261e-02 4.628160000000000052e-01 2.349450000000000038e+00 4.559499999999999886e+01 1.577880000000000109e+03
4.300000000000000350e-02 4.629705000000000070e-01 3.145814999999999806e+00 4.638764999999999361e+01 1.578009999999999991e+03
4.400000000000000439e-02 4.632209999999999939e-01 4.157406499999999561e+00 4.777519999999999811e+01 1.578329999999999927e+03
4.499999999999999833e-02 4.635620000000000296e-01 5.377444500000000183e+00 4.972175000000000011e+01 1.578825000000000045e+03
4.599999999999999922e-02 4.639894999999999992e-01 6.801556500000000227e+00 5.219085000000000463e+01 1.579490000000000009e+03
4.700000000000000011e-02 4.644985000000000364e-01 8.425451999999999941e+00 5.514659999999999940e+01 1.580304999999999836e+03
4.800000000000000100e-02 4.650834999999999830e-01 1.024157000000000117e+01 5.855185000000000173e+01 1.581264999999999873e+03
4.900000000000000189e-02 4.657384999999999997e-01 1.223611999999999966e+01 6.236509999999999820e+01 1.582365000000000009e+03
5.000000000000000278e-02 4.664534999999999654e-01 1.438721500000000120e+01 6.653740000000000521e+01 1.583579999999999927e+03
5.100000000000000366e-02 4.672169999999999934e-01 1.666469499999999826e+01 7.101075000000000159e+01 1.584905000000000200e+03
5.200000000000000455e-02 4.680185000000000040e-01 1.903161500000000217e+01 7.571914999999999907e+01 1.586309999999999945e+03
5.300000000000000544e-02 4.688430000000000097e-01 2.144689999999999941e+01 8.059049999999999159e+01 1.587784999999999854e+03
5.399999999999999939e-02 4.696770000000000111e-01 2.386830000000000140e+01 8.555129999999999768e+01 1.589295000000000073e+03
5.500000000000000028e-02 4.705099999999999838e-01 2.625590000000000046e+01 9.053040000000000020e+01 1.590840000000000146e+03
5.600000000000000117e-02 4.713310000000000000e-01 2.857444999999999879e+01 9.546309999999999718e+01 1.592384999999999991e+03
5.700000000000000205e-02 4.721324999999999550e-01 3.079520000000000124e+01 1.002973000000000070e+02 1.593914999999999964e+03
5.800000000000000294e-02 4.729090000000000238e-01 3.289674999999999727e+01 1.049912500000000080e+02 1.595420000000000073e+03
5.900000000000000383e-02 4.736574999999999536e-01 3.486495000000000033e+01 1.095187999999999988e+02 1.596880000000000109e+03
6.000000000000000472e-02 4.743779999999999664e-01 3.669239999999999924e+01 1.138663999999999987e+02 1.598304999999999836e+03
6.099999999999999867e-02 4.750699999999999923e-01 3.837720000000000198e+01 1.180314999999999941e+02 1.599680000000000064e+03
6.199999999999999956e-02 4.757369999999999655e-01 3.992225000000000534e+01 1.220235000000000127e+02 1.601009999999999991e+03
6.300000000000000044e-02 4.763815000000000133e-01 4.133365000000000578e+01 1.258559999999999945e+02 1.602289999999999964e+03
6.400000000000000133e-02 4.770070000000000143e-01 4.262000000000000455e+01 1.295509999999999877e+02 1.603529999999999973e+03
6.500000000000000222e-02 4.776174999999999726e-01 4.379129999999999967e+01 1.331314999999999884e+02 1.604730000000000018e+03
6.600000000000000311e-02 4.782155000000000156e-01 4.485840000000000316e+01 1.366200000000000045e+02 1.605909999999999854e+03
6.700000000000000400e-02 4.788060000000000094e-01 4.583169999999999789e+01 1.400394999999999754e+02 1.607059999999999945e+03
6.800000000000000488e-02 4.793905000000000527e-01 4.672070000000000078e+01 1.434064999999999941e+02 1.608195000000000164e+03
6.900000000000000577e-02 4.799710000000000365e-01 4.753279999999999461e+01 1.467350000000000136e+02 1.609309999999999945e+03
7.000000000000000666e-02 4.805475000000000163e-01 4.827309999999999945e+01 1.500314999999999941e+02 1.610420000000000073e+03
7.100000000000000755e-02 4.811185000000000045e-01 4.894365000000000521e+01 1.532934999999999945e+02 1.611515000000000100e+03
7.200000000000000844e-02 4.816819999999999991e-01 4.954364999999999952e+01 1.565124999999999886e+02 1.612599999999999909e+03
7.300000000000000933e-02 4.822354999999999836e-01 5.006924999999999670e+01 1.596725000000000136e+02 1.613660000000000082e+03
7.399999999999999634e-02 4.827730000000000077e-01 5.051449999999999818e+01 1.627520000000000095e+02 1.614694999999999936e+03
7.499999999999999722e-02 4.832919999999999994e-01 5.087189999999999657e+01 1.657239999999999895e+02 1.615699999999999818e+03
7.599999999999999811e-02 4.837850000000000206e-01 5.113325000000000387e+01 1.685595000000000141e+02 1.616670000000000073e+03
7.699999999999999900e-02 4.842489999999999850e-01 5.129044999999999987e+01 1.712305000000000064e+02 1.617585000000000036e+03
7.799999999999999989e-02 4.846785000000000121e-01 5.133634999999999593e+01 1.737079999999999984e+02 1.618444999999999936e+03
7.900000000000000078e-02 4.850694999999999868e-01 5.126545000000000130e+01 1.759685000000000059e+02 1.619240000000000009e+03
8.000000000000000167e-02 4.854205000000000325e-01 5.107430000000000092e+01 1.779934999999999832e+02 1.619960000000000036e+03
8.100000000000000255e-02 4.857285000000000075e-01 5.076174999999999926e+01 1.797674999999999841e+02 1.620605000000000018e+03
8.200000000000000344e-02 4.859924999999999939e-01 5.032914999999999850e+01 1.812845000000000084e+02 1.621170000000000073e+03
8.300000000000000433e-02 4.862130000000000063e-01 4.978050000000000352e+01 1.825425000000000182e+02 1.621650000000000091e+03
8.400000000000000522e-02 4.863914999999999766e-01 4.912215000000000487e+01 1.835475000000000136e+02 1.622049999999999955e+03
8.500000000000000611e-02 4.865300000000000180e-01 4.836284999999999457e+01 1.843100000000000023e+02 1.622365000000000009e+03
8.600000000000000699e-02 4.866310000000000358e-01 4.751335000000000264e+01 1.848460000000000036e+02 1.622609999999999900e+03
8.700000000000000788e-02 4.866985000000000339e-01 4.658619999999999806e+01 1.851769999999999925e+02 1.622789999999999964e+03
8.800000000000000877e-02 4.867365000000000164e-01 4.559529999999999461e+01 1.853265000000000100e+02 1.622900000000000091e+03
8.899999999999999578e-02 4.867495000000000016e-01 4.455549999999999500e+01 1.853229999999999791e+02 1.622954999999999927e+03
8.999999999999999667e-02 4.867429999999999812e-01 4.348225000000000051e+01 1.851924999999999955e+02 1.622965000000000146e+03
9.099999999999999756e-02 4.867199999999999860e-01 4.239079999999999870e+01 1.849664999999999964e+02 1.622934999999999945e+03
9.199999999999999845e-02 4.866874999999999951e-01 4.129579999999999984e+01 1.846719999999999970e+02 1.622875000000000000e+03
9.299999999999999933e-02 4.866475000000000106e-01 4.021099999999999852e+01 1.843365000000000009e+02 1.622795000000000073e+03
9.400000000000000022e-02 4.866055000000000241e-01 3.914829999999999899e+01 1.839834999999999923e+02 1.622704999999999927e+03
9.500000000000000111e-02 4.865639999999999965e-01 3.811749999999999972e+01 1.836329999999999814e+02 1.622605000000000018e+03
9.600000000000000200e-02 4.865249999999999853e-01 3.712600000000000477e+01 1.833020000000000209e+02 1.622509999999999991e+03
9.700000000000000289e-02 4.864899999999999780e-01 3.617844999999999800e+01 1.830004999999999882e+02 1.622414999999999964e+03
9.800000000000000377e-02 4.864605000000000179e-01 3.527674999999999983e+01 1.827350000000000136e+02 1.622325000000000045e+03
9.900000000000000466e-02 4.864355000000000206e-01 3.442005000000000337e+01 1.825070000000000050e+02 1.622244999999999891e+03
1.000000000000000056e-01 4.864145000000000274e-01 3.360500000000000398e+01 1.823115000000000236e+02 1.622174999999999955e+03
1.010000000000000064e-01 4.863949999999999663e-01 3.282604999999999507e+01 1.821410000000000196e+02 1.622110000000000127e+03
1.020000000000000073e-01 4.863755000000000162e-01 3.207589999999999719e+01 1.819830000000000041e+02 1.622045000000000073e+03
1.030000000000000082e-01 4.863545000000000229e-01 3.134599999999999653e+01 1.818240000000000123e+02 1.621990000000000009e+03
1.040000000000000091e-01 4.863269999999999538e-01 3.062695000000000078e+01 1.816485000000000127e+02 1.621924999999999955e+03
1.050000000000000100e-01 4.862925000000000164e-01 2.990934999999999633e+01 1.814379999999999882e+02 1.621849999999999909e+03
1.059999999999999970e-01 4.862474999999999992e-01 2.918394999999999584e+01 1.811784999999999854e+02 1.621764999999999873e+03
1.069999999999999979e-01 4.861889999999999823e-01 2.844225000000000136e+01 1.808545000000000016e+02 1.621664999999999964e+03
1.079999999999999988e-01 4.861170000000000213e-01 2.767695000000000149e+01 1.804530000000000030e+02 1.621539999999999964e+03
1.089999999999999997e-01 4.860285000000000299e-01 2.688239999999999696e+01 1.799639999999999986e+02 1.621389999999999873e+03
1.100000000000000006e-01 4.859235000000000082e-01 2.605450000000000088e+01 1.793820000000000050e+02 1.621214999999999918e+03
1.110000000000000014e-01 4.858025000000000260e-01 2.519154999999999944e+01 1.787035000000000196e+02 1.621009999999999991e+03
1.120000000000000023e-01 4.856650000000000134e-01 2.429350000000000165e+01 1.779304999999999950e+02 1.620775000000000091e+03
1.130000000000000032e-01 4.855125000000000135e-01 2.336280000000000001e+01 1.770679999999999836e+02 1.620514999999999873e+03
1.140000000000000041e-01 4.853469999999999729e-01 2.240370000000000061e+01 1.761239999999999952e+02 1.620230000000000018e+03
1.150000000000000050e-01 4.851710000000000189e-01 2.142244999999999777e+01 1.751119999999999948e+02 1.619920000000000073e+03
1.160000000000000059e-01 4.849875000000000158e-01 2.042674999999999841e+01 1.740465000000000089e+02 1.619589999999999918e+03
1.170000000000000068e-01 4.847985000000000211e-01 1.942555000000000121e+01 1.729455000000000098e+02 1.619244999999999891e+03
1.180000000000000077e-01 4.846090000000000120e-01 1.842865000000000109e+01 1.718265000000000100e+02 1.618889999999999873e+03
1.190000000000000085e-01 4.844205000000000316e-01 1.744635000000000247e+01 1.707100000000000080e+02 1.618534999999999854e+03
1.200000000000000094e-01 4.842374999999999874e-01 1.648880000000000123e+01 1.696140000000000043e+02 1.618190000000000055e+03
1.209999999999999964e-01 4.840619999999999923e-01 1.556584999999999930e+01 1.685570000000000164e+02 1.617849999999999909e+03
1.219999999999999973e-01 4.838974999999999804e-01 1.468637500000000173e+01 1.675554999999999950e+02 1.617519999999999982e+03
1.229999999999999982e-01 4.837454999999999949e-01 1.385813999999999879e+01 1.666235000000000070e+02 1.617204999999999927e+03
1.239999999999999991e-01 4.836079999999999823e-01 1.308744000000000085e+01 1.657724999999999795e+02 1.616914999999999964e+03
1.250000000000000000e-01 4.834859999999999713e-01 1.237880499999999984e+01 1.650095000000000027e+02 1.616654999999999973e+03
1.260000000000000009e-01 4.833790000000000031e-01 1.173500999999999905e+01 1.643385000000000105e+02 1.616420000000000073e+03
1.270000000000000018e-01 4.832879999999999954e-01 1.115704500000000010e+01 1.637605000000000075e+02 1.616210000000000036e+03
1.280000000000000027e-01 4.832119999999999749e-01 1.064402499999999918e+01 1.632724999999999795e+02 1.616029999999999973e+03
1.290000000000000036e-01 4.831495000000000095e-01 1.019343499999999914e+01 1.628700000000000045e+02 1.615875000000000000e+03
1.300000000000000044e-01 4.830989999999999451e-01 9.801449999999999108e+00 1.625425000000000182e+02 1.615744999999999891e+03
1.310000000000000053e-01 4.830590000000000162e-01 9.462865000000000748e+00 1.622814999999999941e+02 1.615634999999999991e+03
1.320000000000000062e-01 4.830265000000000253e-01 9.171720000000000539e+00 1.620745000000000005e+02 1.615545000000000073e+03
1.330000000000000071e-01 4.829999999999999849e-01 8.921504999999999797e+00 1.619089999999999918e+02 1.615470000000000027e+03
1.340000000000000080e-01 4.829775000000000595e-01 8.705389999999999517e+00 1.617715000000000032e+02 1.615404999999999973e+03
1.350000000000000089e-01 4.829565000000000108e-01 8.516519999999999868e+00 1.616494999999999891e+02 1.615349999999999909e+03
1.360000000000000098e-01 4.829350000000000032e-01 8.348470000000000724e+00 1.615329999999999870e+02 1.615295000000000073e+03
1.370000000000000107e-01 4.829120000000000079e-01 8.195085000000000619e+00 1.614100000000000250e+02 1.615244999999999891e+03
1.380000000000000115e-01 4.828860000000000374e-01 8.050950000000000273e+00 1.612735000000000127e+02 1.615194999999999936e+03
1.390000000000000124e-01 4.828560000000000074e-01 7.911355000000000359e+00 1.611154999999999973e+02 1.615134999999999991e+03
1.400000000000000133e-01 4.828215000000000146e-01 7.772389999999999688e+00 1.609314999999999998e+02 1.615070000000000164e+03
1.410000000000000142e-01 4.827814999999999745e-01 7.630955000000000155e+00 1.607185000000000059e+02 1.615000000000000000e+03
1.420000000000000151e-01 4.827369999999999717e-01 7.484764999999999446e+00 1.604749999999999943e+02 1.614920000000000073e+03
1.430000000000000160e-01 4.826865000000000183e-01 7.332319999999999283e+00 1.602010000000000218e+02 1.614829999999999927e+03
1.440000000000000169e-01 4.826320000000000054e-01 7.172830000000000261e+00 1.598974999999999795e+02 1.614735000000000127e+03
1.450000000000000178e-01 4.825729999999999742e-01 7.006190000000000140e+00 1.595674999999999955e+02 1.614634999999999991e+03
1.459999999999999909e-01 4.825099999999999945e-01 6.832884999999999209e+00 1.592144999999999868e+02 1.614519999999999982e+03
1.469999999999999918e-01 4.824444999999999983e-01 6.653925000000000090e+00 1.588414999999999964e+02 1.614405000000000200e+03
1.479999999999999927e-01 4.823764999999999858e-01 6.470779999999999532e+00 1.584540000000000077e+02 1.614284999999999854e+03
1.489999999999999936e-01 4.823075000000000001e-01 6.285259999999999181e+00 1.580570000000000164e+02 1.614154999999999973e+03
1.499999999999999944e-01 4.822385000000000144e-01 6.099470000000000169e+00 1.576555000000000177e+02 1.614025000000000091e+03
1.509999999999999953e-01 4.821694999999999731e-01 5.915665000000000617e+00 1.572535000000000025e+02 1.613900000000000091e+03
1.519999999999999962e-01 4.821020000000000305e-01 5.736189999999999678e+00 1.568564999999999827e+02 1.613775000000000091e+03
1.529999999999999971e-01 4.820354999999999501e-01 5.563335000000000363e+00 1.564685000000000059e+02 1.613650000000000091e+03
1.539999999999999980e-01 4.819725000000000259e-01 5.399255000000000138e+00 1.560935000000000059e+02 1.613525000000000091e+03
1.549999999999999989e-01 4.819120000000000070e-01 5.245849999999999902e+00 1.557350000000000136e+02 1.613405000000000200e+03
1.559999999999999998e-01 4.818554999999999922e-01 5.104680000000000106e+00 1.553949999999999818e+02 1.613295000000000073e+03
1.570000000000000007e-01 4.818020000000000080e-01 4.976890000000000036e+00 1.550754999999999768e+02 1.613184999999999945e+03
1.580000000000000016e-01 4.817525000000000279e-01 4.863145000000000273e+00 1.547769999999999868e+02 1.613085000000000036e+03
1.590000000000000024e-01 4.817059999999999675e-01 4.763630000000000031e+00 1.544990000000000236e+02 1.612990000000000009e+03
