# t [s], A [cm^2], U [cm/s], P [cPa], c [cm/s]
1.000000000000000021e-03 6.552795000000000147e-01 6.476499999999996149e-03 1.089164999999999992e+02 1.769780000000000200e+03
2.000000000000000042e-03 6.552724999999999245e-01 6.908249999999999461e-03 1.088880000000000052e+02 1.769775000000000091e+03
3.000000000000000062e-03 6.553455000000000252e-01 1.480219500000000132e-01 1.090589999999999975e+02 1.769809999999999945e+03
4.000000000000000083e-03 6.553735000000000532e-01 2.239295000000000035e-01 1.091520000000000010e+02 1.769835000000000036e+03
5.000000000000000104e-03 6.553075000000000427e-01 1.291785000000000017e-01 1.089435000000000002e+02 1.769789999999999964e+03
6.000000000000000125e-03 6.552324999999999955e-01 7.166999999999978943e-03 1.085875000000000057e+02 1.769719999999999800e+03
7.000000000000000146e-03 6.551424999999999610e-01 -1.564950000000000507e-01 1.081004999999999967e+02 1.769615000000000009e+03
8.000000000000000167e-03 6.549784999999999080e-01 -4.829350000000000032e-01 1.073079999999999927e+02 1.769445000000000164e+03
9.000000000000001055e-03 6.547355000000000258e-01 -9.792199999999999793e-01 1.061405000000000030e+02 1.769199999999999818e+03
1.000000000000000194e-02 6.543930000000000025e-01 -1.667155000000000165e+00 1.045083000000000055e+02 1.768840000000000146e+03
1.099999999999999936e-02 6.539319999999999578e-01 -2.562439999999999607e+00 1.023216500000000053e+02 1.768365000000000009e+03
1.200000000000000025e-02 6.533959999999999768e-01 -3.546615000000000517e+00 9.967875000000000796e+01 1.767769999999999982e+03
1.300000000000000114e-02 6.528860000000000774e-01 -4.381971499999999686e+00 9.690505000000000280e+01 1.767119999999999891e+03
1.400000000000000203e-02 6.524860000000000104e-01 -4.854218799999999945e+00 9.437359999999999616e+01 1.766494999999999891e+03
1.499999999999999944e-02 6.522185000000000343e-01 -4.882454999999999323e+00 9.230750000000000455e+01 1.765950000000000045e+03
1.600000000000000033e-02 6.520420000000000105e-01 -4.529764999999999375e+00 9.070799999999999841e+01 1.765485000000000127e+03
1.700000000000000122e-02 6.518850000000000477e-01 -3.945989999999999664e+00 8.939744999999999209e+01 1.765079999999999927e+03
1.800000000000000211e-02 6.516830000000000123e-01 -3.290211000000000219e+00 8.812659999999999627e+01 1.764690000000000055e+03
1.900000000000000300e-02 6.514005000000000489e-01 -2.666001000000000065e+00 8.669059999999998922e+01 1.764269999999999982e+03
2.000000000000000042e-02 6.510439999999999561e-01 -2.092200000000000060e+00 8.500665000000000759e+01 1.763804999999999836e+03
2.100000000000000130e-02 6.506490000000000329e-01 -1.518920000000000048e+00 8.312379999999998859e+01 1.763295000000000073e+03
2.200000000000000219e-02 6.502565000000000150e-01 -8.758299999999998864e-01 8.116714999999999236e+01 1.762769999999999982e+03
2.299999999999999961e-02 6.498920000000000252e-01 -1.237599999999998701e-01 7.925515000000000043e+01 1.762244999999999891e+03
2.400000000000000050e-02 6.495524999999999771e-01 7.145700000000001495e-01 7.743219999999999459e+01 1.761735000000000127e+03
2.500000000000000139e-02 6.492094999999999949e-01 1.552570000000000006e+00 7.564019999999999300e+01 1.761230000000000018e+03
2.600000000000000228e-02 6.488164999999999072e-01 2.261579999999999480e+00 7.373134999999999195e+01 1.760704999999999927e+03
2.700000000000000316e-02 6.483270000000000977e-01 2.706819999999999560e+00 7.151375000000000171e+01 1.760119999999999891e+03
2.800000000000000058e-02 6.477100000000000080e-01 2.786614999999999842e+00 6.881489999999999441e+01 1.759434999999999945e+03
2.900000000000000147e-02 6.469605000000000494e-01 2.463149999999999729e+00 6.554319999999999879e+01 1.758634999999999991e+03
3.000000000000000236e-02 6.461029999999999829e-01 1.774460000000000370e+00 6.172690000000000055e+01 1.757710000000000036e+03
3.099999999999999978e-02 6.451890000000000125e-01 8.229150000000000631e-01 5.751690000000000680e+01 1.756694999999999936e+03
3.200000000000000067e-02 6.442780000000000173e-01 -2.527999999999996916e-01 5.315425000000000466e+01 1.755634999999999991e+03
3.300000000000000155e-02 6.434309999999999752e-01 -1.310410000000000075e+00 4.891899999999999693e+01 1.754579999999999927e+03
3.400000000000000244e-02 6.426954999999999751e-01 -2.229964999999999531e+00 4.507874999999999943e+01 1.753605000000000018e+03
3.500000000000000333e-02 6.421040000000000081e-01 -2.927865000000000162e+00 4.184975000000000023e+01 1.752750000000000000e+03
3.600000000000000422e-02 6.416725000000000900e-01 -3.359029999999999738e+00 3.937680000000000291e+01 1.752065000000000055e+03
3.700000000000000511e-02 6.414014999999999578e-01 -3.510168900000000036e+00 3.773019999999999641e+01 1.751559999999999945e+03
3.799999999999999906e-02 6.412854999999999528e-01 -3.388490000000000002e+00 3.691734999999999900e+01 1.751255000000000109e+03
3.899999999999999994e-02 6.413124999999999520e-01 -3.009619999999999962e+00 3.690229999999999677e+01 1.751150000000000091e+03
4.000000000000000083e-02 6.414714999999999723e-01 -2.388328699999999749e+00 3.762669999999999959e+01 1.751224999999999909e+03
4.100000000000000172e-02 6.417520000000001001e-01 -1.534265000000000212e+00 3.902620000000000289e+01 1.751480000000000018e+03
4.200000000000000261e-02 6.421470000000000233e-01 -4.529499999999999638e-01 4.103949999999999676e+01 1.751894999999999982e+03
4.300000000000000350e-02 6.426469999999999683e-01 8.494049999999999656e-01 4.360810000000000031e+01 1.752454999999999927e+03
4.400000000000000439e-02 6.432420000000000915e-01 2.359975000000000378e+00 4.667184999999999917e+01 1.753150000000000091e+03
4.499999999999999833e-02 6.439175000000000315e-01 4.054790000000000560e+00 5.016214999999999691e+01 1.753954999999999927e+03
4.599999999999999922e-02 6.446570000000000356e-01 5.897325000000000372e+00 5.399754999999999683e+01 1.754865000000000009e+03
4.700000000000000011e-02 6.454400000000000137e-01 7.839974999999999916e+00 5.808350000000000080e+01 1.755840000000000146e+03
4.800000000000000100e-02 6.462440000000000406e-01 9.828485500000001096e+00 6.231624999999999659e+01 1.756875000000000000e+03
4.900000000000000189e-02 6.470469999999999278e-01 1.180759500000000095e+01 6.659000000000000341e+01 1.757929999999999836e+03
5.000000000000000278e-02 6.478310000000000457e-01 1.372616000000000014e+01 7.080564999999999998e+01 1.758994999999999891e+03
5.100000000000000366e-02 6.485825000000000617e-01 1.554192499999999910e+01 7.487865000000000748e+01 1.760034999999999854e+03
5.200000000000000455e-02 6.492899999999999228e-01 1.722415000000000163e+01 7.874564999999999770e+01 1.761034999999999854e+03
5.300000000000000544e-02 6.499505000000000976e-01 1.875420000000000087e+01 8.236740000000000350e+01 1.761994999999999891e+03
5.399999999999999939e-02 6.505635000000000723e-01 2.012529999999999930e+01 8.572919999999999163e+01 1.762889999999999873e+03
5.500000000000000028e-02 6.511329999999999618e-01 2.134024999999999750e+01 8.883849999999999625e+01 1.763735000000000127e+03
5.600000000000000117e-02 6.516659999999999675e-01 2.240975000000000250e+01 9.172100000000000364e+01 1.764525000000000091e+03
5.700000000000000205e-02 6.521699999999999164e-01 2.334969999999999857e+01 9.441569999999998686e+01 1.765269999999999982e+03
5.800000000000000294e-02 6.526544999999999153e-01 2.417940000000000111e+01 9.696905000000000996e+01 1.765980000000000018e+03
5.900000000000000383e-02 6.531290000000000706e-01 2.491965000000000074e+01 9.943215000000000714e+01 1.766660000000000082e+03
6.000000000000000472e-02 6.536020000000000163e-01 2.559094999999999942e+01 1.018526500000000112e+02 1.767325000000000045e+03
6.099999999999999867e-02 6.540805000000000646e-01 2.621219999999999928e+01 1.042744999999999891e+02 1.767990000000000009e+03
6.199999999999999956e-02 6.545704999999999441e-01 2.679865000000000208e+01 1.067309999999999945e+02 1.768654999999999973e+03
6.300000000000000044e-02 6.550739999999999341e-01 2.736120000000000019e+01 1.092435000000000116e+02 1.769329999999999927e+03
6.400000000000000133e-02 6.555904999999999649e-01 2.790500000000000114e+01 1.118179999999999978e+02 1.770014999999999873e+03
6.500000000000000222e-02 6.561170000000000613e-01 2.842940000000000111e+01 1.144465000000000003e+02 1.770715000000000146e+03
6.600000000000000311e-02 6.566479999999998984e-01 2.892804999999999893e+01 1.171065000000000111e+02 1.771420000000000073e+03
6.700000000000000400e-02 6.571755000000000235e-01 2.938994999999999891e+01 1.197615000000000123e+02 1.772125000000000000e+03
6.800000000000000488e-02 6.576904999999999557e-01 2.980089999999999861e+01 1.223679999999999950e+02 1.772825000000000045e+03
6.900000000000000577e-02 6.581829999999999625e-01 3.014470000000000027e+01 1.248760000000000048e+02 1.773494999999999891e+03
7.000000000000000666e-02 6.586425000000000196e-01 3.040520000000000067e+01 1.272349999999999994e+02 1.774139999999999873e+03
7.100000000000000755e-02 6.590610000000000079e-01 3.056745000000000090e+01 1.293960000000000150e+02 1.774735000000000127e+03
7.200000000000000844e-02 6.594314999999999483e-01 3.061915000000000120e+01 1.313185000000000002e+02 1.775275000000000091e+03
7.300000000000000933e-02 6.597475000000000422e-01 3.055124999999999957e+01 1.329680000000000177e+02 1.775744999999999891e+03
7.399999999999999634e-02 6.600064999999999404e-01 3.035875000000000057e+01 1.343229999999999791e+02 1.776150000000000091e+03
7.499999999999999722e-02 6.602065000000000294e-01 3.004084999999999894e+01 1.353709999999999809e+02 1.776474999999999909e+03
7.599999999999999811e-02 6.603485000000000049e-01 2.960095000000000098e+01 1.361119999999999948e+02 1.776724999999999909e+03
7.699999999999999900e-02 6.604349999999999943e-01 2.904664999999999964e+01 1.365569999999999879e+02 1.776894999999999982e+03
7.799999999999999989e-02 6.604710000000000303e-01 2.838915000000000077e+01 1.367259999999999991e+02 1.776990000000000009e+03
7.900000000000000078e-02 6.604615000000000347e-01 2.764290000000000092e+01 1.366474999999999795e+02 1.777025000000000091e+03
8.000000000000000167e-02 6.604134999999999867e-01 2.682495000000000118e+01 1.363575000000000159e+02 1.776994999999999891e+03
8.100000000000000255e-02 6.603349999999998943e-01 2.595405000000000229e+01 1.358954999999999984e+02 1.776920000000000073e+03
8.200000000000000344e-02 6.602339999999999876e-01 2.504980000000000118e+01 1.353040000000000020e+02 1.776805000000000064e+03
8.300000000000000433e-02 6.601194999999999702e-01 2.413204999999999956e+01 1.346260000000000048e+02 1.776659999999999854e+03
8.400000000000000522e-02 6.599969999999999448e-01 2.321950000000000003e+01 1.339035000000000082e+02 1.776494999999999891e+03
8.500000000000000611e-02 6.598749999999999893e-01 2.232894999999999897e+01 1.331734999999999900e+02 1.776320000000000164e+03
8.600000000000000699e-02 6.597589999999999844e-01 2.147464999999999691e+01 1.324685000000000059e+02 1.776144999999999982e+03
8.700000000000000788e-02 6.596520000000000161e-01 2.066750000000000043e+01 1.318139999999999930e+02 1.775980000000000018e+03
8.800000000000000877e-02 6.595575000000000188e-01 1.991469999999999985e+01 1.312280000000000086e+02 1.775824999999999818e+03
8.899999999999999578e-02 6.594770000000000909e-01 1.921930000000000049e+01 1.307195000000000107e+02 1.775684999999999945e+03
8.999999999999999667e-02 6.594100000000000517e-01 1.858084999999999809e+01 1.302914999999999850e+02 1.775565000000000055e+03
9.099999999999999756e-02 6.593545000000000655e-01 1.799510000000000076e+01 1.299364999999999952e+02 1.775460000000000036e+03
9.199999999999999845e-02 6.593074999999999353e-01 1.745475000000000065e+01 1.296424999999999841e+02 1.775369999999999891e+03
9.299999999999999933e-02 6.592660000000000187e-01 1.695015000000000072e+01 1.293909999999999911e+02 1.775289999999999964e+03
9.400000000000000022e-02 6.592249999999999499e-01 1.646989999999999910e+01 1.291605000000000132e+02 1.775215000000000146e+03
9.500000000000000111e-02 6.591799999999999882e-01 1.600165000000000148e+01 1.289265000000000043e+02 1.775150000000000091e+03
9.600000000000000200e-02 6.591264999999999485e-01 1.553275000000000006e+01 1.286645000000000039e+02 1.775070000000000164e+03
9.700000000000000289e-02 6.590614999999999668e-01 1.505150000000000077e+01 1.283514999999999873e+02 1.774985000000000127e+03
9.800000000000000377e-02 6.589795000000000513e-01 1.454725000000000001e+01 1.279675000000000011e+02 1.774884999999999991e+03
9.900000000000000466e-02 6.588789999999999925e-01 1.401164999999999949e+01 1.274950000000000045e+02 1.774764999999999873e+03
1.000000000000000056e-01 6.587589999999999835e-01 1.343866999999999834e+01 1.269240000000000066e+02 1.774625000000000000e+03
1.010000000000000064e-01 6.586179999999999257e-01 1.282543500000000058e+01 1.262494999999999976e+02 1.774454999999999927e+03
1.020000000000000073e-01 6.584579999999999878e-01 1.217219000000000051e+01 1.254735000000000014e+02 1.774264999999999873e+03
1.030000000000000082e-01 6.582810000000000050e-01 1.148244500000000023e+01 1.246034999999999968e+02 1.774050000000000182e+03
1.040000000000000091e-01 6.580904999999999117e-01 1.076284500000000044e+01 1.236555000000000035e+02 1.773815000000000055e+03
1.050000000000000100e-01 6.578899999999999748e-01 1.002268499999999918e+01 1.226490000000000009e+02 1.773565000000000055e+03
1.059999999999999970e-01 6.576859999999999928e-01 9.273519999999999541e+00 1.216094999999999970e+02 1.773305000000000064e+03
1.069999999999999979e-01 6.574830000000000396e-01 8.528425000000000367e+00 1.205649999999999977e+02 1.773039999999999964e+03
1.079999999999999988e-01 6.572879999999999834e-01 7.801390000000000491e+00 1.195449999999999875e+02 1.772780000000000200e+03
1.089999999999999997e-01 6.571059999999999679e-01 7.106350000000000833e+00 1.185800000000000125e+02 1.772525000000000091e+03
1.100000000000000006e-01 6.569415000000000671e-01 6.456649999999999778e+00 1.176974999999999909e+02 1.772289999999999964e+03
1.110000000000000014e-01 6.568005000000000093e-01 5.863980000000000636e+00 1.169224999999999994e+02 1.772079999999999927e+03
1.120000000000000023e-01 6.566849999999999632e-01 5.338065000000000282e+00 1.162754999999999939e+02 1.771904999999999973e+03
1.130000000000000032e-01 6.565980000000000150e-01 4.886020000000000252e+00 1.157699999999999960e+02 1.771755000000000109e+03
1.140000000000000041e-01 6.565399999999999014e-01 4.512069999999999581e+00 1.154155000000000086e+02 1.771639999999999873e+03
1.150000000000000050e-01 6.565115000000000256e-01 4.217444999999999666e+00 1.152129999999999939e+02 1.771559999999999945e+03
1.160000000000000059e-01 6.565099999999999270e-01 4.000420000000000087e+00 1.151574999999999989e+02 1.771525000000000091e+03
1.170000000000000068e-01 6.565339999999999510e-01 3.856569999999999609e+00 1.152394999999999925e+02 1.771519999999999982e+03
1.180000000000000077e-01 6.565799999999999415e-01 3.779119999999999813e+00 1.154429999999999978e+02 1.771550000000000182e+03
1.190000000000000085e-01 6.566429999999999767e-01 3.759454999999999991e+00 1.157479999999999905e+02 1.771599999999999909e+03
1.200000000000000094e-01 6.567205000000000403e-01 3.787619999999999987e+00 1.161329999999999956e+02 1.771679999999999836e+03
1.209999999999999964e-01 6.568065000000000708e-01 3.852899999999999991e+00 1.165750000000000028e+02 1.771775000000000091e+03
1.219999999999999973e-01 6.568970000000000642e-01 3.944345000000000212e+00 1.170499999999999972e+02 1.771884999999999991e+03
1.229999999999999982e-01 6.569884999999999753e-01 4.051280000000000214e+00 1.175354999999999990e+02 1.772000000000000000e+03
1.239999999999999991e-01 6.570759999999999934e-01 4.163689999999999891e+00 1.180120000000000005e+02 1.772110000000000127e+03
1.250000000000000000e-01 6.571580000000000199e-01 4.272590000000000110e+00 1.184610000000000127e+02 1.772219999999999800e+03
1.260000000000000009e-01 6.572309999999998986e-01 4.370274999999999466e+00 1.188689999999999998e+02 1.772325000000000045e+03
1.270000000000000018e-01 6.572930000000000161e-01 4.450509999999999522e+00 1.192240000000000038e+02 1.772425000000000182e+03
1.280000000000000027e-01 6.573439999999999284e-01 4.508585000000000065e+00 1.195194999999999936e+02 1.772500000000000000e+03
1.290000000000000036e-01 6.573830000000000506e-01 4.541369999999999685e+00 1.197514999999999930e+02 1.772570000000000164e+03
1.300000000000000044e-01 6.574105000000000087e-01 4.547274999999999956e+00 1.199194999999999993e+02 1.772615000000000009e+03
1.310000000000000053e-01 6.574259999999999549e-01 4.526164999999999772e+00 1.200250000000000057e+02 1.772655000000000200e+03
1.320000000000000062e-01 6.574320000000000164e-01 4.479179999999999495e+00 1.200730000000000075e+02 1.772674999999999955e+03
1.330000000000000071e-01 6.574284999999999712e-01 4.408604999999999663e+00 1.200704999999999956e+02 1.772684999999999945e+03
1.340000000000000080e-01 6.574185000000000167e-01 4.317619999999999791e+00 1.200254999999999939e+02 1.772680000000000064e+03
1.350000000000000089e-01 6.574029999999999596e-01 4.210079999999999600e+00 1.199465000000000003e+02 1.772670000000000073e+03
1.360000000000000098e-01 6.573830000000000506e-01 4.090250000000000163e+00 1.198430000000000035e+02 1.772654999999999973e+03
1.370000000000000107e-01 6.573620000000000019e-01 3.962550000000000239e+00 1.197240000000000038e+02 1.772630000000000109e+03
1.380000000000000115e-01 6.573400000000000354e-01 3.831300000000000150e+00 1.195985000000000014e+02 1.772599999999999909e+03
1.390000000000000124e-01 6.573184999999999167e-01 3.700480000000000214e+00 1.194729999999999990e+02 1.772575000000000045e+03
1.400000000000000133e-01 6.572990000000000776e-01 3.573540000000000383e+00 1.193534999999999968e+02 1.772545000000000073e+03
1.410000000000000142e-01 6.572819999999999219e-01 3.453240000000000087e+00 1.192450000000000045e+02 1.772519999999999982e+03
1.420000000000000151e-01 6.572675000000000045e-01 3.341565000000000119e+00 1.191490000000000009e+02 1.772494999999999891e+03
1.430000000000000160e-01 6.572554999999999925e-01 3.239664999999999573e+00 1.190660000000000025e+02 1.772474999999999909e+03
1.440000000000000169e-01 6.572459999999999969e-01 3.147895000000000110e+00 1.189954999999999927e+02 1.772454999999999927e+03
1.450000000000000178e-01 6.572375000000000300e-01 3.065895000000000259e+00 1.189339999999999975e+02 1.772434999999999945e+03
1.459999999999999909e-01 6.572299999999999809e-01 2.992715000000000014e+00 1.188774999999999977e+02 1.772424999999999955e+03
1.469999999999999918e-01 6.572215000000000140e-01 2.926965000000000039e+00 1.188225000000000051e+02 1.772404999999999973e+03
1.479999999999999927e-01 6.572124999999999773e-01 2.866975000000000051e+00 1.187630000000000052e+02 1.772389999999999873e+03
1.489999999999999936e-01 6.572000000000000064e-01 2.811015000000000263e+00 1.186949999999999932e+02 1.772369999999999891e+03
1.499999999999999944e-01 6.571854999999999780e-01 2.757390000000000008e+00 1.186124999999999972e+02 1.772349999999999909e+03
1.509999999999999953e-01 6.571670000000000567e-01 2.704634999999999678e+00 1.185130000000000052e+02 1.772325000000000045e+03
1.519999999999999962e-01 6.571445000000000203e-01 2.651584999999999859e+00 1.183940000000000055e+02 1.772295000000000073e+03
1.529999999999999971e-01 6.571169999999999511e-01 2.597445000000000004e+00 1.182530000000000001e+02 1.772259999999999991e+03
1.539999999999999980e-01 6.570854999999999890e-01 2.541834999999999845e+00 1.180910000000000082e+02 1.772219999999999800e+03
1.549999999999999989e-01 6.570500000000000229e-01 2.484789999999999832e+00 1.179085000000000036e+02 1.772170000000000073e+03
1.559999999999999998e-01 6.570110000000000117e-01 2.426770000000000316e+00 1.177085000000000008e+02 1.772125000000000000e+03
1.570000000000000007e-01 6.569694999999999840e-01 2.368590000000000195e+00 1.174929999999999950e+02 1.772065000000000055e+03
1.580000000000000016e-01 6.569255000000000511e-01 2.311405000000000154e+00 1.172675000000000125e+02 1.772010000000000218e+03
1.590000000000000024e-01 6.568815000000000071e-01 2.256670000000000176e+00 1.170360000000000014e+02 1.771954999999999927e+03
