# t [s], A [cm^2], U [cm/s], P [cPa], c [cm/s]
1.000000000000000021e-03 1.740534999999999999e-01 4.078591500000000036e-01 1.038659999999999997e+02 2.228039999999999964e+03
2.000000000000000042e-03 1.739950000000000108e-01 2.119271499999999975e+00 9.982920000000000016e+01 2.227460000000000036e+03
3.000000000000000062e-03 1.738530000000000075e-01 4.215211500000000555e+00 9.428530000000000655e+01 2.226114999999999782e+03
4.000000000000000083e-03 1.736689999999999900e-01 6.576734500000000594e+00 8.855934999999999491e+01 2.224390000000000327e+03
5.000000000000000104e-03 1.734809999999999963e-01 9.078984999999999417e+00 8.373009999999999309e+01 2.222644999999999982e+03
6.000000000000000125e-03 1.733045000000000002e-01 1.143994000000000000e+01 7.986629999999999541e+01 2.221034999999999854e+03
7.000000000000000146e-03 1.731424999999999770e-01 1.342492000000000019e+01 7.648985000000000412e+01 2.219585000000000036e+03
8.000000000000000167e-03 1.729979999999999851e-01 1.503500000000000014e+01 7.350440000000000396e+01 2.218319999999999709e+03
9.000000000000001055e-03 1.728770000000000029e-01 1.633660000000000068e+01 7.107120000000000459e+01 2.217275000000000091e+03
1.000000000000000194e-02 1.727795000000000025e-01 1.735699999999999932e+01 6.919915000000000305e+01 2.216435000000000400e+03
1.099999999999999936e-02 1.727044999999999830e-01 1.811925000000000097e+01 6.781139999999999191e+01 2.215800000000000182e+03
1.200000000000000025e-02 1.726469999999999949e-01 1.863260000000000005e+01 6.677684999999999604e+01 2.215329999999999927e+03
1.300000000000000114e-02 1.726015000000000188e-01 1.890399999999999991e+01 6.591075000000000728e+01 2.214965000000000146e+03
1.400000000000000203e-02 1.725654999999999828e-01 1.901879999999999882e+01 6.519974999999999454e+01 2.214680000000000291e+03
1.499999999999999944e-02 1.725444999999999895e-01 1.917130000000000223e+01 6.500315000000000509e+01 2.214529999999999745e+03
1.600000000000000033e-02 1.725524999999999975e-01 1.957215000000000060e+01 6.588634999999999309e+01 2.214605000000000018e+03
1.700000000000000122e-02 1.725980000000000014e-01 2.030969999999999942e+01 6.818415000000000248e+01 2.214994999999999891e+03
1.800000000000000211e-02 1.726800000000000002e-01 2.128275000000000006e+01 7.167054999999999154e+01 2.215704999999999927e+03
1.900000000000000300e-02 1.727835000000000065e-01 2.224540000000000006e+01 7.557714999999998895e+01 2.216610000000000127e+03
2.000000000000000042e-02 1.728870000000000129e-01 2.292354999999999876e+01 7.891634999999999422e+01 2.217525000000000091e+03
2.100000000000000130e-02 1.729664999999999953e-01 2.313289999999999935e+01 8.089870000000000516e+01 2.218255000000000109e+03
2.200000000000000219e-02 1.730094999999999827e-01 2.284315000000000140e+01 8.122925000000000750e+01 2.218664999999999964e+03
2.299999999999999961e-02 1.730140000000000011e-01 2.216900000000000048e+01 8.016345000000001164e+01 2.218739999999999782e+03
2.400000000000000050e-02 1.729900000000000049e-01 2.130154999999999887e+01 7.832675000000000409e+01 2.218554999999999836e+03
2.500000000000000139e-02 1.729525000000000090e-01 2.042079999999999984e+01 7.641014999999998736e+01 2.218234999999999673e+03
2.600000000000000228e-02 1.729140000000000121e-01 1.962854999999999706e+01 7.489294999999999902e+01 2.217904999999999745e+03
2.700000000000000316e-02 1.728824999999999945e-01 1.892759999999999820e+01 7.390289999999998827e+01 2.217625000000000000e+03
2.800000000000000058e-02 1.728580000000000116e-01 1.824504999999999910e+01 7.324555000000000859e+01 2.217399999999999636e+03
2.900000000000000147e-02 1.728345000000000020e-01 1.748290000000000077e+01 7.255719999999999459e+01 2.217194999999999709e+03
3.000000000000000236e-02 1.728044999999999998e-01 1.657304999999999851e+01 7.150450000000000728e+01 2.216940000000000055e+03
3.099999999999999978e-02 1.727635000000000143e-01 1.551670000000000016e+01 6.995214999999998895e+01 2.216590000000000146e+03
3.200000000000000067e-02 1.727114999999999900e-01 1.439519999999999911e+01 6.804165000000000418e+01 2.216144999999999982e+03
3.300000000000000155e-02 1.726560000000000039e-01 1.334949999999999903e+01 6.615725000000000477e+01 2.215664999999999964e+03
3.400000000000000244e-02 1.726084999999999980e-01 1.253560000000000052e+01 6.479540000000000077e+01 2.215239999999999782e+03
3.500000000000000333e-02 1.725800000000000112e-01 1.207455000000000034e+01 6.439170000000000016e+01 2.214975000000000364e+03
3.600000000000000422e-02 1.725809999999999844e-01 1.201395000000000124e+01 6.516979999999999507e+01 2.214960000000000036e+03
3.700000000000000511e-02 1.726115000000000010e-01 1.231360000000000099e+01 6.706454999999999700e+01 2.215204999999999927e+03
3.799999999999999906e-02 1.726699999999999902e-01 1.285655000000000037e+01 6.973635000000000161e+01 2.215690000000000055e+03
3.899999999999999994e-02 1.727434999999999943e-01 1.347889999999999944e+01 7.266030000000000655e+01 2.216324999999999818e+03
4.000000000000000083e-02 1.728195000000000148e-01 1.400609999999999999e+01 7.525400000000000489e+01 2.216979999999999563e+03
4.100000000000000172e-02 1.728830000000000089e-01 1.428705000000000069e+01 7.700290000000001100e+01 2.217539999999999964e+03
4.200000000000000261e-02 1.729209999999999914e-01 1.421689999999999898e+01 7.755320000000000391e+01 2.217885000000000218e+03
4.300000000000000350e-02 1.729255000000000098e-01 1.374660000000000082e+01 7.675419999999999732e+01 2.217944999999999709e+03
4.400000000000000439e-02 1.728939999999999921e-01 1.287979999999999947e+01 7.465109999999999957e+01 2.217690000000000055e+03
4.499999999999999833e-02 1.728275000000000228e-01 1.166072499999999934e+01 7.143950000000000955e+01 2.217119999999999891e+03
4.599999999999999922e-02 1.727310000000000234e-01 1.015832499999999960e+01 6.740125000000000455e+01 2.216295000000000073e+03
4.700000000000000011e-02 1.726115000000000010e-01 8.451470000000000482e+00 6.284149999999999636e+01 2.215260000000000218e+03
4.800000000000000100e-02 1.724760000000000182e-01 6.618710000000000093e+00 5.804245000000000232e+01 2.214085000000000036e+03
4.900000000000000189e-02 1.723330000000000140e-01 4.733031500000000058e+00 5.323964999999999748e+01 2.212835000000000036e+03
5.000000000000000278e-02 1.721885000000000221e-01 2.861450000000000049e+00 4.861959999999999837e+01 2.211570000000000164e+03
5.100000000000000366e-02 1.720480000000000065e-01 1.067060000000000120e+00 4.433144999999999669e+01 2.210335000000000036e+03
5.200000000000000455e-02 1.719164999999999999e-01 -5.884699999999998266e-01 4.050379999999999825e+01 2.209180000000000291e+03
5.300000000000000544e-02 1.717980000000000063e-01 -2.043517500000000098e+00 3.725854999999999961e+01 2.208139999999999873e+03
5.399999999999999939e-02 1.716975000000000029e-01 -3.237281999999999993e+00 3.471735000000000326e+01 2.207239999999999782e+03
5.500000000000000028e-02 1.716185000000000072e-01 -4.112680000000000113e+00 3.299929999999999808e+01 2.206534999999999854e+03
5.600000000000000117e-02 1.715649999999999953e-01 -4.620715000000000572e+00 3.221059999999999945e+01 2.206045000000000073e+03
5.700000000000000205e-02 1.715400000000000258e-01 -4.725249999999999950e+00 3.243099999999999739e+01 2.205800000000000182e+03
5.800000000000000294e-02 1.715464999999999907e-01 -4.407054999999999723e+00 3.370035000000000025e+01 2.205829999999999927e+03
5.900000000000000383e-02 1.715845000000000009e-01 -3.666290000000000049e+00 3.600945000000000107e+01 2.206135000000000218e+03
6.000000000000000472e-02 1.716540000000000010e-01 -2.522920550000000262e+00 3.929684999999999917e+01 2.206710000000000036e+03
6.099999999999999867e-02 1.717525000000000024e-01 -1.015164999999999873e+00 4.345265000000000555e+01 2.207545000000000073e+03
6.199999999999999956e-02 1.718779999999999752e-01 8.036200000000000010e-01 4.832760000000000389e+01 2.208619999999999891e+03
6.300000000000000044e-02 1.720249999999999835e-01 2.869035000000000224e+00 5.374569999999999936e+01 2.209885000000000218e+03
6.400000000000000133e-02 1.721894999999999953e-01 5.110128999999999699e+00 5.951800000000000068e+01 2.211305000000000291e+03
6.500000000000000222e-02 1.723645000000000038e-01 7.453854999999999897e+00 6.545650000000000546e+01 2.212829999999999927e+03
6.600000000000000311e-02 1.725455000000000183e-01 9.829295000000000115e+00 7.138575000000000159e+01 2.214420000000000073e+03
6.700000000000000400e-02 1.727279999999999927e-01 1.217157500000000070e+01 7.715324999999999989e+01 2.216020000000000437e+03
6.800000000000000488e-02 1.729065000000000185e-01 1.442495000000000083e+01 8.263750000000000284e+01 2.217590000000000146e+03
6.900000000000000577e-02 1.730780000000000096e-01 1.654570000000000007e+01 8.775350000000000250e+01 2.219114999999999782e+03
7.000000000000000666e-02 1.732394999999999907e-01 1.850365000000000038e+01 9.245609999999999218e+01 2.220555000000000291e+03
7.100000000000000755e-02 1.733899999999999886e-01 2.028309999999999746e+01 9.673904999999999177e+01 2.221899999999999636e+03
7.200000000000000844e-02 1.735295000000000032e-01 2.188190000000000168e+01 1.006325999999999965e+02 2.223144999999999982e+03
7.300000000000000933e-02 1.736584999999999934e-01 2.331029999999999802e+01 1.041971000000000060e+02 2.224305000000000291e+03
7.399999999999999634e-02 1.737785000000000024e-01 2.458794999999999931e+01 1.075125000000000028e+02 2.225390000000000327e+03
7.499999999999999722e-02 1.738915000000000044e-01 2.574085000000000178e+01 1.106690000000000111e+02 2.226409999999999854e+03
7.599999999999999811e-02 1.740005000000000024e-01 2.679775000000000063e+01 1.137584999999999980e+02 2.227399999999999636e+03
7.699999999999999900e-02 1.741079999999999850e-01 2.778705000000000069e+01 1.168609999999999900e+02 2.228359999999999673e+03
7.799999999999999989e-02 1.742150000000000087e-01 2.873364999999999725e+01 1.200384999999999991e+02 2.229329999999999927e+03
7.900000000000000078e-02 1.743239999999999790e-01 2.965675000000000239e+01 1.233319999999999936e+02 2.230310000000000400e+03
8.000000000000000167e-02 1.744359999999999800e-01 3.056864999999999810e+01 1.267570000000000050e+02 2.231319999999999709e+03
8.100000000000000255e-02 1.745514999999999983e-01 3.147380000000000422e+01 1.303035000000000139e+02 2.232360000000000127e+03
8.200000000000000344e-02 1.746699999999999919e-01 3.236899999999999977e+01 1.339379999999999882e+02 2.233420000000000073e+03
8.300000000000000433e-02 1.747900000000000009e-01 3.324425000000000097e+01 1.376100000000000136e+02 2.234500000000000000e+03
8.400000000000000522e-02 1.749100000000000099e-01 3.408384999999999820e+01 1.412540000000000191e+02 2.235579999999999927e+03
8.500000000000000611e-02 1.750289999999999901e-01 3.486800000000000210e+01 1.447975000000000136e+02 2.236654999999999745e+03
8.600000000000000699e-02 1.751439999999999941e-01 3.557450000000000045e+01 1.481639999999999873e+02 2.237690000000000055e+03
8.700000000000000788e-02 1.752535000000000065e-01 3.618009999999999593e+01 1.512805000000000177e+02 2.238680000000000291e+03
8.800000000000000877e-02 1.753544999999999965e-01 3.666290000000000049e+01 1.540794999999999959e+02 2.239595000000000255e+03
8.899999999999999578e-02 1.754465000000000052e-01 3.700305000000000177e+01 1.565040000000000191e+02 2.240425000000000182e+03
8.999999999999999667e-02 1.755260000000000153e-01 3.718455000000000155e+01 1.585120000000000005e+02 2.241149999999999636e+03
9.099999999999999756e-02 1.755924999999999847e-01 3.719625000000000625e+01 1.600730000000000075e+02 2.241764999999999873e+03
9.199999999999999845e-02 1.756455000000000100e-01 3.703229999999999933e+01 1.611769999999999925e+02 2.242255000000000109e+03
9.299999999999999933e-02 1.756845000000000212e-01 3.669310000000000116e+01 1.618274999999999864e+02 2.242619999999999891e+03
9.400000000000000022e-02 1.757100000000000051e-01 3.618495000000000061e+01 1.620444999999999993e+02 2.242864999999999782e+03
9.500000000000000111e-02 1.757215000000000027e-01 3.551985000000000525e+01 1.618639999999999759e+02 2.242980000000000018e+03
9.600000000000000200e-02 1.757210000000000161e-01 3.471500000000000341e+01 1.613329999999999984e+02 2.242989999999999782e+03
9.700000000000000289e-02 1.757095000000000184e-01 3.379175000000000040e+01 1.605074999999999932e+02 2.242899999999999636e+03
9.800000000000000377e-02 1.756889999999999841e-01 3.277445000000000164e+01 1.594510000000000218e+02 2.242720000000000255e+03
9.900000000000000466e-02 1.756604999999999972e-01 3.168929999999999936e+01 1.582295000000000016e+02 2.242480000000000018e+03
1.000000000000000056e-01 1.756269999999999776e-01 3.056300000000000239e+01 1.569069999999999823e+02 2.242185000000000400e+03
1.010000000000000064e-01 1.755895000000000095e-01 2.942145000000000010e+01 1.555450000000000159e+02 2.241855000000000018e+03
1.020000000000000073e-01 1.755504999999999982e-01 2.828875000000000028e+01 1.541974999999999909e+02 2.241505000000000109e+03
1.030000000000000082e-01 1.755114999999999870e-01 2.718609999999999971e+01 1.529105000000000132e+02 2.241159999999999854e+03
1.040000000000000091e-01 1.754735000000000045e-01 2.613090000000000046e+01 1.517199999999999989e+02 2.240815000000000055e+03
1.050000000000000100e-01 1.754379999999999828e-01 2.513640000000000185e+01 1.506505000000000223e+02 2.240494999999999891e+03
1.059999999999999970e-01 1.754054999999999920e-01 2.421090000000000231e+01 1.497135000000000105e+02 2.240195000000000164e+03
1.069999999999999979e-01 1.753764999999999907e-01 2.335795000000000243e+01 1.489099999999999966e+02 2.239930000000000291e+03
1.079999999999999988e-01 1.753505000000000202e-01 2.257639999999999958e+01 1.482275000000000205e+02 2.239690000000000055e+03
1.089999999999999997e-01 1.753279999999999839e-01 2.186035000000000039e+01 1.476460000000000150e+02 2.239484999999999673e+03
1.100000000000000006e-01 1.753080000000000194e-01 2.120035000000000025e+01 1.471340000000000146e+02 2.239295000000000073e+03
1.110000000000000014e-01 1.752905000000000157e-01 2.058359999999999701e+01 1.466544999999999845e+02 2.239130000000000109e+03
1.120000000000000023e-01 1.752730000000000121e-01 1.999514999999999887e+01 1.461684999999999945e+02 2.238970000000000255e+03
1.130000000000000032e-01 1.752544999999999797e-01 1.941884999999999906e+01 1.456320000000000050e+02 2.238805000000000291e+03
1.140000000000000041e-01 1.752350000000000019e-01 1.883875000000000099e+01 1.450054999999999836e+02 2.238625000000000000e+03
1.150000000000000050e-01 1.752124999999999932e-01 1.823969999999999914e+01 1.442524999999999977e+02 2.238420000000000073e+03
1.160000000000000059e-01 1.751860000000000084e-01 1.760875000000000057e+01 1.433445000000000107e+02 2.238180000000000291e+03
1.170000000000000068e-01 1.751550000000000051e-01 1.693590000000000018e+01 1.422604999999999791e+02 2.237904999999999745e+03
1.180000000000000077e-01 1.751189999999999969e-01 1.621495000000000175e+01 1.409909999999999854e+02 2.237579999999999927e+03
1.190000000000000085e-01 1.750769999999999826e-01 1.544355000000000011e+01 1.395374999999999943e+02 2.237204999999999927e+03
1.200000000000000094e-01 1.750300000000000189e-01 1.462389999999999901e+01 1.379139999999999873e+02 2.236789999999999964e+03
1.209999999999999964e-01 1.749775000000000080e-01 1.376239999999999952e+01 1.361435000000000173e+02 2.236319999999999709e+03
1.219999999999999973e-01 1.749215000000000075e-01 1.286935000000000073e+01 1.342599999999999909e+02 2.235820000000000164e+03
1.229999999999999982e-01 1.748615000000000030e-01 1.195820999999999934e+01 1.323044999999999902e+02 2.235284999999999854e+03
1.239999999999999991e-01 1.748000000000000109e-01 1.104497999999999891e+01 1.303240000000000123e+02 2.234730000000000018e+03
1.250000000000000000e-01 1.747374999999999901e-01 1.014696999999999960e+01 1.283669999999999902e+02 2.234175000000000182e+03
1.260000000000000009e-01 1.746754999999999836e-01 9.282165000000000887e+00 1.264814999999999969e+02 2.233619999999999891e+03
1.270000000000000018e-01 1.746165000000000078e-01 8.467729999999999535e+00 1.247135000000000105e+02 2.233085000000000036e+03
1.280000000000000027e-01 1.745605000000000073e-01 7.719459999999999766e+00 1.231020000000000039e+02 2.232585000000000036e+03
1.290000000000000036e-01 1.745089999999999975e-01 7.050710000000000477e+00 1.216804999999999950e+02 2.232119999999999891e+03
1.300000000000000044e-01 1.744630000000000070e-01 6.471854999999999691e+00 1.204710000000000036e+02 2.231704999999999927e+03
1.310000000000000053e-01 1.744240000000000235e-01 5.989869999999999806e+00 1.194884999999999877e+02 2.231345000000000255e+03
1.320000000000000062e-01 1.743910000000000182e-01 5.608114999999999739e+00 1.187365000000000066e+02 2.231050000000000182e+03
1.330000000000000071e-01 1.743655000000000066e-01 5.326344999999999885e+00 1.182095000000000056e+02 2.230809999999999945e+03
1.340000000000000080e-01 1.743465000000000154e-01 5.140919999999999490e+00 1.178954999999999984e+02 2.230635000000000218e+03
1.350000000000000089e-01 1.743345000000000034e-01 5.045175000000000409e+00 1.177734999999999985e+02 2.230514999999999873e+03
1.360000000000000098e-01 1.743279999999999830e-01 5.029910000000000103e+00 1.178174999999999955e+02 2.230449999999999818e+03
1.370000000000000107e-01 1.743264999999999953e-01 5.083940000000000126e+00 1.179980000000000047e+02 2.230430000000000291e+03
1.380000000000000115e-01 1.743294999999999983e-01 5.194729999999999848e+00 1.182845000000000084e+02 2.230445000000000164e+03
1.390000000000000124e-01 1.743355000000000044e-01 5.348975000000000257e+00 1.186425000000000125e+02 2.230500000000000000e+03
1.400000000000000133e-01 1.743439999999999990e-01 5.533215000000000217e+00 1.190425000000000040e+02 2.230569999999999709e+03
1.410000000000000142e-01 1.743544999999999956e-01 5.734354999999999869e+00 1.194540000000000077e+02 2.230655000000000200e+03
1.420000000000000151e-01 1.743655000000000066e-01 5.940160000000000551e+00 1.198509999999999991e+02 2.230750000000000000e+03
1.430000000000000160e-01 1.743760000000000032e-01 6.139639999999999986e+00 1.202115000000000009e+02 2.230845000000000255e+03
1.440000000000000169e-01 1.743854999999999988e-01 6.323409999999999975e+00 1.205169999999999959e+02 2.230930000000000291e+03
1.450000000000000178e-01 1.743939999999999935e-01 6.483909999999999840e+00 1.207539999999999907e+02 2.231005000000000109e+03
1.459999999999999909e-01 1.744005000000000138e-01 6.615540000000000198e+00 1.209149999999999920e+02 2.231065000000000055e+03
1.469999999999999918e-01 1.744050000000000045e-01 6.714774999999999494e+00 1.209944999999999879e+02 2.231105000000000018e+03
1.479999999999999927e-01 1.744070000000000065e-01 6.780075000000000074e+00 1.209950000000000045e+02 2.231125000000000000e+03
1.489999999999999936e-01 1.744070000000000065e-01 6.811790000000000234e+00 1.209205000000000041e+02 2.231125000000000000e+03
1.499999999999999944e-01 1.744049999999999767e-01 6.811965000000000714e+00 1.207805000000000035e+02 2.231110000000000127e+03
1.509999999999999953e-01 1.744009999999999727e-01 6.784040000000000070e+00 1.205859999999999985e+02 2.231074999999999818e+03
1.519999999999999962e-01 1.743950000000000222e-01 6.732515000000000249e+00 1.203489999999999895e+02 2.231025000000000091e+03
1.529999999999999971e-01 1.743885000000000018e-01 6.662580000000000169e+00 1.200845000000000056e+02 2.230970000000000255e+03
1.539999999999999980e-01 1.743810000000000082e-01 6.579720000000000013e+00 1.198054999999999950e+02 2.230900000000000091e+03
1.549999999999999989e-01 1.743724999999999858e-01 6.489329999999999821e+00 1.195259999999999962e+02 2.230829999999999927e+03
1.559999999999999998e-01 1.743639999999999912e-01 6.396399999999999864e+00 1.192554999999999978e+02 2.230755000000000109e+03
1.570000000000000007e-01 1.743560000000000110e-01 6.305225000000000080e+00 1.190030000000000001e+02 2.230684999999999945e+03
1.580000000000000016e-01 1.743490000000000040e-01 6.219205000000000538e+00 1.187750000000000057e+02 2.230619999999999891e+03
1.590000000000000024e-01 1.743414999999999826e-01 6.140715000000000146e+00 1.185734999999999957e+02 2.230559999999999945e+03
