# t [s], A [cm^2], U [cm/s], P [cPa], c [cm/s]
1.000000000000000021e-03 1.238710000000000089e-01 4.487885000000000346e-01 9.947175000000000011e+01 1.907579999999999927e+03
2.000000000000000042e-03 1.238405000000000061e-01 2.155771500000000174e+00 9.593125000000000568e+01 1.907204999999999927e+03
3.000000000000000062e-03 1.237479999999999969e-01 4.186924000000000312e+00 9.136960000000000548e+01 1.906115000000000009e+03
4.000000000000000083e-03 1.236174999999999913e-01 6.422819500000000126e+00 8.659964999999999691e+01 1.904594999999999800e+03
5.000000000000000104e-03 1.234734999999999860e-01 8.790874999999999773e+00 8.242119999999999891e+01 1.902930000000000064e+03
6.000000000000000125e-03 1.233309999999999962e-01 1.112790999999999997e+01 7.904890000000000327e+01 1.901299999999999955e+03
7.000000000000000146e-03 1.231960000000000000e-01 1.324778500000000037e+01 7.623394999999999300e+01 1.899779999999999973e+03
8.000000000000000167e-03 1.230699999999999988e-01 1.507277500000000003e+01 7.373290000000000077e+01 1.898384999999999991e+03
9.000000000000001055e-03 1.229564999999999964e-01 1.663070000000000093e+01 7.154619999999999891e+01 1.897144999999999982e+03
1.000000000000000194e-02 1.228575000000000084e-01 1.795490000000000208e+01 6.972924999999999329e+01 1.896075000000000045e+03
1.099999999999999936e-02 1.227729999999999932e-01 1.905640000000000001e+01 6.825405000000000655e+01 1.895170000000000073e+03
1.200000000000000025e-02 1.227029999999999926e-01 1.994525000000000148e+01 6.705759999999999366e+01 1.894424999999999955e+03
1.300000000000000114e-02 1.226445000000000035e-01 2.063179999999999836e+01 6.607359999999999900e+01 1.893815000000000055e+03
1.400000000000000203e-02 1.225960000000000105e-01 2.112695000000000078e+01 6.522790000000000532e+01 1.893315000000000055e+03
1.499999999999999944e-02 1.225555000000000117e-01 2.146620000000000061e+01 6.449035000000000650e+01 1.892905000000000200e+03
1.600000000000000033e-02 1.225219999999999920e-01 2.173189999999999955e+01 6.395695000000000618e+01 1.892575000000000045e+03
1.700000000000000122e-02 1.225009999999999988e-01 2.203910000000000124e+01 6.385394999999999754e+01 1.892369999999999891e+03
1.800000000000000211e-02 1.224965000000000082e-01 2.248770000000000024e+01 6.442775000000000318e+01 1.892340000000000146e+03
1.900000000000000300e-02 1.225124999999999964e-01 2.311339999999999861e+01 6.579194999999999993e+01 1.892519999999999982e+03
2.000000000000000042e-02 1.225485000000000047e-01 2.386870000000000047e+01 6.783174999999999955e+01 1.892920000000000073e+03
2.100000000000000130e-02 1.226009999999999878e-01 2.464009999999999678e+01 7.021659999999999968e+01 1.893480000000000018e+03
2.200000000000000219e-02 1.226605000000000056e-01 2.528979999999999961e+01 7.250464999999999804e+01 1.894130000000000109e+03
2.299999999999999961e-02 1.227169999999999928e-01 2.570175000000000054e+01 7.428395000000000437e+01 1.894759999999999991e+03
2.400000000000000050e-02 1.227629999999999971e-01 2.581484999999999985e+01 7.529185000000001082e+01 1.895275000000000091e+03
2.500000000000000139e-02 1.227924999999999989e-01 2.563344999999999985e+01 7.547379999999999711e+01 1.895615000000000009e+03
2.600000000000000228e-02 1.228044999999999970e-01 2.521689999999999898e+01 7.496944999999999482e+01 1.895769999999999982e+03
2.700000000000000316e-02 1.228019999999999945e-01 2.465234999999999843e+01 7.404034999999998945e+01 1.895764999999999873e+03
2.800000000000000058e-02 1.227894999999999959e-01 2.402505000000000024e+01 7.297200000000000841e+01 1.895650000000000091e+03
2.900000000000000147e-02 1.227725000000000066e-01 2.339470000000000027e+01 7.198629999999999995e+01 1.895474999999999909e+03
3.000000000000000236e-02 1.227550000000000030e-01 2.278504999999999825e+01 7.119155000000000655e+01 1.895289999999999964e+03
3.099999999999999978e-02 1.227389999999999870e-01 2.218769999999999953e+01 7.057845000000000368e+01 1.895115000000000009e+03
3.200000000000000067e-02 1.227234999999999993e-01 2.157495000000000118e+01 7.005445000000000277e+01 1.894954999999999927e+03
3.300000000000000155e-02 1.227084999999999981e-01 2.091799999999999926e+01 6.949805000000000632e+01 1.894789999999999964e+03
3.400000000000000244e-02 1.226905000000000079e-01 2.020224999999999937e+01 6.881544999999999845e+01 1.894605000000000018e+03
3.500000000000000333e-02 1.226695000000000008e-01 1.943775000000000119e+01 6.798060000000000969e+01 1.894384999999999991e+03
3.600000000000000422e-02 1.226454999999999906e-01 1.866084999999999994e+01 6.705199999999999250e+01 1.894125000000000000e+03
3.700000000000000511e-02 1.226204999999999934e-01 1.792799999999999727e+01 6.616079999999999472e+01 1.893855000000000018e+03
3.799999999999999906e-02 1.225969999999999976e-01 1.730270000000000152e+01 6.547724999999999795e+01 1.893610000000000127e+03
3.899999999999999994e-02 1.225799999999999945e-01 1.684069999999999823e+01 6.516509999999999536e+01 1.893414999999999964e+03
4.000000000000000083e-02 1.225720000000000004e-01 1.657610000000000028e+01 6.533655000000000257e+01 1.893329999999999927e+03
4.100000000000000172e-02 1.225769999999999915e-01 1.651299999999999812e+01 6.602125000000000909e+01 1.893365000000000009e+03
4.200000000000000261e-02 1.225934999999999941e-01 1.662334999999999852e+01 6.715455000000000041e+01 1.893534999999999854e+03
4.300000000000000350e-02 1.226209999999999939e-01 1.685200000000000031e+01 6.858799999999999386e+01 1.893824999999999818e+03
4.400000000000000439e-02 1.226560000000000150e-01 1.712584999999999980e+01 7.011580000000000723e+01 1.894190000000000055e+03
4.499999999999999833e-02 1.226935000000000109e-01 1.736580000000000013e+01 7.151095000000000823e+01 1.894585000000000036e+03
4.599999999999999922e-02 1.227280000000000038e-01 1.749770000000000181e+01 7.256104999999999450e+01 1.894960000000000036e+03
4.700000000000000011e-02 1.227545000000000025e-01 1.746160000000000068e+01 7.309794999999999732e+01 1.895244999999999891e+03
4.800000000000000100e-02 1.227695000000000036e-01 1.721705000000000041e+01 7.301624999999999943e+01 1.895404999999999973e+03
4.900000000000000189e-02 1.227685000000000026e-01 1.674494999999999933e+01 7.227885000000000559e+01 1.895410000000000082e+03
5.000000000000000278e-02 1.227514999999999995e-01 1.604654999999999987e+01 7.091159999999999286e+01 1.895230000000000018e+03
5.100000000000000366e-02 1.227175000000000071e-01 1.513945000000000007e+01 6.899025000000000318e+01 1.894875000000000000e+03
5.200000000000000455e-02 1.226690000000000003e-01 1.405355000000000132e+01 6.662350000000000705e+01 1.894360000000000127e+03
5.300000000000000544e-02 1.226074999999999943e-01 1.282642000000000060e+01 6.393629999999999569e+01 1.893699999999999818e+03
5.399999999999999939e-02 1.225360000000000060e-01 1.149986999999999959e+01 6.105644999999999811e+01 1.892930000000000064e+03
5.500000000000000028e-02 1.224569999999999964e-01 1.011730999999999980e+01 5.810545000000000471e+01 1.892090000000000146e+03
5.600000000000000117e-02 1.223744999999999972e-01 8.722294999999999021e+00 5.519449999999999790e+01 1.891200000000000045e+03
5.700000000000000205e-02 1.222904999999999964e-01 7.358184999999999754e+00 5.242405000000000115e+01 1.890300000000000182e+03
5.800000000000000294e-02 1.222094999999999987e-01 6.067800000000000082e+00 4.988535000000000252e+01 1.889420000000000073e+03
5.900000000000000383e-02 1.221325000000000049e-01 4.893245000000000289e+00 4.766290000000000049e+01 1.888595000000000027e+03
6.000000000000000472e-02 1.220640000000000058e-01 3.875574999999999992e+00 4.583624999999999972e+01 1.887845000000000027e+03
6.099999999999999867e-02 1.220050000000000023e-01 3.053889999999999993e+00 4.447974999999999568e+01 1.887199999999999818e+03
6.199999999999999956e-02 1.219590000000000118e-01 2.464058999999999777e+00 4.366150000000000375e+01 1.886695000000000164e+03
6.300000000000000044e-02 1.219270000000000076e-01 2.137119999999999909e+00 4.343994999999999607e+01 1.886340000000000146e+03
6.400000000000000133e-02 1.219125000000000070e-01 2.097560000000000091e+00 4.386029999999999518e+01 1.886164999999999964e+03
6.500000000000000222e-02 1.219149999999999956e-01 2.361790000000000056e+00 4.495064999999999600e+01 1.886180000000000064e+03
6.600000000000000311e-02 1.219369999999999898e-01 2.936914999999999942e+00 4.671880000000000166e+01 1.886400000000000091e+03
6.700000000000000400e-02 1.219790000000000041e-01 3.820139999999999869e+00 4.915030000000000143e+01 1.886829999999999927e+03
6.800000000000000488e-02 1.220399999999999957e-01 4.998759999999999870e+00 5.220850000000000080e+01 1.887470000000000027e+03
6.900000000000000577e-02 1.221200000000000063e-01 6.450795000000000279e+00 5.583624999999999972e+01 1.888315000000000055e+03
7.000000000000000666e-02 1.222169999999999923e-01 8.146209999999999951e+00 5.995879999999999654e+01 1.889345000000000027e+03
7.100000000000000755e-02 1.223299999999999943e-01 1.004845500000000058e+01 6.448830000000000950e+01 1.890545000000000073e+03
7.200000000000000844e-02 1.224559999999999954e-01 1.211650500000000008e+01 6.932890000000000441e+01 1.891894999999999982e+03
7.300000000000000933e-02 1.225934999999999941e-01 1.430668000000000006e+01 7.438155000000000427e+01 1.893365000000000009e+03
7.399999999999999634e-02 1.227379999999999999e-01 1.657474999999999810e+01 7.954935000000000400e+01 1.894934999999999945e+03
7.499999999999999722e-02 1.228889999999999982e-01 1.887754999999999939e+01 8.474174999999999613e+01 1.896559999999999945e+03
7.599999999999999811e-02 1.230419999999999986e-01 2.117510000000000048e+01 8.987839999999999918e+01 1.898230000000000018e+03
7.699999999999999900e-02 1.231960000000000000e-01 2.343155000000000143e+01 9.489224999999999000e+01 1.899905000000000200e+03
7.799999999999999989e-02 1.233484999999999998e-01 2.561659999999999826e+01 9.973029999999999973e+01 1.901575000000000045e+03
7.900000000000000078e-02 1.234975000000000100e-01 2.770615000000000094e+01 1.043575000000000017e+02 1.903210000000000036e+03
8.000000000000000167e-02 1.236424999999999885e-01 2.968290000000000006e+01 1.087540000000000049e+02 1.904804999999999836e+03
8.100000000000000255e-02 1.237820000000000031e-01 3.153614999999999924e+01 1.129145000000000039e+02 1.906344999999999800e+03
8.200000000000000344e-02 1.239154999999999979e-01 3.326154999999999973e+01 1.168489999999999895e+02 1.907820000000000164e+03
8.300000000000000433e-02 1.240440000000000015e-01 3.486050000000000182e+01 1.205780000000000030e+02 1.909244999999999891e+03
8.400000000000000522e-02 1.241664999999999852e-01 3.633894999999999698e+01 1.241315000000000026e+02 1.910610000000000127e+03
8.500000000000000611e-02 1.242844999999999922e-01 3.770660000000000167e+01 1.275420000000000016e+02 1.911925000000000182e+03
8.600000000000000699e-02 1.243979999999999947e-01 3.897504999999999598e+01 1.308460000000000036e+02 1.913194999999999936e+03
8.700000000000000788e-02 1.245085000000000081e-01 4.015704999999999814e+01 1.340759999999999934e+02 1.914430000000000064e+03
8.800000000000000877e-02 1.246165000000000050e-01 4.126500000000000057e+01 1.372620000000000005e+02 1.915634999999999991e+03
8.899999999999999578e-02 1.247225000000000000e-01 4.230989999999999895e+01 1.404265000000000043e+02 1.916825000000000045e+03
8.999999999999999667e-02 1.248274999999999940e-01 4.330064999999999742e+01 1.435824999999999818e+02 1.918005000000000109e+03
9.099999999999999756e-02 1.249315000000000009e-01 4.424314999999999998e+01 1.467359999999999900e+02 1.919170000000000073e+03
9.199999999999999845e-02 1.250350000000000072e-01 4.514039999999999964e+01 1.498824999999999932e+02 1.920335000000000036e+03
9.299999999999999933e-02 1.251379999999999992e-01 4.599204999999999899e+01 1.530090000000000146e+02 1.921485000000000127e+03
9.400000000000000022e-02 1.252405000000000046e-01 4.679469999999999885e+01 1.560949999999999989e+02 1.922630000000000109e+03
9.500000000000000111e-02 1.253404999999999936e-01 4.754250000000000398e+01 1.591144999999999925e+02 1.923759999999999991e+03
9.600000000000000200e-02 1.254390000000000227e-01 4.822704999999999842e+01 1.620360000000000014e+02 1.924869999999999891e+03
9.700000000000000289e-02 1.255344999999999933e-01 4.883859999999999957e+01 1.648265000000000100e+02 1.925940000000000055e+03
9.800000000000000377e-02 1.256260000000000154e-01 4.936655000000000371e+01 1.674519999999999982e+02 1.926974999999999909e+03
9.900000000000000466e-02 1.257130000000000192e-01 4.979979999999999762e+01 1.698795000000000073e+02 1.927954999999999927e+03
1.000000000000000056e-01 1.257935000000000025e-01 5.012794999999999845e+01 1.720794999999999959e+02 1.928875000000000000e+03
1.010000000000000064e-01 1.258684999999999943e-01 5.034159999999999968e+01 1.740249999999999773e+02 1.929720000000000027e+03
1.020000000000000073e-01 1.259355000000000058e-01 5.043280000000000030e+01 1.756955000000000098e+02 1.930480000000000018e+03
1.030000000000000082e-01 1.259949999999999959e-01 5.039574999999999960e+01 1.770759999999999934e+02 1.931160000000000082e+03
1.040000000000000091e-01 1.260455000000000048e-01 5.022705000000000553e+01 1.781569999999999823e+02 1.931740000000000009e+03
1.050000000000000100e-01 1.260875000000000190e-01 4.992589999999999861e+01 1.789364999999999952e+02 1.932224999999999909e+03
1.059999999999999970e-01 1.261204999999999965e-01 4.949430000000000263e+01 1.794200000000000159e+02 1.932605000000000018e+03
1.069999999999999979e-01 1.261450000000000071e-01 4.893710000000000093e+01 1.796185000000000116e+02 1.932884999999999991e+03
1.079999999999999988e-01 1.261599999999999944e-01 4.826180000000000092e+01 1.795494999999999948e+02 1.933074999999999818e+03
1.089999999999999997e-01 1.261674999999999880e-01 4.747845000000000226e+01 1.792350000000000136e+02 1.933164999999999964e+03
1.100000000000000006e-01 1.261670000000000014e-01 4.659924999999999784e+01 1.787030000000000030e+02 1.933170000000000073e+03
1.110000000000000014e-01 1.261589999999999934e-01 4.563809999999999434e+01 1.779839999999999804e+02 1.933095000000000027e+03
1.120000000000000023e-01 1.261454999999999937e-01 4.461019999999999897e+01 1.771115000000000066e+02 1.932945000000000164e+03
1.130000000000000032e-01 1.261265000000000025e-01 4.353154999999999575e+01 1.761175000000000068e+02 1.932740000000000009e+03
1.140000000000000041e-01 1.261025000000000063e-01 4.241825000000000045e+01 1.750375000000000227e+02 1.932480000000000018e+03
1.150000000000000050e-01 1.260760000000000214e-01 4.128584999999999638e+01 1.739030000000000200e+02 1.932184999999999945e+03
1.160000000000000059e-01 1.260459999999999914e-01 4.014920000000000044e+01 1.727439999999999998e+02 1.931860000000000127e+03
1.170000000000000068e-01 1.260149999999999881e-01 3.902174999999999727e+01 1.715850000000000080e+02 1.931505000000000109e+03
1.180000000000000077e-01 1.259830000000000116e-01 3.791505000000000081e+01 1.704490000000000123e+02 1.931144999999999982e+03
1.190000000000000085e-01 1.259510000000000074e-01 3.683859999999999957e+01 1.693509999999999991e+02 1.930789999999999964e+03
1.200000000000000094e-01 1.259184999999999888e-01 3.579954999999999643e+01 1.683040000000000020e+02 1.930429999999999836e+03
1.209999999999999964e-01 1.258874999999999855e-01 3.480280000000000484e+01 1.673125000000000000e+02 1.930074999999999818e+03
1.219999999999999973e-01 1.258575000000000110e-01 3.385065000000000168e+01 1.663785000000000025e+02 1.929735000000000127e+03
1.229999999999999982e-01 1.258279999999999954e-01 3.294320000000000448e+01 1.654975000000000023e+02 1.929400000000000091e+03
1.239999999999999991e-01 1.257999999999999952e-01 3.207835000000000036e+01 1.646610000000000014e+02 1.929090000000000146e+03
1.250000000000000000e-01 1.257734999999999825e-01 3.125200000000000244e+01 1.638580000000000041e+02 1.928780000000000200e+03
1.260000000000000009e-01 1.257469999999999977e-01 3.045870000000000033e+01 1.630740000000000123e+02 1.928485000000000127e+03
1.270000000000000018e-01 1.257214999999999860e-01 2.969165000000000276e+01 1.622914999999999850e+02 1.928190000000000055e+03
1.280000000000000027e-01 1.256960000000000022e-01 2.894324999999999903e+01 1.614939999999999998e+02 1.927900000000000091e+03
1.290000000000000036e-01 1.256694999999999895e-01 2.820554999999999879e+01 1.606630000000000109e+02 1.927599999999999909e+03
1.300000000000000044e-01 1.256430000000000047e-01 2.747044999999999959e+01 1.597830000000000155e+02 1.927295000000000073e+03
1.310000000000000053e-01 1.256150000000000044e-01 2.673035000000000139e+01 1.588380000000000223e+02 1.926980000000000018e+03
1.320000000000000062e-01 1.255850000000000022e-01 2.597834999999999894e+01 1.578145000000000095e+02 1.926639999999999873e+03
1.330000000000000071e-01 1.255525000000000113e-01 2.520850000000000080e+01 1.567029999999999745e+02 1.926279999999999973e+03
1.340000000000000080e-01 1.255179999999999907e-01 2.441635000000000133e+01 1.554959999999999809e+02 1.925889999999999873e+03
1.350000000000000089e-01 1.254810000000000092e-01 2.359875000000000256e+01 1.541910000000000025e+02 1.925470000000000027e+03
1.360000000000000098e-01 1.254409999999999969e-01 2.275435000000000230e+01 1.527874999999999943e+02 1.925025000000000091e+03
1.370000000000000107e-01 1.253980000000000095e-01 2.188354999999999961e+01 1.512914999999999850e+02 1.924549999999999955e+03
1.380000000000000115e-01 1.253524999999999778e-01 2.098839999999999861e+01 1.497099999999999795e+02 1.924039999999999964e+03
1.390000000000000124e-01 1.253049999999999997e-01 2.007280000000000086e+01 1.480564999999999998e+02 1.923505000000000109e+03
1.400000000000000133e-01 1.252544999999999908e-01 1.914204999999999757e+01 1.463444999999999823e+02 1.922945000000000164e+03
1.410000000000000142e-01 1.252024999999999944e-01 1.820295000000000130e+01 1.445930000000000177e+02 1.922365000000000009e+03
1.420000000000000151e-01 1.251490000000000102e-01 1.726330000000000098e+01 1.428220000000000027e+02 1.921769999999999982e+03
1.430000000000000160e-01 1.250950000000000117e-01 1.633170000000000144e+01 1.410509999999999877e+02 1.921164999999999964e+03
1.440000000000000169e-01 1.250400000000000122e-01 1.541729999999999912e+01 1.393040000000000020e+02 1.920554999999999836e+03
1.450000000000000178e-01 1.249859999999999999e-01 1.452939999999999898e+01 1.376005000000000109e+02 1.919954999999999927e+03
1.459999999999999909e-01 1.249330000000000024e-01 1.367684999999999995e+01 1.359615000000000009e+02 1.919360000000000127e+03
1.469999999999999918e-01 1.248810000000000059e-01 1.286805000000000021e+01 1.344060000000000059e+02 1.918779999999999973e+03
1.479999999999999927e-01 1.248315000000000119e-01 1.211053499999999872e+01 1.329485000000000241e+02 1.918224999999999909e+03
1.489999999999999936e-01 1.247844999999999926e-01 1.141069500000000048e+01 1.316034999999999968e+02 1.917699999999999818e+03
1.499999999999999944e-01 1.247400000000000037e-01 1.077338500000000110e+01 1.303795000000000073e+02 1.917204999999999927e+03
1.509999999999999953e-01 1.246994999999999909e-01 1.020205500000000143e+01 1.292829999999999870e+02 1.916750000000000000e+03
1.519999999999999962e-01 1.246624999999999955e-01 9.698444999999999538e+00 1.283160000000000025e+02 1.916329999999999927e+03
1.529999999999999971e-01 1.246289999999999898e-01 9.262824999999999420e+00 1.274780000000000086e+02 1.915949999999999818e+03
1.539999999999999980e-01 1.245989999999999875e-01 8.893744999999999123e+00 1.267630000000000052e+02 1.915615000000000009e+03
1.549999999999999989e-01 1.245729999999999893e-01 8.588269999999999627e+00 1.261639999999999873e+02 1.915319999999999936e+03
1.559999999999999998e-01 1.245499999999999940e-01 8.342259999999999565e+00 1.256700000000000017e+02 1.915059999999999945e+03
1.570000000000000007e-01 1.245304999999999884e-01 8.150404999999999234e+00 1.252685000000000031e+02 1.914835000000000036e+03
1.580000000000000016e-01 1.245140000000000136e-01 8.006544999999999135e+00 1.249465000000000003e+02 1.914650000000000091e+03
1.590000000000000024e-01 1.244999999999999996e-01 7.903890000000000526e+00 1.246889999999999930e+02 1.914490000000000009e+03
