# t [s], A [cm^2], U [cm/s], P [cPa], c [cm/s]
1.000000000000000021e-03 7.595855000000000246e-01 3.747500000000000830e-03 9.015619999999999834e+01 1.666440000000000055e+03
2.000000000000000042e-03 7.595794999999999630e-01 8.859749999999999570e-03 9.013134999999999764e+01 1.666429999999999836e+03
3.000000000000000062e-03 7.596700000000000674e-01 1.558937499999999976e-01 9.029120000000000346e+01 1.666465000000000146e+03
4.000000000000000083e-03 7.597019999999999884e-01 2.307305000000000050e-01 9.037364999999999782e+01 1.666485000000000127e+03
5.000000000000000104e-03 7.596214999999999495e-01 1.356505000000000072e-01 9.017674999999999841e+01 1.666445000000000164e+03
6.000000000000000125e-03 7.595240000000000880e-01 1.783000000000034557e-03 8.982380000000000564e+01 1.666375000000000000e+03
7.000000000000000146e-03 7.594064999999999843e-01 -1.775100000000000566e-01 8.933629999999999427e+01 1.666269999999999982e+03
8.000000000000000167e-03 7.591949999999999532e-01 -5.231299999999998729e-01 8.855070000000000618e+01 1.666110000000000127e+03
9.000000000000001055e-03 7.588840000000000030e-01 -1.041100000000000136e+00 8.740205000000000268e+01 1.665865000000000009e+03
1.000000000000000194e-02 7.584610000000000518e-01 -1.737500000000000044e+00 8.583305000000000007e+01 1.665534999999999854e+03
1.099999999999999936e-02 7.578964999999999730e-01 -2.635295000000000165e+00 8.376120000000000232e+01 1.665089999999999918e+03
1.200000000000000025e-02 7.572240000000000082e-01 -3.655534999999999535e+00 8.123490000000001032e+01 1.664529999999999973e+03
1.300000000000000114e-02 7.565515000000000434e-01 -4.589217999999999797e+00 7.851760000000000161e+01 1.663914999999999964e+03
1.400000000000000203e-02 7.559974999999999890e-01 -5.207262000000000057e+00 7.597460000000000946e+01 1.663304999999999836e+03
1.499999999999999944e-02 7.556190000000000406e-01 -5.382154999999999134e+00 7.388800000000000523e+01 1.662769999999999982e+03
1.600000000000000033e-02 7.553939999999998989e-01 -5.129680000000000462e+00 7.234549999999998704e+01 1.662335000000000036e+03
1.700000000000000122e-02 7.552494999999999070e-01 -4.577205000000000190e+00 7.123814999999999031e+01 1.661990000000000009e+03
1.800000000000000211e-02 7.550939999999999319e-01 -3.896739999999999871e+00 7.033379999999999654e+01 1.661684999999999945e+03
1.900000000000000300e-02 7.548600000000000865e-01 -3.234445000000000014e+00 6.938365000000000293e+01 1.661380000000000109e+03
2.000000000000000042e-02 7.545235000000000136e-01 -2.661265999999999909e+00 6.822034999999999627e+01 1.661049999999999955e+03
2.100000000000000130e-02 7.541084999999999594e-01 -2.164080000000000226e+00 6.680549999999999500e+01 1.660670000000000073e+03
2.200000000000000219e-02 7.536604999999999555e-01 -1.678500000000000103e+00 6.521179999999999666e+01 1.660250000000000000e+03
2.299999999999999961e-02 7.532229999999999759e-01 -1.141395000000000159e+00 6.355534999999999712e+01 1.659819999999999936e+03
2.400000000000000050e-02 7.528124999999999956e-01 -5.343799999999998551e-01 6.192164999999999964e+01 1.659380000000000109e+03
2.500000000000000139e-02 7.524140000000000272e-01 9.792999999999985050e-02 6.031615000000000038e+01 1.658949999999999818e+03
2.600000000000000228e-02 7.519830000000000680e-01 6.558500000000000441e-01 5.865194999999999936e+01 1.658500000000000000e+03
2.700000000000000316e-02 7.514624999999999222e-01 1.011164999999999647e+00 5.677270000000000039e+01 1.658009999999999991e+03
2.800000000000000058e-02 7.508015000000000105e-01 1.042759999999999909e+00 5.449909999999999854e+01 1.657444999999999936e+03
2.900000000000000147e-02 7.499694999999999556e-01 6.715199999999996727e-01 5.168684999999999974e+01 1.656765000000000100e+03
3.000000000000000236e-02 7.489695000000000658e-01 -1.155299999999996885e-01 4.827750000000000341e+01 1.655960000000000036e+03
3.099999999999999978e-02 7.478384999999999616e-01 -1.259500000000000064e+00 4.432645000000000124e+01 1.655039999999999964e+03
3.200000000000000067e-02 7.466399999999999704e-01 -2.643740000000000201e+00 3.999949999999999761e+01 1.654025000000000091e+03
3.300000000000000155e-02 7.454509999999999748e-01 -4.120824999999999960e+00 3.554175000000000040e+01 1.652970000000000027e+03
3.400000000000000244e-02 7.443469999999999809e-01 -5.542350000000000776e+00 3.123170000000000002e+01 1.651925000000000182e+03
3.500000000000000333e-02 7.433885000000000076e-01 -6.782205000000000261e+00 2.733565000000000111e+01 1.650954999999999927e+03
3.600000000000000422e-02 7.426194999999999879e-01 -7.749667999999999779e+00 2.407240000000000180e+01 1.650105000000000018e+03
3.700000000000000511e-02 7.420625000000000693e-01 -8.392165000000000319e+00 2.159290000000000020e+01 1.649425000000000182e+03
3.799999999999999906e-02 7.417249999999999677e-01 -8.690419999999999590e+00 1.997579999999999956e+01 1.648934999999999945e+03
3.899999999999999994e-02 7.415990000000000082e-01 -8.648710000000001230e+00 1.923505000000000109e+01 1.648644999999999982e+03
4.000000000000000083e-02 7.416709999999999692e-01 -8.284520000000000550e+00 1.933605000000000018e+01 1.648549999999999955e+03
4.100000000000000172e-02 7.419234999999999580e-01 -7.619539999999999758e+00 2.021430000000000149e+01 1.648655000000000200e+03
4.200000000000000261e-02 7.423385000000000122e-01 -6.675015000000000143e+00 2.179100000000000037e+01 1.648929999999999836e+03
4.300000000000000350e-02 7.428995000000000459e-01 -5.471064999999999401e+00 2.398380000000000223e+01 1.649365000000000009e+03
4.400000000000000439e-02 7.435875000000000679e-01 -4.029379999999999740e+00 2.670994999999999919e+01 1.649944999999999936e+03
4.499999999999999833e-02 7.443845000000000045e-01 -2.377299999999999969e+00 2.988545000000000229e+01 1.650639999999999873e+03
4.599999999999999922e-02 7.452674999999999716e-01 -5.512350000000001415e-01 3.342125000000000057e+01 1.651440000000000055e+03
4.700000000000000011e-02 7.462115000000000276e-01 1.402444999999999276e+00 3.722090000000000032e+01 1.652315000000000055e+03
4.800000000000000100e-02 7.471885000000000332e-01 3.428964999999999819e+00 4.118089999999999407e+01 1.653244999999999891e+03
4.900000000000000189e-02 7.481705000000000716e-01 5.468820000000000014e+00 4.519369999999999976e+01 1.654200000000000045e+03
5.000000000000000278e-02 7.491305000000000325e-01 7.462825000000000486e+00 4.915364999999999895e+01 1.655164999999999964e+03
5.100000000000000366e-02 7.500445000000000029e-01 9.357120000000000104e+00 5.296455000000000268e+01 1.656110000000000127e+03
5.200000000000000455e-02 7.508950000000000902e-01 1.110740999999999978e+01 5.654600000000000648e+01 1.657010000000000218e+03
5.300000000000000544e-02 7.516709999999999781e-01 1.268170999999999893e+01 5.983950000000000102e+01 1.657860000000000127e+03
5.399999999999999939e-02 7.523659999999999792e-01 1.406125999999999898e+01 6.281069999999999709e+01 1.658639999999999873e+03
5.500000000000000028e-02 7.529829999999999579e-01 1.524024999999999963e+01 6.545060000000000855e+01 1.659349999999999909e+03
5.600000000000000117e-02 7.535275000000000167e-01 1.622425000000000139e+01 6.777280000000000371e+01 1.659990000000000009e+03
5.700000000000000205e-02 7.540094999999999992e-01 1.702775000000000105e+01 6.981030000000001223e+01 1.660559999999999945e+03
5.800000000000000294e-02 7.544425000000000159e-01 1.767239999999999966e+01 7.161074999999999591e+01 1.661074999999999818e+03
5.900000000000000383e-02 7.548405000000000253e-01 1.818455000000000155e+01 7.323154999999999859e+01 1.661545000000000073e+03
6.000000000000000472e-02 7.552195000000000435e-01 1.859355000000000047e+01 7.473545000000000016e+01 1.661974999999999909e+03
6.099999999999999867e-02 7.555944999999999467e-01 1.892994999999999806e+01 7.618619999999999948e+01 1.662384999999999991e+03
6.199999999999999956e-02 7.559789999999999566e-01 1.922419999999999973e+01 7.764464999999999861e+01 1.662799999999999955e+03
6.300000000000000044e-02 7.563864999999999617e-01 1.950455000000000183e+01 7.916509999999999536e+01 1.663210000000000036e+03
6.400000000000000133e-02 7.568265000000000686e-01 1.979540000000000077e+01 8.079200000000000159e+01 1.663644999999999982e+03
6.500000000000000222e-02 7.573045000000000471e-01 2.011594999999999800e+01 8.255689999999999884e+01 1.664105000000000018e+03
6.600000000000000311e-02 7.578240000000000531e-01 2.047850000000000037e+01 8.447599999999999909e+01 1.664599999999999909e+03
6.700000000000000400e-02 7.583809999999999718e-01 2.088739999999999952e+01 8.654869999999999663e+01 1.665130000000000109e+03
6.800000000000000488e-02 7.589714999999999101e-01 2.133924999999999983e+01 8.875735000000000241e+01 1.665690000000000055e+03
6.900000000000000577e-02 7.595834999999999670e-01 2.182319999999999993e+01 9.106874999999999432e+01 1.666269999999999982e+03
7.000000000000000666e-02 7.602050000000000196e-01 2.232200000000000273e+01 9.343619999999999948e+01 1.666869999999999891e+03
7.100000000000000755e-02 7.608204999999998996e-01 2.281394999999999840e+01 9.580339999999999634e+01 1.667474999999999909e+03
7.200000000000000844e-02 7.614144999999999941e-01 2.327494999999999692e+01 9.810855000000000814e+01 1.668070000000000164e+03
7.300000000000000933e-02 7.619715000000000238e-01 2.367994999999999806e+01 1.002890999999999906e+02 1.668634999999999991e+03
7.399999999999999634e-02 7.624765000000000015e-01 2.400549999999999784e+01 1.022853999999999957e+02 1.669164999999999964e+03
7.499999999999999722e-02 7.629179999999999851e-01 2.423089999999999833e+01 1.040455000000000041e+02 1.669640000000000100e+03
7.599999999999999811e-02 7.632864999999999789e-01 2.433970000000000056e+01 1.055275000000000034e+02 1.670049999999999955e+03
7.699999999999999900e-02 7.635760000000000325e-01 2.432059999999999889e+01 1.067009999999999934e+02 1.670390000000000100e+03
7.799999999999999989e-02 7.637834999999999486e-01 2.416760000000000019e+01 1.075515000000000043e+02 1.670654999999999973e+03
7.900000000000000078e-02 7.639100000000000890e-01 2.388060000000000116e+01 1.080750000000000028e+02 1.670845000000000027e+03
8.000000000000000167e-02 7.639590000000000547e-01 2.346509999999999962e+01 1.082835000000000036e+02 1.670949999999999818e+03
8.100000000000000255e-02 7.639374999999999361e-01 2.293155000000000143e+01 1.081999999999999886e+02 1.670980000000000018e+03
8.200000000000000344e-02 7.638534999999999631e-01 2.229489999999999839e+01 1.078569999999999993e+02 1.670944999999999936e+03
8.300000000000000433e-02 7.637190000000000367e-01 2.157379999999999853e+01 1.072965000000000089e+02 1.670855000000000018e+03
8.400000000000000522e-02 7.635450000000000292e-01 2.078924999999999912e+01 1.065665000000000049e+02 1.670710000000000036e+03
8.500000000000000611e-02 7.633440000000000225e-01 1.996405000000000030e+01 1.057169000000000096e+02 1.670530000000000200e+03
8.600000000000000699e-02 7.631299999999999750e-01 1.912115000000000009e+01 1.047987499999999983e+02 1.670329999999999927e+03
8.700000000000000788e-02 7.629124999999999934e-01 1.828289999999999793e+01 1.038622500000000031e+02 1.670115000000000009e+03
8.800000000000000877e-02 7.627045000000000075e-01 1.746985000000000099e+01 1.029516500000000008e+02 1.669900000000000091e+03
8.899999999999999578e-02 7.625139999999999141e-01 1.669979999999999976e+01 1.021080500000000058e+02 1.669690000000000055e+03
8.999999999999999667e-02 7.623480000000000256e-01 1.598714999999999975e+01 1.013620500000000106e+02 1.669494999999999891e+03
9.099999999999999756e-02 7.622130000000000294e-01 1.534220000000000006e+01 1.007372000000000014e+02 1.669335000000000036e+03
9.199999999999999845e-02 7.621094999999999953e-01 1.477094999999999914e+01 1.002481999999999971e+02 1.669194999999999936e+03
9.299999999999999933e-02 7.620394999999999808e-01 1.427495000000000047e+01 9.989894999999999925e+01 1.669090000000000146e+03
9.400000000000000022e-02 7.620009999999999284e-01 1.385170000000000101e+01 9.968630000000000280e+01 1.669014999999999873e+03
9.500000000000000111e-02 7.619905000000000150e-01 1.349455000000000027e+01 9.959774999999999068e+01 1.668970000000000027e+03
9.600000000000000200e-02 7.620020000000000682e-01 1.319359999999999999e+01 9.961410000000000764e+01 1.668949999999999818e+03
9.700000000000000289e-02 7.620305000000000550e-01 1.293625000000000114e+01 9.971035000000000537e+01 1.668954999999999927e+03
9.800000000000000377e-02 7.620679999999999676e-01 1.270800000000000018e+01 9.985845000000000482e+01 1.668970000000000027e+03
9.900000000000000466e-02 7.621059999999999501e-01 1.249324999999999974e+01 1.000272500000000093e+02 1.669000000000000000e+03
1.000000000000000056e-01 7.621390000000000109e-01 1.227619999999999933e+01 1.001861999999999995e+02 1.669030000000000200e+03
1.010000000000000064e-01 7.621584999999999610e-01 1.204194999999999993e+01 1.003050499999999943e+02 1.669050000000000182e+03
1.020000000000000073e-01 7.621584999999999610e-01 1.177701500000000046e+01 1.003579000000000008e+02 1.669065000000000055e+03
1.030000000000000082e-01 7.621344999999999370e-01 1.147032000000000096e+01 1.003237499999999898e+02 1.669054999999999836e+03
1.040000000000000091e-01 7.620845000000000535e-01 1.111366500000000102e+01 1.001859000000000037e+02 1.669025000000000091e+03
1.050000000000000100e-01 7.620055000000000023e-01 1.070218000000000025e+01 9.993574999999999875e+01 1.668974999999999909e+03
1.059999999999999970e-01 7.618985000000000340e-01 1.023486500000000099e+01 9.957210000000000605e+01 1.668894999999999982e+03
1.069999999999999979e-01 7.617655000000000953e-01 9.714085000000000747e+00 9.909985000000000355e+01 1.668789999999999964e+03
1.079999999999999988e-01 7.616104999999999681e-01 9.145974999999999966e+00 9.853265000000000384e+01 1.668659999999999854e+03
1.089999999999999997e-01 7.614395000000000469e-01 8.539780000000000371e+00 9.788849999999999341e+01 1.668509999999999991e+03
1.100000000000000006e-01 7.612579999999999902e-01 7.907479999999999620e+00 9.719225000000000136e+01 1.668349999999999909e+03
1.110000000000000014e-01 7.610734999999999584e-01 7.262950000000000017e+00 9.647194999999999254e+01 1.668179999999999836e+03
1.120000000000000023e-01 7.608945000000000292e-01 6.621444999999999581e+00 9.575769999999999982e+01 1.668005000000000109e+03
1.130000000000000032e-01 7.607275000000000009e-01 5.998639999999999972e+00 9.508074999999999477e+01 1.667835000000000036e+03
1.140000000000000041e-01 7.605815000000000214e-01 5.409790000000000099e+00 9.447139999999998849e+01 1.667679999999999836e+03
1.150000000000000050e-01 7.604615000000000125e-01 4.868929999999999758e+00 9.395624999999999716e+01 1.667549999999999955e+03
1.160000000000000059e-01 7.603729999999999656e-01 4.388175000000000381e+00 9.355859999999999843e+01 1.667434999999999945e+03
1.170000000000000068e-01 7.603199999999999958e-01 3.977090000000000014e+00 9.329625000000000057e+01 1.667355000000000018e+03
1.180000000000000077e-01 7.603050000000000086e-01 3.642285000000000217e+00 9.318059999999999832e+01 1.667315000000000055e+03
1.190000000000000085e-01 7.603284999999999627e-01 3.387139999999999596e+00 9.321639999999999304e+01 1.667299999999999955e+03
1.200000000000000094e-01 7.603884999999999117e-01 3.211775000000000269e+00 9.340174999999999272e+01 1.667324999999999818e+03
1.209999999999999964e-01 7.604824999999999502e-01 3.113170000000000215e+00 9.372820000000000107e+01 1.667389999999999873e+03
1.219999999999999973e-01 7.606070000000000331e-01 3.085440000000000182e+00 9.418170000000000641e+01 1.667474999999999909e+03
1.229999999999999982e-01 7.607569999999999055e-01 3.120254999999999779e+00 9.474330000000000496e+01 1.667599999999999909e+03
1.239999999999999991e-01 7.609254999999999214e-01 3.207349999999999923e+00 9.539029999999999632e+01 1.667740000000000009e+03
1.250000000000000000e-01 7.611069999999999780e-01 3.335079999999999600e+00 9.609790000000000987e+01 1.667900000000000091e+03
1.260000000000000009e-01 7.612950000000000550e-01 3.490985000000000227e+00 9.683985000000001264e+01 1.668079999999999927e+03
1.270000000000000018e-01 7.614834999999999798e-01 3.662404999999999688e+00 9.759010000000000673e+01 1.668255000000000109e+03
1.280000000000000027e-01 7.616650000000000365e-01 3.836959999999999926e+00 9.832370000000000232e+01 1.668434999999999945e+03
1.290000000000000036e-01 7.618350000000000399e-01 4.003065000000000317e+00 9.901864999999999384e+01 1.668605000000000018e+03
1.300000000000000044e-01 7.619890000000000274e-01 4.150344999999999729e+00 9.965459999999998786e+01 1.668764999999999873e+03
1.310000000000000053e-01 7.621234999999999538e-01 4.269940000000000069e+00 1.002155999999999949e+02 1.668914999999999964e+03
1.320000000000000062e-01 7.622360000000000246e-01 4.354784999999999684e+00 1.006895499999999970e+02 1.669039999999999964e+03
1.330000000000000071e-01 7.623244999999999605e-01 4.399734999999999729e+00 1.010685000000000002e+02 1.669144999999999982e+03
1.340000000000000080e-01 7.623885000000000245e-01 4.401659999999999684e+00 1.013479999999999990e+02 1.669230000000000018e+03
1.350000000000000089e-01 7.624284999999999535e-01 4.359415000000000262e+00 1.015289999999999964e+02 1.669284999999999854e+03
1.360000000000000098e-01 7.624450000000000394e-01 4.273760000000000225e+00 1.016144999999999925e+02 1.669329999999999927e+03
1.370000000000000107e-01 7.624410000000000354e-01 4.147194999999999965e+00 1.016115000000000066e+02 1.669340000000000146e+03
1.380000000000000115e-01 7.624184999999999990e-01 3.983755000000000379e+00 1.015289999999999964e+02 1.669339999999999918e+03
1.390000000000000124e-01 7.623805000000000165e-01 3.788714999999999833e+00 1.013790500000000065e+02 1.669315000000000055e+03
1.400000000000000133e-01 7.623299999999999521e-01 3.568274999999999864e+00 1.011741000000000099e+02 1.669275000000000091e+03
1.410000000000000142e-01 7.622705000000000730e-01 3.329259999999999664e+00 1.009278000000000048e+02 1.669230000000000018e+03
1.420000000000000151e-01 7.622059999999999391e-01 3.078730000000000189e+00 1.006531999999999982e+02 1.669170000000000073e+03
1.430000000000000160e-01 7.621385000000000520e-01 2.823669999999999902e+00 1.003637999999999977e+02 1.669109999999999900e+03
1.440000000000000169e-01 7.620715000000000128e-01 2.570650000000000102e+00 1.000705999999999989e+02 1.669039999999999964e+03
1.450000000000000178e-01 7.620065000000000310e-01 2.325535000000000352e+00 9.978379999999999939e+01 1.668970000000000027e+03
1.459999999999999909e-01 7.619460000000000122e-01 2.093295000000000350e+00 9.951159999999998718e+01 1.668904999999999973e+03
1.469999999999999918e-01 7.618905000000000260e-01 1.877790000000000070e+00 9.925905000000000200e+01 1.668845000000000027e+03
1.479999999999999927e-01 7.618415000000000603e-01 1.681704000000000088e+00 9.902960000000000207e+01 1.668785000000000082e+03
1.489999999999999936e-01 7.617970000000000574e-01 1.506512999999999991e+00 9.882425000000000637e+01 1.668730000000000018e+03
1.499999999999999944e-01 7.617579999999999352e-01 1.352530499999999858e+00 9.864105000000000700e+01 1.668680000000000064e+03
1.509999999999999953e-01 7.617234999999999978e-01 1.219019999999999992e+00 9.847690000000000055e+01 1.668634999999999991e+03
1.519999999999999962e-01 7.616914999999999658e-01 1.104343999999999992e+00 9.832679999999999154e+01 1.668595000000000027e+03
1.529999999999999971e-01 7.616605000000000736e-01 1.006152999999999853e+00 9.818485000000001151e+01 1.668555000000000064e+03
1.539999999999999980e-01 7.616279999999999717e-01 9.215875000000000039e-01 9.804439999999999600e+01 1.668514999999999873e+03
1.549999999999999989e-01 7.615939999999999932e-01 8.475159999999999361e-01 9.789875000000000682e+01 1.668474999999999909e+03
1.559999999999999998e-01 7.615555000000000518e-01 7.807135000000000602e-01 9.774150000000000205e+01 1.668430000000000064e+03
1.570000000000000007e-01 7.615119999999999667e-01 7.180770000000000763e-01 9.756680000000000064e+01 1.668385000000000218e+03
1.580000000000000016e-01 7.614625000000000421e-01 6.567773500000000375e-01 9.737005000000000621e+01 1.668335000000000036e+03
1.590000000000000024e-01 7.614049999999999985e-01 5.944134500000000099e-01 9.714780000000000371e+01 1.668279999999999973e+03
