# t [s], A [cm^2], U [cm/s], P [cPa], c [cm/s]
1.000000000000000021e-03 1.194874999999999965e-01 3.511620000000000297e-01 9.888274999999998727e+01 1.835549999999999955e+03
2.000000000000000042e-03 1.194620000000000126e-01 1.965451000000000059e+00 9.573650000000000659e+01 1.835195000000000164e+03
3.000000000000000062e-03 1.193764999999999965e-01 3.923091000000000328e+00 9.161230000000000473e+01 1.834059999999999945e+03
4.000000000000000083e-03 1.192509999999999959e-01 6.085752499999999898e+00 8.709489999999999554e+01 1.832424999999999955e+03
5.000000000000000104e-03 1.191085000000000060e-01 8.395520000000001204e+00 8.293529999999999802e+01 1.830579999999999927e+03
6.000000000000000125e-03 1.189645000000000008e-01 1.072772499999999951e+01 7.946944999999999482e+01 1.828744999999999891e+03
7.000000000000000146e-03 1.188275000000000026e-01 1.290842999999999918e+01 7.659534999999999627e+01 1.827005000000000109e+03
8.000000000000000167e-03 1.186984999999999985e-01 1.482079500000000039e+01 7.407104999999999961e+01 1.825409999999999854e+03
9.000000000000001055e-03 1.185805000000000053e-01 1.645860000000000056e+01 7.181929999999999836e+01 1.823960000000000036e+03
1.000000000000000194e-02 1.184759999999999980e-01 1.785770000000000124e+01 6.989359999999999218e+01 1.822694999999999936e+03
1.099999999999999936e-02 1.183859999999999912e-01 1.903869999999999862e+01 6.831215000000000259e+01 1.821625000000000000e+03
1.200000000000000025e-02 1.183104999999999990e-01 2.001330000000000098e+01 6.703919999999999391e+01 1.820724999999999909e+03
1.300000000000000114e-02 1.182480000000000059e-01 2.079459999999999908e+01 6.602710000000000434e+01 1.819994999999999891e+03
1.400000000000000203e-02 1.181969999999999965e-01 2.139050000000000296e+01 6.521420000000000528e+01 1.819410000000000082e+03
1.499999999999999944e-02 1.181554999999999966e-01 2.181090000000000018e+01 6.452909999999999968e+01 1.818934999999999945e+03
1.600000000000000033e-02 1.181205000000000171e-01 2.209295000000000186e+01 6.395035000000000025e+01 1.818550000000000182e+03
1.700000000000000122e-02 1.180935000000000040e-01 2.231670000000000087e+01 6.357130000000000081e+01 1.818255000000000109e+03
1.800000000000000211e-02 1.180779999999999885e-01 2.258709999999999951e+01 6.358974999999999511e+01 1.818099999999999909e+03
1.900000000000000300e-02 1.180790000000000034e-01 2.299139999999999873e+01 6.421170000000000755e+01 1.818119999999999891e+03
2.000000000000000042e-02 1.180984999999999951e-01 2.355930000000000035e+01 6.552920000000000300e+01 1.818369999999999891e+03
2.100000000000000130e-02 1.181365000000000054e-01 2.424804999999999922e+01 6.744655000000000200e+01 1.818829999999999927e+03
2.200000000000000219e-02 1.181895000000000029e-01 2.495725000000000193e+01 6.968924999999998704e+01 1.819474999999999909e+03
2.299999999999999961e-02 1.182500000000000079e-01 2.556380000000000052e+01 7.188410000000000366e+01 1.820200000000000045e+03
2.400000000000000050e-02 1.183079999999999965e-01 2.596059999999999945e+01 7.367085000000000150e+01 1.820920000000000073e+03
2.500000000000000139e-02 1.183559999999999890e-01 2.608605000000000018e+01 7.480160000000000764e+01 1.821525000000000091e+03
2.600000000000000228e-02 1.183895000000000086e-01 2.593645000000000067e+01 7.519700000000000273e+01 1.821950000000000045e+03
2.700000000000000316e-02 1.184059999999999974e-01 2.555890000000000128e+01 7.494655000000000200e+01 1.822179999999999836e+03
2.800000000000000058e-02 1.184090000000000004e-01 2.503170000000000073e+01 7.426045000000000584e+01 1.822235000000000127e+03
2.900000000000000147e-02 1.184014999999999929e-01 2.443769999999999953e+01 7.339304999999998813e+01 1.822164999999999964e+03
3.000000000000000236e-02 1.183885000000000076e-01 2.384185000000000088e+01 7.256655000000000655e+01 1.822025000000000091e+03
3.099999999999999978e-02 1.183750000000000080e-01 2.327794999999999703e+01 7.191714999999999236e+01 1.821865000000000009e+03
3.200000000000000067e-02 1.183634999999999965e-01 2.274664999999999893e+01 7.147560000000000002e+01 1.821730000000000018e+03
3.300000000000000155e-02 1.183545000000000014e-01 2.222424999999999784e+01 7.118200000000000216e+01 1.821615000000000009e+03
3.400000000000000244e-02 1.183460000000000067e-01 2.167624999999999957e+01 7.092355000000000587e+01 1.821514999999999873e+03
3.500000000000000333e-02 1.183369999999999977e-01 2.107314999999999827e+01 7.058199999999999363e+01 1.821409999999999854e+03
3.600000000000000422e-02 1.183244999999999991e-01 2.040285000000000082e+01 7.007739999999999725e+01 1.821264999999999873e+03
3.700000000000000511e-02 1.183079999999999965e-01 1.967755000000000010e+01 6.939664999999999395e+01 1.821074999999999818e+03
3.799999999999999906e-02 1.182879999999999904e-01 1.893384999999999962e+01 6.860169999999999391e+01 1.820840000000000146e+03
3.899999999999999994e-02 1.182660000000000100e-01 1.822574999999999790e+01 6.781704999999999472e+01 1.820579999999999927e+03
4.000000000000000083e-02 1.182455000000000034e-01 1.761345000000000027e+01 6.719939999999999714e+01 1.820335000000000036e+03
4.100000000000000172e-02 1.182305000000000023e-01 1.714959999999999951e+01 6.689974999999999739e+01 1.820144999999999982e+03
4.200000000000000261e-02 1.182235000000000091e-01 1.686805000000000021e+01 6.702600000000001046e+01 1.820059999999999945e+03
4.300000000000000350e-02 1.182284999999999864e-01 1.677619999999999933e+01 6.761695000000000277e+01 1.820105000000000018e+03
4.400000000000000439e-02 1.182445000000000024e-01 1.685309999999999775e+01 6.863165000000000759e+01 1.820284999999999854e+03
4.499999999999999833e-02 1.182715000000000016e-01 1.705314999999999870e+01 6.995570000000000732e+01 1.820599999999999909e+03
4.599999999999999922e-02 1.183060000000000084e-01 1.731360000000000099e+01 7.142130000000000223e+01 1.821000000000000000e+03
4.700000000000000011e-02 1.183445000000000052e-01 1.756425000000000125e+01 7.283514999999999873e+01 1.821460000000000036e+03
4.800000000000000100e-02 1.183815000000000006e-01 1.773714999999999975e+01 7.400844999999999629e+01 1.821904999999999973e+03
4.900000000000000189e-02 1.184130000000000044e-01 1.777479999999999905e+01 7.478220000000000312e+01 1.822279999999999973e+03
5.000000000000000278e-02 1.184340000000000115e-01 1.763555000000000206e+01 7.504570000000001073e+01 1.822539999999999964e+03
5.100000000000000366e-02 1.184425000000000061e-01 1.729619999999999891e+01 7.474430000000000973e+01 1.822644999999999982e+03
5.200000000000000455e-02 1.184365000000000001e-01 1.675155000000000172e+01 7.387879999999999825e+01 1.822579999999999927e+03
5.300000000000000544e-02 1.184140000000000054e-01 1.601205000000000211e+01 7.249665000000000248e+01 1.822329999999999927e+03
5.399999999999999939e-02 1.183780000000000110e-01 1.509984999999999999e+01 7.067924999999999613e+01 1.821900000000000091e+03
5.500000000000000028e-02 1.183295000000000041e-01 1.404529999999999923e+01 6.852764999999999418e+01 1.821325000000000045e+03
5.600000000000000117e-02 1.182700000000000001e-01 1.288285999999999909e+01 6.614929999999999666e+01 1.820615000000000009e+03
5.700000000000000205e-02 1.182030000000000025e-01 1.164871000000000123e+01 6.364885000000000304e+01 1.819815000000000055e+03
5.800000000000000294e-02 1.181309999999999999e-01 1.037916500000000042e+01 6.112220000000000653e+01 1.818944999999999936e+03
5.900000000000000383e-02 1.180559999999999943e-01 9.109854999999999592e+00 5.865465000000000373e+01 1.818049999999999955e+03
6.000000000000000472e-02 1.179814999999999892e-01 7.875494999999999912e+00 5.632169999999999987e+01 1.817154999999999973e+03
6.099999999999999867e-02 1.179095000000000004e-01 6.710470000000000823e+00 5.419124999999999659e+01 1.816284999999999854e+03
6.199999999999999956e-02 1.178420000000000023e-01 5.648534999999999862e+00 5.232640000000000668e+01 1.815474999999999909e+03
6.300000000000000044e-02 1.177814999999999973e-01 4.722925000000000040e+00 5.078695000000000448e+01 1.814740000000000009e+03
6.400000000000000133e-02 1.177300000000000013e-01 3.965689999999999937e+00 4.963030000000000541e+01 1.814115000000000009e+03
6.500000000000000222e-02 1.176889999999999881e-01 3.406724999999999781e+00 4.891025000000000489e+01 1.813610000000000127e+03
6.600000000000000311e-02 1.176610000000000017e-01 3.072484999999999911e+00 4.867470000000000141e+01 1.813259999999999991e+03
6.700000000000000400e-02 1.176470000000000016e-01 2.984555000000000291e+00 4.896264999999999645e+01 1.813075000000000045e+03
6.800000000000000488e-02 1.176484999999999892e-01 3.158300000000000107e+00 4.980089999999999861e+01 1.813075000000000045e+03
6.900000000000000577e-02 1.176669999999999938e-01 3.601739999999999942e+00 5.120120000000000005e+01 1.813275000000000091e+03
7.000000000000000666e-02 1.177015000000000006e-01 4.314950000000000507e+00 5.315814999999999912e+01 1.813675000000000182e+03
7.100000000000000755e-02 1.177539999999999976e-01 5.289819999999999744e+00 5.564900000000000091e+01 1.814279999999999973e+03
7.200000000000000844e-02 1.178230000000000111e-01 6.510470000000000645e+00 5.863384999999999536e+01 1.815090000000000146e+03
7.300000000000000933e-02 1.179074999999999984e-01 7.954060000000000130e+00 6.205825000000000102e+01 1.816085000000000036e+03
7.399999999999999634e-02 1.180059999999999998e-01 9.591965000000000074e+00 6.585580000000000211e+01 1.817250000000000000e+03
7.499999999999999722e-02 1.181164999999999993e-01 1.139131500000000052e+01 6.995204999999999984e+01 1.818574999999999818e+03
7.599999999999999811e-02 1.182380000000000098e-01 1.331628999999999863e+01 7.426845000000000141e+01 1.820025000000000091e+03
7.699999999999999900e-02 1.183675000000000005e-01 1.533004999999999995e+01 7.872620000000000573e+01 1.821579999999999927e+03
7.799999999999999989e-02 1.185024999999999967e-01 1.739590000000000103e+01 8.324969999999999004e+01 1.823215000000000146e+03
7.900000000000000078e-02 1.186419999999999975e-01 1.947889999999999944e+01 8.776990000000000691e+01 1.824900000000000091e+03
8.000000000000000167e-02 1.187824999999999853e-01 2.154675000000000296e+01 9.222660000000000480e+01 1.826609999999999900e+03
8.100000000000000255e-02 1.189230000000000009e-01 2.357124999999999915e+01 9.656985000000000241e+01 1.828325000000000045e+03
8.200000000000000344e-02 1.190620000000000012e-01 2.552864999999999895e+01 1.007628500000000003e+02 1.830014999999999873e+03
8.300000000000000433e-02 1.191969999999999974e-01 2.740055000000000263e+01 1.047797999999999945e+02 1.831684999999999945e+03
8.400000000000000522e-02 1.193279999999999896e-01 2.917369999999999663e+01 1.086084999999999923e+02 1.833299999999999955e+03
8.500000000000000611e-02 1.194549999999999917e-01 3.084040000000000248e+01 1.122489999999999952e+02 1.834869999999999891e+03
8.600000000000000699e-02 1.195770000000000027e-01 3.239779999999999660e+01 1.157104999999999961e+02 1.836380000000000109e+03
8.700000000000000788e-02 1.196939999999999948e-01 3.384759999999999991e+01 1.190105000000000075e+02 1.837835000000000036e+03
8.800000000000000877e-02 1.198065000000000102e-01 3.519514999999999816e+01 1.221735000000000042e+02 1.839240000000000009e+03
8.899999999999999578e-02 1.199149999999999938e-01 3.644844999999999402e+01 1.252259999999999991e+02 1.840595000000000027e+03
8.999999999999999667e-02 1.200205000000000022e-01 3.761704999999999899e+01 1.281974999999999909e+02 1.841909999999999854e+03
9.099999999999999756e-02 1.201230000000000075e-01 3.871124999999999972e+01 1.311144999999999925e+02 1.843199999999999818e+03
9.199999999999999845e-02 1.202239999999999975e-01 3.974089999999999634e+01 1.339989999999999952e+02 1.844460000000000036e+03
9.299999999999999933e-02 1.203234999999999999e-01 4.071470000000000056e+01 1.368689999999999998e+02 1.845710000000000036e+03
9.400000000000000022e-02 1.204220000000000013e-01 4.163949999999999818e+01 1.397344999999999970e+02 1.846950000000000045e+03
9.500000000000000111e-02 1.205200000000000021e-01 4.251980000000000359e+01 1.425989999999999895e+02 1.848179999999999836e+03
9.600000000000000200e-02 1.206175000000000164e-01 4.335745000000000005e+01 1.454585000000000150e+02 1.849405000000000200e+03
9.700000000000000289e-02 1.207145000000000024e-01 4.415184999999999604e+01 1.483000000000000114e+02 1.850625000000000000e+03
9.800000000000000377e-02 1.208105000000000151e-01 4.489959999999999951e+01 1.511075000000000159e+02 1.851839999999999918e+03
9.900000000000000466e-02 1.209049999999999986e-01 4.559529999999999461e+01 1.538575000000000159e+02 1.853034999999999854e+03
1.000000000000000056e-01 1.209979999999999944e-01 4.623179999999999978e+01 1.565240000000000009e+02 1.854210000000000036e+03
1.010000000000000064e-01 1.210880000000000012e-01 4.680040000000000333e+01 1.590784999999999911e+02 1.855349999999999909e+03
1.020000000000000073e-01 1.211745000000000044e-01 4.729189999999999827e+01 1.614920000000000186e+02 1.856444999999999936e+03
1.030000000000000082e-01 1.212575000000000042e-01 4.769689999999999941e+01 1.637364999999999782e+02 1.857494999999999891e+03
1.040000000000000091e-01 1.213344999999999979e-01 4.800619999999999976e+01 1.657864999999999895e+02 1.858480000000000018e+03
1.050000000000000100e-01 1.214060000000000139e-01 4.821155000000000257e+01 1.676189999999999998e+02 1.859390000000000100e+03
1.059999999999999970e-01 1.214709999999999956e-01 4.830594999999999573e+01 1.692154999999999916e+02 1.860219999999999800e+03
1.069999999999999979e-01 1.215289999999999981e-01 4.828409999999999513e+01 1.705610000000000070e+02 1.860960000000000036e+03
1.079999999999999988e-01 1.215789999999999926e-01 4.814260000000000161e+01 1.716479999999999961e+02 1.861605000000000018e+03
1.089999999999999997e-01 1.216210000000000069e-01 4.788009999999999877e+01 1.724724999999999966e+02 1.862154999999999973e+03
1.100000000000000006e-01 1.216554999999999997e-01 4.749779999999999802e+01 1.730364999999999895e+02 1.862595000000000027e+03
1.110000000000000014e-01 1.216809999999999975e-01 4.699889999999999901e+01 1.733460000000000036e+02 1.862940000000000055e+03
1.120000000000000023e-01 1.216990000000000016e-01 4.638909999999999911e+01 1.734149999999999920e+02 1.863175000000000182e+03
1.130000000000000032e-01 1.217094999999999982e-01 4.567624999999999602e+01 1.732590000000000146e+02 1.863320000000000164e+03
1.140000000000000041e-01 1.217125000000000012e-01 4.487010000000000076e+01 1.728990000000000009e+02 1.863369999999999891e+03
1.150000000000000050e-01 1.217089999999999977e-01 4.398199999999999932e+01 1.723600000000000136e+02 1.863335000000000036e+03
1.160000000000000059e-01 1.216990000000000016e-01 4.302479999999999905e+01 1.716670000000000016e+02 1.863219999999999800e+03
1.170000000000000068e-01 1.216840000000000144e-01 4.201184999999999548e+01 1.708485000000000014e+02 1.863039999999999964e+03
1.180000000000000077e-01 1.216639999999999944e-01 4.095739999999999981e+01 1.699325000000000045e+02 1.862799999999999955e+03
1.190000000000000085e-01 1.216409999999999991e-01 3.987534999999999741e+01 1.689470000000000027e+02 1.862509999999999991e+03
1.200000000000000094e-01 1.216145000000000004e-01 3.877939999999999543e+01 1.679180000000000064e+02 1.862184999999999945e+03
1.209999999999999964e-01 1.215864999999999863e-01 3.768229999999999791e+01 1.668694999999999879e+02 1.861829999999999927e+03
1.219999999999999973e-01 1.215569999999999984e-01 3.659560000000000457e+01 1.658245000000000005e+02 1.861460000000000036e+03
1.229999999999999982e-01 1.215265000000000095e-01 3.552944999999999709e+01 1.647980000000000018e+02 1.861079999999999927e+03
1.239999999999999991e-01 1.214959999999999929e-01 3.449204999999999899e+01 1.638059999999999832e+02 1.860690000000000055e+03
1.250000000000000000e-01 1.214655000000000040e-01 3.349000000000000199e+01 1.628569999999999993e+02 1.860309999999999945e+03
1.260000000000000009e-01 1.214365000000000028e-01 3.252759999999999962e+01 1.619574999999999818e+02 1.859940000000000055e+03
1.270000000000000018e-01 1.214079999999999881e-01 3.160735000000000028e+01 1.611080000000000041e+02 1.859574999999999818e+03
1.280000000000000027e-01 1.213809999999999889e-01 3.072975000000000279e+01 1.603070000000000164e+02 1.859230000000000018e+03
1.290000000000000036e-01 1.213545000000000040e-01 2.989345000000000141e+01 1.595484999999999900e+02 1.858894999999999982e+03
1.300000000000000044e-01 1.213289999999999924e-01 2.909544999999999959e+01 1.588224999999999909e+02 1.858570000000000164e+03
1.310000000000000053e-01 1.213049999999999962e-01 2.833149999999999835e+01 1.581189999999999998e+02 1.858259999999999991e+03
1.320000000000000062e-01 1.212809999999999999e-01 2.759595000000000198e+01 1.574245000000000232e+02 1.857950000000000045e+03
1.330000000000000071e-01 1.212570000000000037e-01 2.688260000000000005e+01 1.567250000000000227e+02 1.857644999999999982e+03
1.340000000000000080e-01 1.212334999999999940e-01 2.618459999999999965e+01 1.560049999999999955e+02 1.857340000000000146e+03
1.350000000000000089e-01 1.212090000000000112e-01 2.549495000000000289e+01 1.552515000000000214e+02 1.857029999999999973e+03
1.360000000000000098e-01 1.211834999999999996e-01 2.480675000000000097e+01 1.544499999999999886e+02 1.856704999999999927e+03
1.370000000000000107e-01 1.211565000000000003e-01 2.411350000000000193e+01 1.535885000000000105e+02 1.856365000000000009e+03
1.380000000000000115e-01 1.211285000000000001e-01 2.340944999999999965e+01 1.526569999999999823e+02 1.856005000000000109e+03
1.390000000000000124e-01 1.210980000000000112e-01 2.268979999999999819e+01 1.516474999999999795e+02 1.855625000000000000e+03
1.400000000000000133e-01 1.210650000000000059e-01 2.195074999999999932e+01 1.505550000000000068e+02 1.855210000000000036e+03
1.410000000000000142e-01 1.210304999999999992e-01 2.118994999999999962e+01 1.493774999999999977e+02 1.854769999999999982e+03
1.420000000000000151e-01 1.209925000000000028e-01 2.040639999999999787e+01 1.481159999999999854e+02 1.854300000000000182e+03
1.430000000000000160e-01 1.209524999999999906e-01 1.960054999999999836e+01 1.467744999999999891e+02 1.853795000000000073e+03
1.440000000000000169e-01 1.209100000000000036e-01 1.877434999999999832e+01 1.453605000000000018e+02 1.853264999999999873e+03
1.450000000000000178e-01 1.208655000000000146e-01 1.793115000000000236e+01 1.438840000000000146e+02 1.852699999999999818e+03
1.459999999999999909e-01 1.208180000000000087e-01 1.707560000000000144e+01 1.423575000000000159e+02 1.852115000000000009e+03
1.469999999999999918e-01 1.207699999999999885e-01 1.621349999999999980e+01 1.407965000000000089e+02 1.851509999999999991e+03
1.479999999999999927e-01 1.207199999999999940e-01 1.535164999999999935e+01 1.392169999999999845e+02 1.850884999999999991e+03
1.489999999999999936e-01 1.206699999999999995e-01 1.449735000000000085e+01 1.376365000000000123e+02 1.850255000000000109e+03
1.499999999999999944e-01 1.206194999999999906e-01 1.365855000000000175e+01 1.360740000000000123e+02 1.849619999999999891e+03
1.509999999999999953e-01 1.205684999999999951e-01 1.284319999999999951e+01 1.345459999999999923e+02 1.848994999999999891e+03
1.519999999999999962e-01 1.205190000000000011e-01 1.205920499999999862e+01 1.330704999999999814e+02 1.848375000000000000e+03
1.529999999999999971e-01 1.204709999999999948e-01 1.131392999999999915e+01 1.316634999999999991e+02 1.847764999999999873e+03
1.539999999999999980e-01 1.204245000000000038e-01 1.061408499999999933e+01 1.303389999999999986e+02 1.847184999999999945e+03
1.549999999999999989e-01 1.203805000000000014e-01 9.965514999999999901e+00 1.291080000000000041e+02 1.846625000000000000e+03
1.559999999999999998e-01 1.203385000000000149e-01 9.372949999999999449e+00 1.279799999999999898e+02 1.846105000000000018e+03
1.570000000000000007e-01 1.202999999999999903e-01 8.839840000000000586e+00 1.269609999999999985e+02 1.845619999999999891e+03
1.580000000000000016e-01 1.202644999999999964e-01 8.368449999999999278e+00 1.260554999999999950e+02 1.845170000000000073e+03
1.590000000000000024e-01 1.202324999999999922e-01 7.959635000000000460e+00 1.252620000000000005e+02 1.844764999999999873e+03
