# t [s], A [cm^2], U [cm/s], P [cPa], c [cm/s]
1.000000000000000021e-03 2.171855000000000036e-01 2.647811999999999943e-01 1.037125000000000057e+02 2.276109999999999673e+03
2.000000000000000042e-03 2.171210000000000084e-01 1.798432500000000100e+00 1.001328500000000048e+02 2.275630000000000109e+03
3.000000000000000062e-03 2.169579999999999842e-01 3.745326500000000003e+00 9.496325000000000216e+01 2.274465000000000146e+03
4.000000000000000083e-03 2.167419999999999902e-01 5.967457500000000081e+00 8.931634999999999991e+01 2.272949999999999818e+03
5.000000000000000104e-03 2.165179999999999882e-01 8.362650000000000361e+00 8.431100000000000705e+01 2.271390000000000327e+03
6.000000000000000125e-03 2.163074999999999859e-01 1.068589500000000037e+01 8.024379999999999313e+01 2.269944999999999709e+03
7.000000000000000146e-03 2.161135000000000139e-01 1.267196999999999996e+01 7.674099999999999966e+01 2.268650000000000091e+03
8.000000000000000167e-03 2.159409999999999941e-01 1.427000500000000116e+01 7.362850000000000250e+01 2.267515000000000327e+03
9.000000000000001055e-03 2.157959999999999878e-01 1.554194999999999993e+01 7.105465000000000941e+01 2.266574999999999818e+03
1.000000000000000194e-02 2.156799999999999828e-01 1.652465000000000117e+01 6.907874999999999943e+01 2.265835000000000036e+03
1.099999999999999936e-02 2.155914999999999915e-01 1.724680000000000035e+01 6.765344999999999231e+01 2.265279999999999745e+03
1.200000000000000025e-02 2.155269999999999964e-01 1.772395000000000209e+01 6.666794999999999050e+01 2.264885000000000218e+03
1.300000000000000114e-02 2.154789999999999761e-01 1.795425000000000182e+01 6.592324999999999591e+01 2.264599999999999909e+03
1.400000000000000203e-02 2.154415000000000080e-01 1.798979999999999890e+01 6.530809999999999604e+01 2.264389999999999873e+03
1.499999999999999944e-02 2.154200000000000004e-01 1.799249999999999972e+01 6.504519999999999413e+01 2.264269999999999982e+03
1.600000000000000033e-02 2.154269999999999796e-01 1.817715000000000103e+01 6.564470000000000027e+01 2.264324999999999818e+03
1.700000000000000122e-02 2.154760000000000009e-01 1.868019999999999925e+01 6.753900000000000148e+01 2.264644999999999982e+03
1.800000000000000211e-02 2.155694999999999972e-01 1.946839999999999904e+01 7.071115000000000350e+01 2.265244999999999891e+03
1.900000000000000300e-02 2.156939999999999968e-01 2.034929999999999950e+01 7.460009999999999764e+01 2.266060000000000400e+03
2.000000000000000042e-02 2.158249999999999891e-01 2.106515000000000271e+01 7.832060000000001310e+01 2.266929999999999836e+03
2.100000000000000130e-02 2.159375000000000044e-01 2.140800000000000125e+01 8.103810000000000002e+01 2.267685000000000400e+03
2.200000000000000219e-02 2.160110000000000086e-01 2.129840000000000089e+01 8.229314999999999714e+01 2.268199999999999818e+03
2.299999999999999961e-02 2.160404999999999964e-01 2.079854999999999876e+01 8.213259999999999650e+01 2.268430000000000291e+03
2.400000000000000050e-02 2.160344999999999904e-01 2.006504999999999939e+01 8.101615000000001032e+01 2.268409999999999854e+03
2.500000000000000139e-02 2.160064999999999902e-01 1.926989999999999981e+01 7.956884999999999764e+01 2.268244999999999891e+03
2.600000000000000228e-02 2.159739999999999993e-01 1.852965000000000018e+01 7.830840000000000600e+01 2.268034999999999854e+03
2.700000000000000316e-02 2.159470000000000001e-01 1.786984999999999957e+01 7.746320000000000050e+01 2.267849999999999909e+03
2.800000000000000058e-02 2.159254999999999924e-01 1.723345000000000127e+01 7.693940000000000623e+01 2.267710000000000036e+03
2.900000000000000147e-02 2.159055000000000002e-01 1.652179999999999893e+01 7.642350000000000421e+01 2.267570000000000164e+03
3.000000000000000236e-02 2.158764999999999989e-01 1.564884999999999948e+01 7.556125000000000114e+01 2.267389999999999873e+03
3.099999999999999978e-02 2.158315000000000095e-01 1.458830000000000027e+01 7.413994999999999891e+01 2.267105000000000018e+03
3.200000000000000067e-02 2.157695000000000030e-01 1.339679999999999893e+01 7.220699999999999363e+01 2.266710000000000036e+03
3.300000000000000155e-02 2.156985000000000152e-01 1.220428499999999872e+01 7.008269999999998845e+01 2.266250000000000000e+03
3.400000000000000244e-02 2.156305000000000027e-01 1.117641499999999866e+01 6.826349999999999341e+01 2.265800000000000182e+03
3.500000000000000333e-02 2.155819999999999959e-01 1.046204999999999963e+01 6.725584999999999525e+01 2.265465000000000146e+03
3.600000000000000422e-02 2.155664999999999942e-01 1.014768499999999918e+01 6.740594999999999004e+01 2.265345000000000255e+03
3.700000000000000511e-02 2.155900000000000039e-01 1.023285999999999873e+01 6.878749999999999432e+01 2.265470000000000255e+03
3.799999999999999906e-02 2.156509999999999816e-01 1.063274999999999970e+01 7.117964999999999520e+01 2.265845000000000255e+03
3.899999999999999994e-02 2.157379999999999853e-01 1.120234999999999914e+01 7.413004999999999711e+01 2.266399999999999636e+03
4.000000000000000083e-02 2.158349999999999991e-01 1.177244999999999919e+01 7.707249999999999091e+01 2.267030000000000200e+03
4.100000000000000172e-02 2.159249999999999781e-01 1.218520000000000003e+01 7.945785000000000764e+01 2.267625000000000000e+03
4.200000000000000261e-02 2.159920000000000173e-01 1.232134999999999891e+01 8.086224999999998886e+01 2.268074999999999818e+03
4.300000000000000350e-02 2.160239999999999938e-01 1.211394999999999911e+01 8.105025000000000546e+01 2.268300000000000182e+03
4.400000000000000439e-02 2.160154999999999992e-01 1.154875000000000007e+01 7.998619999999999663e+01 2.268260000000000218e+03
4.499999999999999833e-02 2.159665000000000057e-01 1.065399500000000010e+01 7.780055000000000121e+01 2.267960000000000036e+03
4.599999999999999922e-02 2.158820000000000183e-01 9.484199999999999520e+00 7.472934999999999661e+01 2.267420000000000073e+03
4.700000000000000011e-02 2.157689999999999886e-01 8.104485000000000383e+00 7.104730000000000700e+01 2.266689999999999600e+03
4.800000000000000100e-02 2.156355000000000077e-01 6.578624999999999723e+00 6.701375000000000171e+01 2.265819999999999709e+03
4.900000000000000189e-02 2.154895000000000005e-01 4.963104999999999656e+00 6.284099999999999397e+01 2.264864999999999782e+03
5.000000000000000278e-02 2.153375000000000150e-01 3.306839499999999710e+00 5.868724999999999170e+01 2.263864999999999782e+03
5.100000000000000366e-02 2.151854999999999740e-01 1.654314999999999980e+00 5.466760000000000019e+01 2.262869999999999891e+03
5.200000000000000455e-02 2.150369999999999782e-01 5.014999999999991687e-02 5.087494999999999834e+01 2.261890000000000327e+03
5.300000000000000544e-02 2.148970000000000047e-01 -1.457370000000000054e+00 4.740030000000000143e+01 2.260965000000000146e+03
5.399999999999999939e-02 2.147689999999999877e-01 -2.815043500000000254e+00 4.434595000000000198e+01 2.260109999999999673e+03
5.500000000000000028e-02 2.146569999999999867e-01 -3.966304999999999747e+00 4.182934999999999803e+01 2.259364999999999782e+03
5.600000000000000117e-02 2.145670000000000077e-01 -4.855105000000000004e+00 3.997570000000000334e+01 2.258750000000000000e+03
5.700000000000000205e-02 2.145019999999999982e-01 -5.431189999999999962e+00 3.890415000000000134e+01 2.258309999999999945e+03
5.800000000000000294e-02 2.144670000000000187e-01 -5.655459999999999710e+00 3.871079999999999899e+01 2.258059999999999945e+03
5.900000000000000383e-02 2.144649999999999890e-01 -5.504324999999999690e+00 3.945385000000000275e+01 2.258020000000000437e+03
6.000000000000000472e-02 2.144975000000000076e-01 -4.972284999999999400e+00 4.114359999999999928e+01 2.258204999999999927e+03
6.099999999999999867e-02 2.145640000000000047e-01 -4.072440000000000282e+00 4.373914999999999509e+01 2.258614999999999782e+03
6.199999999999999956e-02 2.146635000000000071e-01 -2.835240500000000274e+00 4.715139999999999532e+01 2.259239999999999782e+03
6.300000000000000044e-02 2.147914999999999963e-01 -1.305704999999999671e+00 5.125180000000000291e+01 2.260065000000000055e+03
6.400000000000000133e-02 2.149435000000000096e-01 4.601750000000000007e-01 5.588375000000000625e+01 2.261045000000000073e+03
6.500000000000000222e-02 2.151150000000000007e-01 2.399500000000000188e+00 6.087569999999999482e+01 2.262159999999999854e+03
6.600000000000000311e-02 2.152985000000000038e-01 4.446688999999999226e+00 6.605429999999999779e+01 2.263355000000000018e+03
6.700000000000000400e-02 2.154895000000000005e-01 6.537630000000000052e+00 7.125669999999999504e+01 2.264605000000000018e+03
6.800000000000000488e-02 2.156810000000000116e-01 8.613479999999999137e+00 7.634125000000000227e+01 2.265869999999999891e+03
6.900000000000000577e-02 2.158690000000000053e-01 1.062407499999999949e+01 8.119624999999999204e+01 2.267114999999999782e+03
7.000000000000000666e-02 2.160489999999999911e-01 1.253038000000000096e+01 8.574575000000000102e+01 2.268315000000000055e+03
7.100000000000000755e-02 2.162195000000000089e-01 1.430579999999999963e+01 8.995210000000000150e+01 2.269454999999999927e+03
7.200000000000000844e-02 2.163789999999999880e-01 1.593645000000000067e+01 9.381470000000000198e+01 2.270524999999999636e+03
7.300000000000000933e-02 2.165274999999999839e-01 1.742029999999999745e+01 9.736439999999998918e+01 2.271519999999999982e+03
7.399999999999999634e-02 2.166655000000000109e-01 1.876474999999999937e+01 1.006565999999999974e+02 2.272454999999999927e+03
7.499999999999999722e-02 2.167965000000000031e-01 1.998414999999999964e+01 1.037599500000000035e+02 2.273335000000000036e+03
7.599999999999999811e-02 2.169209999999999749e-01 2.109675000000000011e+01 1.067475000000000023e+02 2.274179999999999836e+03
7.699999999999999900e-02 2.170420000000000127e-01 2.212165000000000248e+01 1.096860000000000070e+02 2.275000000000000000e+03
7.799999999999999989e-02 2.171615000000000073e-01 2.307659999999999911e+01 1.126299999999999955e+02 2.275805000000000291e+03
7.900000000000000078e-02 2.172814999999999885e-01 2.397605000000000075e+01 1.156154999999999973e+02 2.276614999999999782e+03
8.000000000000000167e-02 2.174019999999999841e-01 2.483004999999999995e+01 1.186599999999999966e+02 2.277430000000000291e+03
8.100000000000000255e-02 2.175249999999999961e-01 2.564389999999999858e+01 1.217609999999999957e+02 2.278260000000000218e+03
8.200000000000000344e-02 2.176490000000000091e-01 2.641785000000000139e+01 1.249000000000000057e+02 2.279095000000000255e+03
8.300000000000000433e-02 2.177735000000000087e-01 2.714795000000000158e+01 1.280444999999999993e+02 2.279930000000000291e+03
8.400000000000000522e-02 2.178975000000000217e-01 2.782635000000000147e+01 1.311504999999999939e+02 2.280769999999999982e+03
8.500000000000000611e-02 2.180189999999999906e-01 2.844234999999999758e+01 1.341699999999999875e+02 2.281590000000000146e+03
8.600000000000000699e-02 2.181374999999999842e-01 2.898315000000000197e+01 1.370509999999999877e+02 2.282390000000000327e+03
8.700000000000000788e-02 2.182494999999999852e-01 2.943469999999999942e+01 1.397404999999999973e+02 2.283144999999999982e+03
8.800000000000000877e-02 2.183539999999999925e-01 2.978284999999999982e+01 1.421895000000000095e+02 2.283855000000000018e+03
8.899999999999999578e-02 2.184484999999999899e-01 3.001409999999999911e+01 1.443545000000000016e+02 2.284500000000000000e+03
8.999999999999999667e-02 2.185320000000000040e-01 3.011679999999999779e+01 1.461965000000000146e+02 2.285070000000000164e+03
9.099999999999999756e-02 2.186035000000000061e-01 3.008169999999999789e+01 1.476885000000000048e+02 2.285559999999999945e+03
9.199999999999999845e-02 2.186619999999999953e-01 2.990310000000000201e+01 1.488120000000000118e+02 2.285965000000000146e+03
9.299999999999999933e-02 2.187064999999999981e-01 2.957949999999999946e+01 1.495615000000000236e+02 2.286275000000000091e+03
9.400000000000000022e-02 2.187375000000000014e-01 2.911370000000000147e+01 1.499445000000000050e+02 2.286489999999999782e+03
9.500000000000000111e-02 2.187540000000000040e-01 2.851319999999999766e+01 1.499800000000000182e+02 2.286614999999999782e+03
9.600000000000000200e-02 2.187580000000000080e-01 2.778999999999999915e+01 1.496990000000000123e+02 2.286655000000000200e+03
9.700000000000000289e-02 2.187505000000000144e-01 2.695980000000000132e+01 1.491435000000000173e+02 2.286609999999999673e+03
9.800000000000000377e-02 2.187324999999999964e-01 2.604155000000000086e+01 1.483609999999999900e+02 2.286505000000000109e+03
9.900000000000000466e-02 2.187064999999999981e-01 2.505615000000000236e+01 1.474044999999999845e+02 2.286335000000000036e+03
1.000000000000000056e-01 2.186734999999999929e-01 2.402584999999999837e+01 1.463294999999999959e+02 2.286125000000000000e+03
1.010000000000000064e-01 2.186365000000000114e-01 2.297265000000000157e+01 1.451885000000000048e+02 2.285880000000000109e+03
1.020000000000000073e-01 2.185975000000000001e-01 2.191779999999999973e+01 1.440305000000000177e+02 2.285619999999999891e+03
1.030000000000000082e-01 2.185564999999999869e-01 2.088054999999999950e+01 1.428990000000000009e+02 2.285349999999999909e+03
1.040000000000000091e-01 2.185170000000000168e-01 1.987769999999999726e+01 1.418294999999999959e+02 2.285074999999999818e+03
1.050000000000000100e-01 2.184789999999999788e-01 1.892260000000000275e+01 1.408485000000000014e+02 2.284824999999999818e+03
1.059999999999999970e-01 2.184435000000000127e-01 1.802499999999999858e+01 1.399720000000000084e+02 2.284585000000000036e+03
1.069999999999999979e-01 2.184115000000000084e-01 1.719055000000000177e+01 1.392069999999999936e+02 2.284364999999999782e+03
1.079999999999999988e-01 2.183835000000000082e-01 1.642079999999999984e+01 1.385489999999999782e+02 2.284170000000000073e+03
1.089999999999999997e-01 2.183585000000000109e-01 1.571325000000000038e+01 1.379844999999999970e+02 2.283994999999999891e+03
1.100000000000000006e-01 2.183364999999999889e-01 1.506174999999999997e+01 1.374915000000000020e+02 2.283844999999999800e+03
1.110000000000000014e-01 2.183169999999999833e-01 1.445690000000000097e+01 1.370409999999999968e+02 2.283710000000000036e+03
1.120000000000000023e-01 2.182979999999999920e-01 1.388705000000000034e+01 1.365989999999999895e+02 2.283570000000000164e+03
1.130000000000000032e-01 2.182784999999999864e-01 1.333885000000000076e+01 1.361290000000000191e+02 2.283439999999999600e+03
1.140000000000000041e-01 2.182584999999999942e-01 1.279850000000000065e+01 1.355939999999999941e+02 2.283300000000000182e+03
1.150000000000000050e-01 2.182350000000000123e-01 1.225254999999999939e+01 1.349610000000000127e+02 2.283139999999999873e+03
1.160000000000000059e-01 2.182080000000000131e-01 1.168885000000000041e+01 1.342015000000000100e+02 2.282960000000000036e+03
1.170000000000000068e-01 2.181759999999999811e-01 1.109752500000000097e+01 1.332934999999999945e+02 2.282744999999999891e+03
1.180000000000000077e-01 2.181389999999999996e-01 1.047158999999999907e+01 1.322239999999999895e+02 2.282494999999999891e+03
1.190000000000000085e-01 2.180954999999999977e-01 9.807479999999999976e+00 1.309909999999999854e+02 2.282210000000000036e+03
1.200000000000000094e-01 2.180465000000000042e-01 9.105420000000000513e+00 1.296009999999999991e+02 2.281885000000000218e+03
1.209999999999999964e-01 2.179920000000000191e-01 8.369450000000000500e+00 1.280730000000000075e+02 2.281519999999999982e+03
1.219999999999999973e-01 2.179325000000000012e-01 7.607129999999999725e+00 1.264334999999999951e+02 2.281119999999999891e+03
1.229999999999999982e-01 2.178694999999999937e-01 6.829204999999999970e+00 1.247175000000000011e+02 2.280699999999999818e+03
1.239999999999999991e-01 2.178035000000000110e-01 6.048935000000000173e+00 1.229650000000000034e+02 2.280264999999999873e+03
1.250000000000000000e-01 2.177375000000000005e-01 5.281229999999999869e+00 1.212199999999999989e+02 2.279815000000000055e+03
1.260000000000000009e-01 2.176715000000000177e-01 4.541795000000000471e+00 1.195270000000000010e+02 2.279375000000000000e+03
1.270000000000000018e-01 2.176079999999999959e-01 3.846135000000000304e+00 1.179284999999999997e+02 2.278949999999999818e+03
1.280000000000000027e-01 2.175480000000000191e-01 3.208695000000000075e+00 1.164629999999999939e+02 2.278545000000000073e+03
1.290000000000000036e-01 2.174925000000000053e-01 2.642044999999999977e+00 1.151624999999999943e+02 2.278170000000000073e+03
1.300000000000000044e-01 2.174435000000000118e-01 2.156263500000000111e+00 1.140504999999999995e+02 2.277835000000000036e+03
1.310000000000000053e-01 2.174014999999999975e-01 1.758510000000000240e+00 1.131424999999999983e+02 2.277550000000000182e+03
1.320000000000000062e-01 2.173670000000000047e-01 1.452749500000000138e+00 1.124455000000000098e+02 2.277309999999999945e+03
1.330000000000000071e-01 2.173399999999999777e-01 1.239751500000000117e+00 1.119574999999999960e+02 2.277125000000000000e+03
1.340000000000000080e-01 2.173204999999999998e-01 1.117197500000000066e+00 1.116700000000000017e+02 2.276989999999999782e+03
1.350000000000000089e-01 2.173085000000000155e-01 1.079995500000000108e+00 1.115655000000000001e+02 2.276900000000000091e+03
1.360000000000000098e-01 2.173029999999999962e-01 1.120633999999999908e+00 1.116225000000000023e+02 2.276855000000000018e+03
1.370000000000000107e-01 2.173035000000000105e-01 1.229670000000000041e+00 1.118164999999999907e+02 2.276850000000000364e+03
1.380000000000000115e-01 2.173090000000000022e-01 1.396220000000000017e+00 1.121195000000000022e+02 2.276880000000000109e+03
1.390000000000000124e-01 2.173184999999999978e-01 1.608500000000000041e+00 1.125019999999999953e+02 2.276939999999999600e+03
1.400000000000000133e-01 2.173304999999999820e-01 1.854290000000000216e+00 1.129364999999999952e+02 2.277020000000000437e+03
1.410000000000000142e-01 2.173450000000000104e-01 2.121439999999999770e+00 1.133954999999999984e+02 2.277110000000000127e+03
1.420000000000000151e-01 2.173605000000000120e-01 2.398315000000000197e+00 1.138530000000000086e+02 2.277204999999999927e+03
1.430000000000000160e-01 2.173754999999999993e-01 2.674150000000000027e+00 1.142879999999999967e+02 2.277309999999999945e+03
1.440000000000000169e-01 2.173904999999999865e-01 2.939400000000000013e+00 1.146814999999999998e+02 2.277405000000000200e+03
1.450000000000000178e-01 2.174039999999999861e-01 3.186004999999999754e+00 1.150185000000000031e+02 2.277494999999999891e+03
1.459999999999999909e-01 2.174155000000000115e-01 3.407560000000000144e+00 1.152895000000000039e+02 2.277569999999999709e+03
1.469999999999999918e-01 2.174244999999999928e-01 3.599434999999999718e+00 1.154869999999999948e+02 2.277639999999999873e+03
1.479999999999999927e-01 2.174314999999999998e-01 3.758809999999999985e+00 1.156099999999999994e+02 2.277685000000000400e+03
1.489999999999999936e-01 2.174355000000000038e-01 3.884629999999999583e+00 1.156594999999999942e+02 2.277715000000000146e+03
1.499999999999999944e-01 2.174369999999999914e-01 3.977464999999999584e+00 1.156415000000000077e+02 2.277724999999999909e+03
1.509999999999999953e-01 2.174364999999999770e-01 4.039299999999999891e+00 1.155639999999999930e+02 2.277719999999999800e+03
1.519999999999999962e-01 2.174335000000000018e-01 4.073275000000000645e+00 1.154370000000000118e+02 2.277704999999999927e+03
1.529999999999999971e-01 2.174289999999999834e-01 4.083380000000000010e+00 1.152719999999999914e+02 2.277684999999999945e+03
1.539999999999999980e-01 2.174229999999999774e-01 4.074060000000000237e+00 1.150799999999999983e+02 2.277645000000000437e+03
1.549999999999999989e-01 2.174165000000000125e-01 4.049900000000000055e+00 1.148739999999999952e+02 2.277599999999999909e+03
1.559999999999999998e-01 2.174089999999999911e-01 4.015264999999999418e+00 1.146624999999999943e+02 2.277555000000000291e+03
1.570000000000000007e-01 2.174020000000000119e-01 3.974015000000000075e+00 1.144540000000000077e+02 2.277505000000000109e+03
1.580000000000000016e-01 2.173944999999999905e-01 3.929294999999999760e+00 1.142539999999999907e+02 2.277454999999999927e+03
1.590000000000000024e-01 2.173869999999999969e-01 3.883384999999999643e+00 1.140645000000000095e+02 2.277414999999999964e+03
