# t [s], A [cm^2], U [cm/s], P [cPa], c [cm/s]
1.000000000000000021e-03 8.176704999999999668e-01 8.016999999999996351e-03 1.079240000000000066e+02 1.808005000000000109e+03
2.000000000000000042e-03 8.176569999999999672e-01 -1.527625000000000337e-03 1.078855000000000075e+02 1.808000000000000000e+03
3.000000000000000062e-03 8.177360000000000184e-01 1.222945000000000004e-01 1.080384999999999991e+02 1.808029999999999973e+03
4.000000000000000083e-03 8.177834999999999965e-01 2.168824000000000030e-01 1.081589999999999918e+02 1.808050000000000182e+03
5.000000000000000104e-03 8.177115000000000355e-01 1.432505000000000028e-01 1.079890000000000043e+02 1.808025000000000091e+03
6.000000000000000125e-03 8.176215000000000011e-01 3.215350000000000152e-02 1.076649999999999920e+02 1.807954999999999927e+03
7.000000000000000146e-03 8.175364999999999993e-01 -8.391350000000002973e-02 1.072694999999999936e+02 1.807875000000000000e+03
8.000000000000000167e-03 8.173740000000000450e-01 -3.395549999999999402e-01 1.066274999999999977e+02 1.807750000000000000e+03
9.000000000000001055e-03 8.171265000000000889e-01 -7.532699999999998841e-01 1.056640000000000015e+02 1.807554999999999836e+03
1.000000000000000194e-02 8.167759999999999465e-01 -1.341710000000000180e+00 1.043029999999999973e+02 1.807289999999999964e+03
1.099999999999999936e-02 8.162899999999999601e-01 -2.137369999999999770e+00 1.024352499999999964e+02 1.806909999999999854e+03
1.200000000000000025e-02 8.157065000000000010e-01 -3.055085000000000051e+00 1.001109500000000025e+02 1.806429999999999836e+03
1.300000000000000114e-02 8.151375000000000703e-01 -3.879759499999999584e+00 9.760974999999999113e+01 1.805900000000000091e+03
1.400000000000000203e-02 8.146854999999999514e-01 -4.398958450000000298e+00 9.527809999999999491e+01 1.805375000000000000e+03
1.499999999999999944e-02 8.143810000000000215e-01 -4.519305499999999753e+00 9.333490000000000464e+01 1.804914999999999964e+03
1.600000000000000033e-02 8.141804999999999737e-01 -4.284939999999999749e+00 9.178934999999999889e+01 1.804519999999999982e+03
1.700000000000000122e-02 8.140009999999999746e-01 -3.825420000000000265e+00 9.048429999999999040e+01 1.804164999999999964e+03
1.800000000000000211e-02 8.137670000000000181e-01 -3.282588000000000061e+00 8.919739999999998759e+01 1.803815000000000055e+03
1.900000000000000300e-02 8.134394999999999820e-01 -2.750479799999999919e+00 8.774850000000000705e+01 1.803430000000000064e+03
2.000000000000000042e-02 8.130265000000000963e-01 -2.247489999999999988e+00 8.606960000000000832e+01 1.803009999999999991e+03
2.100000000000000130e-02 8.125689999999999857e-01 -1.728064999999999962e+00 8.421465000000000600e+01 1.802554999999999836e+03
2.200000000000000219e-02 8.121190000000000353e-01 -1.124255000000000004e+00 8.231064999999999543e+01 1.802090000000000146e+03
2.299999999999999961e-02 8.117099999999999316e-01 -3.933349999999999902e-01 8.048080000000000211e+01 1.801625000000000000e+03
2.400000000000000050e-02 8.113425000000000775e-01 4.508800000000001695e-01 7.877989999999999782e+01 1.801190000000000055e+03
2.500000000000000139e-02 8.109850000000000669e-01 1.332339999999999858e+00 7.716310000000000002e+01 1.800764999999999873e+03
2.600000000000000228e-02 8.105834999999999013e-01 2.129919999999999813e+00 7.549424999999999386e+01 1.800340000000000146e+03
2.700000000000000316e-02 8.100810000000000510e-01 2.709665000000000212e+00 7.358625000000000682e+01 1.799865000000000009e+03
2.800000000000000058e-02 8.094354999999999745e-01 2.962639999999999496e+00 7.126120000000000232e+01 1.799320000000000164e+03
2.900000000000000147e-02 8.086355000000000626e-01 2.837409999999999766e+00 6.841179999999999950e+01 1.798675000000000182e+03
3.000000000000000236e-02 8.077064999999999939e-01 2.355164999999999953e+00 6.504370000000000118e+01 1.797929999999999836e+03
3.099999999999999978e-02 8.067035000000000178e-01 1.601934999999999221e+00 6.128154999999999575e+01 1.797099999999999909e+03
3.200000000000000067e-02 8.056965000000000376e-01 7.015050000000000452e-01 5.733894999999999698e+01 1.796215000000000146e+03
3.300000000000000155e-02 8.047545000000000393e-01 -2.169449999999999434e-01 5.346824999999999761e+01 1.795340000000000146e+03
3.400000000000000244e-02 8.039294999999999636e-01 -1.045045000000000446e+00 4.990995000000000203e+01 1.794519999999999982e+03
3.500000000000000333e-02 8.032554999999999001e-01 -1.709040000000000337e+00 4.685594999999999999e+01 1.793785000000000082e+03
3.600000000000000422e-02 8.027455000000000007e-01 -2.171454999999999913e+00 4.443139999999999645e+01 1.793184999999999945e+03
3.700000000000000511e-02 8.023985000000000145e-01 -2.423919999999999852e+00 4.269395000000000095e+01 1.792719999999999800e+03
3.799999999999999906e-02 8.022044999999999870e-01 -2.475505499999999692e+00 4.164685000000000059e+01 1.792414999999999964e+03
3.899999999999999994e-02 8.021504999999999885e-01 -2.340345000000000120e+00 4.125804999999999723e+01 1.792255000000000109e+03
4.000000000000000083e-02 8.022264999999999535e-01 -2.028071000000000179e+00 4.148175000000000523e+01 1.792235000000000127e+03
4.100000000000000172e-02 8.024255000000000138e-01 -1.539365000000000094e+00 4.227370000000000516e+01 1.792349999999999909e+03
4.200000000000000261e-02 8.027439999999999021e-01 -8.671850000000000946e-01 4.359850000000000136e+01 1.792595000000000027e+03
4.300000000000000350e-02 8.031800000000000050e-01 -2.420000000000310791e-03 4.542835000000000178e+01 1.792954999999999927e+03
4.400000000000000439e-02 8.037294999999999856e-01 1.058899999999999952e+00 4.773529999999999518e+01 1.793434999999999945e+03
4.499999999999999833e-02 8.043825000000000003e-01 2.309530000000000083e+00 5.048255000000000337e+01 1.794009999999999991e+03
4.599999999999999922e-02 8.051250000000000906e-01 3.728029999999999511e+00 5.361695000000000277e+01 1.794690000000000055e+03
4.700000000000000011e-02 8.059350000000000680e-01 5.279230000000000089e+00 5.706710000000000349e+01 1.795440000000000055e+03
4.800000000000000100e-02 8.067889999999999784e-01 6.917854999999999421e+00 6.074549999999999983e+01 1.796255000000000109e+03
4.900000000000000189e-02 8.076619999999999910e-01 8.593752999999999531e+00 6.455544999999999334e+01 1.797115000000000009e+03
5.000000000000000278e-02 8.085309999999999997e-01 1.025767500000000076e+01 6.839915000000000589e+01 1.797990000000000009e+03
5.100000000000000366e-02 8.093764999999999432e-01 1.186601500000000087e+01 7.218720000000000425e+01 1.798865000000000009e+03
5.200000000000000455e-02 8.101840000000000153e-01 1.338472000000000151e+01 7.584610000000000696e+01 1.799720000000000027e+03
5.300000000000000544e-02 8.109444999999999570e-01 1.479040499999999980e+01 7.932280000000000086e+01 1.800550000000000182e+03
5.399999999999999939e-02 8.116559999999999331e-01 1.607050000000000267e+01 8.258664999999999168e+01 1.801335000000000036e+03
5.500000000000000028e-02 8.123184999999999434e-01 1.722184999999999988e+01 8.562839999999999918e+01 1.802079999999999927e+03
5.600000000000000117e-02 8.129385000000000083e-01 1.824864999999999782e+01 8.845699999999999363e+01 1.802779999999999973e+03
5.700000000000000205e-02 8.135215000000000085e-01 1.916045000000000087e+01 9.109569999999999368e+01 1.803434999999999945e+03
5.800000000000000294e-02 8.140775000000000095e-01 1.997025000000000006e+01 9.357730000000000814e+01 1.804055000000000064e+03
5.900000000000000383e-02 8.146134999999999904e-01 2.069265000000000043e+01 9.593959999999999866e+01 1.804650000000000091e+03
6.000000000000000472e-02 8.151395000000000168e-01 2.134240000000000137e+01 9.822079999999999700e+01 1.805220000000000027e+03
6.099999999999999867e-02 8.156605000000000105e-01 2.193285000000000196e+01 1.004557000000000073e+02 1.805779999999999973e+03
6.199999999999999956e-02 8.161834999999999507e-01 2.247504999999999953e+01 1.026727500000000077e+02 1.806329999999999927e+03
6.300000000000000044e-02 8.167094999999999771e-01 2.297639999999999816e+01 1.048900000000000006e+02 1.806869999999999891e+03
6.400000000000000133e-02 8.172390000000000487e-01 2.344014999999999915e+01 1.071154999999999973e+02 1.807420000000000073e+03
6.500000000000000222e-02 8.177699999999999969e-01 2.386550000000000082e+01 1.093425000000000011e+02 1.807965000000000146e+03
6.600000000000000311e-02 8.182949999999999946e-01 2.424770000000000181e+01 1.115559999999999974e+02 1.808505000000000109e+03
6.700000000000000400e-02 8.188094999999999679e-01 2.457905000000000229e+01 1.137309999999999945e+02 1.809039999999999964e+03
6.800000000000000488e-02 8.193034999999999624e-01 2.485034999999999883e+01 1.158344999999999914e+02 1.809559999999999945e+03
6.900000000000000577e-02 8.197699999999999987e-01 2.505164999999999864e+01 1.178329999999999984e+02 1.810055000000000064e+03
7.000000000000000666e-02 8.202004999999999990e-01 2.517379999999999995e+01 1.196915000000000049e+02 1.810519999999999982e+03
7.100000000000000755e-02 8.205884999999999430e-01 2.520909999999999940e+01 1.213770000000000095e+02 1.810945000000000164e+03
7.200000000000000844e-02 8.209290000000000198e-01 2.515174999999999983e+01 1.228635000000000019e+02 1.811335000000000036e+03
7.300000000000000933e-02 8.212180000000000035e-01 2.499860000000000326e+01 1.241299999999999955e+02 1.811664999999999964e+03
7.399999999999999634e-02 8.214525000000000299e-01 2.474859999999999971e+01 1.251629999999999967e+02 1.811944999999999936e+03
7.499999999999999722e-02 8.216324999999999878e-01 2.440354999999999919e+01 1.259549999999999983e+02 1.812170000000000073e+03
7.599999999999999811e-02 8.217574999999999186e-01 2.396744999999999948e+01 1.265080000000000098e+02 1.812339999999999918e+03
7.699999999999999900e-02 8.218309999999999782e-01 2.344680000000000319e+01 1.268285000000000053e+02 1.812454999999999927e+03
7.799999999999999989e-02 8.218564999999999898e-01 2.285034999999999883e+01 1.269314999999999998e+02 1.812514999999999873e+03
7.900000000000000078e-02 8.218380000000000685e-01 2.218905000000000172e+01 1.268359999999999985e+02 1.812525000000000091e+03
8.000000000000000167e-02 8.217824999999999713e-01 2.147560000000000002e+01 1.265674999999999955e+02 1.812494999999999891e+03
8.100000000000000255e-02 8.216959999999999820e-01 2.072419999999999973e+01 1.261539999999999964e+02 1.812425000000000182e+03
8.200000000000000344e-02 8.215855000000000796e-01 1.994985000000000142e+01 1.256264999999999930e+02 1.812325000000000045e+03
8.300000000000000433e-02 8.214595000000000091e-01 1.916779999999999973e+01 1.250180000000000007e+02 1.812199999999999818e+03
8.400000000000000522e-02 8.213245000000000129e-01 1.839285000000000281e+01 1.243605000000000018e+02 1.812059999999999945e+03
8.500000000000000611e-02 8.211865000000000414e-01 1.763830000000000098e+01 1.236839999999999975e+02 1.811914999999999964e+03
8.600000000000000699e-02 8.210519999999998930e-01 1.691544999999999987e+01 1.230155000000000030e+02 1.811759999999999991e+03
8.700000000000000788e-02 8.209250000000000158e-01 1.623294999999999888e+01 1.223774999999999977e+02 1.811605000000000018e+03
8.800000000000000877e-02 8.208090000000000108e-01 1.559635000000000105e+01 1.217860000000000014e+02 1.811465000000000146e+03
8.899999999999999578e-02 8.207039999999999891e-01 1.500805000000000078e+01 1.212510000000000048e+02 1.811335000000000036e+03
8.999999999999999667e-02 8.206109999999999793e-01 1.446709999999999852e+01 1.207750000000000057e+02 1.811215000000000146e+03
9.099999999999999756e-02 8.205284999999999940e-01 1.396995000000000076e+01 1.203569999999999993e+02 1.811105000000000018e+03
9.199999999999999845e-02 8.204540000000000166e-01 1.351025000000000098e+01 1.199865000000000066e+02 1.811005000000000109e+03
9.299999999999999933e-02 8.203840000000000021e-01 1.307990000000000030e+01 1.196529999999999916e+02 1.810909999999999854e+03
9.400000000000000022e-02 8.203154999999999752e-01 1.266953499999999977e+01 1.193400000000000034e+02 1.810829999999999927e+03
9.500000000000000111e-02 8.202435000000000143e-01 1.226888500000000093e+01 1.190300000000000011e+02 1.810750000000000000e+03
9.600000000000000200e-02 8.201650000000000329e-01 1.186772000000000027e+01 1.187044999999999959e+02 1.810664999999999964e+03
9.700000000000000289e-02 8.200749999999999984e-01 1.145640000000000036e+01 1.183460000000000036e+02 1.810574999999999818e+03
9.800000000000000377e-02 8.199714999999999643e-01 1.102629999999999910e+01 1.179394999999999953e+02 1.810474999999999909e+03
9.900000000000000466e-02 8.198520000000000252e-01 1.057057999999999964e+01 1.174729999999999990e+02 1.810365000000000009e+03
1.000000000000000056e-01 8.197149999999999714e-01 1.008436500000000002e+01 1.169380000000000024e+02 1.810244999999999891e+03
1.010000000000000064e-01 8.195615000000000538e-01 9.565459999999999852e+00 1.163309999999999889e+02 1.810105000000000018e+03
1.020000000000000073e-01 8.193915000000000504e-01 9.014124999999999943e+00 1.156545000000000130e+02 1.809950000000000045e+03
1.030000000000000082e-01 8.192079999999999362e-01 8.433424999999999727e+00 1.149159999999999968e+02 1.809780000000000200e+03
1.040000000000000091e-01 8.190150000000000485e-01 7.829120000000000523e+00 1.141270000000000095e+02 1.809599999999999909e+03
1.050000000000000100e-01 8.188170000000000170e-01 7.209004999999999441e+00 1.133064999999999998e+02 1.809410000000000082e+03
1.059999999999999970e-01 8.186185000000000267e-01 6.582864999999999966e+00 1.124740000000000038e+02 1.809220000000000027e+03
1.069999999999999979e-01 8.184264999999999457e-01 5.961744999999999628e+00 1.116529999999999916e+02 1.809025000000000091e+03
1.079999999999999988e-01 8.182460000000000289e-01 5.357314999999999827e+00 1.108685000000000116e+02 1.808840000000000146e+03
1.089999999999999997e-01 8.180825000000000458e-01 4.781215000000000437e+00 1.101454999999999984e+02 1.808664999999999964e+03
1.100000000000000006e-01 8.179415000000000990e-01 4.244435000000000180e+00 1.095065000000000026e+02 1.808514999999999873e+03
1.110000000000000014e-01 8.178269999999999706e-01 3.756709999999999994e+00 1.089715000000000060e+02 1.808375000000000000e+03
1.120000000000000023e-01 8.177425000000000388e-01 3.325969999999999871e+00 1.085569999999999879e+02 1.808269999999999982e+03
1.130000000000000032e-01 8.176894999999999580e-01 2.957989999999999675e+00 1.082735000000000127e+02 1.808184999999999945e+03
1.140000000000000041e-01 8.176689999999999792e-01 2.656114999999999782e+00 1.081280000000000001e+02 1.808139999999999873e+03
1.150000000000000050e-01 8.176799999999999624e-01 2.421174999999999855e+00 1.081204999999999927e+02 1.808115000000000009e+03
1.160000000000000059e-01 8.177214999999999900e-01 2.251529999999999809e+00 1.082454999999999927e+02 1.808130000000000109e+03
1.170000000000000068e-01 8.177900000000000169e-01 2.143285000000000107e+00 1.084929999999999950e+02 1.808170000000000073e+03
1.180000000000000077e-01 8.178815000000000390e-01 2.090615000000000112e+00 1.088489999999999895e+02 1.808235000000000127e+03
1.190000000000000085e-01 8.179920000000000524e-01 2.086184999999999956e+00 1.092959999999999923e+02 1.808324999999999818e+03
1.200000000000000094e-01 8.181165000000000243e-01 2.121599999999999930e+00 1.098135000000000048e+02 1.808434999999999945e+03
1.209999999999999964e-01 8.182504999999999917e-01 2.187870000000000203e+00 1.103815000000000026e+02 1.808554999999999836e+03
1.219999999999999973e-01 8.183890000000000331e-01 2.275859999999999772e+00 1.109789999999999992e+02 1.808684999999999945e+03
1.229999999999999982e-01 8.185280000000000333e-01 2.376675000000000093e+00 1.115850000000000080e+02 1.808819999999999936e+03
1.239999999999999991e-01 8.186634999999999884e-01 2.482015000000000082e+00 1.121834999999999951e+02 1.808954999999999927e+03
1.250000000000000000e-01 8.187915000000000054e-01 2.584400000000000031e+00 1.127565000000000026e+02 1.809089999999999918e+03
1.260000000000000009e-01 8.189100000000000268e-01 2.677389999999999937e+00 1.132920000000000016e+02 1.809215000000000146e+03
1.270000000000000018e-01 8.190169999999999950e-01 2.755679999999999907e+00 1.137789999999999964e+02 1.809335000000000036e+03
1.280000000000000027e-01 8.191114999999999924e-01 2.815199999999999925e+00 1.142104999999999961e+02 1.809440000000000055e+03
1.290000000000000036e-01 8.191915000000000724e-01 2.853105000000000224e+00 1.145815000000000055e+02 1.809534999999999854e+03
1.300000000000000044e-01 8.192580000000000418e-01 2.867784999999999584e+00 1.148909999999999911e+02 1.809609999999999900e+03
1.310000000000000053e-01 8.193110000000000115e-01 2.858775000000000066e+00 1.151384999999999934e+02 1.809679999999999836e+03
1.320000000000000062e-01 8.193509999999999405e-01 2.826690000000000147e+00 1.153280000000000030e+02 1.809730000000000018e+03
1.330000000000000071e-01 8.193799999999999972e-01 2.773045000000000204e+00 1.154629999999999939e+02 1.809769999999999982e+03
1.340000000000000080e-01 8.193984999999999186e-01 2.700159999999999894e+00 1.155494999999999948e+02 1.809799999999999955e+03
1.350000000000000089e-01 8.194084999999999841e-01 2.610915000000000319e+00 1.155949999999999989e+02 1.809819999999999936e+03
1.360000000000000098e-01 8.194110000000000005e-01 2.508574999999999999e+00 1.156050000000000040e+02 1.809829999999999927e+03
1.370000000000000107e-01 8.194090000000000540e-01 2.396574999999999900e+00 1.155884999999999962e+02 1.809835000000000036e+03
1.380000000000000115e-01 8.194034999999999513e-01 2.278310000000000279e+00 1.155504999999999995e+02 1.809835000000000036e+03
1.390000000000000124e-01 8.193949999999999845e-01 2.156934999999999825e+00 1.154989999999999952e+02 1.809820000000000164e+03
1.400000000000000133e-01 8.193854999999999889e-01 2.035219999999999807e+00 1.154369999999999976e+02 1.809809999999999945e+03
1.410000000000000142e-01 8.193740000000000467e-01 1.915424999999999933e+00 1.153689999999999998e+02 1.809800000000000182e+03
1.420000000000000151e-01 8.193624999999999936e-01 1.799185000000000034e+00 1.152969999999999970e+02 1.809789999999999964e+03
1.430000000000000160e-01 8.193504999999999816e-01 1.687555000000000138e+00 1.152224999999999966e+02 1.809769999999999982e+03
1.440000000000000169e-01 8.193369999999999820e-01 1.580975000000000019e+00 1.151440000000000055e+02 1.809755000000000109e+03
1.450000000000000178e-01 8.193215000000000359e-01 1.479375000000000107e+00 1.150594999999999999e+02 1.809735000000000127e+03
1.459999999999999909e-01 8.193040000000000322e-01 1.382276500000000130e+00 1.149664999999999964e+02 1.809710000000000036e+03
1.469999999999999918e-01 8.192835000000000534e-01 1.288929999999999909e+00 1.148629999999999995e+02 1.809690000000000055e+03
1.479999999999999927e-01 8.192589999999999595e-01 1.198487999999999998e+00 1.147439999999999998e+02 1.809664999999999964e+03
1.489999999999999936e-01 8.192300000000000137e-01 1.110131999999999897e+00 1.146084999999999923e+02 1.809635000000000218e+03
1.499999999999999944e-01 8.191954999999999654e-01 1.023212500000000080e+00 1.144519999999999982e+02 1.809599999999999909e+03
1.509999999999999953e-01 8.191559999999999953e-01 9.373434999999999961e-01 1.142740000000000009e+02 1.809554999999999836e+03
1.519999999999999962e-01 8.191109999999999225e-01 8.524804999999999744e-01 1.140739999999999981e+02 1.809509999999999991e+03
1.529999999999999971e-01 8.190604999999999691e-01 7.689129999999999576e-01 1.138524999999999920e+02 1.809454999999999927e+03
1.539999999999999980e-01 8.190060000000000118e-01 6.872771000000000852e-01 1.136115000000000066e+02 1.809405000000000200e+03
1.549999999999999989e-01 8.189470000000000915e-01 6.085045000000000037e-01 1.133534999999999968e+02 1.809339999999999918e+03
1.559999999999999998e-01 8.188855000000000439e-01 5.337420000000000497e-01 1.130824999999999960e+02 1.809279999999999973e+03
1.570000000000000007e-01 8.188219999999999388e-01 4.643200000000000660e-01 1.128029999999999973e+02 1.809210000000000036e+03
1.580000000000000016e-01 8.187579999999999858e-01 4.016515000000000502e-01 1.125190000000000055e+02 1.809144999999999982e+03
1.590000000000000024e-01 8.186940000000000328e-01 3.472370000000000179e-01 1.122369999999999948e+02 1.809079999999999927e+03
