# t [s], A [cm^2], U [cm/s], P [cPa], c [cm/s]
1.000000000000000021e-03 4.469159999999999799e-01 4.113749999999999352e-03 1.066550000000000011e+02 1.520630000000000109e+03
2.000000000000000042e-03 4.469100000000000295e-01 2.805594999999999704e-03 1.066320000000000050e+02 1.520625000000000000e+03
3.000000000000000062e-03 4.469575000000000076e-01 1.149883500000000169e-01 1.067434999999999974e+02 1.520654999999999973e+03
4.000000000000000083e-03 4.469910000000000272e-01 2.040360499999999966e-01 1.068479999999999990e+02 1.520684999999999945e+03
5.000000000000000104e-03 4.469644999999999868e-01 1.574435999999999891e-01 1.067620000000000005e+02 1.520674999999999955e+03
6.000000000000000125e-03 4.469100000000000295e-01 3.899700000000000388e-02 1.065084999999999980e+02 1.520610000000000127e+03
7.000000000000000146e-03 4.468554999999999611e-01 -8.892500000000003180e-02 1.061659999999999968e+02 1.520514999999999873e+03
8.000000000000000167e-03 4.467654999999999821e-01 -3.113299999999999956e-01 1.056475000000000080e+02 1.520380000000000109e+03
9.000000000000001055e-03 4.466224999999999778e-01 -6.723900000000001542e-01 1.048654999999999973e+02 1.520174999999999955e+03
1.000000000000000194e-02 4.464274999999999771e-01 -1.158295000000000075e+00 1.037914999999999992e+02 1.519880000000000109e+03
1.099999999999999936e-02 4.461680000000000090e-01 -1.781750000000000167e+00 1.023716500000000025e+02 1.519490000000000009e+03
1.200000000000000025e-02 4.458305000000000184e-01 -2.550605000000000011e+00 1.005514499999999884e+02 1.518970000000000027e+03
1.300000000000000114e-02 4.454354999999999842e-01 -3.390300000000000313e+00 9.837819999999999254e+01 1.518345000000000027e+03
1.400000000000000203e-02 4.450355000000000283e-01 -4.137739999999999974e+00 9.603594999999999970e+01 1.517644999999999982e+03
1.499999999999999944e-02 4.446884999999999866e-01 -4.616147500000000292e+00 9.377994999999999948e+01 1.516934999999999945e+03
1.600000000000000033e-02 4.444265000000000576e-01 -4.716434300000000412e+00 9.182065000000000055e+01 1.516279999999999973e+03
1.700000000000000122e-02 4.442470000000000030e-01 -4.431650500000000825e+00 9.025084999999999980e+01 1.515715000000000146e+03
1.800000000000000211e-02 4.441185000000000271e-01 -3.843752999999999975e+00 8.902909999999999968e+01 1.515224999999999909e+03
1.900000000000000300e-02 4.439969999999999750e-01 -3.083372999999999919e+00 8.801335000000000264e+01 1.514799999999999955e+03
2.000000000000000042e-02 4.438424999999999732e-01 -2.281715000000000160e+00 8.702100000000000080e+01 1.514384999999999991e+03
2.100000000000000130e-02 4.436309999999999976e-01 -1.529519999999999769e+00 8.589449999999999363e+01 1.513940000000000055e+03
2.200000000000000219e-02 4.433605000000000462e-01 -8.561400000000001231e-01 8.454984999999999218e+01 1.513440000000000055e+03
2.299999999999999961e-02 4.430479999999999974e-01 -2.357249999999999623e-01 8.299099999999999966e+01 1.512889999999999873e+03
2.400000000000000050e-02 4.427179999999999449e-01 3.849849999999999106e-01 8.128720000000001278e+01 1.512299999999999955e+03
2.500000000000000139e-02 4.423920000000000075e-01 1.052284999999999915e+00 7.952989999999999782e+01 1.511690000000000055e+03
2.600000000000000228e-02 4.420795000000000141e-01 1.779485000000000205e+00 7.778884999999999650e+01 1.511075000000000045e+03
2.700000000000000316e-02 4.417759999999999465e-01 2.536450000000000315e+00 7.608355000000000246e+01 1.510460000000000036e+03
2.800000000000000058e-02 4.414639999999999675e-01 3.254284999999999872e+00 7.437450000000001182e+01 1.509840000000000146e+03
2.900000000000000147e-02 4.411194999999999977e-01 3.841140000000000221e+00 7.257354999999999734e+01 1.509200000000000045e+03
3.000000000000000236e-02 4.407179999999999431e-01 4.203939999999999344e+00 7.056800000000001205e+01 1.508514999999999873e+03
3.099999999999999978e-02 4.402414999999999523e-01 4.270654999999999646e+00 6.825270000000000437e+01 1.507744999999999891e+03
3.200000000000000067e-02 4.396845000000000336e-01 4.008430000000000604e+00 6.556174999999998931e+01 1.506875000000000000e+03
3.300000000000000155e-02 4.390554999999999874e-01 3.432455000000000034e+00 6.249165000000000703e+01 1.505909999999999854e+03
3.400000000000000244e-02 4.383774999999999755e-01 2.603680000000000661e+00 5.910984999999999445e+01 1.504849999999999909e+03
3.500000000000000333e-02 4.376829999999999887e-01 1.616840000000000721e+00 5.554710000000000036e+01 1.503724999999999909e+03
3.600000000000000422e-02 4.370080000000000076e-01 5.827999999999997627e-01 5.197724999999999795e+01 1.502590000000000146e+03
3.700000000000000511e-02 4.363884999999999570e-01 -3.886099999999999000e-01 4.859114999999999895e+01 1.501490000000000009e+03
3.799999999999999906e-02 4.358545000000000336e-01 -1.202950000000000408e+00 4.557174999999999443e+01 1.500480000000000018e+03
3.899999999999999994e-02 4.354280000000000372e-01 -1.788819999999999855e+00 4.307349999999999568e+01 1.499605000000000018e+03
4.000000000000000083e-02 4.351230000000000375e-01 -2.100875000000000270e+00 4.120980000000000132e+01 1.498904999999999973e+03
4.100000000000000172e-02 4.349449999999999705e-01 -2.117559999999999665e+00 4.004845000000000255e+01 1.498414999999999964e+03
4.200000000000000261e-02 4.348940000000000028e-01 -1.836203000000000030e+00 3.961319999999999908e+01 1.498134999999999991e+03
4.300000000000000350e-02 4.349634999999999474e-01 -1.266597499999999821e+00 3.989189999999999969e+01 1.498085000000000036e+03
4.400000000000000439e-02 4.351460000000000328e-01 -4.251400000000000734e-01 4.084595000000000198e+01 1.498250000000000000e+03
4.499999999999999833e-02 4.354320000000000412e-01 6.694900000000001405e-01 4.242085000000000150e+01 1.498619999999999891e+03
4.599999999999999922e-02 4.358119999999999772e-01 1.998284999999999645e+00 4.455434999999999945e+01 1.499180000000000064e+03
4.700000000000000011e-02 4.362750000000000239e-01 3.541584999999999983e+00 4.718104999999999905e+01 1.499914999999999964e+03
4.800000000000000100e-02 4.368109999999999493e-01 5.277404999999999902e+00 5.023449999999999704e+01 1.500795000000000073e+03
4.900000000000000189e-02 4.374080000000000190e-01 7.179194999999999993e+00 5.364624999999999488e+01 1.501809999999999945e+03
5.000000000000000278e-02 4.380550000000000277e-01 9.214247000000000298e+00 5.734465000000000146e+01 1.502929999999999836e+03
5.100000000000000366e-02 4.387369999999999881e-01 1.134367000000000125e+01 6.125430000000000064e+01 1.504134999999999991e+03
5.200000000000000455e-02 4.394390000000000240e-01 1.352338999999999913e+01 6.529619999999999891e+01 1.505409999999999854e+03
5.300000000000000544e-02 4.401464999999999961e-01 1.570672000000000068e+01 6.939019999999999300e+01 1.506710000000000036e+03
5.399999999999999939e-02 4.408464999999999745e-01 1.784739000000000075e+01 7.345810000000000173e+01 1.508034999999999854e+03
5.500000000000000028e-02 4.415260000000000296e-01 1.990265000000000128e+01 7.742820000000000391e+01 1.509340000000000146e+03
5.600000000000000117e-02 4.421745000000000259e-01 2.183634999999999948e+01 8.123940000000000339e+01 1.510615000000000009e+03
5.700000000000000205e-02 4.427860000000000129e-01 2.362084999999999724e+01 8.484440000000000737e+01 1.511839999999999918e+03
5.800000000000000294e-02 4.433559999999999723e-01 2.523789999999999978e+01 8.821200000000000330e+01 1.513009999999999991e+03
5.900000000000000383e-02 4.438834999999999864e-01 2.667879999999999896e+01 9.132885000000000275e+01 1.514105000000000018e+03
6.000000000000000472e-02 4.443709999999999605e-01 2.794375000000000142e+01 9.419624999999999204e+01 1.515134999999999991e+03
6.099999999999999867e-02 4.448219999999999952e-01 2.903989999999999938e+01 9.683004999999999995e+01 1.516089999999999918e+03
6.199999999999999956e-02 4.452420000000000266e-01 2.998044999999999760e+01 9.925839999999999463e+01 1.516985000000000127e+03
6.300000000000000044e-02 4.456379999999999786e-01 3.078269999999999840e+01 1.015161999999999978e+02 1.517825000000000045e+03
6.400000000000000133e-02 4.460155000000000092e-01 3.146640000000000015e+01 1.036435999999999922e+02 1.518615000000000009e+03
6.500000000000000222e-02 4.463825000000000154e-01 3.205299999999999727e+01 1.056834999999999951e+02 1.519375000000000000e+03
6.600000000000000311e-02 4.467460000000000320e-01 3.256425000000000125e+01 1.076770000000000067e+02 1.520110000000000127e+03
6.700000000000000400e-02 4.471120000000000094e-01 3.302139999999999986e+01 1.096624999999999943e+02 1.520840000000000146e+03
6.800000000000000488e-02 4.474859999999999949e-01 3.344454999999999956e+01 1.116760000000000019e+02 1.521565000000000055e+03
6.900000000000000577e-02 4.478720000000000478e-01 3.385120000000000573e+01 1.137450000000000045e+02 1.522309999999999945e+03
7.000000000000000666e-02 4.482734999999999914e-01 3.425560000000000116e+01 1.158884999999999934e+02 1.523070000000000164e+03
7.100000000000000755e-02 4.486919999999999797e-01 3.466785000000000139e+01 1.181195000000000022e+02 1.523849999999999909e+03
7.200000000000000844e-02 4.491249999999999964e-01 3.509319999999999595e+01 1.204379999999999882e+02 1.524655000000000200e+03
7.300000000000000933e-02 4.495725000000000415e-01 3.553119999999999834e+01 1.228354999999999961e+02 1.525485000000000127e+03
7.399999999999999634e-02 4.500279999999999836e-01 3.597629999999999484e+01 1.252905000000000086e+02 1.526329999999999927e+03
7.499999999999999722e-02 4.504879999999999995e-01 3.641779999999999973e+01 1.277750000000000057e+02 1.527184999999999945e+03
7.599999999999999811e-02 4.509429999999999827e-01 3.684089999999999776e+01 1.302514999999999930e+02 1.528045000000000073e+03
7.699999999999999900e-02 4.513869999999999827e-01 3.722764999999999702e+01 1.326769999999999925e+02 1.528889999999999873e+03
7.799999999999999989e-02 4.518109999999999626e-01 3.755870000000000175e+01 1.350065000000000168e+02 1.529710000000000036e+03
7.900000000000000078e-02 4.522065000000000112e-01 3.781439999999999912e+01 1.371920000000000073e+02 1.530490000000000009e+03
8.000000000000000167e-02 4.525660000000000238e-01 3.797615000000000407e+01 1.391910000000000025e+02 1.531215000000000146e+03
8.100000000000000255e-02 4.528845000000000232e-01 3.802779999999999916e+01 1.409644999999999868e+02 1.531865000000000009e+03
8.200000000000000344e-02 4.531554999999999889e-01 3.795640000000000214e+01 1.424814999999999827e+02 1.532444999999999936e+03
8.300000000000000433e-02 4.533764999999999601e-01 3.775315000000000509e+01 1.437185000000000059e+02 1.532934999999999945e+03
8.400000000000000522e-02 4.535454999999999903e-01 3.741360000000000241e+01 1.446619999999999777e+02 1.533329999999999927e+03
8.500000000000000611e-02 4.536624999999999686e-01 3.693789999999999907e+01 1.453089999999999975e+02 1.533630000000000109e+03
8.600000000000000699e-02 4.537290000000000489e-01 3.633055000000000234e+01 1.456659999999999968e+02 1.533835000000000036e+03
8.700000000000000788e-02 4.537480000000000402e-01 3.560020000000000095e+01 1.457479999999999905e+02 1.533945000000000164e+03
8.800000000000000877e-02 4.537244999999999751e-01 3.475934999999999775e+01 1.455784999999999911e+02 1.533964999999999918e+03
8.899999999999999578e-02 4.536630000000000384e-01 3.382330000000000325e+01 1.451870000000000118e+02 1.533909999999999854e+03
8.999999999999999667e-02 4.535704999999999876e-01 3.280995000000000061e+01 1.446095000000000255e+02 1.533785000000000082e+03
9.099999999999999756e-02 4.534535000000000093e-01 3.173884999999999934e+01 1.438824999999999932e+02 1.533599999999999909e+03
9.199999999999999845e-02 4.533185000000000131e-01 3.063029999999999831e+01 1.430464999999999804e+02 1.533369999999999891e+03
9.299999999999999933e-02 4.531725000000000336e-01 2.950469999999999970e+01 1.421410000000000196e+02 1.533105000000000018e+03
9.400000000000000022e-02 4.530224999999999946e-01 2.838179999999999836e+01 1.412044999999999959e+02 1.532829999999999927e+03
9.500000000000000111e-02 4.528730000000000255e-01 2.727985000000000326e+01 1.402719999999999914e+02 1.532534999999999854e+03
9.600000000000000200e-02 4.527300000000000213e-01 2.621509999999999962e+01 1.393745000000000118e+02 1.532244999999999891e+03
9.700000000000000289e-02 4.525980000000000558e-01 2.520094999999999885e+01 1.385364999999999895e+02 1.531965000000000146e+03
9.800000000000000377e-02 4.524795000000000345e-01 2.424770000000000181e+01 1.377794999999999845e+02 1.531704999999999927e+03
9.900000000000000466e-02 4.523765000000000147e-01 2.336240000000000094e+01 1.371144999999999925e+02 1.531469999999999800e+03
1.000000000000000056e-01 4.522900000000000253e-01 2.254840000000000089e+01 1.365494999999999948e+02 1.531259999999999991e+03
1.010000000000000064e-01 4.522194999999999965e-01 2.180559999999999832e+01 1.360840000000000032e+02 1.531079999999999927e+03
1.020000000000000073e-01 4.521635000000000515e-01 2.113074999999999903e+01 1.357119999999999891e+02 1.530930000000000064e+03
1.030000000000000082e-01 4.521195000000000075e-01 2.051754999999999995e+01 1.354215000000000089e+02 1.530804999999999836e+03
1.040000000000000091e-01 4.520855000000000290e-01 1.995725000000000193e+01 1.351970000000000027e+02 1.530704999999999927e+03
1.050000000000000100e-01 4.520575000000000010e-01 1.943925000000000125e+01 1.350194999999999936e+02 1.530615000000000009e+03
1.059999999999999970e-01 4.520314999999999750e-01 1.895150000000000290e+01 1.348659999999999854e+02 1.530545000000000073e+03
1.069999999999999979e-01 4.520039999999999614e-01 1.848134999999999906e+01 1.347139999999999986e+02 1.530470000000000027e+03
1.079999999999999988e-01 4.519704999999999417e-01 1.801589999999999847e+01 1.345414999999999850e+02 1.530400000000000091e+03
1.089999999999999997e-01 4.519275000000000375e-01 1.754294999999999760e+01 1.343260000000000218e+02 1.530320000000000164e+03
1.100000000000000006e-01 4.518725000000000103e-01 1.705120000000000147e+01 1.340484999999999900e+02 1.530220000000000027e+03
1.110000000000000014e-01 4.518019999999999814e-01 1.653099999999999881e+01 1.336915000000000191e+02 1.530099999999999909e+03
1.120000000000000023e-01 4.517149999999999777e-01 1.597490000000000165e+01 1.332439999999999998e+02 1.529950000000000045e+03
1.130000000000000032e-01 4.516094999999999970e-01 1.537739999999999796e+01 1.326965000000000146e+02 1.529775000000000091e+03
1.140000000000000041e-01 4.514865000000000128e-01 1.473590000000000089e+01 1.320470000000000255e+02 1.529570000000000164e+03
1.150000000000000050e-01 4.513455000000000106e-01 1.405034500000000008e+01 1.312950000000000159e+02 1.529329999999999927e+03
1.160000000000000059e-01 4.511890000000000067e-01 1.332329999999999970e+01 1.304479999999999791e+02 1.529059999999999945e+03
1.170000000000000068e-01 4.510174999999999601e-01 1.255982999999999983e+01 1.295169999999999959e+02 1.528759999999999991e+03
1.180000000000000077e-01 4.508355000000000001e-01 1.176754999999999995e+01 1.285159999999999911e+02 1.528440000000000055e+03
1.190000000000000085e-01 4.506454999999999766e-01 1.095574500000000029e+01 1.274629999999999939e+02 1.528099999999999909e+03
1.200000000000000094e-01 4.504515000000000047e-01 1.013555000000000028e+01 1.263799999999999955e+02 1.527750000000000000e+03
1.209999999999999964e-01 4.502579999999999361e-01 9.319095000000000795e+00 1.252884999999999991e+02 1.527390000000000100e+03
1.219999999999999973e-01 4.500684999999999825e-01 8.519059999999999633e+00 1.242129999999999939e+02 1.527029999999999973e+03
1.229999999999999982e-01 4.498874999999999957e-01 7.748330000000000162e+00 1.231754999999999995e+02 1.526679999999999836e+03
1.239999999999999991e-01 4.497185000000000210e-01 7.019160000000000288e+00 1.221989999999999981e+02 1.526345000000000027e+03
1.250000000000000000e-01 4.495644999999999780e-01 6.342780000000000307e+00 1.213034999999999997e+02 1.526025000000000091e+03
1.260000000000000009e-01 4.494289999999999674e-01 5.729025000000000034e+00 1.205054999999999978e+02 1.525740000000000009e+03
1.270000000000000018e-01 4.493139999999999912e-01 5.185789999999999900e+00 1.198195000000000050e+02 1.525485000000000127e+03
1.280000000000000027e-01 4.492205000000000226e-01 4.718795000000000073e+00 1.192539999999999907e+02 1.525269999999999982e+03
1.290000000000000036e-01 4.491494999999999793e-01 4.331405000000000172e+00 1.188149999999999977e+02 1.525095000000000027e+03
1.300000000000000044e-01 4.490999999999999992e-01 4.024564999999999948e+00 1.185024999999999977e+02 1.524954999999999927e+03
1.310000000000000053e-01 4.490724999999999856e-01 3.796829999999999927e+00 1.183135000000000048e+02 1.524855000000000018e+03
1.320000000000000062e-01 4.490644999999999776e-01 3.644530000000000047e+00 1.182399999999999949e+02 1.524795000000000073e+03
1.330000000000000071e-01 4.490735000000000143e-01 3.562005000000000088e+00 1.182715000000000032e+02 1.524769999999999982e+03
1.340000000000000080e-01 4.490979999999999972e-01 3.541895000000000238e+00 1.183930000000000007e+02 1.524775000000000091e+03
1.350000000000000089e-01 4.491335000000000188e-01 3.575529999999999653e+00 1.185900000000000034e+02 1.524809999999999945e+03
1.360000000000000098e-01 4.491785000000000361e-01 3.653299999999999770e+00 1.188435000000000059e+02 1.524865000000000009e+03
1.370000000000000107e-01 4.492289999999999894e-01 3.765045000000000197e+00 1.191364999999999981e+02 1.524934999999999945e+03
1.380000000000000115e-01 4.492825000000000291e-01 3.900440000000000129e+00 1.194499999999999886e+02 1.525025000000000091e+03
1.390000000000000124e-01 4.493349999999999844e-01 4.049389999999999823e+00 1.197674999999999983e+02 1.525110000000000127e+03
1.400000000000000133e-01 4.493845000000000200e-01 4.202304999999999957e+00 1.200734999999999957e+02 1.525200000000000045e+03
1.410000000000000142e-01 4.494290000000000229e-01 4.350429999999999353e+00 1.203540000000000134e+02 1.525284999999999854e+03
1.420000000000000151e-01 4.494670000000000609e-01 4.486064999999999969e+00 1.205960000000000036e+02 1.525365000000000009e+03
1.430000000000000160e-01 4.494954999999999923e-01 4.602730000000000210e+00 1.207920000000000016e+02 1.525429999999999836e+03
1.440000000000000169e-01 4.495149999999999979e-01 4.695310000000000095e+00 1.209344999999999999e+02 1.525480000000000018e+03
1.450000000000000178e-01 4.495244999999999935e-01 4.760130000000000194e+00 1.210194999999999936e+02 1.525514999999999873e+03
1.459999999999999909e-01 4.495239999999999791e-01 4.794929999999999914e+00 1.210455000000000041e+02 1.525530000000000200e+03
1.469999999999999918e-01 4.495139999999999691e-01 4.798874999999999780e+00 1.210139999999999958e+02 1.525534999999999854e+03
1.479999999999999927e-01 4.494940000000000602e-01 4.772459999999999702e+00 1.209275000000000091e+02 1.525514999999999873e+03
1.489999999999999936e-01 4.494670000000000609e-01 4.717374999999999652e+00 1.207920000000000016e+02 1.525480000000000018e+03
1.499999999999999944e-01 4.494325000000000125e-01 4.636359999999999815e+00 1.206129999999999995e+02 1.525434999999999945e+03
1.509999999999999953e-01 4.493924999999999725e-01 4.533020000000000493e+00 1.203979999999999961e+02 1.525369999999999891e+03
1.519999999999999962e-01 4.493484999999999840e-01 4.411620000000000097e+00 1.201564999999999941e+02 1.525305000000000064e+03
1.529999999999999971e-01 4.493019999999999792e-01 4.276835000000000164e+00 1.198969999999999914e+02 1.525224999999999909e+03
1.539999999999999980e-01 4.492550000000000154e-01 4.133564999999999934e+00 1.196274999999999977e+02 1.525144999999999982e+03
1.549999999999999989e-01 4.492085000000000106e-01 3.986659999999999648e+00 1.193569999999999993e+02 1.525059999999999945e+03
1.559999999999999998e-01 4.491634999999999933e-01 3.840759999999999952e+00 1.190925000000000011e+02 1.524974999999999909e+03
1.570000000000000007e-01 4.491209999999999924e-01 3.700060000000000127e+00 1.188404999999999916e+02 1.524894999999999982e+03
1.580000000000000016e-01 4.490824999999999956e-01 3.568184999999999718e+00 1.186069999999999993e+02 1.524819999999999936e+03
1.590000000000000024e-01 4.490475000000000438e-01 3.448055000000000092e+00 1.183949999999999960e+02 1.524744999999999891e+03
