# t [s], A [cm^2], U [cm/s], P [cPa], c [cm/s]
1.000000000000000021e-03 2.080700000000000049e-01 3.431950000000000278e-01 9.020154999999999745e+01 2.140159999999999854e+03
2.000000000000000042e-03 2.080130000000000035e-01 1.808241499999999835e+00 8.685849999999999227e+01 2.139724999999999909e+03
3.000000000000000062e-03 2.078665000000000096e-01 3.595438000000000134e+00 8.228405000000000769e+01 2.138664999999999964e+03
4.000000000000000083e-03 2.076719999999999955e-01 5.605307499999999443e+00 7.749584999999999013e+01 2.137275000000000091e+03
5.000000000000000104e-03 2.074705000000000021e-01 7.753485000000000404e+00 7.340964999999999918e+01 2.135845000000000255e+03
6.000000000000000125e-03 2.072800000000000198e-01 9.822364999999999569e+00 7.016624999999999091e+01 2.134505000000000109e+03
7.000000000000000146e-03 2.071034999999999959e-01 1.159594000000000058e+01 6.737874999999999659e+01 2.133295000000000073e+03
8.000000000000000167e-03 2.069440000000000168e-01 1.304372500000000201e+01 6.488075000000000614e+01 2.132224999999999909e+03
9.000000000000001055e-03 2.068074999999999775e-01 1.422400000000000020e+01 6.279599999999999937e+01 2.131320000000000164e+03
1.000000000000000194e-02 2.066959999999999908e-01 1.516365000000000052e+01 6.116720000000000113e+01 2.130579999999999927e+03
1.099999999999999936e-02 2.066074999999999995e-01 1.587640000000000029e+01 5.993410000000000082e+01 2.130010000000000218e+03
1.200000000000000025e-02 2.065390000000000004e-01 1.637194999999999823e+01 5.900310000000000343e+01 2.129570000000000164e+03
1.300000000000000114e-02 2.064845000000000153e-01 1.665165000000000006e+01 5.823465000000000202e+01 2.129235000000000127e+03
1.400000000000000203e-02 2.064400000000000124e-01 1.675590000000000046e+01 5.755030000000000001e+01 2.128960000000000036e+03
1.499999999999999944e-02 2.064070000000000071e-01 1.681199999999999761e+01 5.711899999999999977e+01 2.128775000000000091e+03
1.600000000000000033e-02 2.063979999999999981e-01 1.700159999999999982e+01 5.735729999999999507e+01 2.128724999999999909e+03
1.700000000000000122e-02 2.064234999999999820e-01 1.746034999999999826e+01 5.867119999999999891e+01 2.128899999999999636e+03
1.800000000000000211e-02 2.064909999999999801e-01 1.819239999999999924e+01 6.114439999999999742e+01 2.129349999999999909e+03
1.900000000000000300e-02 2.065934999999999855e-01 1.905904999999999916e+01 6.440614999999999668e+01 2.130024999999999636e+03
2.000000000000000042e-02 2.067124999999999935e-01 1.984040000000000248e+01 6.775100000000000477e+01 2.130824999999999818e+03
2.100000000000000130e-02 2.068244999999999945e-01 2.032755000000000223e+01 7.041740000000000066e+01 2.131585000000000036e+03
2.200000000000000219e-02 2.069079999999999808e-01 2.040054999999999907e+01 7.187309999999999377e+01 2.132170000000000073e+03
2.299999999999999961e-02 2.069524999999999837e-01 2.006024999999999991e+01 7.198240000000001260e+01 2.132494999999999891e+03
2.400000000000000050e-02 2.069564999999999877e-01 1.940995000000000203e+01 7.100130000000000052e+01 2.132550000000000182e+03
2.500000000000000139e-02 2.069305000000000172e-01 1.860025000000000261e+01 6.942445000000000732e+01 2.132400000000000091e+03
2.600000000000000228e-02 2.068895000000000040e-01 1.776675000000000182e+01 6.776744999999999663e+01 2.132135000000000218e+03
2.700000000000000316e-02 2.068455000000000155e-01 1.698509999999999920e+01 6.638114999999999100e+01 2.131845000000000255e+03
2.800000000000000058e-02 2.068070000000000186e-01 1.625949999999999918e+01 6.536445000000000505e+01 2.131579999999999927e+03
2.900000000000000147e-02 2.067724999999999980e-01 1.553995000000000104e+01 6.458915000000000362e+01 2.131355000000000018e+03
3.000000000000000236e-02 2.067400000000000071e-01 1.475860000000000127e+01 6.380640000000000356e+01 2.131130000000000109e+03
3.099999999999999978e-02 2.067014999999999825e-01 1.386844999999999928e+01 6.278329999999999700e+01 2.130880000000000109e+03
3.200000000000000067e-02 2.066530000000000034e-01 1.287129999999999974e+01 6.141854999999999620e+01 2.130560000000000400e+03
3.300000000000000155e-02 2.065954999999999875e-01 1.182655499999999904e+01 5.980125000000000313e+01 2.130180000000000291e+03
3.400000000000000244e-02 2.065339999999999954e-01 1.083889999999999887e+01 5.819485000000000241e+01 2.129769999999999982e+03
3.500000000000000333e-02 2.064789999999999959e-01 1.002872500000000144e+01 5.695629999999999882e+01 2.129399999999999636e+03
3.600000000000000422e-02 2.064420000000000144e-01 9.496700000000000585e+00 5.642099999999999937e+01 2.129144999999999982e+03
3.700000000000000511e-02 2.064320000000000044e-01 9.294370000000000687e+00 5.679404999999999859e+01 2.129059999999999945e+03
3.799999999999999906e-02 2.064539999999999986e-01 9.409029999999999561e+00 5.808334999999999582e+01 2.129190000000000055e+03
3.899999999999999994e-02 2.065049999999999941e-01 9.766639999999998878e+00 6.009114999999999895e+01 2.129510000000000218e+03
4.000000000000000083e-02 2.065774999999999972e-01 1.024894000000000105e+01 6.246054999999999779e+01 2.129980000000000018e+03
4.100000000000000172e-02 2.066584999999999950e-01 1.071845499999999873e+01 6.475584999999999525e+01 2.130510000000000218e+03
4.200000000000000261e-02 2.067330000000000001e-01 1.104439999999999955e+01 6.655324999999999136e+01 2.131010000000000218e+03
4.300000000000000350e-02 2.067884999999999862e-01 1.112294999999999945e+01 6.751650000000000773e+01 2.131385000000000218e+03
4.400000000000000439e-02 2.068139999999999978e-01 1.088909999999999911e+01 6.744409999999999172e+01 2.131565000000000055e+03
4.499999999999999833e-02 2.068030000000000146e-01 1.031956500000000077e+01 6.628284999999999627e+01 2.131505000000000109e+03
4.599999999999999922e-02 2.067535000000000067e-01 9.427350000000000563e+00 6.411019999999999186e+01 2.131190000000000055e+03
4.700000000000000011e-02 2.066689999999999916e-01 8.252610000000000667e+00 6.109740000000000748e+01 2.130640000000000327e+03
4.800000000000000100e-02 2.065545000000000020e-01 6.851564999999999905e+00 5.746564999999999657e+01 2.129885000000000218e+03
4.900000000000000189e-02 2.064165000000000028e-01 5.287169999999999703e+00 5.344610000000000127e+01 2.128970000000000255e+03
5.000000000000000278e-02 2.062634999999999885e-01 3.622989000000000015e+00 4.925300000000000011e+01 2.127949999999999818e+03
5.100000000000000366e-02 2.061014999999999930e-01 1.920209999999999972e+00 4.507070000000000221e+01 2.126875000000000000e+03
5.200000000000000455e-02 2.059390000000000109e-01 2.373300000000000409e-01 4.105304999999999893e+01 2.125780000000000200e+03
5.300000000000000544e-02 2.057805000000000051e-01 -1.368790000000000173e+00 3.733089999999999975e+01 2.124725000000000364e+03
5.399999999999999939e-02 2.056324999999999958e-01 -2.841887499999999900e+00 3.402145000000000152e+01 2.123724999999999909e+03
5.500000000000000028e-02 2.054995000000000016e-01 -4.126070000000000348e+00 3.123610000000000042e+01 2.122829999999999927e+03
5.600000000000000117e-02 2.053864999999999996e-01 -5.166970000000000063e+00 2.908285000000000053e+01 2.122065000000000055e+03
5.700000000000000205e-02 2.052984999999999949e-01 -5.914209999999999745e+00 2.766360000000000241e+01 2.121460000000000036e+03
5.800000000000000294e-02 2.052399999999999780e-01 -6.324695000000000178e+00 2.706714999999999804e+01 2.121045000000000073e+03
5.900000000000000383e-02 2.052130000000000065e-01 -6.366125000000000256e+00 2.735979999999999990e+01 2.120850000000000364e+03
6.000000000000000472e-02 2.052215000000000011e-01 -6.020009999999999195e+00 2.857634999999999792e+01 2.120880000000000109e+03
6.099999999999999867e-02 2.052660000000000040e-01 -5.283574999999999910e+00 3.071374999999999744e+01 2.121155000000000200e+03
6.199999999999999956e-02 2.053470000000000018e-01 -4.170350000000000001e+00 3.372834999999999894e+01 2.121670000000000073e+03
6.300000000000000044e-02 2.054620000000000057e-01 -2.709293500000000243e+00 3.753815000000000168e+01 2.122409999999999854e+03
6.400000000000000133e-02 2.056084999999999996e-01 -9.427599999999998204e-01 4.202814999999999657e+01 2.123369999999999891e+03
6.500000000000000222e-02 2.057820000000000205e-01 1.076420000000000154e+00 4.705910000000000082e+01 2.124510000000000218e+03
6.600000000000000311e-02 2.059775000000000078e-01 3.288285000000000124e+00 5.247744999999999749e+01 2.125805000000000291e+03
6.700000000000000400e-02 2.061890000000000112e-01 5.629364999999999952e+00 5.812565000000000026e+01 2.127210000000000036e+03
6.800000000000000488e-02 2.064114999999999978e-01 8.036115000000000563e+00 6.385179999999999723e+01 2.128694999999999709e+03
6.900000000000000577e-02 2.066385000000000027e-01 1.044822500000000076e+01 6.951874999999999716e+01 2.130215000000000146e+03
7.000000000000000666e-02 2.068649999999999933e-01 1.281167000000000122e+01 7.501040000000000418e+01 2.131739999999999782e+03
7.100000000000000755e-02 2.070859999999999923e-01 1.508095000000000141e+01 8.023805000000000121e+01 2.133234999999999673e+03
7.200000000000000844e-02 2.072994999999999977e-01 1.722109999999999985e+01 8.514300000000000068e+01 2.134680000000000291e+03
7.300000000000000933e-02 2.075015000000000054e-01 1.920840000000000103e+01 8.969814999999999827e+01 2.136060000000000400e+03
7.399999999999999634e-02 2.076919999999999877e-01 2.103079999999999927e+01 9.390670000000000073e+01 2.137359999999999673e+03
7.499999999999999722e-02 2.078705000000000136e-01 2.268704999999999927e+01 9.779759999999998854e+01 2.138585000000000036e+03
7.599999999999999811e-02 2.080380000000000007e-01 2.418529999999999802e+01 1.014208500000000015e+02 2.139734999999999673e+03
7.699999999999999900e-02 2.081954999999999778e-01 2.554064999999999941e+01 1.048399500000000018e+02 2.140824999999999818e+03
7.799999999999999989e-02 2.083464999999999900e-01 2.677299999999999969e+01 1.081244999999999976e+02 2.141859999999999673e+03
7.900000000000000078e-02 2.084920000000000107e-01 2.790435000000000088e+01 1.113419999999999987e+02 2.142864999999999782e+03
8.000000000000000167e-02 2.086350000000000149e-01 2.895619999999999905e+01 1.145504999999999995e+02 2.143854999999999563e+03
8.100000000000000255e-02 2.087769999999999904e-01 2.994780000000000086e+01 1.177980000000000018e+02 2.144840000000000146e+03
8.200000000000000344e-02 2.089209999999999956e-01 3.089419999999999789e+01 1.211115000000000066e+02 2.145824999999999818e+03
8.300000000000000433e-02 2.090660000000000018e-01 3.180525000000000091e+01 1.245014999999999930e+02 2.146829999999999927e+03
8.400000000000000522e-02 2.092134999999999967e-01 3.268540000000000134e+01 1.279600000000000080e+02 2.147840000000000146e+03
8.500000000000000611e-02 2.093629999999999936e-01 3.353329999999999700e+01 1.314644999999999868e+02 2.148869999999999891e+03
8.600000000000000699e-02 2.095135000000000192e-01 3.434260000000000446e+01 1.349739999999999895e+02 2.149909999999999854e+03
8.700000000000000788e-02 2.096629999999999883e-01 3.510240000000000293e+01 1.384420000000000073e+02 2.150939999999999600e+03
8.800000000000000877e-02 2.098109999999999975e-01 3.579874999999999829e+01 1.418125000000000000e+02 2.151954999999999927e+03
8.899999999999999578e-02 2.099544999999999884e-01 3.641539999999999822e+01 1.450285000000000082e+02 2.152945000000000164e+03
8.999999999999999667e-02 2.100905000000000133e-01 3.693524999999999636e+01 1.480330000000000155e+02 2.153889999999999873e+03
9.099999999999999756e-02 2.102189999999999892e-01 3.734144999999999470e+01 1.507735000000000127e+02 2.154779999999999745e+03
9.199999999999999845e-02 2.103365000000000096e-01 3.761875000000000568e+01 1.532035000000000196e+02 2.155599999999999909e+03
9.299999999999999933e-02 2.104415000000000036e-01 3.775424999999999898e+01 1.552864999999999895e+02 2.156324999999999818e+03
9.400000000000000022e-02 2.105319999999999969e-01 3.773825000000000074e+01 1.569964999999999975e+02 2.156965000000000146e+03
9.500000000000000111e-02 2.106089999999999907e-01 3.756534999999999513e+01 1.583185000000000002e+02 2.157505000000000109e+03
9.600000000000000200e-02 2.106695000000000095e-01 3.723440000000000083e+01 1.592520000000000095e+02 2.157934999999999945e+03
9.700000000000000289e-02 2.107144999999999990e-01 3.674894999999999357e+01 1.598050000000000068e+02 2.158255000000000109e+03
9.800000000000000377e-02 2.107450000000000156e-01 3.611710000000000065e+01 1.600015000000000214e+02 2.158474999999999909e+03
9.900000000000000466e-02 2.107604999999999895e-01 3.535139999999999816e+01 1.598714999999999975e+02 2.158595000000000255e+03
1.000000000000000056e-01 2.107629999999999781e-01 3.446805000000000518e+01 1.594569999999999936e+02 2.158625000000000000e+03
1.010000000000000064e-01 2.107534999999999825e-01 3.348615000000000208e+01 1.588044999999999902e+02 2.158570000000000164e+03
1.020000000000000073e-01 2.107344999999999913e-01 3.242710000000000292e+01 1.579644999999999868e+02 2.158449999999999818e+03
1.030000000000000082e-01 2.107069999999999776e-01 3.131340000000000146e+01 1.569894999999999925e+02 2.158270000000000437e+03
1.040000000000000091e-01 2.106744999999999868e-01 3.016775000000000162e+01 1.559325000000000045e+02 2.158045000000000073e+03
1.050000000000000100e-01 2.106370000000000187e-01 2.901194999999999879e+01 1.548389999999999986e+02 2.157795000000000073e+03
1.059999999999999970e-01 2.105974999999999930e-01 2.786635000000000062e+01 1.537535000000000025e+02 2.157529999999999745e+03
1.069999999999999979e-01 2.105579999999999952e-01 2.674879999999999924e+01 1.527119999999999891e+02 2.157260000000000218e+03
1.079999999999999988e-01 2.105184999999999973e-01 2.567399999999999949e+01 1.517425000000000068e+02 2.156985000000000127e+03
1.089999999999999997e-01 2.104814999999999880e-01 2.465339999999999776e+01 1.508644999999999925e+02 2.156730000000000018e+03
1.100000000000000006e-01 2.104469999999999952e-01 2.369444999999999979e+01 1.500875000000000057e+02 2.156494999999999891e+03
1.110000000000000014e-01 2.104159999999999919e-01 2.280095000000000027e+01 1.494130000000000109e+02 2.156274999999999636e+03
1.120000000000000023e-01 2.103885000000000061e-01 2.197265000000000157e+01 1.488330000000000268e+02 2.156079999999999927e+03
1.130000000000000032e-01 2.103645000000000098e-01 2.120589999999999975e+01 1.483340000000000032e+02 2.155904999999999745e+03
1.140000000000000041e-01 2.103424999999999878e-01 2.049385000000000190e+01 1.478919999999999959e+02 2.155750000000000000e+03
1.150000000000000050e-01 2.103224999999999956e-01 1.982704999999999984e+01 1.474809999999999945e+02 2.155605000000000018e+03
1.160000000000000059e-01 2.103035000000000043e-01 1.919429999999999836e+01 1.470709999999999980e+02 2.155470000000000255e+03
1.170000000000000068e-01 2.102839999999999987e-01 1.858295000000000030e+01 1.466304999999999836e+02 2.155335000000000036e+03
1.180000000000000077e-01 2.102634999999999921e-01 1.798029999999999973e+01 1.461285000000000025e+02 2.155190000000000055e+03
1.190000000000000085e-01 2.102404999999999968e-01 1.737375000000000114e+01 1.455360000000000014e+02 2.155025000000000091e+03
1.200000000000000094e-01 2.102140000000000120e-01 1.675215000000000032e+01 1.448290000000000077e+02 2.154840000000000146e+03
1.209999999999999964e-01 2.101830000000000087e-01 1.610600000000000165e+01 1.439884999999999877e+02 2.154625000000000000e+03
1.219999999999999973e-01 2.101465000000000138e-01 1.542825000000000024e+01 1.430029999999999859e+02 2.154375000000000000e+03
1.229999999999999982e-01 2.101044999999999996e-01 1.471470000000000056e+01 1.418675000000000068e+02 2.154090000000000146e+03
1.239999999999999991e-01 2.100569999999999937e-01 1.396434999999999960e+01 1.405869999999999891e+02 2.153764999999999873e+03
1.250000000000000000e-01 2.100040000000000240e-01 1.317919999999999980e+01 1.391714999999999804e+02 2.153400000000000091e+03
1.260000000000000009e-01 2.099455000000000071e-01 1.236439999999999984e+01 1.376415000000000077e+02 2.153005000000000109e+03
1.270000000000000018e-01 2.098824999999999996e-01 1.152801999999999971e+01 1.360224999999999795e+02 2.152574999999999818e+03
1.280000000000000027e-01 2.098165000000000169e-01 1.068036000000000030e+01 1.343439999999999941e+02 2.152119999999999891e+03
1.290000000000000036e-01 2.097479999999999900e-01 9.833450000000000912e+00 1.326424999999999841e+02 2.151650000000000091e+03
1.300000000000000044e-01 2.096784999999999899e-01 9.000640000000000640e+00 1.309519999999999982e+02 2.151175000000000182e+03
1.310000000000000053e-01 2.096095000000000041e-01 8.195434999999999803e+00 1.293084999999999809e+02 2.150699999999999818e+03
1.320000000000000062e-01 2.095425000000000204e-01 7.431104999999999627e+00 1.277464999999999975e+02 2.150239999999999782e+03
1.330000000000000071e-01 2.094779999999999975e-01 6.719969999999999999e+00 1.262950000000000017e+02 2.149795000000000073e+03
1.340000000000000080e-01 2.094174999999999787e-01 6.072675000000000267e+00 1.249795000000000016e+02 2.149380000000000109e+03
1.350000000000000089e-01 2.093625000000000069e-01 5.497815000000000119e+00 1.238190000000000026e+02 2.148994999999999891e+03
1.360000000000000098e-01 2.093135000000000134e-01 5.001520000000000188e+00 1.228255000000000052e+02 2.148654999999999745e+03
1.370000000000000107e-01 2.092704999999999982e-01 4.587335000000000385e+00 1.220054999999999978e+02 2.148355000000000018e+03
1.380000000000000115e-01 2.092344999999999899e-01 4.256085000000000562e+00 1.213564999999999969e+02 2.148105000000000018e+03
1.390000000000000124e-01 2.092049999999999743e-01 4.005990000000000606e+00 1.208719999999999999e+02 2.147894999999999982e+03
1.400000000000000133e-01 2.091820000000000068e-01 3.832855000000000345e+00 1.205384999999999991e+02 2.147735000000000127e+03
1.410000000000000142e-01 2.091645000000000032e-01 3.730370000000000186e+00 1.203400000000000034e+02 2.147610000000000127e+03
1.420000000000000151e-01 2.091534999999999922e-01 3.690464999999999662e+00 1.202540000000000049e+02 2.147519999999999982e+03
1.430000000000000160e-01 2.091459999999999986e-01 3.703734999999999999e+00 1.202584999999999980e+02 2.147470000000000255e+03
1.440000000000000169e-01 2.091430000000000233e-01 3.759864999999999569e+00 1.203294999999999959e+02 2.147440000000000055e+03
1.450000000000000178e-01 2.091419999999999946e-01 3.848090000000000011e+00 1.204420000000000073e+02 2.147429999999999836e+03
1.459999999999999909e-01 2.091434999999999822e-01 3.957590000000000163e+00 1.205725000000000051e+02 2.147434999999999945e+03
1.469999999999999918e-01 2.091454999999999842e-01 4.077905000000000335e+00 1.206995000000000005e+02 2.147444999999999709e+03
1.479999999999999927e-01 2.091485000000000150e-01 4.199254999999999960e+00 1.208025000000000091e+02 2.147465000000000146e+03
1.489999999999999936e-01 2.091500000000000026e-01 4.312884999999999636e+00 1.208659999999999997e+02 2.147474999999999909e+03
1.499999999999999944e-01 2.091509999999999758e-01 4.411265000000000214e+00 1.208755000000000024e+02 2.147475000000000364e+03
1.509999999999999953e-01 2.091494999999999882e-01 4.488310000000000244e+00 1.208215000000000003e+02 2.147465000000000146e+03
1.519999999999999962e-01 2.091459999999999986e-01 4.539464999999999861e+00 1.206980000000000075e+02 2.147440000000000055e+03
1.529999999999999971e-01 2.091399999999999926e-01 4.561769999999999214e+00 1.205020000000000095e+02 2.147404999999999745e+03
1.539999999999999980e-01 2.091314999999999980e-01 4.553855000000000430e+00 1.202340000000000089e+02 2.147345000000000255e+03
1.549999999999999989e-01 2.091204999999999870e-01 4.515830000000000233e+00 1.198979999999999961e+02 2.147269999999999982e+03
1.559999999999999998e-01 2.091065000000000007e-01 4.449164999999999814e+00 1.195005000000000024e+02 2.147175000000000182e+03
1.570000000000000007e-01 2.090905000000000125e-01 4.356469999999999843e+00 1.190504999999999995e+02 2.147070000000000164e+03
1.580000000000000016e-01 2.090724999999999945e-01 4.241234999999999644e+00 1.185579999999999927e+02 2.146949999999999818e+03
1.590000000000000024e-01 2.090525000000000022e-01 4.107594999999999885e+00 1.180335000000000036e+02 2.146815000000000055e+03
