# t [s], A [cm^2], U [cm/s], P [cPa], c [cm/s]
1.000000000000000021e-03 1.736779999999999990e-01 3.808416000000000023e-01 1.026069999999999993e+02 2.184315000000000055e+03
2.000000000000000042e-03 1.736229999999999996e-01 2.053283500000000039e+00 9.875440000000000396e+01 2.183774999999999636e+03
3.000000000000000062e-03 1.734844999999999859e-01 4.111245999999999512e+00 9.343895000000000550e+01 2.182474999999999909e+03
4.000000000000000083e-03 1.733020000000000116e-01 6.433688499999999699e+00 8.784624999999999773e+01 2.180784999999999854e+03
5.000000000000000104e-03 1.731119999999999881e-01 8.913059999999999761e+00 8.302264999999999873e+01 2.179045000000000073e+03
6.000000000000000125e-03 1.729320000000000024e-01 1.129690000000000083e+01 7.912290000000000134e+01 2.177414999999999964e+03
7.000000000000000146e-03 1.727650000000000019e-01 1.334606000000000137e+01 7.572204999999999586e+01 2.175934999999999945e+03
8.000000000000000167e-03 1.726145000000000040e-01 1.503430000000000000e+01 7.266669999999999163e+01 2.174630000000000109e+03
9.000000000000001055e-03 1.724849999999999994e-01 1.642474999999999952e+01 7.010210000000000719e+01 2.173514999999999873e+03
1.000000000000000194e-02 1.723790000000000044e-01 1.754654999999999987e+01 6.806619999999999493e+01 2.172614999999999782e+03
1.099999999999999936e-02 1.722945000000000171e-01 1.842009999999999792e+01 6.649790000000000134e+01 2.171904999999999745e+03
1.200000000000000025e-02 1.722279999999999922e-01 1.905785000000000196e+01 6.529460000000000264e+01 2.171360000000000127e+03
1.300000000000000114e-02 1.721749999999999947e-01 1.946079999999999899e+01 6.429040000000000532e+01 2.170930000000000291e+03
1.400000000000000203e-02 1.721314999999999928e-01 1.968119999999999692e+01 6.340699999999999648e+01 2.170585000000000036e+03
1.499999999999999944e-02 1.720994999999999886e-01 1.987249999999999872e+01 6.287024999999999864e+01 2.170340000000000146e+03
1.600000000000000033e-02 1.720915000000000084e-01 2.023665000000000092e+01 6.316629999999999967e+01 2.170284999999999854e+03
1.700000000000000122e-02 1.721165000000000056e-01 2.090290000000000248e+01 6.470695000000000618e+01 2.170500000000000000e+03
1.800000000000000211e-02 1.721789999999999987e-01 2.184069999999999823e+01 6.748255000000000337e+01 2.171034999999999854e+03
1.900000000000000300e-02 1.722690000000000055e-01 2.286605000000000132e+01 7.096674999999999045e+01 2.171805000000000291e+03
2.000000000000000042e-02 1.723679999999999934e-01 2.372664999999999935e+01 7.431319999999999482e+01 2.172664999999999964e+03
2.100000000000000130e-02 1.724539999999999962e-01 2.421110000000000184e+01 7.670390000000000441e+01 2.173425000000000182e+03
2.200000000000000219e-02 1.725099999999999967e-01 2.422765000000000057e+01 7.766259999999999764e+01 2.173945000000000164e+03
2.299999999999999961e-02 1.725300000000000167e-01 2.382435000000000258e+01 7.719675000000000864e+01 2.174149999999999636e+03
2.400000000000000050e-02 1.725180000000000047e-01 2.314995000000000047e+01 7.572839999999999350e+01 2.174074999999999818e+03
2.500000000000000139e-02 1.724855000000000138e-01 2.238090000000000046e+01 7.387139999999999418e+01 2.173809999999999945e+03
2.600000000000000228e-02 1.724455000000000016e-01 2.165099999999999980e+01 7.216949999999999932e+01 2.173474999999999909e+03
2.700000000000000316e-02 1.724090000000000067e-01 2.101129999999999853e+01 7.090979999999998995e+01 2.173154999999999745e+03
2.800000000000000058e-02 1.723790000000000044e-01 2.043070000000000164e+01 7.007089999999999463e+01 2.172894999999999982e+03
2.900000000000000147e-02 1.723545000000000216e-01 1.982829999999999870e+01 6.940064999999999884e+01 2.172675000000000182e+03
3.000000000000000236e-02 1.723270000000000080e-01 1.912140000000000128e+01 6.857019999999999982e+01 2.172440000000000055e+03
3.099999999999999978e-02 1.722914999999999863e-01 1.826950000000000074e+01 6.733949999999998681e+01 2.172144999999999982e+03
3.200000000000000067e-02 1.722454999999999958e-01 1.729979999999999762e+01 6.567529999999999291e+01 2.171750000000000000e+03
3.300000000000000155e-02 1.721909999999999830e-01 1.630699999999999861e+01 6.378435000000000343e+01 2.171289999999999964e+03
3.400000000000000244e-02 1.721354999999999968e-01 1.542750000000000021e+01 6.205429999999999779e+01 2.170809999999999945e+03
3.500000000000000333e-02 1.720905000000000074e-01 1.479734999999999978e+01 6.092575000000000074e+01 2.170414999999999964e+03
3.600000000000000422e-02 1.720669999999999977e-01 1.451055000000000028e+01 6.074545000000000528e+01 2.170199999999999818e+03
3.700000000000000511e-02 1.720714999999999884e-01 1.459065000000000012e+01 6.165215000000000600e+01 2.170215000000000146e+03
3.799999999999999906e-02 1.721050000000000080e-01 1.498409999999999975e+01 6.353034999999999854e+01 2.170474999999999909e+03
3.899999999999999994e-02 1.721619999999999817e-01 1.557410000000000139e+01 6.603900000000000148e+01 2.170949999999999818e+03
4.000000000000000083e-02 1.722325000000000106e-01 1.620834999999999937e+01 6.869634999999999536e+01 2.171545000000000073e+03
4.100000000000000172e-02 1.723030000000000117e-01 1.673079999999999856e+01 7.099020000000000152e+01 2.172149999999999636e+03
4.200000000000000261e-02 1.723609999999999864e-01 1.701004999999999967e+01 7.248124999999998863e+01 2.172654999999999745e+03
4.300000000000000350e-02 1.723939999999999917e-01 1.695710000000000051e+01 7.287590000000000146e+01 2.172954999999999927e+03
4.400000000000000439e-02 1.723959999999999937e-01 1.653284999999999982e+01 7.205715000000000714e+01 2.172989999999999782e+03
4.499999999999999833e-02 1.723645000000000038e-01 1.574380000000000024e+01 7.007465000000000543e+01 2.172734999999999673e+03
4.599999999999999922e-02 1.723004999999999953e-01 1.463145000000000095e+01 6.710460000000000491e+01 2.172199999999999818e+03
4.700000000000000011e-02 1.722084999999999866e-01 1.325864500000000135e+01 6.339495000000000147e+01 2.171420000000000073e+03
4.800000000000000100e-02 1.720949999999999980e-01 1.169657499999999928e+01 5.921334999999999837e+01 2.170449999999999818e+03
4.900000000000000189e-02 1.719670000000000087e-01 1.001588999999999885e+01 5.480790000000000362e+01 2.169350000000000364e+03
5.000000000000000278e-02 1.718310000000000115e-01 8.282584999999999198e+00 5.038729999999999620e+01 2.168180000000000291e+03
5.100000000000000366e-02 1.716924999999999979e-01 6.557080000000000020e+00 4.611880000000000024e+01 2.166989999999999782e+03
5.200000000000000455e-02 1.715579999999999883e-01 4.896254499999999510e+00 4.213729999999999620e+01 2.165820000000000164e+03
5.300000000000000544e-02 1.714304999999999857e-01 3.355595499999999731e+00 3.855944999999999823e+01 2.164720000000000255e+03
5.399999999999999939e-02 1.713155000000000094e-01 1.990530000000000133e+00 3.549604999999999677e+01 2.163715000000000146e+03
5.500000000000000028e-02 1.712160000000000071e-01 8.560649999999999649e-01 3.305794999999999817e+01 2.162850000000000364e+03
5.600000000000000117e-02 1.711369999999999836e-01 4.520000000000079510e-03 3.135470000000000113e+01 2.162144999999999982e+03
5.700000000000000205e-02 1.710814999999999975e-01 -5.180860000000000465e-01 3.048679999999999879e+01 2.161644999999999982e+03
5.800000000000000294e-02 1.710519999999999818e-01 -6.761825000000000196e-01 3.053414999999999679e+01 2.161380000000000109e+03
5.900000000000000383e-02 1.710524999999999962e-01 -4.483867000000000269e-01 3.154384999999999906e+01 2.161355000000000018e+03
6.000000000000000472e-02 1.710824999999999985e-01 1.700000000000000400e-01 3.352155000000000484e+01 2.161585000000000036e+03
6.099999999999999867e-02 1.711435000000000040e-01 1.166123000000000021e+00 3.642714999999999748e+01 2.162085000000000036e+03
6.199999999999999956e-02 1.712334999999999829e-01 2.510494500000000073e+00 4.017629999999999768e+01 2.162835000000000036e+03
6.300000000000000044e-02 1.713505000000000167e-01 4.159331500000000403e+00 4.464700000000000557e+01 2.163819999999999709e+03
6.400000000000000133e-02 1.714899999999999758e-01 6.057885000000000630e+00 4.968965000000000032e+01 2.165005000000000109e+03
6.500000000000000222e-02 1.716484999999999816e-01 8.144275000000000375e+00 5.513850000000000051e+01 2.166355000000000018e+03
6.600000000000000311e-02 1.718195000000000139e-01 1.035351999999999961e+01 6.082394999999999641e+01 2.167829999999999927e+03
6.700000000000000400e-02 1.719994999999999996e-01 1.262121000000000137e+01 6.658320000000000505e+01 2.169380000000000109e+03
6.800000000000000488e-02 1.721834999999999893e-01 1.488705000000000034e+01 7.226994999999999436e+01 2.170970000000000255e+03
6.900000000000000577e-02 1.723659999999999914e-01 1.709789999999999921e+01 7.776210000000000377e+01 2.172554999999999836e+03
7.000000000000000666e-02 1.725444999999999895e-01 1.921045000000000158e+01 8.296774999999999523e+01 2.174114999999999782e+03
7.100000000000000755e-02 1.727144999999999930e-01 2.119284999999999997e+01 8.782869999999999777e+01 2.175609999999999673e+03
7.200000000000000844e-02 1.728764999999999885e-01 2.302570000000000050e+01 9.232144999999999868e+01 2.177025000000000091e+03
7.300000000000000933e-02 1.730275000000000007e-01 2.470210000000000150e+01 9.645644999999998959e+01 2.178359999999999673e+03
7.399999999999999634e-02 1.731685000000000030e-01 2.622659999999999769e+01 1.002713999999999999e+02 2.179614999999999782e+03
7.499999999999999722e-02 1.733014999999999972e-01 2.761305000000000121e+01 1.038283000000000129e+02 2.180789999999999964e+03
7.599999999999999811e-02 1.734259999999999968e-01 2.888230000000000075e+01 1.072009999999999934e+02 2.181905000000000200e+03
7.699999999999999900e-02 1.735459999999999781e-01 3.005900000000000105e+01 1.104694999999999965e+02 2.182970000000000255e+03
7.799999999999999989e-02 1.736630000000000118e-01 3.116870000000000118e+01 1.137079999999999984e+02 2.184010000000000218e+03
7.900000000000000078e-02 1.737790000000000168e-01 3.223519999999999897e+01 1.169805000000000064e+02 2.185039999999999964e+03
8.000000000000000167e-02 1.738954999999999806e-01 3.327814999999999657e+01 1.203329999999999984e+02 2.186079999999999927e+03
8.100000000000000255e-02 1.740145000000000164e-01 3.431145000000000067e+01 1.237920000000000016e+02 2.187130000000000109e+03
8.200000000000000344e-02 1.741354999999999986e-01 3.534250000000000114e+01 1.273605000000000018e+02 2.188204999999999927e+03
8.300000000000000433e-02 1.742599999999999982e-01 3.637184999999999491e+01 1.310219999999999914e+02 2.189304999999999836e+03
8.400000000000000522e-02 1.743859999999999855e-01 3.739339999999999975e+01 1.347404999999999973e+02 2.190425000000000182e+03
8.500000000000000611e-02 1.745134999999999881e-01 3.839555000000000007e+01 1.384660000000000082e+02 2.191550000000000182e+03
8.600000000000000699e-02 1.746399999999999897e-01 3.936199999999999477e+01 1.421384999999999934e+02 2.192680000000000291e+03
8.700000000000000788e-02 1.747640000000000027e-01 4.027344999999999686e+01 1.456920000000000073e+02 2.193784999999999854e+03
8.800000000000000877e-02 1.748844999999999983e-01 4.110875000000000057e+01 1.490585000000000093e+02 2.194855000000000018e+03
8.899999999999999578e-02 1.749985000000000013e-01 4.184685000000000343e+01 1.521744999999999948e+02 2.195869999999999891e+03
8.999999999999999667e-02 1.751044999999999963e-01 4.246750000000000114e+01 1.549825000000000159e+02 2.196815000000000055e+03
9.099999999999999756e-02 1.751995000000000080e-01 4.295315000000000083e+01 1.574339999999999975e+02 2.197675000000000182e+03
9.199999999999999845e-02 1.752839999999999954e-01 4.328954999999999842e+01 1.594915000000000020e+02 2.198434999999999945e+03
9.299999999999999933e-02 1.753554999999999975e-01 4.346694999999999709e+01 1.611320000000000050e+02 2.199085000000000036e+03
9.400000000000000022e-02 1.754140000000000144e-01 4.348055000000000092e+01 1.623469999999999800e+02 2.199614999999999782e+03
9.500000000000000111e-02 1.754585000000000172e-01 4.333074999999999477e+01 1.631394999999999982e+02 2.200025000000000091e+03
9.600000000000000200e-02 1.754894999999999927e-01 4.302334999999999354e+01 1.635300000000000011e+02 2.200315000000000055e+03
9.700000000000000289e-02 1.755074999999999830e-01 4.256905000000000427e+01 1.635490000000000066e+02 2.200494999999999891e+03
9.800000000000000377e-02 1.755140000000000033e-01 4.198319999999999652e+01 1.632390000000000043e+02 2.200559999999999945e+03
9.900000000000000466e-02 1.755094999999999850e-01 4.128450000000000131e+01 1.626494999999999891e+02 2.200529999999999745e+03
1.000000000000000056e-01 1.754959999999999853e-01 4.049450000000000216e+01 1.618355000000000246e+02 2.200425000000000182e+03
1.010000000000000064e-01 1.754745000000000055e-01 3.963609999999999900e+01 1.608564999999999827e+02 2.200244999999999891e+03
1.020000000000000073e-01 1.754479999999999928e-01 3.873275000000000290e+01 1.597685000000000173e+02 2.200010000000000218e+03
1.030000000000000082e-01 1.754169999999999896e-01 3.780715000000000003e+01 1.586260000000000048e+02 2.199744999999999891e+03
1.040000000000000091e-01 1.753839999999999844e-01 3.688029999999999831e+01 1.574775000000000205e+02 2.199449999999999818e+03
1.050000000000000100e-01 1.753500000000000059e-01 3.597074999999999534e+01 1.563640000000000043e+02 2.199149999999999636e+03
1.059999999999999970e-01 1.753159999999999996e-01 3.509385000000000332e+01 1.553180000000000121e+02 2.198849999999999909e+03
1.069999999999999979e-01 1.752839999999999954e-01 3.426109999999999900e+01 1.543619999999999948e+02 2.198559999999999945e+03
1.079999999999999988e-01 1.752539999999999931e-01 3.348024999999999807e+01 1.535079999999999814e+02 2.198289999999999964e+03
1.089999999999999997e-01 1.752265000000000073e-01 3.275460000000000349e+01 1.527584999999999980e+02 2.198045000000000073e+03
1.100000000000000006e-01 1.752015000000000100e-01 3.208339999999999748e+01 1.521049999999999898e+02 2.197824999999999818e+03
1.110000000000000014e-01 1.751794999999999880e-01 3.146219999999999928e+01 1.515310000000000059e+02 2.197619999999999891e+03
1.120000000000000023e-01 1.751594999999999958e-01 3.088295000000000101e+01 1.510134999999999934e+02 2.197434999999999945e+03
1.130000000000000032e-01 1.751404999999999768e-01 3.033504999999999896e+01 1.505199999999999818e+02 2.197265000000000327e+03
1.140000000000000041e-01 1.751219999999999999e-01 2.980574999999999974e+01 1.500180000000000007e+02 2.197095000000000255e+03
1.150000000000000050e-01 1.751030000000000086e-01 2.928109999999999857e+01 1.494705000000000155e+02 2.196925000000000182e+03
1.160000000000000059e-01 1.750829999999999886e-01 2.874705000000000155e+01 1.488419999999999845e+02 2.196744999999999891e+03
1.170000000000000068e-01 1.750599999999999934e-01 2.819010000000000105e+01 1.481005000000000109e+02 2.196539999999999964e+03
1.180000000000000077e-01 1.750335000000000085e-01 2.759844999999999970e+01 1.472185000000000059e+02 2.196300000000000182e+03
1.190000000000000085e-01 1.750025000000000053e-01 2.696244999999999692e+01 1.461750000000000114e+02 2.196019999999999982e+03
1.200000000000000094e-01 1.749660000000000104e-01 2.627544999999999931e+01 1.449574999999999818e+02 2.195704999999999927e+03
1.209999999999999964e-01 1.749244999999999828e-01 2.553430000000000177e+01 1.435629999999999882e+02 2.195335000000000036e+03
1.219999999999999973e-01 1.748774999999999913e-01 2.473955000000000126e+01 1.419989999999999952e+02 2.194925000000000182e+03
1.229999999999999982e-01 1.748250000000000082e-01 2.389545000000000030e+01 1.402814999999999941e+02 2.194465000000000146e+03
1.239999999999999991e-01 1.747684999999999933e-01 2.300970000000000226e+01 1.384354999999999905e+02 2.193965000000000146e+03
1.250000000000000000e-01 1.747075000000000156e-01 2.209329999999999927e+01 1.364944999999999879e+02 2.193430000000000291e+03
1.260000000000000009e-01 1.746439999999999937e-01 2.115960000000000107e+01 1.344965000000000259e+02 2.192869999999999891e+03
1.270000000000000018e-01 1.745780000000000109e-01 2.022400000000000020e+01 1.324839999999999804e+02 2.192289999999999964e+03
1.280000000000000027e-01 1.745120000000000005e-01 1.930259999999999820e+01 1.305010000000000048e+02 2.191704999999999927e+03
1.290000000000000036e-01 1.744470000000000187e-01 1.841185000000000116e+01 1.285894999999999868e+02 2.191125000000000000e+03
1.300000000000000044e-01 1.743844999999999978e-01 1.756719999999999970e+01 1.267900000000000063e+02 2.190569999999999709e+03
1.310000000000000053e-01 1.743250000000000077e-01 1.678284999999999982e+01 1.251370000000000005e+02 2.190039999999999964e+03
1.320000000000000062e-01 1.742694999999999939e-01 1.607049999999999912e+01 1.236585000000000036e+02 2.189550000000000182e+03
1.330000000000000071e-01 1.742199999999999860e-01 1.543949999999999889e+01 1.223750000000000000e+02 2.189105000000000018e+03
1.340000000000000080e-01 1.741765000000000119e-01 1.489600000000000080e+01 1.212994999999999948e+02 2.188710000000000036e+03
1.350000000000000089e-01 1.741395000000000026e-01 1.444304999999999950e+01 1.204360000000000070e+02 2.188375000000000000e+03
1.360000000000000098e-01 1.741084999999999994e-01 1.408054999999999879e+01 1.197810000000000059e+02 2.188100000000000364e+03
1.370000000000000107e-01 1.740845000000000031e-01 1.380574999999999974e+01 1.193234999999999957e+02 2.187880000000000109e+03
1.380000000000000115e-01 1.740669999999999995e-01 1.361294999999999966e+01 1.190469999999999970e+02 2.187715000000000146e+03
1.390000000000000124e-01 1.740545000000000009e-01 1.349459999999999837e+01 1.189300000000000068e+02 2.187605000000000018e+03
1.400000000000000133e-01 1.740479999999999805e-01 1.344130000000000003e+01 1.189484999999999957e+02 2.187534999999999854e+03
1.410000000000000142e-01 1.740450000000000053e-01 1.344249999999999901e+01 1.190755000000000052e+02 2.187505000000000109e+03
1.420000000000000151e-01 1.740464999999999929e-01 1.348704999999999998e+01 1.192829999999999870e+02 2.187510000000000218e+03
1.430000000000000160e-01 1.740504999999999969e-01 1.356349999999999945e+01 1.195455000000000041e+02 2.187539999999999964e+03
1.440000000000000169e-01 1.740559999999999885e-01 1.366089999999999982e+01 1.198375000000000057e+02 2.187590000000000146e+03
1.450000000000000178e-01 1.740634999999999821e-01 1.376869999999999905e+01 1.201355000000000075e+02 2.187650000000000091e+03
1.459999999999999909e-01 1.740714999999999901e-01 1.387744999999999962e+01 1.204199999999999875e+02 2.187710000000000036e+03
1.469999999999999918e-01 1.740790000000000115e-01 1.397905000000000086e+01 1.206740000000000066e+02 2.187779999999999745e+03
1.479999999999999927e-01 1.740855000000000041e-01 1.406695000000000029e+01 1.208859999999999957e+02 2.187840000000000146e+03
1.489999999999999936e-01 1.740915000000000101e-01 1.413599999999999923e+01 1.210469999999999970e+02 2.187890000000000327e+03
1.499999999999999944e-01 1.740960000000000008e-01 1.418290000000000006e+01 1.211520000000000010e+02 2.187929999999999836e+03
1.509999999999999953e-01 1.740990000000000038e-01 1.420609999999999928e+01 1.212015000000000100e+02 2.187960000000000036e+03
1.519999999999999962e-01 1.741004999999999914e-01 1.420554999999999879e+01 1.211974999999999909e+02 2.187975000000000364e+03
1.529999999999999971e-01 1.741004999999999914e-01 1.418274999999999864e+01 1.211470000000000056e+02 2.187975000000000364e+03
1.539999999999999980e-01 1.740990000000000038e-01 1.414034999999999975e+01 1.210579999999999927e+02 2.187965000000000146e+03
1.549999999999999989e-01 1.740970000000000018e-01 1.408210000000000051e+01 1.209414999999999907e+02 2.187945000000000164e+03
1.559999999999999998e-01 1.740935000000000121e-01 1.401245000000000118e+01 1.208100000000000023e+02 2.187920000000000073e+03
1.570000000000000007e-01 1.740895000000000081e-01 1.393599999999999994e+01 1.206750000000000114e+02 2.187890000000000327e+03
1.580000000000000016e-01 1.740855000000000041e-01 1.385749999999999993e+01 1.205480000000000018e+02 2.187855000000000018e+03
1.590000000000000024e-01 1.740820000000000145e-01 1.378154999999999930e+01 1.204389999999999930e+02 2.187824999999999818e+03
