# t [s], A [cm^2], U [cm/s], P [cPa], c [cm/s]
1.000000000000000021e-03 7.287150000000000016e-01 4.726149999999998408e-03 9.209624999999999773e+01 1.619680000000000064e+03
2.000000000000000042e-03 7.287025000000000308e-01 -3.825654999999999854e-03 9.207110000000000127e+01 1.619680000000000064e+03
3.000000000000000062e-03 7.287464999999999637e-01 6.253865000000000118e-02 9.214050000000000296e+01 1.619694999999999936e+03
4.000000000000000083e-03 7.288059999999999539e-01 1.583645999999999943e-01 9.226149999999999807e+01 1.619720000000000027e+03
5.000000000000000104e-03 7.288014999999999910e-01 1.689304999999999835e-01 9.226494999999999891e+01 1.619724999999999909e+03
6.000000000000000125e-03 7.287405000000000133e-01 9.452499999999999791e-02 9.211374999999999602e+01 1.619695000000000164e+03
7.000000000000000146e-03 7.286859999999999449e-01 2.325749999999998652e-02 9.190860000000000696e+01 1.619650000000000091e+03
8.000000000000000167e-03 7.286245000000000083e-01 -6.609999999999999210e-02 9.164424999999999955e+01 1.619594999999999800e+03
9.000000000000001055e-03 7.285150000000000237e-01 -2.414245000000000418e-01 9.123570000000000846e+01 1.619510000000000218e+03
1.000000000000000194e-02 7.283469999999999667e-01 -5.214749999999999108e-01 9.063434999999999775e+01 1.619384999999999991e+03
1.099999999999999936e-02 7.281090000000000062e-01 -9.200349999999999362e-01 8.979330000000000211e+01 1.619214999999999918e+03
1.200000000000000025e-02 7.277834999999999166e-01 -1.454555000000000042e+00 8.865585000000000093e+01 1.618974999999999909e+03
1.300000000000000114e-02 7.273799999999999155e-01 -2.097055000000000113e+00 8.721920000000000073e+01 1.618664999999999964e+03
1.400000000000000203e-02 7.269449999999999523e-01 -2.754485000000000294e+00 8.557554999999999268e+01 1.618304999999999836e+03
1.499999999999999944e-02 7.265375000000000583e-01 -3.307079499999999950e+00 8.387964999999999804e+01 1.617924999999999955e+03
1.600000000000000033e-02 7.261980000000000102e-01 -3.662970999999999755e+00 8.227785000000000082e+01 1.617545000000000073e+03
1.700000000000000122e-02 7.259335000000000093e-01 -3.787891499999999745e+00 8.085429999999999495e+01 1.617190000000000055e+03
1.800000000000000211e-02 7.257229999999998959e-01 -3.702868500000000118e+00 7.961589999999999634e+01 1.616865000000000009e+03
1.900000000000000300e-02 7.255320000000000658e-01 -3.462917999999999719e+00 7.850929999999999609e+01 1.616565000000000055e+03
2.000000000000000042e-02 7.253249999999999975e-01 -3.131101000000000134e+00 7.745225000000000648e+01 1.616264999999999873e+03
2.100000000000000130e-02 7.250799999999999468e-01 -2.756924050000000292e+00 7.636724999999999852e+01 1.615965000000000146e+03
2.200000000000000219e-02 7.247915000000000330e-01 -2.364025999999999961e+00 7.520654999999999291e+01 1.615644999999999982e+03
2.299999999999999961e-02 7.244694999999999885e-01 -1.949195000000000011e+00 7.396264999999999645e+01 1.615315000000000055e+03
2.400000000000000050e-02 7.241319999999999979e-01 -1.491905000000000037e+00 7.266270000000000095e+01 1.614965000000000146e+03
2.500000000000000139e-02 7.237980000000000524e-01 -9.698050000000002502e-01 7.135015000000001351e+01 1.614615000000000009e+03
2.600000000000000228e-02 7.234774999999999956e-01 -3.736500000000000377e-01 7.006229999999999336e+01 1.614264999999999873e+03
2.700000000000000316e-02 7.231700000000000905e-01 2.835000000000000853e-01 6.881239999999999668e+01 1.613920000000000073e+03
2.800000000000000058e-02 7.228604999999999059e-01 9.650699999999998724e-01 6.758109999999999218e+01 1.613579999999999927e+03
2.900000000000000147e-02 7.225269999999999193e-01 1.616894999999999971e+00 6.631865000000000521e+01 1.613235000000000127e+03
3.000000000000000236e-02 7.221454999999999957e-01 2.178099999999999703e+00 6.495615000000000805e+01 1.612865000000000009e+03
3.099999999999999978e-02 7.216964999999999630e-01 2.593995000000000495e+00 6.342314999999999259e+01 1.612474999999999909e+03
3.200000000000000067e-02 7.211684999999999901e-01 2.827910000000000146e+00 6.166620000000000346e+01 1.612030000000000200e+03
3.300000000000000155e-02 7.205645000000000522e-01 2.868999999999999773e+00 5.966445000000000221e+01 1.611539999999999964e+03
3.400000000000000244e-02 7.199009999999999021e-01 2.733975000000000488e+00 5.743804999999999694e+01 1.611000000000000000e+03
3.500000000000000333e-02 7.192045000000000243e-01 2.462474999999999969e+00 5.504649999999999466e+01 1.610420000000000073e+03
3.600000000000000422e-02 7.185055000000000192e-01 2.107890000000000263e+00 5.257900000000000063e+01 1.609825000000000045e+03
3.700000000000000511e-02 7.178360000000000296e-01 1.726850000000000218e+00 5.013974999999999937e+01 1.609230000000000018e+03
3.799999999999999906e-02 7.172235000000000138e-01 1.370394999999999364e+00 4.783254999999999768e+01 1.608664999999999964e+03
3.899999999999999994e-02 7.166870000000000740e-01 1.078220000000000400e+00 4.574864999999999782e+01 1.608134999999999991e+03
4.000000000000000083e-02 7.162395000000000289e-01 8.769099999999996342e-01 4.395924999999999727e+01 1.607670000000000073e+03
4.100000000000000172e-02 7.158864999999999812e-01 7.811150000000002258e-01 4.251255000000000450e+01 1.607275000000000091e+03
4.200000000000000261e-02 7.156299999999999883e-01 7.968450000000000255e-01 4.143564999999999543e+01 1.606965000000000146e+03
4.300000000000000350e-02 7.154690000000000216e-01 9.254500000000001059e-01 4.073904999999999887e+01 1.606750000000000000e+03
4.400000000000000439e-02 7.154009999999999536e-01 1.167359999999999953e+00 4.042215000000000202e+01 1.606619999999999891e+03
4.499999999999999833e-02 7.154245000000000188e-01 1.524665000000000159e+00 4.047910000000000252e+01 1.606579999999999927e+03
4.599999999999999922e-02 7.155390000000000361e-01 2.002065500000000053e+00 4.090219999999999345e+01 1.606630000000000109e+03
4.700000000000000011e-02 7.157449999999999646e-01 2.606279499999999860e+00 4.168449999999999989e+01 1.606775000000000091e+03
4.800000000000000100e-02 7.160414999999999974e-01 3.344165100000000113e+00 4.281889999999999930e+01 1.607000000000000000e+03
4.900000000000000189e-02 7.164280000000000648e-01 4.220379450000000254e+00 4.429654999999999632e+01 1.607315000000000055e+03
5.000000000000000278e-02 7.169010000000000105e-01 5.235115000000000407e+00 4.610439999999999827e+01 1.607710000000000036e+03
5.100000000000000366e-02 7.174540000000000362e-01 6.382725499999999386e+00 4.822270000000000323e+01 1.608184999999999945e+03
5.200000000000000455e-02 7.180785000000000640e-01 7.651059999999999306e+00 5.062389999999999901e+01 1.608730000000000018e+03
5.300000000000000544e-02 7.187630000000000408e-01 9.022109999999999630e+00 5.327240000000000464e+01 1.609345000000000027e+03
5.399999999999999939e-02 7.194959999999999134e-01 1.047330499999999986e+01 5.612564999999999316e+01 1.610009999999999991e+03
5.500000000000000028e-02 7.202640000000000153e-01 1.197929500000000047e+01 5.913649999999999807e+01 1.610724999999999909e+03
5.600000000000000117e-02 7.210529999999999440e-01 1.351414999999999900e+01 6.225614999999999810e+01 1.611470000000000027e+03
5.700000000000000205e-02 7.218510000000000204e-01 1.505319999999999858e+01 6.543704999999999927e+01 1.612240000000000009e+03
5.800000000000000294e-02 7.226489999999999858e-01 1.657443500000000114e+01 6.863569999999999993e+01 1.613019999999999982e+03
5.900000000000000383e-02 7.234385000000000954e-01 1.805959999999999965e+01 7.181530000000000769e+01 1.613809999999999945e+03
6.000000000000000472e-02 7.242129999999999956e-01 1.949480000000000146e+01 7.494655000000000200e+01 1.614595000000000027e+03
6.099999999999999867e-02 7.249689999999999745e-01 2.087020000000000053e+01 7.800870000000000459e+01 1.615365000000000009e+03
6.199999999999999956e-02 7.257059999999999622e-01 2.217980000000000018e+01 8.098914999999999509e+01 1.616130000000000109e+03
6.300000000000000044e-02 7.264239999999999586e-01 2.342085000000000150e+01 8.388275000000000148e+01 1.616869999999999891e+03
6.400000000000000133e-02 7.271229999999999638e-01 2.459294999999999831e+01 8.669044999999999845e+01 1.617594999999999800e+03
6.500000000000000222e-02 7.278059999999999530e-01 2.569754999999999967e+01 8.941764999999999475e+01 1.618309999999999945e+03
6.600000000000000311e-02 7.284749999999999837e-01 2.673695000000000022e+01 9.207259999999999422e+01 1.619000000000000000e+03
6.700000000000000400e-02 7.291320000000000023e-01 2.771399999999999864e+01 9.466490000000000293e+01 1.619679999999999836e+03
6.800000000000000488e-02 7.297799999999999843e-01 2.863125000000000142e+01 9.720439999999999259e+01 1.620345000000000027e+03
6.900000000000000577e-02 7.304200000000000692e-01 2.949074999999999847e+01 9.969849999999999568e+01 1.621000000000000000e+03
7.000000000000000666e-02 7.310514999999999652e-01 3.029344999999999999e+01 1.021524000000000001e+02 1.621644999999999982e+03
7.100000000000000755e-02 7.316755000000000342e-01 3.103940000000000055e+01 1.045684499999999986e+02 1.622279999999999973e+03
7.200000000000000844e-02 7.322904999999999553e-01 3.172729999999999961e+01 1.069445000000000050e+02 1.622904999999999973e+03
7.300000000000000933e-02 7.328945000000000043e-01 3.235484999999999900e+01 1.092759999999999962e+02 1.623514999999999873e+03
7.399999999999999634e-02 7.334840000000000249e-01 3.291890000000000072e+01 1.115540000000000020e+02 1.624125000000000000e+03
7.499999999999999722e-02 7.340565000000000007e-01 3.341589999999999350e+01 1.137674999999999983e+02 1.624710000000000036e+03
7.599999999999999811e-02 7.346090000000000675e-01 3.384199999999999875e+01 1.159039999999999964e+02 1.625275000000000091e+03
7.699999999999999900e-02 7.351365000000000816e-01 3.419379999999999598e+01 1.179489999999999981e+02 1.625825000000000045e+03
7.799999999999999989e-02 7.356374999999999442e-01 3.446819999999999595e+01 1.198910000000000053e+02 1.626349999999999909e+03
7.900000000000000078e-02 7.361070000000000668e-01 3.466299999999999670e+01 1.217160000000000082e+02 1.626839999999999918e+03
8.000000000000000167e-02 7.365439999999999765e-01 3.477689999999999770e+01 1.234140000000000015e+02 1.627304999999999836e+03
8.100000000000000255e-02 7.369464999999999488e-01 3.480939999999999657e+01 1.249759999999999991e+02 1.627744999999999891e+03
8.200000000000000344e-02 7.373129999999999962e-01 3.476094999999999402e+01 1.263950000000000102e+02 1.628139999999999873e+03
8.300000000000000433e-02 7.376420000000000199e-01 3.463300000000000267e+01 1.276670000000000016e+02 1.628500000000000000e+03
8.400000000000000522e-02 7.379335000000000200e-01 3.442759999999999820e+01 1.287889999999999873e+02 1.628824999999999818e+03
8.500000000000000611e-02 7.381880000000000663e-01 3.414775000000000205e+01 1.297615000000000123e+02 1.629105000000000018e+03
8.600000000000000699e-02 7.384049999999999780e-01 3.379719999999999658e+01 1.305865000000000009e+02 1.629355000000000018e+03
8.700000000000000788e-02 7.385865000000000347e-01 3.338045000000000329e+01 1.312685000000000173e+02 1.629565000000000055e+03
8.800000000000000877e-02 7.387345000000000717e-01 3.290294999999999703e+01 1.318125000000000000e+02 1.629740000000000009e+03
8.899999999999999578e-02 7.388500000000000068e-01 3.237080000000000268e+01 1.322274999999999920e+02 1.629880000000000109e+03
8.999999999999999667e-02 7.389360000000000372e-01 3.179100000000000037e+01 1.325219999999999914e+02 1.629985000000000127e+03
9.099999999999999756e-02 7.389949999999999575e-01 3.117110000000000269e+01 1.327090000000000032e+02 1.630069999999999936e+03
9.199999999999999845e-02 7.390315000000000634e-01 3.051930000000000121e+01 1.328000000000000114e+02 1.630115000000000009e+03
9.299999999999999933e-02 7.390479999999999272e-01 2.984394999999999953e+01 1.328084999999999809e+02 1.630150000000000091e+03
9.400000000000000022e-02 7.390479999999999272e-01 2.915354999999999919e+01 1.327485000000000070e+02 1.630160000000000082e+03
9.500000000000000111e-02 7.390349999999999975e-01 2.845605000000000118e+01 1.326349999999999909e+02 1.630150000000000091e+03
9.600000000000000200e-02 7.390130000000000310e-01 2.775914999999999822e+01 1.324800000000000182e+02 1.630125000000000000e+03
9.700000000000000289e-02 7.389840000000000853e-01 2.706935000000000002e+01 1.322965000000000089e+02 1.630094999999999800e+03
9.800000000000000377e-02 7.389504999999999546e-01 2.639209999999999923e+01 1.320949999999999989e+02 1.630049999999999955e+03
9.900000000000000466e-02 7.389145000000000296e-01 2.573165000000000191e+01 1.318840000000000146e+02 1.630005000000000109e+03
1.000000000000000056e-01 7.388775000000000759e-01 2.509069999999999823e+01 1.316694999999999993e+02 1.629954999999999927e+03
1.010000000000000064e-01 7.388390000000000235e-01 2.447050000000000125e+01 1.314549999999999841e+02 1.629905000000000200e+03
1.020000000000000073e-01 7.388000000000000123e-01 2.387115000000000009e+01 1.312429999999999950e+02 1.629849999999999909e+03
1.030000000000000082e-01 7.387595000000000134e-01 2.329124999999999801e+01 1.310324999999999989e+02 1.629800000000000182e+03
1.040000000000000091e-01 7.387160000000000393e-01 2.272874999999999801e+01 1.308195000000000050e+02 1.629744999999999891e+03
1.050000000000000100e-01 7.386694999999999789e-01 2.218050000000000210e+01 1.306005000000000109e+02 1.629690000000000055e+03
1.059999999999999970e-01 7.386174999999999269e-01 2.164280000000000115e+01 1.303704999999999927e+02 1.629630000000000109e+03
1.069999999999999979e-01 7.385595000000000354e-01 2.111180000000000234e+01 1.301225000000000023e+02 1.629565000000000055e+03
1.079999999999999988e-01 7.384924999999999962e-01 2.058334999999999937e+01 1.298509999999999991e+02 1.629494999999999891e+03
1.089999999999999997e-01 7.384169999999999900e-01 2.005349999999999966e+01 1.295494999999999948e+02 1.629420000000000073e+03
1.100000000000000006e-01 7.383295000000000829e-01 1.951859999999999928e+01 1.292125000000000057e+02 1.629335000000000036e+03
1.110000000000000014e-01 7.382309999999999706e-01 1.897540000000000049e+01 1.288349999999999795e+02 1.629234999999999900e+03
1.120000000000000023e-01 7.381195000000000395e-01 1.842139999999999844e+01 1.284145000000000039e+02 1.629134999999999991e+03
1.130000000000000032e-01 7.379959999999999853e-01 1.785484999999999900e+01 1.279484999999999957e+02 1.629019999999999982e+03
1.140000000000000041e-01 7.378599999999999604e-01 1.727469999999999928e+01 1.274364999999999952e+02 1.628894999999999982e+03
1.150000000000000050e-01 7.377124999999999932e-01 1.668110000000000070e+01 1.268799999999999955e+02 1.628755000000000109e+03
1.160000000000000059e-01 7.375540000000000429e-01 1.607499999999999929e+01 1.262824999999999989e+02 1.628610000000000127e+03
1.170000000000000068e-01 7.373870000000000147e-01 1.545830000000000126e+01 1.256484999999999985e+02 1.628449999999999818e+03
1.180000000000000077e-01 7.372125000000000483e-01 1.483389999999999986e+01 1.249850000000000136e+02 1.628289999999999964e+03
1.190000000000000085e-01 7.370339999999999669e-01 1.420548499999999947e+01 1.242999999999999972e+02 1.628119999999999891e+03
1.200000000000000094e-01 7.368529999999999802e-01 1.357732999999999990e+01 1.236024999999999920e+02 1.627949999999999818e+03
1.209999999999999964e-01 7.366725000000000634e-01 1.295443500000000014e+01 1.229025000000000034e+02 1.627769999999999982e+03
1.219999999999999973e-01 7.364954999999999696e-01 1.234194500000000083e+01 1.222104999999999961e+02 1.627595000000000027e+03
1.229999999999999982e-01 7.363245000000000484e-01 1.174529500000000048e+01 1.215370000000000061e+02 1.627424999999999955e+03
1.239999999999999991e-01 7.361629999999999008e-01 1.116971500000000006e+01 1.208930000000000007e+02 1.627259999999999991e+03
1.250000000000000000e-01 7.360119999999999996e-01 1.062021999999999977e+01 1.202884999999999991e+02 1.627095000000000027e+03
1.260000000000000009e-01 7.358750000000000568e-01 1.010131499999999960e+01 1.197305000000000064e+02 1.626950000000000045e+03
1.270000000000000018e-01 7.357519999999999616e-01 9.616835000000000022e+00 1.192284999999999968e+02 1.626820000000000164e+03
1.280000000000000027e-01 7.356460000000000221e-01 9.169840000000000657e+00 1.187870000000000061e+02 1.626700000000000045e+03
1.290000000000000036e-01 7.355570000000000164e-01 8.762405000000001110e+00 1.184110000000000014e+02 1.626590000000000146e+03
1.300000000000000044e-01 7.354844999999999855e-01 8.395659999999999457e+00 1.181004999999999967e+02 1.626500000000000000e+03
1.310000000000000053e-01 7.354294999999999582e-01 8.069800000000000750e+00 1.178569999999999993e+02 1.626425000000000182e+03
1.320000000000000062e-01 7.353899999999999881e-01 7.783949999999999925e+00 1.176779999999999973e+02 1.626365000000000009e+03
1.330000000000000071e-01 7.353659999999999641e-01 7.536474999999999369e+00 1.175600000000000023e+02 1.626324999999999818e+03
1.340000000000000080e-01 7.353549999999999809e-01 7.324920000000000542e+00 1.174975000000000023e+02 1.626289999999999964e+03
1.350000000000000089e-01 7.353560000000000096e-01 7.146214999999999762e+00 1.174844999999999970e+02 1.626280000000000200e+03
1.360000000000000098e-01 7.353665000000000340e-01 6.996859999999999857e+00 1.175130000000000052e+02 1.626275000000000091e+03
1.370000000000000107e-01 7.353844999999999965e-01 6.873050000000000104e+00 1.175759999999999934e+02 1.626279999999999973e+03
1.380000000000000115e-01 7.354084999999999095e-01 6.770855000000000068e+00 1.176655000000000086e+02 1.626289999999999964e+03
1.390000000000000124e-01 7.354359999999999786e-01 6.686389999999999390e+00 1.177729999999999961e+02 1.626305000000000064e+03
1.400000000000000133e-01 7.354655000000001053e-01 6.615899999999999892e+00 1.178919999999999959e+02 1.626329999999999927e+03
1.410000000000000142e-01 7.354960000000000386e-01 6.555894999999999584e+00 1.180155000000000030e+02 1.626355000000000018e+03
1.420000000000000151e-01 7.355245000000000255e-01 6.503209999999999269e+00 1.181384999999999934e+02 1.626384999999999991e+03
1.430000000000000160e-01 7.355519999999999836e-01 6.455090000000000217e+00 1.182549999999999955e+02 1.626409999999999854e+03
1.440000000000000169e-01 7.355769999999999254e-01 6.409159999999999968e+00 1.183619999999999948e+02 1.626430000000000064e+03
1.450000000000000178e-01 7.355985000000000440e-01 6.363514999999999588e+00 1.184569999999999936e+02 1.626454999999999927e+03
1.459999999999999909e-01 7.356165000000000065e-01 6.316644999999999399e+00 1.185374999999999943e+02 1.626474999999999909e+03
1.469999999999999918e-01 7.356304999999999650e-01 6.267479999999999940e+00 1.186034999999999968e+02 1.626490000000000009e+03
1.479999999999999927e-01 7.356409999999999894e-01 6.215294999999999348e+00 1.186535000000000082e+02 1.626505000000000109e+03
1.489999999999999936e-01 7.356480000000000796e-01 6.159755000000000535e+00 1.186899999999999977e+02 1.626509999999999991e+03
1.499999999999999944e-01 7.356525000000000425e-01 6.100799999999999557e+00 1.187119999999999891e+02 1.626519999999999982e+03
1.509999999999999953e-01 7.356534999999999602e-01 6.038635000000000197e+00 1.187224999999999966e+02 1.626525000000000091e+03
1.519999999999999962e-01 7.356530000000000014e-01 5.973684999999999690e+00 1.187235000000000014e+02 1.626525000000000091e+03
1.529999999999999971e-01 7.356504999999999850e-01 5.906505000000000116e+00 1.187155000000000058e+02 1.626525000000000091e+03
1.539999999999999980e-01 7.356470000000000509e-01 5.837754999999999583e+00 1.187014999999999958e+02 1.626525000000000091e+03
1.549999999999999989e-01 7.356424999999999770e-01 5.768124999999999503e+00 1.186829999999999927e+02 1.626519999999999982e+03
1.559999999999999998e-01 7.356380000000000141e-01 5.698280000000000456e+00 1.186614999999999895e+02 1.626514999999999873e+03
1.570000000000000007e-01 7.356329999999999814e-01 5.628814999999999458e+00 1.186390000000000100e+02 1.626514999999999873e+03
1.580000000000000016e-01 7.356285000000000185e-01 5.560214999999999463e+00 1.186154999999999973e+02 1.626509999999999991e+03
1.590000000000000024e-01 7.356240000000000556e-01 5.492815000000000225e+00 1.185925000000000011e+02 1.626500000000000000e+03
