# t [s], A [cm^2], U [cm/s], P [cPa], c [cm/s]
1.000000000000000021e-03 5.446855000000000446e-01 2.217100000000006566e-03 9.234565000000000623e+01 1.403964999999999918e+03
2.000000000000000042e-03 5.446790000000000243e-01 4.219399999999999887e-04 9.233369999999999322e+01 1.403964999999999918e+03
3.000000000000000062e-03 5.447025000000000894e-01 4.044174999999999853e-02 9.236655000000000371e+01 1.403970000000000027e+03
4.000000000000000083e-03 5.447480000000000100e-01 1.173424500000000148e-01 9.245340000000000202e+01 1.404000000000000000e+03
5.000000000000000104e-03 5.447644999999999849e-01 1.469040500000000082e-01 9.249420000000000641e+01 1.404015000000000100e+03
6.000000000000000125e-03 5.447440000000000060e-01 1.133295999999999887e-01 9.244489999999998986e+01 1.404005000000000109e+03
7.000000000000000146e-03 5.447110000000000563e-01 5.619450000000000833e-02 9.233115000000000805e+01 1.403980000000000018e+03
8.000000000000000167e-03 5.446794999999999831e-01 -1.770999999999967045e-03 9.217930000000001201e+01 1.403945000000000164e+03
9.000000000000001055e-03 5.446324999999999639e-01 -9.119349999999998291e-02 9.196205000000000496e+01 1.403894999999999982e+03
1.000000000000000194e-02 5.445524999999999949e-01 -2.443220000000000391e-01 9.163630000000000564e+01 1.403815000000000055e+03
1.099999999999999936e-02 5.444335000000000147e-01 -4.717350000000000154e-01 9.117210000000000036e+01 1.403699999999999818e+03
1.200000000000000025e-02 5.442690000000000028e-01 -7.806150000000000588e-01 9.054179999999999495e+01 1.403539999999999964e+03
1.300000000000000114e-02 5.440504999999999924e-01 -1.176994999999999791e+00 8.971739999999999782e+01 1.403324999999999818e+03
1.400000000000000203e-02 5.437794999999999712e-01 -1.647735000000000172e+00 8.869124999999999659e+01 1.403055000000000064e+03
1.499999999999999944e-02 5.434719999999999551e-01 -2.149700000000000166e+00 8.749334999999999241e+01 1.402730000000000018e+03
1.600000000000000033e-02 5.431550000000000544e-01 -2.619064999999999976e+00 8.618909999999999627e+01 1.402369999999999891e+03
1.700000000000000122e-02 5.428530000000000300e-01 -2.992264999999999731e+00 8.485840000000000316e+01 1.401980000000000018e+03
1.800000000000000211e-02 5.425834999999999964e-01 -3.224428999999999768e+00 8.357195000000000107e+01 1.401595000000000027e+03
1.900000000000000300e-02 5.423495000000000399e-01 -3.297700499999999924e+00 8.237515000000000498e+01 1.401220000000000027e+03
2.000000000000000042e-02 5.421445000000000292e-01 -3.219735999999999709e+00 8.128239999999999554e+01 1.400860000000000127e+03
2.100000000000000130e-02 5.419559999999999933e-01 -3.016072500000000378e+00 8.028100000000000591e+01 1.400514999999999873e+03
2.200000000000000219e-02 5.417695000000000149e-01 -2.720187999999999828e+00 7.934064999999999657e+01 1.400179999999999836e+03
2.299999999999999961e-02 5.415725000000000122e-01 -2.364216499999999943e+00 7.842464999999999975e+01 1.399849999999999909e+03
2.400000000000000050e-02 5.413570000000000881e-01 -1.972059999999999924e+00 7.750034999999999741e+01 1.399514999999999873e+03
2.500000000000000139e-02 5.411215000000000330e-01 -1.556160000000000210e+00 7.654685000000000628e+01 1.399175000000000182e+03
2.600000000000000228e-02 5.408695000000000030e-01 -1.118310000000000137e+00 7.555729999999999791e+01 1.398825000000000045e+03
2.700000000000000316e-02 5.406070000000000597e-01 -6.537149999999998240e-01 7.453725000000000023e+01 1.398460000000000036e+03
2.800000000000000058e-02 5.403394999999999726e-01 -1.567250000000002252e-01 7.349854999999999450e+01 1.398099999999999909e+03
2.900000000000000147e-02 5.400705000000000089e-01 3.737800000000000011e-01 7.245304999999999040e+01 1.397730000000000018e+03
3.000000000000000236e-02 5.398020000000000040e-01 9.308199999999999807e-01 7.140629999999998745e+01 1.397359999999999900e+03
3.099999999999999978e-02 5.395285000000000775e-01 1.498290000000000122e+00 7.035405000000000086e+01 1.396984999999999900e+03
3.200000000000000067e-02 5.392440000000000566e-01 2.052450000000000330e+00 6.928180000000000405e+01 1.396610000000000127e+03
3.300000000000000155e-02 5.389395000000000158e-01 2.565179999999999794e+00 6.816685000000001082e+01 1.396215000000000146e+03
3.400000000000000244e-02 5.386075000000000168e-01 3.008404999999999774e+00 6.698295000000000243e+01 1.395809999999999945e+03
3.500000000000000333e-02 5.382415000000000393e-01 3.358510000000000328e+00 6.570565000000000566e+01 1.395380000000000109e+03
3.600000000000000422e-02 5.378389999999999560e-01 3.600120000000000431e+00 6.431780000000000541e+01 1.394925000000000182e+03
3.700000000000000511e-02 5.374014999999999764e-01 3.728480000000000238e+00 6.281414999999999793e+01 1.394434999999999945e+03
3.799999999999999906e-02 5.369349999999999401e-01 3.750074999999999825e+00 6.120404999999999518e+01 1.393920000000000073e+03
3.899999999999999994e-02 5.364499999999999824e-01 3.681329999999999991e+00 5.951125000000000398e+01 1.393380000000000109e+03
4.000000000000000083e-02 5.359594999999999221e-01 3.546284999999999688e+00 5.777254999999999541e+01 1.392835000000000036e+03
4.100000000000000172e-02 5.354765000000000219e-01 3.372874999999999623e+00 5.603355000000000530e+01 1.392279999999999973e+03
4.200000000000000261e-02 5.350159999999999361e-01 3.190010000000000456e+00 5.434435000000000571e+01 1.391735000000000127e+03
4.300000000000000350e-02 5.345895000000000508e-01 3.024380000000000290e+00 5.275520000000000209e+01 1.391224999999999909e+03
4.400000000000000439e-02 5.342080000000000162e-01 2.898845000000000560e+00 5.131230000000000047e+01 1.390740000000000009e+03
4.499999999999999833e-02 5.338795000000000623e-01 2.831535000000000135e+00 5.005539999999999878e+01 1.390315000000000055e+03
4.599999999999999922e-02 5.336104999999999876e-01 2.835774999999999935e+00 4.901635000000000275e+01 1.389945000000000164e+03
4.700000000000000011e-02 5.334039999999999893e-01 2.920879999999999921e+00 4.821840000000000259e+01 1.389644999999999982e+03
4.800000000000000100e-02 5.332635000000000014e-01 3.093132999999999910e+00 4.767725000000000080e+01 1.389414999999999964e+03
4.900000000000000189e-02 5.331894999999999829e-01 3.356895000000000184e+00 4.740214999999999890e+01 1.389269999999999982e+03
5.000000000000000278e-02 5.331829999999999625e-01 3.715524999999999523e+00 4.739705000000000013e+01 1.389204999999999927e+03
5.100000000000000366e-02 5.332434999999999814e-01 4.171884999999999621e+00 4.766205000000000069e+01 1.389220000000000027e+03
5.200000000000000455e-02 5.333714999999999984e-01 4.728534999999999933e+00 4.819450000000000500e+01 1.389325000000000045e+03
5.300000000000000544e-02 5.335650000000000670e-01 5.387449999999999406e+00 4.898945000000000505e+01 1.389509999999999991e+03
5.399999999999999939e-02 5.338230000000000475e-01 6.149560000000000137e+00 5.003969999999999629e+01 1.389775000000000091e+03
5.500000000000000028e-02 5.341439999999999522e-01 7.014155000000000584e+00 5.133575000000000443e+01 1.390119999999999891e+03
5.600000000000000117e-02 5.345245000000000690e-01 7.978249999999999176e+00 5.286535000000000650e+01 1.390539999999999964e+03
5.700000000000000205e-02 5.349599999999999911e-01 9.036289999999999267e+00 5.461329999999999529e+01 1.391035000000000082e+03
5.800000000000000294e-02 5.354459999999999775e-01 1.018008999999999986e+01 5.656099999999999994e+01 1.391595000000000027e+03
5.900000000000000383e-02 5.359764999999999668e-01 1.139881499999999903e+01 5.868690000000000140e+01 1.392210000000000036e+03
6.000000000000000472e-02 5.365444999999999798e-01 1.267947999999999986e+01 6.096665000000000134e+01 1.392889999999999873e+03
6.099999999999999867e-02 5.371434999999999960e-01 1.400749000000000066e+01 6.337380000000000280e+01 1.393610000000000127e+03
6.199999999999999956e-02 5.377655000000000074e-01 1.536749999999999972e+01 6.588069999999999027e+01 1.394369999999999891e+03
6.300000000000000044e-02 5.384039999999999937e-01 1.674408000000000030e+01 6.845980000000000132e+01 1.395160000000000082e+03
6.400000000000000133e-02 5.390524999999999345e-01 1.812219999999999942e+01 7.108404999999999063e+01 1.395974999999999909e+03
6.500000000000000222e-02 5.397045000000000314e-01 1.948814999999999742e+01 7.372860000000000014e+01 1.396804999999999836e+03
6.600000000000000311e-02 5.403554999999999886e-01 2.082979999999999876e+01 7.637115000000000009e+01 1.397644999999999982e+03
6.700000000000000400e-02 5.410004999999999953e-01 2.213710000000000022e+01 7.899275000000000091e+01 1.398485000000000127e+03
6.800000000000000488e-02 5.416374999999999940e-01 2.340165000000000006e+01 8.157824999999999704e+01 1.399320000000000164e+03
6.900000000000000577e-02 5.422635000000000094e-01 2.461749999999999972e+01 8.411615000000000464e+01 1.400154999999999973e+03
7.000000000000000666e-02 5.428779999999999717e-01 2.578020000000000067e+01 8.659879999999999711e+01 1.400970000000000027e+03
7.100000000000000755e-02 5.434790000000000454e-01 2.688724999999999810e+01 8.902195000000000391e+01 1.401775000000000091e+03
7.200000000000000844e-02 5.440675000000000372e-01 2.793735000000000213e+01 9.138445000000000107e+01 1.402569999999999936e+03
7.300000000000000933e-02 5.446440000000000170e-01 2.893050000000000210e+01 9.368680000000000518e+01 1.403345000000000027e+03
7.399999999999999634e-02 5.452084999999999848e-01 2.986719999999999686e+01 9.593219999999999459e+01 1.404105000000000018e+03
7.499999999999999722e-02 5.457629999999999981e-01 3.074859999999999971e+01 9.812510000000000332e+01 1.404845000000000027e+03
7.599999999999999811e-02 5.463069999999999871e-01 3.157605000000000217e+01 1.002687500000000114e+02 1.405579999999999927e+03
7.699999999999999900e-02 5.468429999999999680e-01 3.235085000000000122e+01 1.023681500000000000e+02 1.406299999999999955e+03
7.799999999999999989e-02 5.473704999999999821e-01 3.307410000000000139e+01 1.044268000000000001e+02 1.407005000000000109e+03
7.900000000000000078e-02 5.478905000000000580e-01 3.374645000000000294e+01 1.064470000000000027e+02 1.407704999999999927e+03
8.000000000000000167e-02 5.484025000000000150e-01 3.436809999999999832e+01 1.084290000000000020e+02 1.408384999999999991e+03
8.100000000000000255e-02 5.489049999999999763e-01 3.493885000000000218e+01 1.103735000000000070e+02 1.409054999999999836e+03
8.200000000000000344e-02 5.493989999999999707e-01 3.545775000000000432e+01 1.122775000000000034e+02 1.409720000000000027e+03
8.300000000000000433e-02 5.498815000000000230e-01 3.592365000000000208e+01 1.141374999999999886e+02 1.410364999999999782e+03
8.400000000000000522e-02 5.503525000000000222e-01 3.633485000000000298e+01 1.159480000000000075e+02 1.410990000000000009e+03
8.500000000000000611e-02 5.508089999999999931e-01 3.668959999999999866e+01 1.177035000000000053e+02 1.411610000000000127e+03
8.600000000000000699e-02 5.512495000000000589e-01 3.698590000000000089e+01 1.193954999999999984e+02 1.412204999999999927e+03
8.700000000000000788e-02 5.516719999999999402e-01 3.722185000000000343e+01 1.210174999999999983e+02 1.412780000000000200e+03
8.800000000000000877e-02 5.520745000000000235e-01 3.739569999999999794e+01 1.225610000000000070e+02 1.413329999999999927e+03
8.899999999999999578e-02 5.524559999999999471e-01 3.750614999999999810e+01 1.240190000000000055e+02 1.413855000000000018e+03
8.999999999999999667e-02 5.528129999999999988e-01 3.755209999999999582e+01 1.253845000000000027e+02 1.414349999999999909e+03
9.099999999999999756e-02 5.531460000000000266e-01 3.753315000000000623e+01 1.266514999999999986e+02 1.414815000000000055e+03
9.199999999999999845e-02 5.534525000000000139e-01 3.744924999999999926e+01 1.278145000000000095e+02 1.415244999999999891e+03
9.299999999999999933e-02 5.537320000000000020e-01 3.730110000000000525e+01 1.288704999999999927e+02 1.415639999999999873e+03
9.400000000000000022e-02 5.539844999999999908e-01 3.709005000000000507e+01 1.298154999999999859e+02 1.416000000000000000e+03
9.500000000000000111e-02 5.542095000000000216e-01 3.681775000000000375e+01 1.306500000000000057e+02 1.416329999999999927e+03
9.600000000000000200e-02 5.544059999999999544e-01 3.648690000000000566e+01 1.313739999999999952e+02 1.416619999999999891e+03
9.700000000000000289e-02 5.545765000000000278e-01 3.610035000000000593e+01 1.319884999999999877e+02 1.416869999999999891e+03
9.800000000000000377e-02 5.547199999999999909e-01 3.566190000000000282e+01 1.324975000000000023e+02 1.417089999999999918e+03
9.900000000000000466e-02 5.548385000000000122e-01 3.517544999999999789e+01 1.329039999999999964e+02 1.417269999999999982e+03
1.000000000000000056e-01 5.549330000000000096e-01 3.464560000000000173e+01 1.332144999999999868e+02 1.417425000000000182e+03
1.010000000000000064e-01 5.550055000000000405e-01 3.407739999999999725e+01 1.334339999999999975e+02 1.417545000000000073e+03
1.020000000000000073e-01 5.550570000000000226e-01 3.347599999999999909e+01 1.335709999999999980e+02 1.417630000000000109e+03
1.030000000000000082e-01 5.550899999999999723e-01 3.284685000000000343e+01 1.336330000000000098e+02 1.417694999999999936e+03
1.040000000000000091e-01 5.551059999999999883e-01 3.219570000000000221e+01 1.336279999999999859e+02 1.417730000000000018e+03
1.050000000000000100e-01 5.551074999999999759e-01 3.152805000000000035e+01 1.335645000000000095e+02 1.417744999999999891e+03
1.059999999999999970e-01 5.550964999999999927e-01 3.084935000000000116e+01 1.334509999999999934e+02 1.417735000000000127e+03
1.069999999999999979e-01 5.550754999999999439e-01 3.016490000000000293e+01 1.332965000000000089e+02 1.417715000000000146e+03
1.079999999999999988e-01 5.550455000000000805e-01 2.947955000000000325e+01 1.331094999999999970e+02 1.417679999999999836e+03
1.089999999999999997e-01 5.550085000000000157e-01 2.879789999999999850e+01 1.328965000000000032e+02 1.417630000000000109e+03
1.100000000000000006e-01 5.549664999999999182e-01 2.812365000000000137e+01 1.326655000000000086e+02 1.417575000000000045e+03
1.110000000000000014e-01 5.549209999999999976e-01 2.746005000000000251e+01 1.324215000000000089e+02 1.417505000000000109e+03
1.120000000000000023e-01 5.548724999999999907e-01 2.680955000000000155e+01 1.321705000000000041e+02 1.417430000000000064e+03
1.130000000000000032e-01 5.548224999999999962e-01 2.617389999999999972e+01 1.319149999999999920e+02 1.417355000000000018e+03
1.140000000000000041e-01 5.547710000000000141e-01 2.555400000000000205e+01 1.316585000000000036e+02 1.417280000000000200e+03
1.150000000000000050e-01 5.547180000000000444e-01 2.495009999999999906e+01 1.314030000000000200e+02 1.417195000000000164e+03
1.160000000000000059e-01 5.546640000000000459e-01 2.436180000000000234e+01 1.311469999999999914e+02 1.417110000000000127e+03
1.170000000000000068e-01 5.546079999999999899e-01 2.378784999999999883e+01 1.308919999999999959e+02 1.417035000000000082e+03
1.180000000000000077e-01 5.545510000000000161e-01 2.322675000000000267e+01 1.306349999999999909e+02 1.416944999999999936e+03
1.190000000000000085e-01 5.544915000000000260e-01 2.267640000000000100e+01 1.303745000000000118e+02 1.416860000000000127e+03
1.200000000000000094e-01 5.544284999999999908e-01 2.213450000000000273e+01 1.301074999999999875e+02 1.416769999999999982e+03
1.209999999999999964e-01 5.543620000000000214e-01 2.159850000000000136e+01 1.298310000000000173e+02 1.416675000000000182e+03
1.219999999999999973e-01 5.542909999999999782e-01 2.106580000000000297e+01 1.295414999999999850e+02 1.416575000000000045e+03
1.229999999999999982e-01 5.542150000000000132e-01 2.053379999999999939e+01 1.292359999999999900e+02 1.416474999999999909e+03
1.239999999999999991e-01 5.541325000000000278e-01 2.000019999999999953e+01 1.289120000000000061e+02 1.416369999999999891e+03
1.250000000000000000e-01 5.540439999999999809e-01 1.946265000000000001e+01 1.285660000000000025e+02 1.416255000000000109e+03
1.260000000000000009e-01 5.539479999999999960e-01 1.891935000000000144e+01 1.281964999999999861e+02 1.416130000000000109e+03
1.270000000000000018e-01 5.538450000000000317e-01 1.836870000000000047e+01 1.278015000000000043e+02 1.416005000000000109e+03
1.280000000000000027e-01 5.537360000000000060e-01 1.780969999999999942e+01 1.273815000000000026e+02 1.415865000000000009e+03
1.290000000000000036e-01 5.536189999999999722e-01 1.724174999999999969e+01 1.269344999999999999e+02 1.415724999999999909e+03
1.300000000000000044e-01 5.534955000000000291e-01 1.666465000000000174e+01 1.264624999999999915e+02 1.415569999999999936e+03
1.310000000000000053e-01 5.533664999999999834e-01 1.607874999999999943e+01 1.259669999999999987e+02 1.415414999999999964e+03
1.320000000000000062e-01 5.532314999999999872e-01 1.548489999999999966e+01 1.254495000000000005e+02 1.415244999999999891e+03
1.330000000000000071e-01 5.530919999999999170e-01 1.488449999999999918e+01 1.249145000000000039e+02 1.415075000000000045e+03
1.340000000000000080e-01 5.529494999999999827e-01 1.427923000000000187e+01 1.243640000000000043e+02 1.414900000000000091e+03
1.350000000000000089e-01 5.528044999999999209e-01 1.367139999999999844e+01 1.238029999999999973e+02 1.414714999999999918e+03
1.360000000000000098e-01 5.526585000000000525e-01 1.306351499999999888e+01 1.232365000000000066e+02 1.414535000000000082e+03
1.370000000000000107e-01 5.525124999999999620e-01 1.245844499999999933e+01 1.226694999999999993e+02 1.414345000000000027e+03
1.380000000000000115e-01 5.523685000000000400e-01 1.185926999999999865e+01 1.221064999999999969e+02 1.414159999999999854e+03
1.390000000000000124e-01 5.522274999999999823e-01 1.126914000000000016e+01 1.215550000000000068e+02 1.413980000000000018e+03
1.400000000000000133e-01 5.520914999999999573e-01 1.069132500000000086e+01 1.210184999999999889e+02 1.413800000000000182e+03
1.410000000000000142e-01 5.519610000000000349e-01 1.012912500000000016e+01 1.205035000000000025e+02 1.413630000000000109e+03
1.420000000000000151e-01 5.518379999999999397e-01 9.585570000000000590e+00 1.200140000000000100e+02 1.413465000000000146e+03
1.430000000000000160e-01 5.517235000000000333e-01 9.063570000000000348e+00 1.195554999999999950e+02 1.413304999999999836e+03
1.440000000000000169e-01 5.516174999999999828e-01 8.565705000000001235e+00 1.191320000000000050e+02 1.413159999999999854e+03
1.450000000000000178e-01 5.515219999999999567e-01 8.094195000000000917e+00 1.187460000000000093e+02 1.413019999999999982e+03
1.459999999999999909e-01 5.514364999999999961e-01 7.650780000000000136e+00 1.184010000000000105e+02 1.412900000000000091e+03
1.469999999999999918e-01 5.513620000000000188e-01 7.236810000000000187e+00 1.180974999999999966e+02 1.412784999999999854e+03
1.479999999999999927e-01 5.512985000000000246e-01 6.853035000000000210e+00 1.178375000000000057e+02 1.412684999999999945e+03
1.489999999999999936e-01 5.512464999999999726e-01 6.499740000000000961e+00 1.176204999999999927e+02 1.412599999999999909e+03
1.499999999999999944e-01 5.512040000000000273e-01 6.176700000000000301e+00 1.174449999999999932e+02 1.412529999999999973e+03
1.509999999999999953e-01 5.511719999999999953e-01 5.883195000000000618e+00 1.173094999999999999e+02 1.412470000000000027e+03
1.519999999999999962e-01 5.511490000000000000e-01 5.618064999999999642e+00 1.172119999999999891e+02 1.412425000000000182e+03
1.529999999999999971e-01 5.511340000000000128e-01 5.379770000000000607e+00 1.171479999999999961e+02 1.412384999999999991e+03
1.539999999999999980e-01 5.511270000000000335e-01 5.166439999999999699e+00 1.171150000000000091e+02 1.412355000000000018e+03
1.549999999999999989e-01 5.511254999999999349e-01 4.975954999999999906e+00 1.171080000000000041e+02 1.412339999999999918e+03
1.559999999999999998e-01 5.511300000000000088e-01 4.806024999999999991e+00 1.171235000000000070e+02 1.412329999999999927e+03
1.570000000000000007e-01 5.511380000000000168e-01 4.654259999999999842e+00 1.171560000000000059e+02 1.412329999999999927e+03
1.580000000000000016e-01 5.511490000000000000e-01 4.518240000000000478e+00 1.172015000000000100e+02 1.412335000000000036e+03
1.590000000000000024e-01 5.511620000000000408e-01 4.395569999999999311e+00 1.172549999999999955e+02 1.412344999999999800e+03
