# t [s], A [cm^2], U [cm/s], P [cPa], c [cm/s]
1.000000000000000021e-03 1.446884999999999977e-01 2.263010000000000022e-01 8.791149999999998954e+01 1.767619999999999891e+03
2.000000000000000042e-03 1.446739999999999970e-01 1.487828999999999846e+00 8.546854999999999336e+01 1.767480000000000018e+03
3.000000000000000062e-03 1.446024999999999949e-01 3.042058499999999999e+00 8.237565000000000737e+01 1.766804999999999836e+03
4.000000000000000083e-03 1.444880000000000053e-01 4.759902685000000133e+00 7.886965000000000714e+01 1.765750000000000000e+03
5.000000000000000104e-03 1.443499999999999783e-01 6.602360000000000895e+00 7.546529999999999916e+01 1.764490000000000009e+03
6.000000000000000125e-03 1.442045000000000132e-01 8.505314999999999515e+00 7.248824999999999363e+01 1.763164999999999964e+03
7.000000000000000146e-03 1.440605000000000080e-01 1.036274500000000032e+01 6.998669999999999902e+01 1.761875000000000000e+03
8.000000000000000167e-03 1.439225000000000088e-01 1.207156999999999947e+01 6.783164999999999623e+01 1.760650000000000091e+03
9.000000000000001055e-03 1.437919999999999754e-01 1.358527999999999913e+01 6.590510000000000446e+01 1.759509999999999991e+03
1.000000000000000194e-02 1.436720000000000219e-01 1.491068500000000085e+01 6.419230000000000302e+01 1.758465000000000146e+03
1.099999999999999936e-02 1.435639999999999972e-01 1.606620000000000203e+01 6.272074999999999534e+01 1.757545000000000073e+03
1.200000000000000025e-02 1.434699999999999864e-01 1.706084999999999852e+01 6.149030000000000484e+01 1.756740000000000009e+03
1.300000000000000114e-02 1.433884999999999743e-01 1.789825000000000088e+01 6.047070000000000078e+01 1.756059999999999945e+03
1.400000000000000203e-02 1.433190000000000019e-01 1.858145000000000024e+01 5.961954999999999671e+01 1.755480000000000018e+03
1.499999999999999944e-02 1.432594999999999841e-01 1.911339999999999861e+01 5.888884999999999792e+01 1.754990000000000009e+03
1.600000000000000033e-02 1.432080000000000020e-01 1.950334999999999752e+01 5.823685000000000400e+01 1.754579999999999927e+03
1.700000000000000122e-02 1.431645000000000001e-01 1.977819999999999823e+01 5.765734999999999388e+01 1.754224999999999909e+03
1.800000000000000211e-02 1.431280000000000052e-01 1.998734999999999928e+01 5.720504999999999995e+01 1.753940000000000055e+03
1.900000000000000300e-02 1.431005000000000194e-01 2.019435000000000002e+01 5.698969999999999914e+01 1.753730000000000018e+03
2.000000000000000042e-02 1.430865000000000054e-01 2.045785000000000053e+01 5.713514999999999588e+01 1.753630000000000109e+03
2.100000000000000130e-02 1.430879999999999930e-01 2.081210000000000093e+01 5.772469999999999857e+01 1.753650000000000091e+03
2.200000000000000219e-02 1.431060000000000110e-01 2.125649999999999906e+01 5.875955000000000439e+01 1.753815000000000055e+03
2.299999999999999961e-02 1.431399999999999895e-01 2.175690000000000168e+01 6.014780000000000371e+01 1.754110000000000127e+03
2.400000000000000050e-02 1.431864999999999943e-01 2.225719999999999743e+01 6.172500000000000142e+01 1.754505000000000109e+03
2.500000000000000139e-02 1.432395000000000196e-01 2.269525000000000148e+01 6.329510000000000502e+01 1.754965000000000146e+03
2.600000000000000228e-02 1.432939999999999769e-01 2.301859999999999928e+01 6.467629999999999768e+01 1.755440000000000055e+03
2.700000000000000316e-02 1.433435000000000126e-01 2.319490000000000052e+01 6.573824999999999363e+01 1.755880000000000109e+03
2.800000000000000058e-02 1.433849999999999847e-01 2.321634999999999849e+01 6.642240000000001032e+01 1.756244999999999891e+03
2.900000000000000147e-02 1.434170000000000167e-01 2.309669999999999845e+01 6.674179999999999779e+01 1.756534999999999854e+03
3.000000000000000236e-02 1.434380000000000099e-01 2.286420000000000030e+01 6.676449999999999818e+01 1.756730000000000018e+03
3.099999999999999978e-02 1.434509999999999952e-01 2.255214999999999748e+01 6.658684999999999832e+01 1.756855000000000018e+03
3.200000000000000067e-02 1.434560000000000002e-01 2.218979999999999819e+01 6.630480000000000018e+01 1.756914999999999964e+03
3.300000000000000155e-02 1.434574999999999878e-01 2.179700000000000060e+01 6.599139999999999873e+01 1.756924999999999955e+03
3.400000000000000244e-02 1.434549999999999992e-01 2.138179999999999836e+01 6.568519999999999470e+01 1.756914999999999964e+03
3.500000000000000333e-02 1.434509999999999952e-01 2.094214999999999804e+01 6.538970000000000482e+01 1.756884999999999991e+03
3.600000000000000422e-02 1.434445000000000026e-01 2.047064999999999912e+01 6.508289999999999509e+01 1.756835000000000036e+03
3.700000000000000511e-02 1.434360000000000079e-01 1.995929999999999893e+01 6.473255000000000337e+01 1.756769999999999982e+03
3.799999999999999906e-02 1.434245000000000103e-01 1.940534999999999854e+01 6.431194999999999595e+01 1.756675000000000182e+03
3.899999999999999994e-02 1.434104999999999963e-01 1.881414999999999793e+01 6.381304999999999694e+01 1.756565000000000055e+03
4.000000000000000083e-02 1.433929999999999927e-01 1.820084999999999908e+01 6.325395000000000323e+01 1.756420000000000073e+03
4.100000000000000172e-02 1.433740000000000014e-01 1.758899999999999864e+01 6.267855000000000132e+01 1.756255000000000109e+03
4.200000000000000261e-02 1.433544999999999958e-01 1.700740000000000052e+01 6.215024999999999977e+01 1.756094999999999800e+03
4.300000000000000350e-02 1.433360000000000190e-01 1.648550000000000182e+01 6.174014999999999986e+01 1.755945000000000164e+03
4.400000000000000439e-02 1.433220000000000049e-01 1.604809999999999803e+01 6.151330000000000098e+01 1.755824999999999818e+03
4.499999999999999833e-02 1.433139999999999969e-01 1.571189999999999998e+01 6.151585000000000036e+01 1.755750000000000000e+03
4.599999999999999922e-02 1.433134999999999826e-01 1.548189999999999955e+01 6.176600000000000534e+01 1.755740000000000009e+03
4.700000000000000011e-02 1.433210000000000039e-01 1.535144999999999982e+01 6.224980000000000047e+01 1.755800000000000182e+03
4.800000000000000100e-02 1.433365000000000056e-01 1.530284999999999940e+01 6.292289999999999850e+01 1.755920000000000073e+03
4.900000000000000189e-02 1.433584999999999998e-01 1.531015000000000015e+01 6.371665000000000134e+01 1.756099999999999909e+03
5.000000000000000278e-02 1.433844999999999981e-01 1.534264999999999901e+01 6.454805000000000348e+01 1.756319999999999936e+03
5.100000000000000366e-02 1.434120000000000117e-01 1.536824999999999974e+01 6.533019999999999072e+01 1.756549999999999955e+03
5.200000000000000455e-02 1.434394999999999976e-01 1.535745000000000005e+01 6.598259999999999081e+01 1.756780000000000200e+03
5.300000000000000544e-02 1.434630000000000072e-01 1.528519999999999968e+01 6.643914999999999793e+01 1.756980000000000018e+03
5.399999999999999939e-02 1.434805000000000108e-01 1.513289999999999935e+01 6.665299999999999159e+01 1.757130000000000109e+03
5.500000000000000028e-02 1.434904999999999931e-01 1.488874999999999993e+01 6.659870000000000800e+01 1.757219999999999800e+03
5.600000000000000117e-02 1.434920000000000084e-01 1.454749999999999943e+01 6.627080000000000837e+01 1.757230000000000018e+03
5.700000000000000205e-02 1.434834999999999861e-01 1.410964999999999847e+01 6.568115000000000236e+01 1.757164999999999964e+03
5.800000000000000294e-02 1.434659999999999824e-01 1.358020000000000138e+01 6.485429999999999495e+01 1.757019999999999982e+03
5.900000000000000383e-02 1.434394999999999976e-01 1.296764999999999901e+01 6.382334999999999781e+01 1.756795000000000073e+03
6.000000000000000472e-02 1.434044999999999903e-01 1.228260000000000041e+01 6.262555000000000405e+01 1.756505000000000109e+03
6.099999999999999867e-02 1.433630000000000182e-01 1.153745499999999957e+01 6.129964999999999975e+01 1.756154999999999973e+03
6.199999999999999956e-02 1.433149999999999979e-01 1.074567499999999853e+01 5.988410000000000366e+01 1.755744999999999891e+03
6.300000000000000044e-02 1.432629999999999737e-01 9.921749999999999403e+00 5.841625000000000512e+01 1.755309999999999945e+03
6.400000000000000133e-02 1.432074999999999876e-01 9.081369999999999720e+00 5.693240000000000123e+01 1.754835000000000036e+03
6.500000000000000222e-02 1.431499999999999995e-01 8.241080000000000183e+00 5.546860000000000213e+01 1.754345000000000027e+03
6.600000000000000311e-02 1.430919999999999970e-01 7.418834999999999624e+00 5.406145000000000067e+01 1.753855000000000018e+03
6.700000000000000400e-02 1.430354999999999821e-01 6.633524999999999672e+00 5.274835000000000207e+01 1.753369999999999891e+03
6.800000000000000488e-02 1.429814999999999836e-01 5.904939999999999856e+00 5.156780000000000541e+01 1.752904999999999973e+03
6.900000000000000577e-02 1.429310000000000025e-01 5.253249999999999531e+00 5.055899999999999750e+01 1.752480000000000018e+03
7.000000000000000666e-02 1.428875000000000006e-01 4.698439999999999728e+00 4.976075000000000159e+01 1.752099999999999909e+03
7.100000000000000755e-02 1.428500000000000048e-01 4.259615000000000151e+00 4.921009999999999707e+01 1.751779999999999973e+03
7.200000000000000844e-02 1.428225000000000189e-01 3.954200000000000159e+00 4.894074999999999420e+01 1.751539999999999964e+03
7.300000000000000933e-02 1.428045000000000009e-01 3.797209999999999752e+00 4.898134999999999906e+01 1.751380000000000109e+03
7.399999999999999634e-02 1.427984999999999949e-01 3.800555000000000128e+00 4.935405000000000086e+01 1.751320000000000164e+03
7.499999999999999722e-02 1.428045000000000009e-01 3.972520000000000273e+00 5.007290000000000418e+01 1.751360000000000127e+03
7.599999999999999811e-02 1.428245000000000209e-01 4.317389999999999617e+00 5.114334999999999809e+01 1.751514999999999873e+03
7.699999999999999900e-02 1.428575000000000261e-01 4.835264999999999702e+00 5.256175000000000352e+01 1.751789999999999964e+03
7.799999999999999989e-02 1.429044999999999899e-01 5.522145000000000081e+00 5.431560000000000343e+01 1.752174999999999955e+03
7.900000000000000078e-02 1.429650000000000087e-01 6.370129999999999626e+00 5.638429999999999609e+01 1.752675000000000182e+03
8.000000000000000167e-02 1.430379999999999985e-01 7.367844999999999089e+00 5.873995000000000033e+01 1.753284999999999854e+03
8.100000000000000255e-02 1.431235000000000146e-01 8.501004999999999256e+00 6.134919999999999618e+01 1.754005000000000109e+03
8.200000000000000344e-02 1.432200000000000140e-01 9.752945000000000420e+00 6.417449999999999477e+01 1.754820000000000164e+03
8.300000000000000433e-02 1.433265000000000233e-01 1.110559500000000099e+01 6.717634999999999934e+01 1.755715000000000146e+03
8.400000000000000522e-02 1.434409999999999852e-01 1.253993499999999983e+01 7.031469999999998777e+01 1.756684999999999945e+03
8.500000000000000611e-02 1.435624999999999818e-01 1.403675000000000139e+01 7.355060000000000286e+01 1.757719999999999800e+03
8.600000000000000699e-02 1.436900000000000122e-01 1.557750000000000057e+01 7.684805000000000064e+01 1.758799999999999955e+03
8.700000000000000788e-02 1.438210000000000044e-01 1.714464999999999861e+01 8.017475000000000307e+01 1.759924999999999955e+03
8.800000000000000877e-02 1.439544999999999852e-01 1.872214999999999918e+01 8.350329999999999586e+01 1.761069999999999936e+03
8.899999999999999578e-02 1.440899999999999959e-01 2.029585000000000150e+01 8.681159999999999854e+01 1.762240000000000009e+03
8.999999999999999667e-02 1.442269999999999941e-01 2.185379999999999967e+01 9.008285000000000764e+01 1.763409999999999854e+03
9.099999999999999756e-02 1.443630000000000191e-01 2.338589999999999947e+01 9.330570000000000164e+01 1.764590000000000146e+03
9.199999999999999845e-02 1.444985000000000019e-01 2.488439999999999941e+01 9.647344999999999970e+01 1.765760000000000218e+03
9.299999999999999933e-02 1.446334999999999982e-01 2.634325000000000117e+01 9.958310000000000173e+01 1.766924999999999955e+03
9.400000000000000022e-02 1.447660000000000058e-01 2.775809999999999889e+01 1.026357500000000016e+02 1.768079999999999927e+03
9.500000000000000111e-02 1.448975000000000124e-01 2.912604999999999933e+01 1.056332000000000022e+02 1.769224999999999909e+03
9.600000000000000200e-02 1.450270000000000170e-01 3.044505000000000194e+01 1.085805000000000007e+02 1.770360000000000127e+03
9.700000000000000289e-02 1.451554999999999929e-01 3.171405000000000030e+01 1.114800000000000040e+02 1.771480000000000018e+03
9.800000000000000377e-02 1.452819999999999945e-01 3.293209999999999837e+01 1.143365000000000009e+02 1.772585000000000036e+03
9.900000000000000466e-02 1.454070000000000085e-01 3.409864999999999924e+01 1.171514999999999986e+02 1.773684999999999945e+03
1.000000000000000056e-01 1.455309999999999937e-01 3.521304999999999552e+01 1.199265000000000043e+02 1.774764999999999873e+03
1.010000000000000064e-01 1.456525000000000181e-01 3.627425000000000210e+01 1.226595000000000084e+02 1.775835000000000036e+03
1.020000000000000073e-01 1.457729999999999859e-01 3.728104999999999336e+01 1.253480000000000132e+02 1.776900000000000091e+03
1.030000000000000082e-01 1.458915000000000073e-01 3.823179999999999978e+01 1.279865000000000066e+02 1.777940000000000055e+03
1.040000000000000091e-01 1.460084999999999855e-01 3.912454999999999927e+01 1.305679999999999836e+02 1.778974999999999909e+03
1.050000000000000100e-01 1.461224999999999885e-01 3.995669999999999789e+01 1.330844999999999914e+02 1.779980000000000018e+03
1.059999999999999970e-01 1.462344999999999895e-01 4.072570000000000334e+01 1.355264999999999986e+02 1.780974999999999909e+03
1.069999999999999979e-01 1.463435000000000152e-01 4.142849999999999966e+01 1.378830000000000098e+02 1.781940000000000055e+03
1.079999999999999988e-01 1.464495000000000102e-01 4.206204999999999927e+01 1.401444999999999936e+02 1.782880000000000109e+03
1.089999999999999997e-01 1.465515000000000012e-01 4.262315000000000254e+01 1.423000000000000114e+02 1.783785000000000082e+03
1.100000000000000006e-01 1.466494999999999882e-01 4.310880000000000223e+01 1.443389999999999986e+02 1.784654999999999973e+03
1.110000000000000014e-01 1.467424999999999979e-01 4.351619999999999777e+01 1.462515000000000214e+02 1.785490000000000009e+03
1.120000000000000023e-01 1.468315000000000037e-01 4.384279999999999688e+01 1.480285000000000082e+02 1.786279999999999973e+03
1.130000000000000032e-01 1.469145000000000034e-01 4.408644999999999925e+01 1.496624999999999943e+02 1.787025000000000091e+03
1.140000000000000041e-01 1.469920000000000115e-01 4.424544999999999817e+01 1.511465000000000032e+02 1.787715000000000146e+03
1.150000000000000050e-01 1.470635000000000137e-01 4.431904999999999717e+01 1.524759999999999991e+02 1.788355000000000018e+03
1.160000000000000059e-01 1.471290000000000098e-01 4.430675000000000097e+01 1.536479999999999961e+02 1.788940000000000055e+03
1.170000000000000068e-01 1.471870000000000123e-01 4.420929999999999893e+01 1.546595000000000084e+02 1.789470000000000027e+03
1.180000000000000077e-01 1.472394999999999954e-01 4.402779999999999916e+01 1.555120000000000005e+02 1.789944999999999936e+03
1.190000000000000085e-01 1.472855000000000136e-01 4.376465000000000316e+01 1.562074999999999818e+02 1.790355000000000018e+03
1.200000000000000094e-01 1.473244999999999971e-01 4.342300000000000182e+01 1.567510000000000048e+02 1.790714999999999918e+03
1.209999999999999964e-01 1.473570000000000157e-01 4.300685000000000002e+01 1.571474999999999795e+02 1.791014999999999873e+03
1.219999999999999973e-01 1.473835000000000006e-01 4.252105000000000246e+01 1.574064999999999941e+02 1.791260000000000218e+03
1.229999999999999982e-01 1.474050000000000082e-01 4.197119999999999607e+01 1.575370000000000061e+02 1.791450000000000045e+03
1.239999999999999991e-01 1.474194999999999811e-01 4.136345000000000027e+01 1.575494999999999948e+02 1.791595000000000027e+03
1.250000000000000000e-01 1.474294999999999911e-01 4.070459999999999923e+01 1.574559999999999889e+02 1.791690000000000055e+03
1.260000000000000009e-01 1.474340000000000095e-01 4.000164999999999793e+01 1.572700000000000102e+02 1.791740000000000009e+03
1.270000000000000018e-01 1.474345000000000239e-01 3.926194999999999879e+01 1.570035000000000025e+02 1.791750000000000000e+03
1.280000000000000027e-01 1.474309999999999787e-01 3.849264999999999759e+01 1.566700000000000159e+02 1.791724999999999909e+03
1.290000000000000036e-01 1.474239999999999995e-01 3.770094999999999885e+01 1.562810000000000059e+02 1.791664999999999964e+03
1.300000000000000044e-01 1.474139999999999895e-01 3.689355000000000473e+01 1.558489999999999895e+02 1.791585000000000036e+03
1.310000000000000053e-01 1.474020000000000052e-01 3.607670000000000243e+01 1.553840000000000146e+02 1.791480000000000018e+03
1.320000000000000062e-01 1.473880000000000190e-01 3.525624999999999432e+01 1.548949999999999818e+02 1.791355000000000018e+03
1.330000000000000071e-01 1.473720000000000030e-01 3.443710000000000093e+01 1.543905000000000030e+02 1.791214999999999918e+03
1.340000000000000080e-01 1.473544999999999994e-01 3.362364999999999782e+01 1.538754999999999882e+02 1.791065000000000055e+03
1.350000000000000089e-01 1.473360000000000225e-01 3.281935000000000002e+01 1.533555000000000064e+02 1.790904999999999973e+03
1.360000000000000098e-01 1.473174999999999901e-01 3.202680000000000149e+01 1.528329999999999984e+02 1.790735000000000127e+03
1.370000000000000107e-01 1.472974999999999979e-01 3.124779999999999802e+01 1.523100000000000023e+02 1.790559999999999945e+03
1.380000000000000115e-01 1.472780000000000200e-01 3.048355000000000103e+01 1.517860000000000014e+02 1.790380000000000109e+03
1.390000000000000124e-01 1.472569999999999990e-01 2.973424999999999940e+01 1.512590000000000146e+02 1.790194999999999936e+03
1.400000000000000133e-01 1.472359999999999780e-01 2.899964999999999904e+01 1.507280000000000086e+02 1.790010000000000218e+03
1.410000000000000142e-01 1.472144999999999981e-01 2.827880000000000038e+01 1.501890000000000214e+02 1.789820000000000164e+03
1.420000000000000151e-01 1.471925000000000039e-01 2.757025000000000148e+01 1.496379999999999768e+02 1.789625000000000000e+03
1.430000000000000160e-01 1.471700000000000230e-01 2.687225000000000108e+01 1.490704999999999814e+02 1.789420000000000073e+03
1.440000000000000169e-01 1.471465000000000134e-01 2.618270000000000053e+01 1.484814999999999827e+02 1.789210000000000036e+03
1.450000000000000178e-01 1.471219999999999750e-01 2.549940000000000140e+01 1.478670000000000186e+02 1.788994999999999891e+03
1.459999999999999909e-01 1.470964999999999911e-01 2.481994999999999862e+01 1.472214999999999918e+02 1.788759999999999991e+03
1.469999999999999918e-01 1.470699999999999785e-01 2.414199999999999946e+01 1.465414999999999850e+02 1.788525000000000091e+03
1.479999999999999927e-01 1.470414999999999917e-01 2.346354999999999791e+01 1.458220000000000027e+02 1.788275000000000091e+03
1.489999999999999936e-01 1.470119999999999760e-01 2.278244999999999720e+01 1.450615000000000236e+02 1.788009999999999991e+03
1.499999999999999944e-01 1.469805000000000139e-01 2.209720000000000084e+01 1.442570000000000050e+02 1.787734999999999900e+03
1.509999999999999953e-01 1.469475000000000087e-01 2.140660000000000096e+01 1.434064999999999941e+02 1.787440000000000055e+03
1.519999999999999962e-01 1.469125000000000014e-01 2.070984999999999943e+01 1.425109999999999957e+02 1.787130000000000109e+03
1.529999999999999971e-01 1.468754999999999922e-01 2.000670000000000215e+01 1.415709999999999980e+02 1.786805000000000064e+03
1.539999999999999980e-01 1.468369999999999953e-01 1.929744999999999777e+01 1.405879999999999939e+02 1.786460000000000036e+03
1.549999999999999989e-01 1.467970000000000108e-01 1.858305000000000007e+01 1.395665000000000191e+02 1.786099999999999909e+03
1.559999999999999998e-01 1.467545000000000099e-01 1.786495000000000033e+01 1.385099999999999909e+02 1.785730000000000018e+03
1.570000000000000007e-01 1.467114999999999947e-01 1.714515000000000100e+01 1.374250000000000114e+02 1.785345000000000027e+03
1.580000000000000016e-01 1.466664999999999774e-01 1.642619999999999791e+01 1.363174999999999955e+02 1.784950000000000045e+03
1.590000000000000024e-01 1.466204999999999870e-01 1.571105000000000018e+01 1.351955000000000098e+02 1.784549999999999955e+03
