# t [s], A [cm^2], U [cm/s], P [cPa], c [cm/s]
1.000000000000000021e-03 2.070135000000000169e-01 1.708854999999999957e-01 8.864490000000000691e+01 2.142119999999999891e+03
2.000000000000000042e-03 2.069739999999999913e-01 1.375665000000000138e+00 8.599664999999998827e+01 2.141805000000000291e+03
3.000000000000000062e-03 2.068559999999999843e-01 2.916752500000000303e+00 8.221304999999999552e+01 2.140914999999999964e+03
4.000000000000000083e-03 2.066890000000000116e-01 4.671085449999999639e+00 7.789160000000001105e+01 2.139664999999999964e+03
5.000000000000000104e-03 2.065044999999999797e-01 6.586199999999999832e+00 7.383275000000000432e+01 2.138315000000000055e+03
6.000000000000000125e-03 2.063254999999999950e-01 8.533934999999999604e+00 7.043200000000000216e+01 2.137005000000000109e+03
7.000000000000000146e-03 2.061580000000000079e-01 1.031719499999999989e+01 6.756879999999999598e+01 2.135800000000000182e+03
8.000000000000000167e-03 2.060025000000000051e-01 1.182135000000000069e+01 6.500164999999999793e+01 2.134710000000000036e+03
9.000000000000001055e-03 2.058645000000000058e-01 1.306069000000000102e+01 6.273364999999999725e+01 2.133760000000000218e+03
1.000000000000000194e-02 2.057474999999999998e-01 1.407310000000000016e+01 6.086070000000000135e+01 2.132960000000000036e+03
1.099999999999999936e-02 2.056520000000000015e-01 1.487734999999999985e+01 5.939829999999999899e+01 2.132314999999999600e+03
1.200000000000000025e-02 2.055770000000000097e-01 1.548540000000000028e+01 5.830060000000000286e+01 2.131819999999999709e+03
1.300000000000000114e-02 2.055184999999999929e-01 1.589764999999999873e+01 5.747185000000000343e+01 2.131440000000000055e+03
1.400000000000000203e-02 2.054725000000000024e-01 1.611264999999999858e+01 5.677840000000000487e+01 2.131144999999999982e+03
1.499999999999999944e-02 2.054340000000000055e-01 1.616990000000000194e+01 5.616094999999999970e+01 2.130905000000000200e+03
1.600000000000000033e-02 2.054060000000000052e-01 1.617725000000000080e+01 5.575844999999999629e+01 2.130739999999999782e+03
1.700000000000000122e-02 2.053979999999999972e-01 1.627905000000000157e+01 5.588594999999999402e+01 2.130699999999999818e+03
1.800000000000000211e-02 2.054179999999999895e-01 1.658559999999999945e+01 5.685349999999999682e+01 2.130845000000000255e+03
1.900000000000000300e-02 2.054725000000000024e-01 1.711479999999999890e+01 5.875804999999999723e+01 2.131210000000000036e+03
2.000000000000000042e-02 2.055560000000000165e-01 1.778240000000000265e+01 6.138794999999999646e+01 2.131784999999999854e+03
2.100000000000000130e-02 2.056564999999999921e-01 1.844004999999999939e+01 6.428315000000000623e+01 2.132480000000000018e+03
2.200000000000000219e-02 2.057585000000000108e-01 1.893484999999999729e+01 6.690255000000000507e+01 2.133194999999999709e+03
2.299999999999999961e-02 2.058450000000000002e-01 1.916239999999999810e+01 6.880930000000000746e+01 2.133810000000000400e+03
2.400000000000000050e-02 2.059060000000000057e-01 1.909474999999999767e+01 6.979715000000000202e+01 2.134260000000000218e+03
2.500000000000000139e-02 2.059389999999999832e-01 1.877595000000000169e+01 6.992000000000000171e+01 2.134510000000000218e+03
2.600000000000000228e-02 2.059479999999999922e-01 1.829429999999999978e+01 6.942849999999999966e+01 2.134590000000000146e+03
2.700000000000000316e-02 2.059400000000000119e-01 1.774360000000000070e+01 6.864995000000000402e+01 2.134555000000000291e+03
2.800000000000000058e-02 2.059239999999999959e-01 1.718970000000000198e+01 6.786404999999999177e+01 2.134449999999999818e+03
2.900000000000000147e-02 2.059070000000000067e-01 1.665354999999999919e+01 6.721825000000001182e+01 2.134329999999999927e+03
3.000000000000000236e-02 2.058900000000000174e-01 1.611335000000000051e+01 6.670465000000000089e+01 2.134220000000000255e+03
3.099999999999999978e-02 2.058725000000000138e-01 1.552209999999999823e+01 6.619629999999999370e+01 2.134095000000000255e+03
3.200000000000000067e-02 2.058490000000000042e-01 1.483259999999999934e+01 6.552205000000000723e+01 2.133934999999999945e+03
3.300000000000000155e-02 2.058165000000000133e-01 1.402169999999999916e+01 6.455065000000000452e+01 2.133720000000000255e+03
3.400000000000000244e-02 2.057729999999999837e-01 1.310559999999999903e+01 6.325685000000000002e+01 2.133425000000000182e+03
3.500000000000000333e-02 2.057200000000000140e-01 1.214209999999999923e+01 6.174945000000000306e+01 2.133069999999999709e+03
3.600000000000000422e-02 2.056640000000000135e-01 1.121875999999999962e+01 6.025209999999999866e+01 2.132684999999999945e+03
3.700000000000000511e-02 2.056135000000000046e-01 1.043130000000000024e+01 5.904435000000000144e+01 2.132329999999999927e+03
3.799999999999999906e-02 2.055770000000000097e-01 9.858760000000000190e+00 5.838434999999999775e+01 2.132069999999999709e+03
3.899999999999999994e-02 2.055629999999999957e-01 9.544284999999998576e+00 5.843715000000000259e+01 2.131954999999999927e+03
4.000000000000000083e-02 2.055730000000000057e-01 9.485524999999999096e+00 5.923109999999999786e+01 2.132005000000000109e+03
4.100000000000000172e-02 2.056084999999999996e-01 9.636804999999998955e+00 6.065115000000000123e+01 2.132230000000000018e+03
4.200000000000000261e-02 2.056620000000000115e-01 9.920574999999999477e+00 6.246679999999999922e+01 2.132585000000000036e+03
4.300000000000000350e-02 2.057259999999999922e-01 1.024387000000000114e+01 6.438365000000000293e+01 2.133019999999999982e+03
4.400000000000000439e-02 2.057904999999999873e-01 1.051548999999999978e+01 6.610144999999999982e+01 2.133465000000000146e+03
4.499999999999999833e-02 2.058464999999999878e-01 1.065974999999999895e+01 6.736605000000000132e+01 2.133855000000000018e+03
4.599999999999999922e-02 2.058849999999999847e-01 1.062515000000000143e+01 6.800415000000000987e+01 2.134130000000000109e+03
4.700000000000000011e-02 2.059010000000000007e-01 1.038613000000000142e+01 6.793665000000000020e+01 2.134255000000000109e+03
4.800000000000000100e-02 2.058935000000000071e-01 9.941015000000000157e+00 6.717265000000000441e+01 2.134210000000000036e+03
4.900000000000000189e-02 2.058610000000000162e-01 9.305530000000000967e+00 6.578855000000000075e+01 2.134000000000000000e+03
5.000000000000000278e-02 2.058070000000000177e-01 8.505675000000000097e+00 6.390004999999999313e+01 2.133630000000000109e+03
5.100000000000000366e-02 2.057344999999999868e-01 7.571470000000000589e+00 6.163564999999999827e+01 2.133139999999999873e+03
5.200000000000000455e-02 2.056479999999999975e-01 6.532394999999999285e+00 5.911619999999999919e+01 2.132539999999999964e+03
5.300000000000000544e-02 2.055504999999999971e-01 5.415800000000000836e+00 5.644375000000000142e+01 2.131875000000000000e+03
5.399999999999999939e-02 2.054465000000000041e-01 4.247090000000000032e+00 5.370024999999999693e+01 2.131154999999999745e+03
5.500000000000000028e-02 2.053380000000000205e-01 3.051451999999999831e+00 5.095220000000000482e+01 2.130409999999999854e+03
5.600000000000000117e-02 2.052295000000000091e-01 1.855869999999999909e+00 4.825955000000000439e+01 2.129654999999999745e+03
5.700000000000000205e-02 2.051215000000000122e-01 6.907450000000001644e-01 4.568394999999999584e+01 2.128904999999999745e+03
5.800000000000000294e-02 2.050184999999999924e-01 -4.094799999999998441e-01 4.329509999999999792e+01 2.128190000000000055e+03
5.900000000000000383e-02 2.049229999999999940e-01 -1.407007499999999967e+00 4.117210000000000036e+01 2.127525000000000091e+03
6.000000000000000472e-02 2.048384999999999789e-01 -2.262443000000000204e+00 3.940124999999999744e+01 2.126930000000000291e+03
6.099999999999999867e-02 2.047684999999999922e-01 -2.937424999999999731e+00 3.806994999999999862e+01 2.126429999999999836e+03
6.199999999999999956e-02 2.047165000000000235e-01 -3.397575000000000234e+00 3.725879999999999370e+01 2.126060000000000400e+03
6.300000000000000044e-02 2.046855000000000202e-01 -3.615300000000000402e+00 3.703314999999999912e+01 2.125824999999999818e+03
6.400000000000000133e-02 2.046769999999999978e-01 -3.572004999999999875e+00 3.743604999999999450e+01 2.125750000000000000e+03
6.500000000000000222e-02 2.046935000000000004e-01 -3.259510000000000129e+00 3.848375000000000057e+01 2.125840000000000146e+03
6.600000000000000311e-02 2.047350000000000003e-01 -2.680524999999999824e+00 4.016360000000000241e+01 2.126105000000000018e+03
6.700000000000000400e-02 2.048010000000000108e-01 -1.848220499999999822e+00 4.243534999999999968e+01 2.126539999999999964e+03
6.800000000000000488e-02 2.048895000000000022e-01 -7.850799999999998890e-01 4.523465000000000202e+01 2.127140000000000327e+03
6.900000000000000577e-02 2.049989999999999868e-01 4.788300000000000889e-01 4.847820000000000107e+01 2.127875000000000000e+03
7.000000000000000666e-02 2.051259999999999750e-01 1.907995000000000108e+00 5.207059999999999889e+01 2.128739999999999782e+03
7.100000000000000755e-02 2.052670000000000050e-01 3.463773000000000213e+00 5.591110000000000468e+01 2.129704999999999927e+03
7.200000000000000844e-02 2.054175000000000029e-01 5.106745000000000090e+00 5.990075000000000216e+01 2.130739999999999782e+03
7.300000000000000933e-02 2.055750000000000077e-01 6.798939999999999984e+00 6.394830000000000325e+01 2.131829999999999927e+03
7.399999999999999634e-02 2.057360000000000022e-01 8.505810000000000315e+00 6.797589999999999577e+01 2.132944999999999709e+03
7.499999999999999722e-02 2.058965000000000101e-01 1.019760499999999936e+01 7.192239999999999611e+01 2.134064999999999600e+03
7.599999999999999811e-02 2.060555000000000025e-01 1.185048000000000101e+01 7.574575000000000102e+01 2.135175000000000182e+03
7.699999999999999900e-02 2.062104999999999910e-01 1.344679999999999964e+01 7.942249999999999943e+01 2.136265000000000327e+03
7.799999999999999989e-02 2.063615000000000033e-01 1.497499999999999964e+01 8.294670000000000698e+01 2.137329999999999927e+03
7.900000000000000078e-02 2.065075000000000105e-01 1.642855000000000132e+01 8.632634999999999081e+01 2.138355000000000018e+03
8.000000000000000167e-02 2.066489999999999994e-01 1.780535000000000068e+01 8.957925000000000182e+01 2.139355000000000018e+03
8.100000000000000255e-02 2.067859999999999976e-01 1.910640000000000072e+01 9.272849999999999682e+01 2.140324999999999818e+03
8.200000000000000344e-02 2.069199999999999928e-01 2.033425000000000082e+01 9.579849999999999000e+01 2.141274999999999636e+03
8.300000000000000433e-02 2.070509999999999851e-01 2.149220000000000041e+01 9.881014999999999304e+01 2.142204999999999927e+03
8.400000000000000522e-02 2.071795000000000164e-01 2.258350000000000080e+01 1.017799499999999995e+02 2.143119999999999891e+03
8.500000000000000611e-02 2.073065000000000047e-01 2.361059999999999803e+01 1.047178499999999985e+02 2.144019999999999982e+03
8.600000000000000699e-02 2.074325000000000196e-01 2.457489999999999952e+01 1.076260000000000048e+02 2.144914999999999964e+03
8.700000000000000788e-02 2.075565000000000049e-01 2.547659999999999769e+01 1.104994999999999976e+02 2.145800000000000182e+03
8.800000000000000877e-02 2.076794999999999891e-01 2.631459999999999866e+01 1.133294999999999959e+02 2.146675000000000182e+03
8.899999999999999578e-02 2.077999999999999847e-01 2.708699999999999974e+01 1.161015000000000015e+02 2.147534999999999854e+03
8.999999999999999667e-02 2.079185000000000061e-01 2.779074999999999918e+01 1.187975000000000136e+02 2.148380000000000109e+03
9.099999999999999756e-02 2.080329999999999957e-01 2.842224999999999824e+01 1.213979999999999961e+02 2.149199999999999818e+03
9.199999999999999845e-02 2.081439999999999957e-01 2.897710000000000008e+01 1.238829999999999956e+02 2.149994999999999891e+03
9.299999999999999933e-02 2.082499999999999907e-01 2.945054999999999978e+01 1.262299999999999898e+02 2.150750000000000000e+03
9.400000000000000022e-02 2.083504999999999940e-01 2.983740000000000236e+01 1.284189999999999827e+02 2.151470000000000255e+03
9.500000000000000111e-02 2.084439999999999904e-01 3.013255000000000194e+01 1.304284999999999854e+02 2.152144999999999982e+03
9.600000000000000200e-02 2.085299999999999931e-01 3.033095000000000141e+01 1.322390000000000043e+02 2.152764999999999873e+03
9.700000000000000289e-02 2.086085000000000023e-01 3.042824999999999847e+01 1.338340000000000032e+02 2.153329999999999927e+03
9.800000000000000377e-02 2.086775000000000158e-01 3.042089999999999961e+01 1.351980000000000075e+02 2.153824999999999818e+03
9.900000000000000466e-02 2.087375000000000203e-01 3.030665000000000120e+01 1.363215000000000146e+02 2.154264999999999873e+03
1.000000000000000056e-01 2.087875000000000147e-01 3.008509999999999707e+01 1.371980000000000075e+02 2.154630000000000109e+03
1.010000000000000064e-01 2.088274999999999992e-01 2.975785000000000124e+01 1.378274999999999864e+02 2.154925000000000182e+03
1.020000000000000073e-01 2.088575000000000015e-01 2.932880000000000109e+01 1.382160000000000082e+02 2.155144999999999982e+03
1.030000000000000082e-01 2.088780000000000081e-01 2.880385000000000062e+01 1.383745000000000118e+02 2.155305000000000291e+03
1.040000000000000091e-01 2.088885000000000047e-01 2.819134999999999991e+01 1.383215000000000146e+02 2.155390000000000327e+03
1.050000000000000100e-01 2.088915000000000077e-01 2.750150000000000006e+01 1.380794999999999959e+02 2.155414999999999964e+03
1.059999999999999970e-01 2.088860000000000161e-01 2.674585000000000079e+01 1.376750000000000114e+02 2.155389999999999873e+03
1.069999999999999979e-01 2.088740000000000041e-01 2.593730000000000047e+01 1.371370000000000005e+02 2.155310000000000400e+03
1.079999999999999988e-01 2.088559999999999861e-01 2.508919999999999817e+01 1.364954999999999927e+02 2.155190000000000055e+03
1.089999999999999997e-01 2.088339999999999919e-01 2.421499999999999986e+01 1.357810000000000059e+02 2.155039999999999964e+03
1.100000000000000006e-01 2.088090000000000224e-01 2.332779999999999987e+01 1.350210000000000150e+02 2.154864999999999782e+03
1.110000000000000014e-01 2.087815000000000087e-01 2.243965000000000032e+01 1.342420000000000186e+02 2.154670000000000073e+03
1.120000000000000023e-01 2.087525000000000075e-01 2.156159999999999854e+01 1.334655000000000200e+02 2.154465000000000146e+03
1.130000000000000032e-01 2.087235000000000062e-01 2.070284999999999798e+01 1.327094999999999914e+02 2.154260000000000218e+03
1.140000000000000041e-01 2.086945000000000050e-01 1.987100000000000222e+01 1.319875000000000114e+02 2.154055000000000291e+03
1.150000000000000050e-01 2.086664999999999770e-01 1.907150000000000034e+01 1.313070000000000164e+02 2.153855000000000018e+03
1.160000000000000059e-01 2.086399999999999921e-01 1.830769999999999698e+01 1.306715000000000089e+02 2.153664999999999964e+03
1.170000000000000068e-01 2.086144999999999805e-01 1.758095000000000141e+01 1.300799999999999841e+02 2.153480000000000018e+03
1.180000000000000077e-01 2.085905000000000120e-01 1.689045000000000130e+01 1.295250000000000057e+02 2.153305000000000291e+03
1.190000000000000085e-01 2.085675000000000168e-01 1.623375000000000057e+01 1.289975000000000023e+02 2.153135000000000218e+03
1.200000000000000094e-01 2.085449999999999804e-01 1.560670000000000002e+01 1.284840000000000089e+02 2.152974999999999909e+03
1.209999999999999964e-01 2.085230000000000139e-01 1.500375000000000014e+01 1.279680000000000035e+02 2.152819999999999709e+03
1.219999999999999973e-01 2.085009999999999919e-01 1.441874999999999929e+01 1.274344999999999999e+02 2.152654999999999745e+03
1.229999999999999982e-01 2.084774999999999823e-01 1.384489999999999910e+01 1.268644999999999925e+02 2.152485000000000127e+03
1.239999999999999991e-01 2.084524999999999850e-01 1.327530000000000143e+01 1.262419999999999902e+02 2.152305000000000291e+03
1.250000000000000000e-01 2.084254999999999858e-01 1.270345000000000013e+01 1.255520000000000067e+02 2.152109999999999673e+03
1.260000000000000009e-01 2.083955000000000113e-01 1.212359999999999971e+01 1.247820000000000107e+02 2.151899999999999636e+03
1.270000000000000018e-01 2.083625000000000060e-01 1.153117999999999910e+01 1.239240000000000066e+02 2.151664999999999964e+03
1.280000000000000027e-01 2.083260000000000112e-01 1.092309000000000019e+01 1.229724999999999966e+02 2.151404999999999745e+03
1.290000000000000036e-01 2.082859999999999989e-01 1.029779999999999873e+01 1.219275000000000091e+02 2.151125000000000000e+03
1.300000000000000044e-01 2.082420000000000104e-01 9.655770000000000408e+00 1.207950000000000017e+02 2.150809999999999945e+03
1.310000000000000053e-01 2.081945000000000046e-01 8.999069999999999681e+00 1.195825000000000102e+02 2.150480000000000018e+03
1.320000000000000062e-01 2.081445000000000101e-01 8.331789999999999807e+00 1.183060000000000116e+02 2.150125000000000000e+03
1.330000000000000071e-01 2.080919999999999992e-01 7.659570000000000434e+00 1.169825000000000017e+02 2.149750000000000000e+03
1.340000000000000080e-01 2.080374999999999863e-01 6.989295000000000258e+00 1.156320000000000050e+02 2.149364999999999782e+03
1.350000000000000089e-01 2.079820000000000002e-01 6.328879999999999839e+00 1.142785000000000082e+02 2.148975000000000364e+03
1.360000000000000098e-01 2.079270000000000007e-01 5.686799999999999855e+00 1.129449999999999932e+02 2.148579999999999927e+03
1.370000000000000107e-01 2.078725000000000156e-01 5.071634999999999671e+00 1.116550000000000011e+02 2.148190000000000055e+03
1.380000000000000115e-01 2.078194999999999903e-01 4.491629999999999789e+00 1.104295000000000044e+02 2.147819999999999709e+03
1.390000000000000124e-01 2.077690000000000092e-01 3.954315000000000246e+00 1.092890000000000015e+02 2.147454999999999927e+03
1.400000000000000133e-01 2.077215000000000034e-01 3.466145000000000032e+00 1.082475000000000023e+02 2.147119999999999891e+03
1.410000000000000142e-01 2.076784999999999881e-01 3.032224999999999948e+00 1.073179999999999978e+02 2.146815000000000055e+03
1.420000000000000151e-01 2.076395000000000046e-01 2.656150000000000233e+00 1.065074999999999932e+02 2.146534999999999854e+03
1.430000000000000160e-01 2.076049999999999840e-01 2.339920000000000222e+00 1.058195000000000050e+02 2.146284999999999854e+03
1.440000000000000169e-01 2.075755000000000239e-01 2.083909999999999929e+00 1.052524999999999977e+02 2.146065000000000055e+03
1.450000000000000178e-01 2.075504999999999989e-01 1.886959999999999971e+00 1.048029999999999973e+02 2.145890000000000327e+03
1.459999999999999909e-01 2.075305000000000066e-01 1.746525000000000105e+00 1.044625000000000057e+02 2.145735000000000127e+03
1.469999999999999918e-01 2.075144999999999906e-01 1.658840000000000092e+00 1.042210000000000036e+02 2.145619999999999891e+03
1.479999999999999927e-01 2.075024999999999786e-01 1.619134999999999991e+00 1.040664999999999907e+02 2.145529999999999745e+03
1.489999999999999936e-01 2.074934999999999974e-01 1.621875000000000178e+00 1.039855000000000018e+02 2.145465000000000146e+03
1.499999999999999944e-01 2.074874999999999914e-01 1.660979999999999901e+00 1.039629999999999939e+02 2.145420000000000073e+03
1.509999999999999953e-01 2.074850000000000028e-01 1.730080000000000062e+00 1.039855000000000018e+02 2.145390000000000327e+03
1.519999999999999962e-01 2.074834999999999874e-01 1.822694999999999954e+00 1.040395000000000039e+02 2.145380000000000109e+03
1.529999999999999971e-01 2.074834999999999874e-01 1.932474999999999943e+00 1.041115000000000066e+02 2.145375000000000000e+03
1.539999999999999980e-01 2.074845000000000161e-01 2.053339999999999943e+00 1.041910000000000025e+02 2.145380000000000109e+03
1.549999999999999989e-01 2.074860000000000038e-01 2.179685000000000095e+00 1.042655000000000030e+02 2.145385000000000218e+03
1.559999999999999998e-01 2.074874999999999914e-01 2.306435000000000013e+00 1.043284999999999911e+02 2.145394999999999982e+03
1.570000000000000007e-01 2.074885000000000201e-01 2.429219999999999935e+00 1.043704999999999927e+02 2.145404999999999745e+03
1.580000000000000016e-01 2.074894999999999934e-01 2.544399999999999995e+00 1.043884999999999934e+02 2.145409999999999854e+03
1.590000000000000024e-01 2.074885000000000201e-01 2.649080000000000101e+00 1.043774999999999977e+02 2.145409999999999854e+03
