# t [s], A [cm^2], U [cm/s], P [cPa], c [cm/s]
1.000000000000000021e-03 7.793845000000000356e-01 5.681999999999999551e-03 9.220429999999998927e+01 1.701565000000000055e+03
2.000000000000000042e-03 7.793704999999999661e-01 -4.781859999999999757e-03 9.217324999999999591e+01 1.701554999999999836e+03
3.000000000000000062e-03 7.794254999999999933e-01 7.875445000000000362e-02 9.226644999999999186e+01 1.701579999999999927e+03
4.000000000000000083e-03 7.794849999999999834e-01 1.792897999999999992e-01 9.239629999999999654e+01 1.701610000000000127e+03
5.000000000000000104e-03 7.794619999999999882e-01 1.687088499999999935e-01 9.235894999999999300e+01 1.701605000000000018e+03
6.000000000000000125e-03 7.793870000000000520e-01 7.793250000000001565e-02 9.215229999999999677e+01 1.701555000000000064e+03
7.000000000000000146e-03 7.793269999999999920e-01 2.510499999999971088e-03 9.190364999999999895e+01 1.701505000000000109e+03
8.000000000000000167e-03 7.792419999999999902e-01 -1.215934999999999655e-01 9.155535000000000423e+01 1.701425000000000182e+03
9.000000000000001055e-03 7.790939999999999532e-01 -3.587700000000000333e-01 9.101030000000000086e+01 1.701305000000000064e+03
1.000000000000000194e-02 7.788764999999999716e-01 -7.188150000000000928e-01 9.022214999999999918e+01 1.701130000000000109e+03
1.099999999999999936e-02 7.785679999999999268e-01 -1.227244999999999919e+00 8.912115000000000009e+01 1.700884999999999991e+03
1.200000000000000025e-02 7.781565000000000287e-01 -1.891755000000000297e+00 8.765189999999999770e+01 1.700550000000000182e+03
1.300000000000000114e-02 7.776779999999999804e-01 -2.635785000000000267e+00 8.587395000000000778e+01 1.700139999999999873e+03
1.400000000000000203e-02 7.772105000000000263e-01 -3.313533500000000132e+00 8.396940000000000737e+01 1.699684999999999945e+03
1.499999999999999944e-02 7.768204999999999139e-01 -3.787681999999999771e+00 8.215004999999999313e+01 1.699235000000000127e+03
1.600000000000000033e-02 7.765320000000000000e-01 -3.990804499999999866e+00 8.055795000000000528e+01 1.698820000000000164e+03
1.700000000000000122e-02 7.763225000000000264e-01 -3.936490500000000115e+00 7.922289999999999566e+01 1.698444999999999936e+03
1.800000000000000211e-02 7.761454999999999327e-01 -3.693545000000000300e+00 7.807845000000000368e+01 1.698110000000000127e+03
1.900000000000000300e-02 7.759525000000000450e-01 -3.347469999999999946e+00 7.700839999999999463e+01 1.697784999999999854e+03
2.000000000000000042e-02 7.757100000000000106e-01 -2.966800000000000104e+00 7.590019999999999811e+01 1.697454999999999927e+03
2.100000000000000130e-02 7.754100000000000437e-01 -2.583316500000000016e+00 7.468504999999998972e+01 1.697099999999999909e+03
2.200000000000000219e-02 7.750669999999999504e-01 -2.190082499999999932e+00 7.335525000000001228e+01 1.696730000000000018e+03
2.299999999999999961e-02 7.747085000000000221e-01 -1.755475000000000119e+00 7.195445000000000846e+01 1.696335000000000036e+03
2.400000000000000050e-02 7.743594999999999784e-01 -1.245959999999999956e+00 7.054894999999999072e+01 1.695934999999999945e+03
2.500000000000000139e-02 7.740354999999999874e-01 -6.474299999999999500e-01 6.919339999999999691e+01 1.695550000000000182e+03
2.600000000000000228e-02 7.737315000000000165e-01 2.250499999999977518e-02 6.790425000000000466e+01 1.695170000000000073e+03
2.700000000000000316e-02 7.734275000000000455e-01 7.140450000000000408e-01 6.664900000000000091e+01 1.694800000000000182e+03
2.800000000000000058e-02 7.730920000000000014e-01 1.354764999999999775e+00 6.535214999999999463e+01 1.694425000000000182e+03
2.900000000000000147e-02 7.726919999999999344e-01 1.865939999999999932e+00 6.391400000000000148e+01 1.694019999999999982e+03
3.000000000000000236e-02 7.722020000000000550e-01 2.181099999999999817e+00 6.223805000000000121e+01 1.693569999999999936e+03
3.099999999999999978e-02 7.716125000000000345e-01 2.262174999999999603e+00 6.025950000000000273e+01 1.693049999999999955e+03
3.200000000000000067e-02 7.709325000000000205e-01 2.108520000000000394e+00 5.796574999999999989e+01 1.692470000000000027e+03
3.300000000000000155e-02 7.701905000000000001e-01 1.755884999999999696e+00 5.540420000000000300e+01 1.691820000000000164e+03
3.400000000000000244e-02 7.694224999999998982e-01 1.266219999999999679e+00 5.267329999999999757e+01 1.691130000000000109e+03
3.500000000000000333e-02 7.686729999999999396e-01 7.126149999999995543e-01 4.990349999999999397e+01 1.690425000000000182e+03
3.600000000000000422e-02 7.679774999999999796e-01 1.646749999999999048e-01 4.723295000000000243e+01 1.689740000000000009e+03
3.700000000000000511e-02 7.673645000000000049e-01 -3.217099999999999405e-01 4.478740000000000521e+01 1.689095000000000027e+03
3.799999999999999906e-02 7.668520000000000891e-01 -7.089049999999996743e-01 4.266570000000000107e+01 1.688514999999999873e+03
3.899999999999999994e-02 7.664474999999999483e-01 -9.768799999999999706e-01 4.093434999999999491e+01 1.688025000000000091e+03
4.000000000000000083e-02 7.661514999999999853e-01 -1.119064999999999976e+00 3.962845000000000084e+01 1.687639999999999873e+03
4.100000000000000172e-02 7.659614999999999618e-01 -1.136515000000000164e+00 3.875820000000000221e+01 1.687365000000000009e+03
4.200000000000000261e-02 7.658724999999999561e-01 -1.032162950000000023e+00 3.831730000000000302e+01 1.687190000000000055e+03
4.300000000000000350e-02 7.658810000000000340e-01 -8.065919999999999757e-01 3.829205000000000325e+01 1.687125000000000000e+03
4.400000000000000439e-02 7.659845000000000681e-01 -4.560969999999999747e-01 3.866779999999999973e+01 1.687170000000000073e+03
4.499999999999999833e-02 7.661835000000000173e-01 2.671000000000001151e-02 3.943215000000000003e+01 1.687309999999999945e+03
4.599999999999999922e-02 7.664775000000000338e-01 6.503099999999999437e-01 4.057500000000000284e+01 1.687555000000000064e+03
4.700000000000000011e-02 7.668650000000000189e-01 1.420819999999999972e+00 4.208500000000000085e+01 1.687894999999999982e+03
4.800000000000000100e-02 7.673419999999999686e-01 2.338709999999999845e+00 4.394610000000000127e+01 1.688329999999999927e+03
4.900000000000000189e-02 7.679015000000000146e-01 3.396689999999999987e+00 4.613354999999999961e+01 1.688849999999999909e+03
5.000000000000000278e-02 7.685309999999999642e-01 4.579074999999999562e+00 4.861209999999999809e+01 1.689450000000000045e+03
5.100000000000000366e-02 7.692185000000000272e-01 5.862845000000000084e+00 5.133580000000000609e+01 1.690119999999999891e+03
5.200000000000000455e-02 7.699469999999999370e-01 7.219488499999999753e+00 5.425010000000000332e+01 1.690840000000000146e+03
5.300000000000000544e-02 7.706999999999999407e-01 8.617910000000000181e+00 5.729550000000000409e+01 1.691615000000000009e+03
5.399999999999999939e-02 7.714630000000000098e-01 1.002735000000000021e+01 6.041159999999999997e+01 1.692404999999999973e+03
5.500000000000000028e-02 7.722215000000000051e-01 1.141970500000000044e+01 6.354165000000000418e+01 1.693215000000000146e+03
5.600000000000000117e-02 7.729650000000000132e-01 1.277139000000000024e+01 6.663644999999999641e+01 1.694025000000000091e+03
5.700000000000000205e-02 7.736864999999999437e-01 1.406445500000000060e+01 6.965684999999999150e+01 1.694825000000000045e+03
5.800000000000000294e-02 7.743809999999999860e-01 1.528673000000000037e+01 7.257509999999999195e+01 1.695605000000000018e+03
5.900000000000000383e-02 7.750464999999999716e-01 1.643124999999999858e+01 7.537505000000000166e+01 1.696365000000000009e+03
6.000000000000000472e-02 7.756840000000000401e-01 1.749559999999999960e+01 7.805089999999999861e+01 1.697095000000000027e+03
6.099999999999999867e-02 7.762960000000000971e-01 1.848094999999999999e+01 8.060570000000001301e+01 1.697800000000000182e+03
6.199999999999999956e-02 7.768850000000000477e-01 1.939069999999999894e+01 8.304909999999999570e+01 1.698480000000000018e+03
6.300000000000000044e-02 7.774550000000000072e-01 2.022964999999999947e+01 8.539484999999999104e+01 1.699130000000000109e+03
6.400000000000000133e-02 7.780105000000000492e-01 2.100314999999999799e+01 8.765854999999999109e+01 1.699759999999999991e+03
6.500000000000000222e-02 7.785535000000000094e-01 2.171625000000000227e+01 8.985569999999999879e+01 1.700375000000000000e+03
6.600000000000000311e-02 7.790875000000000439e-01 2.237295000000000300e+01 9.199940000000000850e+01 1.700974999999999909e+03
6.700000000000000400e-02 7.796140000000000292e-01 2.297610000000000241e+01 9.409909999999999286e+01 1.701559999999999945e+03
6.800000000000000488e-02 7.801325000000000065e-01 2.352674999999999983e+01 9.615954999999999586e+01 1.702139999999999873e+03
6.900000000000000577e-02 7.806414999999999882e-01 2.402445000000000164e+01 9.818029999999998836e+01 1.702699999999999818e+03
7.000000000000000666e-02 7.811399999999999455e-01 2.446699999999999875e+01 1.001563999999999908e+02 1.703255000000000109e+03
7.100000000000000755e-02 7.816239999999999855e-01 2.485144999999999982e+01 1.020781000000000063e+02 1.703795000000000073e+03
7.200000000000000844e-02 7.820905000000000218e-01 2.517385000000000161e+01 1.039319999999999879e+02 1.704315000000000055e+03
7.300000000000000933e-02 7.825340000000000629e-01 2.543025000000000091e+01 1.057035000000000053e+02 1.704815000000000055e+03
7.399999999999999634e-02 7.829524999999999402e-01 2.561715000000000231e+01 1.073760000000000048e+02 1.705289999999999964e+03
7.499999999999999722e-02 7.833414999999999129e-01 2.573145000000000238e+01 1.089354999999999905e+02 1.705740000000000009e+03
7.599999999999999811e-02 7.836980000000000057e-01 2.577125000000000199e+01 1.103675000000000068e+02 1.706154999999999973e+03
7.699999999999999900e-02 7.840194999999999803e-01 2.573550000000000182e+01 1.116604999999999990e+02 1.706535000000000082e+03
7.799999999999999989e-02 7.843044999999999600e-01 2.562424999999999997e+01 1.128054999999999950e+02 1.706880000000000109e+03
7.900000000000000078e-02 7.845509999999999984e-01 2.543860000000000099e+01 1.137955000000000041e+02 1.707175000000000182e+03
8.000000000000000167e-02 7.847595000000000542e-01 2.518054999999999666e+01 1.146285000000000025e+02 1.707434999999999945e+03
8.100000000000000255e-02 7.849289999999999878e-01 2.485289999999999822e+01 1.153015000000000043e+02 1.707650000000000091e+03
8.200000000000000344e-02 7.850610000000000088e-01 2.445949999999999847e+01 1.158185000000000002e+02 1.707825000000000045e+03
8.300000000000000433e-02 7.851555000000000062e-01 2.400509999999999877e+01 1.161825000000000045e+02 1.707960000000000036e+03
8.400000000000000522e-02 7.852155000000000662e-01 2.349535000000000196e+01 1.164020000000000010e+02 1.708050000000000182e+03
8.500000000000000611e-02 7.852430000000000243e-01 2.293704999999999927e+01 1.164855000000000018e+02 1.708110000000000127e+03
8.600000000000000699e-02 7.852414999999999257e-01 2.233780000000000143e+01 1.164454999999999956e+02 1.708130000000000109e+03
8.700000000000000788e-02 7.852135000000000087e-01 2.170604999999999762e+01 1.162955000000000041e+02 1.708115000000000009e+03
8.800000000000000877e-02 7.851639999999999731e-01 2.105105000000000004e+01 1.160515000000000043e+02 1.708079999999999927e+03
8.899999999999999578e-02 7.850969999999999338e-01 2.038204999999999956e+01 1.157309999999999945e+02 1.708014999999999873e+03
8.999999999999999667e-02 7.850169999999999648e-01 1.970864999999999867e+01 1.153509999999999991e+02 1.707934999999999945e+03
9.099999999999999756e-02 7.849275000000000002e-01 1.903964999999999819e+01 1.149295000000000044e+02 1.707835000000000036e+03
9.199999999999999845e-02 7.848334999999999617e-01 1.838319999999999865e+01 1.144830000000000041e+02 1.707724999999999909e+03
9.299999999999999933e-02 7.847370000000000179e-01 1.774605000000000032e+01 1.140259999999999962e+02 1.707609999999999900e+03
9.400000000000000022e-02 7.846410000000000329e-01 1.713360000000000127e+01 1.135709999999999980e+02 1.707490000000000009e+03
9.500000000000000111e-02 7.845480000000000231e-01 1.654949999999999832e+01 1.131290000000000049e+02 1.707375000000000000e+03
9.600000000000000200e-02 7.844584999999999475e-01 1.599544999999999817e+01 1.127049999999999983e+02 1.707264999999999873e+03
9.700000000000000289e-02 7.843735000000000568e-01 1.547160000000000046e+01 1.123040000000000020e+02 1.707150000000000091e+03
9.800000000000000377e-02 7.842919999999999892e-01 1.497630000000000194e+01 1.119250000000000114e+02 1.707039999999999964e+03
9.900000000000000466e-02 7.842134999999998968e-01 1.450670000000000037e+01 1.115665000000000049e+02 1.706944999999999936e+03
1.000000000000000056e-01 7.841365000000000141e-01 1.405869999999999997e+01 1.112229999999999990e+02 1.706840000000000146e+03
1.010000000000000064e-01 7.840584999999999916e-01 1.362740000000000151e+01 1.108889999999999958e+02 1.706750000000000000e+03
1.020000000000000073e-01 7.839784999999999116e-01 1.320730000000000004e+01 1.105559999999999974e+02 1.706650000000000091e+03
1.030000000000000082e-01 7.838939999999999797e-01 1.279298999999999964e+01 1.102160000000000082e+02 1.706550000000000182e+03
1.040000000000000091e-01 7.838039999999999452e-01 1.237876499999999957e+01 1.098609999999999900e+02 1.706454999999999927e+03
1.050000000000000100e-01 7.837054999999999438e-01 1.195951499999999967e+01 1.094825000000000017e+02 1.706345000000000027e+03
1.059999999999999970e-01 7.835980000000000167e-01 1.153080500000000086e+01 1.090750000000000028e+02 1.706240000000000009e+03
1.069999999999999979e-01 7.834805000000000241e-01 1.108886500000000019e+01 1.086334999999999980e+02 1.706115000000000009e+03
1.079999999999999988e-01 7.833525000000000071e-01 1.063121999999999900e+01 1.081539999999999964e+02 1.705990000000000009e+03
1.089999999999999997e-01 7.832149999999999945e-01 1.015648999999999980e+01 1.076364999999999981e+02 1.705855000000000018e+03
1.100000000000000006e-01 7.830679999999999863e-01 9.664509999999999934e+00 1.070819999999999936e+02 1.705710000000000036e+03
1.110000000000000014e-01 7.829129999999999701e-01 9.156570000000000320e+00 1.064954999999999927e+02 1.705555000000000064e+03
1.120000000000000023e-01 7.827520000000000033e-01 8.635204999999999131e+00 1.058820000000000050e+02 1.705389999999999873e+03
1.130000000000000032e-01 7.825885000000000202e-01 8.104214999999999947e+00 1.052505000000000024e+02 1.705224999999999909e+03
1.140000000000000041e-01 7.824240000000000084e-01 7.568324999999999747e+00 1.046119999999999948e+02 1.705059999999999945e+03
1.150000000000000050e-01 7.822620000000000129e-01 7.033105000000000828e+00 1.039770000000000039e+02 1.704894999999999982e+03
1.160000000000000059e-01 7.821065000000000378e-01 6.504704999999999515e+00 1.033592500000000030e+02 1.704724999999999909e+03
1.170000000000000068e-01 7.819599999999999884e-01 5.989514999999999922e+00 1.027707000000000050e+02 1.704569999999999936e+03
1.180000000000000077e-01 7.818260000000000209e-01 5.493890000000000384e+00 1.022245000000000061e+02 1.704420000000000073e+03
1.190000000000000085e-01 7.817064999999999708e-01 5.023844999999999672e+00 1.017326000000000050e+02 1.704279999999999973e+03
1.200000000000000094e-01 7.816054999999999531e-01 4.584785000000000110e+00 1.013046499999999952e+02 1.704159999999999854e+03
1.209999999999999964e-01 7.815229999999999677e-01 4.181219999999999715e+00 1.009496000000000038e+02 1.704054999999999836e+03
1.219999999999999973e-01 7.814619999999999900e-01 3.816629999999999967e+00 1.006741499999999974e+02 1.703970000000000027e+03
1.229999999999999982e-01 7.814214999999999911e-01 3.493265000000000065e+00 1.004805499999999938e+02 1.703909999999999854e+03
1.239999999999999991e-01 7.814024999999999999e-01 3.212105000000000210e+00 1.003705500000000086e+02 1.703865000000000009e+03
1.250000000000000000e-01 7.814035000000000286e-01 2.972870000000000346e+00 1.003422999999999945e+02 1.703845000000000027e+03
1.260000000000000009e-01 7.814229999999999787e-01 2.774074999999999847e+00 1.003915000000000077e+02 1.703844999999999800e+03
1.270000000000000018e-01 7.814590000000000147e-01 2.613170000000000215e+00 1.005106000000000108e+02 1.703860000000000127e+03
1.280000000000000027e-01 7.815099999999999270e-01 2.486740000000000173e+00 1.006922500000000014e+02 1.703900000000000091e+03
1.290000000000000036e-01 7.815719999999999335e-01 2.390674999999999883e+00 1.009254999999999995e+02 1.703945000000000164e+03
1.300000000000000044e-01 7.816434999999999356e-01 2.320434999999999803e+00 1.012005000000000052e+02 1.704005000000000109e+03
1.310000000000000053e-01 7.817209999999999992e-01 2.271240000000000148e+00 1.015049999999999955e+02 1.704075000000000045e+03
1.320000000000000062e-01 7.818024999999999558e-01 2.238300000000000178e+00 1.018290000000000077e+02 1.704154999999999973e+03
1.330000000000000071e-01 7.818849999999999412e-01 2.216965000000000074e+00 1.021620000000000061e+02 1.704235000000000127e+03
1.340000000000000080e-01 7.819659999999999389e-01 2.202885000000000204e+00 1.024934999999999974e+02 1.704319999999999936e+03
1.350000000000000089e-01 7.820439999999999614e-01 2.192110000000000003e+00 1.028155000000000001e+02 1.704405000000000200e+03
1.360000000000000098e-01 7.821175000000000210e-01 2.181165000000000020e+00 1.031204999999999927e+02 1.704485000000000127e+03
1.370000000000000107e-01 7.821860000000000479e-01 2.167089999999999961e+00 1.034034999999999940e+02 1.704559999999999945e+03
1.380000000000000115e-01 7.822465000000000668e-01 2.147469999999999768e+00 1.036589999999999918e+02 1.704625000000000000e+03
1.390000000000000124e-01 7.822999999999999954e-01 2.120435000000000070e+00 1.038840000000000003e+02 1.704694999999999936e+03
1.400000000000000133e-01 7.823455000000000270e-01 2.084640000000000271e+00 1.040769999999999982e+02 1.704744999999999891e+03
1.410000000000000142e-01 7.823830000000000506e-01 2.039245000000000196e+00 1.042369999999999948e+02 1.704795000000000073e+03
1.420000000000000151e-01 7.824130000000000251e-01 1.983880000000000088e+00 1.043635000000000019e+02 1.704835000000000036e+03
1.430000000000000160e-01 7.824355000000000615e-01 1.918590000000000018e+00 1.044579999999999984e+02 1.704860000000000127e+03
1.440000000000000169e-01 7.824510000000000076e-01 1.843795000000000073e+00 1.045219999999999914e+02 1.704885000000000218e+03
1.450000000000000178e-01 7.824594999999999745e-01 1.760215000000000085e+00 1.045569999999999879e+02 1.704900000000000091e+03
1.459999999999999909e-01 7.824625000000000608e-01 1.668795000000000028e+00 1.045660000000000025e+02 1.704909999999999854e+03
1.469999999999999918e-01 7.824594999999999745e-01 1.570640000000000036e+00 1.045510000000000019e+02 1.704909999999999854e+03
1.479999999999999927e-01 7.824524999999999952e-01 1.466940000000000133e+00 1.045155000000000030e+02 1.704904999999999973e+03
1.489999999999999936e-01 7.824409999999999421e-01 1.358889500000000083e+00 1.044604999999999961e+02 1.704900000000000091e+03
1.499999999999999944e-01 7.824254999999999960e-01 1.247651000000000066e+00 1.043900000000000006e+02 1.704880000000000109e+03
1.509999999999999953e-01 7.824070000000000746e-01 1.134258500000000058e+00 1.043040000000000020e+02 1.704865000000000009e+03
1.519999999999999962e-01 7.823849999999999971e-01 1.019620499999999819e+00 1.042044999999999959e+02 1.704840000000000146e+03
1.529999999999999971e-01 7.823605000000000143e-01 9.044650000000000745e-01 1.040925000000000011e+02 1.704815000000000055e+03
1.539999999999999980e-01 7.823325000000000973e-01 7.893560000000000576e-01 1.039685000000000059e+02 1.704780000000000200e+03
1.549999999999999989e-01 7.823020000000000529e-01 6.746944999999999748e-01 1.038325000000000102e+02 1.704744999999999891e+03
1.559999999999999998e-01 7.822679999999999634e-01 5.607308500000000029e-01 1.036850000000000023e+02 1.704710000000000036e+03
1.570000000000000007e-01 7.822305000000000508e-01 4.476210000000000466e-01 1.035245000000000033e+02 1.704670000000000073e+03
1.580000000000000016e-01 7.821899999999999409e-01 3.354695000000000316e-01 1.033509999999999991e+02 1.704625000000000000e+03
1.590000000000000024e-01 7.821460000000000079e-01 2.243729999999999891e-01 1.031640000000000015e+02 1.704579999999999927e+03
