# t [s], A [cm^2], U [cm/s], P [cPa], c [cm/s]
1.000000000000000021e-03 4.711674999999999613e-01 5.511599999999998445e-03 9.531950000000000500e+01 1.634710000000000036e+03
2.000000000000000042e-03 4.711589999999999945e-01 -4.321499999999999821e-03 9.529099999999999682e+01 1.634704999999999927e+03
3.000000000000000062e-03 4.711914999999999853e-01 7.218779999999999641e-02 9.537225000000000819e+01 1.634724999999999909e+03
4.000000000000000083e-03 4.712304999999999966e-01 1.721972499999999962e-01 9.549779999999999802e+01 1.634760000000000218e+03
5.000000000000000104e-03 4.712210000000000010e-01 1.711110000000000131e-01 9.547950000000000159e+01 1.634755000000000109e+03
6.000000000000000125e-03 4.711745000000000516e-01 8.105249999999999955e-02 9.529099999999999682e+01 1.634714999999999918e+03
7.000000000000000146e-03 4.711359999999999992e-01 9.379999999999943938e-04 9.505155000000000598e+01 1.634654999999999973e+03
8.000000000000000167e-03 4.710860000000000047e-01 -1.142750000000000710e-01 9.472939999999999827e+01 1.634574999999999818e+03
9.000000000000001055e-03 4.709999999999999742e-01 -3.332249999999999934e-01 9.423014999999999475e+01 1.634454999999999927e+03
1.000000000000000194e-02 4.708735000000000559e-01 -6.622050000000000436e-01 9.351439999999999486e+01 1.634284999999999854e+03
1.099999999999999936e-02 4.706980000000000053e-01 -1.117065000000000197e+00 9.252965000000000373e+01 1.634045000000000073e+03
1.200000000000000025e-02 4.704604999999999482e-01 -1.717675000000000063e+00 9.121119999999999095e+01 1.633724999999999909e+03
1.300000000000000114e-02 4.701715000000000200e-01 -2.420199999999999907e+00 8.957189999999999941e+01 1.633315000000000055e+03
1.400000000000000203e-02 4.698710000000000386e-01 -3.102400000000000269e+00 8.774459999999999127e+01 1.632845000000000027e+03
1.499999999999999944e-02 4.696039999999999659e-01 -3.621953500000000048e+00 8.592574999999999363e+01 1.632360000000000127e+03
1.600000000000000033e-02 4.693959999999999799e-01 -3.884546600000000183e+00 8.428020000000000778e+01 1.631894999999999982e+03
1.700000000000000122e-02 4.692454999999999821e-01 -3.873146999999999895e+00 8.288085000000000946e+01 1.631474999999999909e+03
1.800000000000000211e-02 4.691290000000000182e-01 -3.636855000000000171e+00 8.170044999999998936e+01 1.631099999999999909e+03
1.900000000000000300e-02 4.690145000000000008e-01 -3.258648499999999615e+00 8.064285000000000991e+01 1.630744999999999891e+03
2.000000000000000042e-02 4.688749999999999862e-01 -2.820157000000000025e+00 7.959005000000000507e+01 1.630394999999999982e+03
2.100000000000000130e-02 4.686979999999999480e-01 -2.374907500000000393e+00 7.844724999999999682e+01 1.630019999999999982e+03
2.200000000000000219e-02 4.684835000000000527e-01 -1.936420000000000030e+00 7.717239999999999611e+01 1.629619999999999891e+03
2.299999999999999961e-02 4.682459999999999956e-01 -1.483295000000000030e+00 7.578225000000000477e+01 1.629194999999999936e+03
2.400000000000000050e-02 4.680044999999999344e-01 -9.775249999999997552e-01 7.433490000000000464e+01 1.628750000000000000e+03
2.500000000000000139e-02 4.677734999999999532e-01 -3.874349999999999739e-01 7.289889999999999759e+01 1.628305000000000064e+03
2.600000000000000228e-02 4.675589999999999469e-01 2.940299999999997915e-01 7.152240000000000464e+01 1.627869999999999891e+03
2.700000000000000316e-02 4.673570000000000224e-01 1.041139999999999954e+00 7.021254999999999313e+01 1.627445000000000164e+03
2.800000000000000058e-02 4.671514999999999973e-01 1.798080000000000123e+00 6.892955000000000609e+01 1.627029999999999973e+03
2.900000000000000147e-02 4.669225000000000181e-01 2.490210000000000257e+00 6.759524999999999295e+01 1.626610000000000127e+03
3.000000000000000236e-02 4.666504999999999681e-01 3.040480000000000516e+00 6.611315000000000452e+01 1.626150000000000091e+03
3.099999999999999978e-02 4.663209999999999855e-01 3.387139999999999596e+00 6.439395000000000380e+01 1.625644999999999982e+03
3.200000000000000067e-02 4.659300000000000108e-01 3.498359999999999914e+00 6.238164999999999338e+01 1.625069999999999936e+03
3.300000000000000155e-02 4.654834999999999945e-01 3.379505000000000425e+00 6.007175000000000153e+01 1.624420000000000073e+03
3.400000000000000244e-02 4.650009999999999977e-01 3.071274999999999977e+00 5.751624999999999943e+01 1.623715000000000146e+03
3.500000000000000333e-02 4.645070000000000032e-01 2.638800000000000257e+00 5.481539999999999679e+01 1.622969999999999800e+03
3.600000000000000422e-02 4.640274999999999817e-01 2.157170000000000254e+00 5.209855000000000302e+01 1.622204999999999927e+03
3.700000000000000511e-02 4.635865000000000125e-01 1.697445000000000537e+00 4.950225000000000364e+01 1.621470000000000027e+03
3.799999999999999906e-02 4.632020000000000026e-01 1.316880000000000273e+00 4.715090000000000003e+01 1.620784999999999854e+03
3.899999999999999994e-02 4.628854999999999498e-01 1.054304999999999826e+00 4.514359999999999928e+01 1.620180000000000064e+03
4.000000000000000083e-02 4.626439999999999442e-01 9.306849999999999845e-01 4.354784999999999684e+01 1.619679999999999836e+03
4.100000000000000172e-02 4.624765000000000126e-01 9.527699999999998948e-01 4.240014999999999645e+01 1.619289999999999964e+03
4.200000000000000261e-02 4.623825000000000296e-01 1.118540000000000090e+00 4.171105000000000018e+01 1.619029999999999973e+03
4.300000000000000350e-02 4.623570000000000180e-01 1.422939500000000024e+00 4.147334999999999638e+01 1.618889999999999873e+03
4.400000000000000439e-02 4.623984999999999901e-01 1.862315000000000165e+00 4.167040000000000077e+01 1.618875000000000000e+03
4.499999999999999833e-02 4.625035000000000118e-01 2.436918000000000362e+00 4.228325000000000244e+01 1.618980000000000018e+03
4.599999999999999922e-02 4.626719999999999722e-01 3.150975499999999929e+00 4.329495000000000005e+01 1.619200000000000045e+03
4.700000000000000011e-02 4.629024999999999945e-01 4.010699999999999932e+00 4.469115000000000038e+01 1.619529999999999973e+03
4.800000000000000100e-02 4.631949999999999679e-01 5.021122499999999711e+00 4.645820000000000505e+01 1.619974999999999909e+03
4.900000000000000189e-02 4.635460000000000136e-01 6.182878500000000166e+00 4.857965000000000089e+01 1.620525000000000091e+03
5.000000000000000278e-02 4.639520000000000310e-01 7.489697000000000493e+00 5.103269999999999840e+01 1.621164999999999964e+03
5.100000000000000366e-02 4.644064999999999999e-01 8.927424999999999500e+00 5.378584999999999638e+01 1.621900000000000091e+03
5.200000000000000455e-02 4.649015000000000231e-01 1.047449999999999903e+01 5.679769999999999897e+01 1.622710000000000036e+03
5.300000000000000544e-02 4.654269999999999796e-01 1.210348499999999916e+01 6.001859999999999218e+01 1.623589999999999918e+03
5.399999999999999939e-02 4.659729999999999706e-01 1.378357999999999883e+01 6.339300000000000068e+01 1.624525000000000091e+03
5.500000000000000028e-02 4.665300000000000002e-01 1.548336000000000112e+01 6.686345000000000027e+01 1.625494999999999891e+03
5.600000000000000117e-02 4.670894999999999908e-01 1.717336500000000044e+01 7.037450000000001182e+01 1.626490000000000009e+03
5.700000000000000205e-02 4.676430000000000309e-01 1.882789999999999964e+01 7.387630000000000052e+01 1.627494999999999891e+03
5.800000000000000294e-02 4.681854999999999767e-01 2.042649999999999721e+01 7.732765000000000555e+01 1.628494999999999891e+03
5.900000000000000383e-02 4.687140000000000195e-01 2.195435000000000159e+01 8.069769999999999754e+01 1.629485000000000127e+03
6.000000000000000472e-02 4.692255000000000176e-01 2.340214999999999890e+01 8.396639999999999304e+01 1.630449999999999818e+03
6.099999999999999867e-02 4.697204999999999853e-01 2.476514999999999844e+01 8.712399999999999523e+01 1.631394999999999982e+03
6.199999999999999956e-02 4.702000000000000068e-01 2.604285000000000139e+01 9.016964999999999009e+01 1.632315000000000055e+03
6.300000000000000044e-02 4.706650000000000000e-01 2.723729999999999762e+01 9.310949999999999704e+01 1.633204999999999927e+03
6.400000000000000133e-02 4.711184999999999956e-01 2.835255000000000081e+01 9.595574999999999477e+01 1.634075000000000045e+03
6.500000000000000222e-02 4.715624999999999956e-01 2.939385000000000048e+01 9.872185000000000343e+01 1.634920000000000073e+03
6.600000000000000311e-02 4.719990000000000574e-01 3.036650000000000205e+01 1.014237499999999983e+02 1.635744999999999891e+03
6.700000000000000400e-02 4.724305000000000310e-01 3.127554999999999907e+01 1.040759500000000060e+02 1.636555000000000064e+03
6.800000000000000488e-02 4.728580000000000005e-01 3.212500000000000000e+01 1.066899999999999977e+02 1.637355000000000018e+03
6.900000000000000577e-02 4.732824999999999394e-01 3.291750000000000398e+01 1.092740000000000009e+02 1.638144999999999982e+03
7.000000000000000666e-02 4.737040000000000139e-01 3.365395000000000181e+01 1.118305000000000007e+02 1.638924999999999955e+03
7.100000000000000755e-02 4.741214999999999735e-01 3.433335000000000292e+01 1.143580000000000041e+02 1.639704999999999927e+03
7.200000000000000844e-02 4.745320000000000649e-01 3.495315000000000083e+01 1.168489999999999895e+02 1.640464999999999918e+03
7.300000000000000933e-02 4.749349999999999961e-01 3.550919999999999987e+01 1.192914999999999992e+02 1.641215000000000146e+03
7.399999999999999634e-02 4.753264999999999851e-01 3.599644999999999584e+01 1.216694999999999993e+02 1.641950000000000045e+03
7.499999999999999722e-02 4.757035000000000013e-01 3.640925000000000011e+01 1.239654999999999916e+02 1.642659999999999854e+03
7.599999999999999811e-02 4.760624999999999440e-01 3.674219999999999686e+01 1.261589999999999918e+02 1.643349999999999909e+03
7.699999999999999900e-02 4.764015000000000333e-01 3.699040000000000106e+01 1.282325000000000159e+02 1.644000000000000000e+03
7.799999999999999989e-02 4.767170000000000019e-01 3.714994999999999692e+01 1.301670000000000016e+02 1.644605000000000018e+03
7.900000000000000078e-02 4.770074999999999732e-01 3.721814999999999429e+01 1.319474999999999909e+02 1.645175000000000182e+03
8.000000000000000167e-02 4.772699999999999720e-01 3.719344999999999857e+01 1.335620000000000118e+02 1.645704999999999927e+03
8.100000000000000255e-02 4.775049999999999573e-01 3.707600000000000051e+01 1.350014999999999930e+02 1.646174999999999955e+03
8.200000000000000344e-02 4.777105000000000379e-01 3.686710000000000065e+01 1.362610000000000241e+02 1.646595000000000027e+03
8.300000000000000433e-02 4.778875000000000206e-01 3.656954999999999956e+01 1.373385000000000105e+02 1.646965000000000146e+03
8.400000000000000522e-02 4.780355000000000021e-01 3.618730000000000047e+01 1.382350000000000136e+02 1.647279999999999973e+03
8.500000000000000611e-02 4.781560000000000255e-01 3.572560000000000002e+01 1.389569999999999936e+02 1.647539999999999964e+03
8.600000000000000699e-02 4.782505000000000228e-01 3.519105000000000416e+01 1.395109999999999957e+02 1.647755000000000109e+03
8.700000000000000788e-02 4.783205000000000373e-01 3.459125000000000227e+01 1.399089999999999918e+02 1.647920000000000073e+03
8.800000000000000877e-02 4.783685000000000298e-01 3.393484999999999729e+01 1.401634999999999991e+02 1.648039999999999964e+03
8.899999999999999578e-02 4.783965000000000023e-01 3.323154999999999859e+01 1.402905000000000086e+02 1.648119999999999891e+03
8.999999999999999667e-02 4.784074999999999855e-01 3.249150000000000205e+01 1.403070000000000164e+02 1.648159999999999854e+03
9.099999999999999756e-02 4.784049999999999692e-01 3.172530000000000072e+01 1.402309999999999945e+02 1.648170000000000073e+03
9.199999999999999845e-02 4.783910000000000107e-01 3.094354999999999833e+01 1.400804999999999723e+02 1.648160000000000082e+03
9.299999999999999933e-02 4.783695000000000030e-01 3.015644999999999953e+01 1.398745000000000118e+02 1.648125000000000000e+03
9.400000000000000022e-02 4.783420000000000449e-01 2.937349999999999994e+01 1.396304999999999836e+02 1.648069999999999936e+03
9.500000000000000111e-02 4.783115000000000006e-01 2.860285000000000366e+01 1.393629999999999995e+02 1.648005000000000109e+03
9.600000000000000200e-02 4.782800000000000384e-01 2.785135000000000005e+01 1.390869999999999891e+02 1.647934999999999945e+03
9.700000000000000289e-02 4.782480000000000064e-01 2.712389999999999901e+01 1.388114999999999952e+02 1.647865000000000009e+03
9.800000000000000377e-02 4.782170000000000032e-01 2.642374999999999829e+01 1.385439999999999827e+02 1.647784999999999854e+03
9.900000000000000466e-02 4.781870000000000287e-01 2.575209999999999866e+01 1.382889999999999873e+02 1.647714999999999918e+03
1.000000000000000056e-01 4.781585000000000418e-01 2.510845000000000127e+01 1.380455000000000041e+02 1.647639999999999873e+03
1.010000000000000064e-01 4.781300000000000550e-01 2.449074999999999847e+01 1.378125000000000000e+02 1.647565000000000055e+03
1.020000000000000073e-01 4.781009999999999982e-01 2.389549999999999841e+01 1.375844999999999914e+02 1.647500000000000000e+03
1.030000000000000082e-01 4.780695000000000361e-01 2.331824999999999903e+01 1.373539999999999850e+02 1.647420000000000073e+03
1.040000000000000091e-01 4.780349999999999877e-01 2.275370000000000203e+01 1.371125000000000114e+02 1.647349999999999909e+03
1.050000000000000100e-01 4.779950000000000032e-01 2.219650000000000034e+01 1.368514999999999873e+02 1.647269999999999982e+03
1.059999999999999970e-01 4.779495000000000271e-01 2.164085000000000036e+01 1.365600000000000023e+02 1.647184999999999945e+03
1.069999999999999979e-01 4.778959999999999875e-01 2.108140000000000214e+01 1.362305000000000064e+02 1.647085000000000036e+03
1.079999999999999988e-01 4.778330000000000077e-01 2.051340000000000074e+01 1.358539999999999850e+02 1.646969999999999800e+03
1.089999999999999997e-01 4.777609999999999912e-01 1.993264999999999887e+01 1.354244999999999948e+02 1.646849999999999909e+03
1.100000000000000006e-01 4.776785000000000059e-01 1.933599999999999852e+01 1.349370000000000118e+02 1.646710000000000036e+03
1.110000000000000014e-01 4.775859999999999550e-01 1.872149999999999892e+01 1.343894999999999982e+02 1.646549999999999955e+03
1.120000000000000023e-01 4.774829999999999908e-01 1.808845000000000169e+01 1.337810000000000059e+02 1.646380000000000109e+03
1.130000000000000032e-01 4.773709999999999898e-01 1.743730000000000047e+01 1.331154999999999973e+02 1.646190000000000055e+03
1.140000000000000041e-01 4.772505000000000219e-01 1.677009999999999934e+01 1.323969999999999914e+02 1.645985000000000127e+03
1.150000000000000050e-01 4.771230000000000193e-01 1.609009999999999962e+01 1.316324999999999932e+02 1.645769999999999982e+03
1.160000000000000059e-01 4.769904999999999839e-01 1.540155000000000030e+01 1.308319999999999936e+02 1.645539999999999964e+03
1.170000000000000068e-01 4.768550000000000288e-01 1.470999499999999927e+01 1.300070000000000050e+02 1.645299999999999955e+03
1.180000000000000077e-01 4.767175000000000162e-01 1.402143500000000031e+01 1.291705000000000041e+02 1.645054999999999836e+03
1.190000000000000085e-01 4.765825000000000200e-01 1.334261499999999856e+01 1.283350000000000080e+02 1.644815000000000055e+03
1.200000000000000094e-01 4.764504999999999990e-01 1.268042000000000158e+01 1.275144999999999982e+02 1.644569999999999936e+03
1.209999999999999964e-01 4.763249999999999984e-01 1.204161500000000018e+01 1.267235000000000014e+02 1.644335000000000036e+03
1.219999999999999973e-01 4.762064999999999770e-01 1.143270000000000053e+01 1.259739999999999895e+02 1.644110000000000127e+03
1.229999999999999982e-01 4.760975000000000068e-01 1.085955500000000029e+01 1.252784999999999940e+02 1.643894999999999982e+03
1.239999999999999991e-01 4.759995000000000198e-01 1.032712500000000055e+01 1.246459999999999866e+02 1.643700000000000045e+03
1.250000000000000000e-01 4.759140000000000592e-01 9.839445000000001329e+00 1.240845000000000056e+02 1.643519999999999982e+03
1.260000000000000009e-01 4.758404999999999996e-01 9.399214999999999876e+00 1.235985000000000014e+02 1.643365000000000009e+03
1.270000000000000018e-01 4.757800000000000362e-01 9.008005000000000706e+00 1.231920000000000073e+02 1.643224999999999909e+03
1.280000000000000027e-01 4.757325000000000026e-01 8.665995000000000559e+00 1.228640000000000043e+02 1.643110000000000127e+03
1.290000000000000036e-01 4.756969999999999810e-01 8.372320000000000206e+00 1.226124999999999972e+02 1.643019999999999982e+03
1.300000000000000044e-01 4.756730000000000125e-01 8.124880000000000990e+00 1.224334999999999951e+02 1.642949999999999818e+03
1.310000000000000053e-01 4.756579999999999697e-01 7.920655000000000001e+00 1.223209999999999980e+02 1.642900000000000091e+03
1.320000000000000062e-01 4.756519999999999637e-01 7.755885000000001028e+00 1.222665000000000077e+02 1.642860000000000127e+03
1.330000000000000071e-01 4.756534999999999513e-01 7.626305000000000334e+00 1.222614999999999981e+02 1.642844999999999800e+03
1.340000000000000080e-01 4.756605000000000416e-01 7.527305000000000135e+00 1.222969999999999970e+02 1.642840000000000146e+03
1.350000000000000089e-01 4.756719999999999837e-01 7.454179999999999140e+00 1.223634999999999877e+02 1.642845000000000027e+03
1.360000000000000098e-01 4.756865000000000121e-01 7.402309999999999945e+00 1.224525000000000006e+02 1.642860000000000127e+03
1.370000000000000107e-01 4.757024999999999726e-01 7.367319999999999425e+00 1.225559999999999974e+02 1.642880000000000109e+03
1.380000000000000115e-01 4.757190000000000030e-01 7.345159999999999911e+00 1.226664999999999992e+02 1.642900000000000091e+03
1.390000000000000124e-01 4.757350000000000190e-01 7.332235000000000724e+00 1.227770000000000010e+02 1.642930000000000064e+03
1.400000000000000133e-01 4.757504999999999651e-01 7.325414999999999566e+00 1.228840000000000003e+02 1.642950000000000045e+03
1.410000000000000142e-01 4.757644999999999791e-01 7.322045000000000137e+00 1.229840000000000089e+02 1.642980000000000018e+03
1.420000000000000151e-01 4.757770000000000055e-01 7.319980000000000153e+00 1.230730000000000075e+02 1.643005000000000109e+03
1.430000000000000160e-01 4.757870000000000155e-01 7.317515000000000214e+00 1.231504999999999939e+02 1.643025000000000091e+03
1.440000000000000169e-01 4.757959999999999967e-01 7.313369999999999038e+00 1.232164999999999964e+02 1.643039999999999964e+03
1.450000000000000178e-01 4.758029999999999760e-01 7.306664999999999743e+00 1.232694999999999936e+02 1.643054999999999836e+03
1.459999999999999909e-01 4.758080000000000087e-01 7.296854999999999869e+00 1.233119999999999976e+02 1.643065000000000055e+03
1.469999999999999918e-01 4.758120000000000127e-01 7.283709999999999241e+00 1.233439999999999941e+02 1.643079999999999927e+03
1.479999999999999927e-01 4.758145000000000291e-01 7.267255000000000464e+00 1.233679999999999950e+02 1.643090000000000146e+03
1.489999999999999936e-01 4.758160000000000167e-01 7.247724999999999085e+00 1.233849999999999909e+02 1.643095000000000027e+03
1.499999999999999944e-01 4.758180000000000187e-01 7.225519999999999499e+00 1.233970000000000056e+02 1.643095000000000027e+03
1.509999999999999953e-01 4.758189999999999920e-01 7.201150000000000162e+00 1.234060000000000059e+02 1.643105000000000018e+03
1.519999999999999962e-01 4.758195000000000063e-01 7.175164999999999793e+00 1.234129999999999967e+02 1.643105000000000018e+03
1.529999999999999971e-01 4.758209999999999940e-01 7.148114999999999775e+00 1.234205000000000041e+02 1.643110000000000127e+03
1.539999999999999980e-01 4.758225000000000371e-01 7.120490000000000208e+00 1.234279999999999973e+02 1.643115000000000009e+03
1.549999999999999989e-01 4.758244999999999836e-01 7.092670000000000030e+00 1.234375000000000000e+02 1.643115000000000009e+03
1.559999999999999998e-01 4.758264999999999856e-01 7.064890000000000114e+00 1.234480000000000075e+02 1.643119999999999891e+03
1.570000000000000007e-01 4.758290000000000020e-01 7.037230000000000985e+00 1.234609999999999985e+02 1.643125000000000000e+03
1.580000000000000016e-01 4.758314999999999628e-01 7.009604999999999642e+00 1.234740000000000038e+02 1.643130000000000109e+03
1.590000000000000024e-01 4.758344999999999936e-01 6.981785000000000352e+00 1.234879999999999995e+02 1.643130000000000109e+03
