# t [s], A [cm^2], U [cm/s], P [cPa], c [cm/s]
1.000000000000000021e-03 6.636769999999999614e-01 6.492100000000000648e-03 9.746359999999999957e+01 1.696764999999999873e+03
2.000000000000000042e-03 6.636644999999999905e-01 -4.486910000000000204e-03 9.742929999999999779e+01 1.696755000000000109e+03
3.000000000000000062e-03 6.637195000000000178e-01 9.445294999999997998e-02 9.754019999999999868e+01 1.696779999999999973e+03
4.000000000000000083e-03 6.637690000000000534e-01 1.970275249999999811e-01 9.766894999999999527e+01 1.696805000000000064e+03
5.000000000000000104e-03 6.637349999999999639e-01 1.653136300000000170e-01 9.759059999999999491e+01 1.696795000000000073e+03
6.000000000000000125e-03 6.636604999999999865e-01 5.834549999999999459e-02 9.733565000000000111e+01 1.696740000000000009e+03
7.000000000000000146e-03 6.636009999999999964e-01 -3.160099999999999021e-02 9.703695000000000448e+01 1.696675000000000182e+03
8.000000000000000167e-03 6.635039999999999827e-01 -2.028949999999999365e-01 9.659174999999999045e+01 1.696585000000000036e+03
9.000000000000001055e-03 6.633424999999999461e-01 -5.089900000000000535e-01 9.590409999999999968e+01 1.696445000000000164e+03
1.000000000000000194e-02 6.631164999999999976e-01 -9.480250000000001176e-01 9.493559999999999377e+01 1.696244999999999891e+03
1.099999999999999936e-02 6.628015000000000434e-01 -1.549405000000000143e+00 9.360585000000000377e+01 1.695970000000000027e+03
1.200000000000000025e-02 6.623904999999999932e-01 -2.310444999999999638e+00 9.186520000000000152e+01 1.695599999999999909e+03
1.300000000000000114e-02 6.619304999999999772e-01 -3.120995000000000186e+00 8.981494999999999607e+01 1.695160000000000082e+03
1.400000000000000203e-02 6.615010000000000057e-01 -3.800726999999999745e+00 8.769254999999999711e+01 1.694684999999999945e+03
1.499999999999999944e-02 6.611635000000000151e-01 -4.199682655000000153e+00 8.574324999999998909e+01 1.694224999999999909e+03
1.600000000000000033e-02 6.609294999999999476e-01 -4.263951999999999742e+00 8.410509999999999309e+01 1.693815000000000055e+03
1.700000000000000122e-02 6.607644999999999769e-01 -4.037279999999999980e+00 8.277250000000000796e+01 1.693454999999999927e+03
1.800000000000000211e-02 6.606155000000000221e-01 -3.621974999999999945e+00 8.162829999999999586e+01 1.693130000000000109e+03
1.900000000000000300e-02 6.604300000000000725e-01 -3.128669999999999618e+00 8.051024999999999920e+01 1.692815000000000055e+03
2.000000000000000042e-02 6.601799999999999891e-01 -2.634590299999999718e+00 7.928064999999999429e+01 1.692474999999999909e+03
2.100000000000000130e-02 6.598659999999999526e-01 -2.162104999999999944e+00 7.787524999999999409e+01 1.692105000000000018e+03
2.200000000000000219e-02 6.595124999999999460e-01 -1.683214999999999906e+00 7.631610000000000582e+01 1.691704999999999927e+03
2.299999999999999961e-02 6.591534999999999478e-01 -1.145795000000000119e+00 7.468574999999999875e+01 1.691284999999999854e+03
2.400000000000000050e-02 6.588175000000000558e-01 -5.076249999999997708e-01 7.307970000000000255e+01 1.690865000000000009e+03
2.500000000000000139e-02 6.585109999999999575e-01 2.372450000000001502e-01 7.155889999999999418e+01 1.690454999999999927e+03
2.600000000000000228e-02 6.582224999999999326e-01 1.048245000000000093e+00 7.012090000000000600e+01 1.690065000000000055e+03
2.700000000000000316e-02 6.579209999999999781e-01 1.844629999999999992e+00 6.869504999999999484e+01 1.689680000000000064e+03
2.800000000000000058e-02 6.575679999999999303e-01 2.524119999999999919e+00 6.716020000000000323e+01 1.689275000000000091e+03
2.900000000000000147e-02 6.571285000000000043e-01 2.988199999999999967e+00 6.537864999999999327e+01 1.688824999999999818e+03
3.000000000000000236e-02 6.565825000000000689e-01 3.167794999999999916e+00 6.323744999999999550e+01 1.688299999999999955e+03
3.099999999999999978e-02 6.559300000000000130e-01 3.041795000000000471e+00 6.068510000000000559e+01 1.687704999999999927e+03
3.200000000000000067e-02 6.551955000000000418e-01 2.642589999999999772e+00 5.775234999999999985e+01 1.687019999999999982e+03
3.300000000000000155e-02 6.544179999999999442e-01 2.046235000000000248e+00 5.454980000000000473e+01 1.686275000000000091e+03
3.400000000000000244e-02 6.536474999999999369e-01 1.352475000000000094e+00 5.124450000000000216e+01 1.685500000000000000e+03
3.500000000000000333e-02 6.529294999999999405e-01 6.623899999999993682e-01 4.802674999999999983e+01 1.684735000000000127e+03
3.600000000000000422e-02 6.522999999999999909e-01 6.096500000000038000e-02 4.507724999999999937e+01 1.684019999999999982e+03
3.700000000000000511e-02 6.517830000000000013e-01 -3.922449999999999548e-01 4.254325000000000045e+01 1.683384999999999991e+03
3.799999999999999906e-02 6.513904999999999834e-01 -6.644649999999998613e-01 4.052604999999999791e+01 1.682855000000000018e+03
3.899999999999999994e-02 6.511234999999999662e-01 -7.451749999999999208e-01 3.907939999999999969e+01 1.682450000000000045e+03
4.000000000000000083e-02 6.509780000000000566e-01 -6.382599999999999385e-01 3.821675000000000466e+01 1.682180000000000064e+03
4.100000000000000172e-02 6.509449999999999958e-01 -3.533855000000000190e-01 3.792334999999999923e+01 1.682039999999999964e+03
4.200000000000000261e-02 6.510184999999999444e-01 1.012460000000000027e-01 3.817005000000000337e+01 1.682029999999999973e+03
4.300000000000000350e-02 6.511930000000000218e-01 7.230100000000000415e-01 3.892504999999999882e+01 1.682144999999999982e+03
4.400000000000000439e-02 6.514659999999999895e-01 1.515260000000000051e+00 4.016015000000000157e+01 1.682380000000000109e+03
4.499999999999999833e-02 6.518349999999999422e-01 2.484455000000000080e+00 4.185275000000000034e+01 1.682724999999999909e+03
4.599999999999999922e-02 6.522985000000000033e-01 3.635380000000000500e+00 4.398199999999999932e+01 1.683179999999999836e+03
4.700000000000000011e-02 6.528514999999999180e-01 4.966454999999999842e+00 4.652349999999999852e+01 1.683735000000000127e+03
4.800000000000000100e-02 6.534860000000000113e-01 6.466291499999999637e+00 4.944374999999999432e+01 1.684389999999999873e+03
4.900000000000000189e-02 6.541890000000000205e-01 8.112803500000000057e+00 5.269674999999999443e+01 1.685130000000000109e+03
5.000000000000000278e-02 6.549465000000000980e-01 9.874290000000000234e+00 5.622375000000000256e+01 1.685940000000000055e+03
5.100000000000000366e-02 6.557405000000000594e-01 1.171244000000000085e+01 5.995564999999999856e+01 1.686809999999999945e+03
5.200000000000000455e-02 6.565549999999999997e-01 1.358616999999999919e+01 6.381770000000000209e+01 1.687714999999999918e+03
5.300000000000000544e-02 6.573719999999999564e-01 1.545543999999999940e+01 6.773579999999999757e+01 1.688650000000000091e+03
5.399999999999999939e-02 6.581789999999999585e-01 1.728499000000000052e+01 7.164180000000000348e+01 1.689594999999999800e+03
5.500000000000000028e-02 6.589659999999999407e-01 1.904629999999999868e+01 7.547894999999999754e+01 1.690534999999999854e+03
5.600000000000000117e-02 6.597264999999999935e-01 2.071880000000000166e+01 7.920459999999999923e+01 1.691454999999999927e+03
5.700000000000000205e-02 6.604565000000000019e-01 2.228994999999999749e+01 8.279175000000000750e+01 1.692349999999999909e+03
5.800000000000000294e-02 6.611564999999999248e-01 2.375434999999999874e+01 8.622849999999999682e+01 1.693220000000000027e+03
5.900000000000000383e-02 6.618285000000000418e-01 2.511234999999999928e+01 8.951625000000001364e+01 1.694055000000000064e+03
6.000000000000000472e-02 6.624769999999999825e-01 2.636874999999999858e+01 9.266755000000000564e+01 1.694859999999999900e+03
6.099999999999999867e-02 6.631070000000000020e-01 2.753150000000000119e+01 9.570220000000000482e+01 1.695639999999999873e+03
6.199999999999999956e-02 6.637229999999999519e-01 2.861010000000000275e+01 9.864470000000000027e+01 1.696404999999999973e+03
6.300000000000000044e-02 6.643315000000000747e-01 2.961495000000000033e+01 1.015220999999999947e+02 1.697144999999999982e+03
6.400000000000000133e-02 6.649365000000000414e-01 3.055595000000000283e+01 1.043588000000000022e+02 1.697875000000000000e+03
6.500000000000000222e-02 6.655425000000000368e-01 3.144170000000000087e+01 1.071775000000000091e+02 1.698599999999999909e+03
6.600000000000000311e-02 6.661509999999999376e-01 3.227875000000000227e+01 1.099935000000000116e+02 1.699319999999999936e+03
6.700000000000000400e-02 6.667634999999999534e-01 3.307065000000000055e+01 1.128160000000000025e+02 1.700045000000000073e+03
6.800000000000000488e-02 6.673774999999999569e-01 3.381784999999999997e+01 1.156449999999999960e+02 1.700769999999999982e+03
6.900000000000000577e-02 6.679915000000000713e-01 3.451760000000000161e+01 1.184705000000000013e+02 1.701490000000000009e+03
7.000000000000000666e-02 6.686000000000000831e-01 3.516429999999999723e+01 1.212770000000000010e+02 1.702210000000000036e+03
7.100000000000000755e-02 6.691979999999999595e-01 3.575025000000000119e+01 1.240414999999999992e+02 1.702920000000000073e+03
7.200000000000000844e-02 6.697785000000000544e-01 3.626654999999999518e+01 1.267365000000000066e+02 1.703610000000000127e+03
7.300000000000000933e-02 6.703349999999999032e-01 3.670385000000000275e+01 1.293319999999999936e+02 1.704284999999999854e+03
7.399999999999999634e-02 6.708619999999999584e-01 3.705365000000000464e+01 1.317984999999999900e+02 1.704924999999999955e+03
7.499999999999999722e-02 6.713534999999999364e-01 3.730835000000000434e+01 1.341080000000000041e+02 1.705535000000000082e+03
7.599999999999999811e-02 6.718049999999999855e-01 3.746219999999999573e+01 1.362375000000000114e+02 1.706099999999999909e+03
7.699999999999999900e-02 6.722139999999999782e-01 3.751149999999999807e+01 1.381670000000000016e+02 1.706619999999999891e+03
7.799999999999999989e-02 6.725775000000000503e-01 3.745449999999999591e+01 1.398840000000000146e+02 1.707085000000000036e+03
7.900000000000000078e-02 6.728939999999999921e-01 3.729180000000000206e+01 1.413789999999999907e+02 1.707500000000000000e+03
8.000000000000000167e-02 6.731640000000000956e-01 3.702590000000000003e+01 1.426510000000000105e+02 1.707860000000000127e+03
8.100000000000000255e-02 6.733884999999999454e-01 3.666154999999999831e+01 1.437019999999999982e+02 1.708170000000000073e+03
8.200000000000000344e-02 6.735689999999999733e-01 3.620534999999999570e+01 1.445409999999999968e+02 1.708420000000000073e+03
8.300000000000000433e-02 6.737090000000000023e-01 3.566594999999999516e+01 1.451810000000000116e+02 1.708619999999999891e+03
8.400000000000000522e-02 6.738124999999999254e-01 3.505360000000000298e+01 1.456374999999999886e+02 1.708779999999999973e+03
8.500000000000000611e-02 6.738830000000000098e-01 3.438015000000000043e+01 1.459329999999999927e+02 1.708884999999999991e+03
8.600000000000000699e-02 6.739265000000000949e-01 3.365845000000000198e+01 1.460900000000000034e+02 1.708965000000000146e+03
8.700000000000000788e-02 6.739479999999999915e-01 3.290209999999999724e+01 1.461334999999999980e+02 1.709005000000000109e+03
8.800000000000000877e-02 6.739530000000000243e-01 3.212485000000000213e+01 1.460889999999999986e+02 1.709019999999999982e+03
8.899999999999999578e-02 6.739459999999999340e-01 3.133984999999999843e+01 1.459819999999999993e+02 1.709015000000000100e+03
8.999999999999999667e-02 6.739330000000000043e-01 3.055940000000000012e+01 1.458365000000000009e+02 1.708994999999999891e+03
9.099999999999999756e-02 6.739165000000000294e-01 2.979399999999999693e+01 1.456734999999999900e+02 1.708970000000000027e+03
9.199999999999999845e-02 6.739009999999999723e-01 2.905205000000000126e+01 1.455095000000000027e+02 1.708940000000000055e+03
9.299999999999999933e-02 6.738880000000000425e-01 2.833974999999999866e+01 1.453590000000000089e+02 1.708909999999999854e+03
9.400000000000000022e-02 6.738790000000000058e-01 2.766040000000000276e+01 1.452300000000000182e+02 1.708880000000000109e+03
9.500000000000000111e-02 6.738739999999999730e-01 2.701489999999999725e+01 1.451250000000000000e+02 1.708849999999999909e+03
9.600000000000000200e-02 6.738714999999999566e-01 2.640169999999999817e+01 1.450430000000000064e+02 1.708825000000000045e+03
9.700000000000000289e-02 6.738714999999999566e-01 2.581729999999999947e+01 1.449789999999999850e+02 1.708809999999999945e+03
9.800000000000000377e-02 6.738705000000000389e-01 2.525619999999999976e+01 1.449225000000000136e+02 1.708789999999999964e+03
9.900000000000000466e-02 6.738655000000000062e-01 2.471189999999999998e+01 1.448629999999999995e+02 1.708769999999999982e+03
1.000000000000000056e-01 6.738539999999999530e-01 2.417689999999999984e+01 1.447870000000000061e+02 1.708755000000000109e+03
1.010000000000000064e-01 6.738340000000000440e-01 2.364349999999999952e+01 1.446794999999999902e+02 1.708720000000000027e+03
1.020000000000000073e-01 6.738014999999999421e-01 2.310414999999999708e+01 1.445275000000000034e+02 1.708684999999999945e+03
1.030000000000000082e-01 6.737549999999999928e-01 2.255180000000000007e+01 1.443174999999999955e+02 1.708634999999999991e+03
1.040000000000000091e-01 6.736914999999999987e-01 2.198029999999999973e+01 1.440389999999999873e+02 1.708565000000000055e+03
1.050000000000000100e-01 6.736105000000000009e-01 2.138499999999999801e+01 1.436829999999999927e+02 1.708485000000000127e+03
1.059999999999999970e-01 6.735105000000000119e-01 2.076259999999999906e+01 1.432454999999999927e+02 1.708384999999999991e+03
1.069999999999999979e-01 6.733929999999999083e-01 2.011189999999999856e+01 1.427249999999999943e+02 1.708259999999999991e+03
1.079999999999999988e-01 6.732579999999999121e-01 1.943339999999999890e+01 1.421225000000000023e+02 1.708125000000000000e+03
1.089999999999999997e-01 6.731074999999999697e-01 1.872970000000000113e+01 1.414454999999999814e+02 1.707960000000000036e+03
1.100000000000000006e-01 6.729439999999999866e-01 1.800529999999999831e+01 1.407035000000000196e+02 1.707784999999999854e+03
1.110000000000000014e-01 6.727710000000000079e-01 1.726644999999999897e+01 1.399095000000000084e+02 1.707599999999999909e+03
1.120000000000000023e-01 6.725919999999999677e-01 1.652074999999999960e+01 1.390799999999999841e+02 1.707400000000000091e+03
1.130000000000000032e-01 6.724114999999999398e-01 1.577700000000000102e+01 1.382330000000000041e+02 1.707194999999999936e+03
1.140000000000000041e-01 6.722335000000000393e-01 1.504445000000000121e+01 1.373880000000000052e+02 1.706989999999999782e+03
1.150000000000000050e-01 6.720619999999999372e-01 1.433280500000000046e+01 1.365649999999999977e+02 1.706784999999999854e+03
1.160000000000000059e-01 6.719010000000000815e-01 1.365132000000000012e+01 1.357819999999999823e+02 1.706585000000000036e+03
1.170000000000000068e-01 6.717539999999999623e-01 1.300875500000000073e+01 1.350579999999999927e+02 1.706404999999999973e+03
1.180000000000000077e-01 6.716245000000000687e-01 1.241262499999999847e+01 1.344074999999999989e+02 1.706235000000000127e+03
1.190000000000000085e-01 6.715145000000000142e-01 1.186919500000000127e+01 1.338439999999999941e+02 1.706085000000000036e+03
1.200000000000000094e-01 6.714249999999999385e-01 1.138284499999999966e+01 1.333754999999999882e+02 1.705954999999999927e+03
1.209999999999999964e-01 6.713575000000000514e-01 1.095637999999999934e+01 1.330070000000000050e+02 1.705849999999999909e+03
1.219999999999999973e-01 6.713109999999999911e-01 1.059052499999999952e+01 1.327409999999999854e+02 1.705764999999999873e+03
1.229999999999999982e-01 6.712860000000000493e-01 1.028434500000000007e+01 1.325745000000000005e+02 1.705710000000000036e+03
1.239999999999999991e-01 6.712795000000000289e-01 1.003496999999999950e+01 1.325014999999999930e+02 1.705670000000000073e+03
1.250000000000000000e-01 6.712894999999999834e-01 9.838345000000000340e+00 1.325130000000000052e+02 1.705659999999999854e+03
1.260000000000000009e-01 6.713135000000000074e-01 9.688964999999999606e+00 1.325980000000000132e+02 1.705664999999999964e+03
1.270000000000000018e-01 6.713489999999999736e-01 9.580629999999999313e+00 1.327429999999999950e+02 1.705684999999999945e+03
1.280000000000000027e-01 6.713925000000000587e-01 9.506505000000000649e+00 1.329350000000000023e+02 1.705720000000000027e+03
1.290000000000000036e-01 6.714419999999999833e-01 9.459649999999999892e+00 1.331585000000000036e+02 1.705759999999999991e+03
1.300000000000000044e-01 6.714930000000000065e-01 9.433125000000000426e+00 1.334019999999999868e+02 1.705815000000000055e+03
1.310000000000000053e-01 6.715444999999999887e-01 9.420555000000000234e+00 1.336510000000000105e+02 1.705865000000000009e+03
1.320000000000000062e-01 6.715940000000000243e-01 9.415865000000000151e+00 1.338954999999999984e+02 1.705920000000000073e+03
1.330000000000000071e-01 6.716394999999999449e-01 9.413885000000000502e+00 1.341259999999999764e+02 1.705974999999999909e+03
1.340000000000000080e-01 6.716805000000000136e-01 9.410254999999999370e+00 1.343354999999999961e+02 1.706025000000000091e+03
1.350000000000000089e-01 6.717154999999999099e-01 9.401329999999999742e+00 1.345184999999999889e+02 1.706065000000000055e+03
1.360000000000000098e-01 6.717440000000000078e-01 9.384439999999999671e+00 1.346714999999999804e+02 1.706105000000000018e+03
1.370000000000000107e-01 6.717655000000000154e-01 9.357730000000000103e+00 1.347939999999999827e+02 1.706139999999999873e+03
1.380000000000000115e-01 6.717815000000000314e-01 9.320164999999999367e+00 1.348849999999999909e+02 1.706159999999999854e+03
1.390000000000000124e-01 6.717914999999999859e-01 9.271390000000000242e+00 1.349465000000000146e+02 1.706184999999999945e+03
1.400000000000000133e-01 6.717954999999999899e-01 9.211679999999999424e+00 1.349809999999999945e+02 1.706190000000000055e+03
1.410000000000000142e-01 6.717960000000000598e-01 9.141925000000000523e+00 1.349920000000000186e+02 1.706199999999999818e+03
1.420000000000000151e-01 6.717925000000000146e-01 9.063424999999998732e+00 1.349840000000000089e+02 1.706200000000000045e+03
1.430000000000000160e-01 6.717865000000000641e-01 8.977819999999999467e+00 1.349610000000000127e+02 1.706200000000000045e+03
1.440000000000000169e-01 6.717790000000000150e-01 8.886955000000000382e+00 1.349275000000000091e+02 1.706195000000000164e+03
1.450000000000000178e-01 6.717710000000000070e-01 8.792894999999999683e+00 1.348879999999999768e+02 1.706184999999999945e+03
1.459999999999999909e-01 6.717634999999999579e-01 8.697509999999999408e+00 1.348469999999999800e+02 1.706180000000000064e+03
1.469999999999999918e-01 6.717565000000000897e-01 8.602734999999999133e+00 1.348075000000000045e+02 1.706170000000000073e+03
1.479999999999999927e-01 6.717509999999999870e-01 8.510165000000000646e+00 1.347729999999999961e+02 1.706164999999999964e+03
1.489999999999999936e-01 6.717469999999999830e-01 8.421185000000001253e+00 1.347450000000000045e+02 1.706160000000000082e+03
1.499999999999999944e-01 6.717450000000000365e-01 8.336790000000000589e+00 1.347245000000000061e+02 1.706155000000000200e+03
1.509999999999999953e-01 6.717450000000000365e-01 8.257609999999999673e+00 1.347135000000000105e+02 1.706155000000000200e+03
1.519999999999999962e-01 6.717465000000000241e-01 8.183910000000000906e+00 1.347094999999999914e+02 1.706150000000000091e+03
1.529999999999999971e-01 6.717494999999999994e-01 8.115590000000000970e+00 1.347125000000000057e+02 1.706150000000000091e+03
1.539999999999999980e-01 6.717530000000000445e-01 8.052274999999999849e+00 1.347210000000000036e+02 1.706150000000000091e+03
1.549999999999999989e-01 6.717569999999999375e-01 7.993359999999999133e+00 1.347314999999999827e+02 1.706154999999999973e+03
1.559999999999999998e-01 6.717610000000000525e-01 7.938109999999999999e+00 1.347425000000000068e+02 1.706154999999999973e+03
1.570000000000000007e-01 6.717640000000000278e-01 7.885719999999999175e+00 1.347520000000000095e+02 1.706159999999999854e+03
1.580000000000000016e-01 6.717655000000000154e-01 7.835465000000000124e+00 1.347560000000000002e+02 1.706159999999999854e+03
1.590000000000000024e-01 6.717655000000000154e-01 7.786710000000000242e+00 1.347540000000000191e+02 1.706159999999999854e+03
