# t [s], A [cm^2], U [cm/s], P [cPa], c [cm/s]
1.000000000000000021e-03 1.825690000000000091e-01 3.899037464999999814e-01 8.984810000000000230e+01 2.236920000000000073e+03
2.000000000000000042e-03 1.825074999999999892e-01 1.930236499999999911e+00 8.609029999999999916e+01 2.236345000000000255e+03
3.000000000000000062e-03 1.823664999999999869e-01 3.811340000000000394e+00 8.094859999999999900e+01 2.235059999999999945e+03
4.000000000000000083e-03 1.821895000000000042e-01 5.944296999999999720e+00 7.577799999999999159e+01 2.233460000000000036e+03
5.000000000000000104e-03 1.820134999999999947e-01 8.203165000000000262e+00 7.157484999999999786e+01 2.231890000000000327e+03
6.000000000000000125e-03 1.818514999999999993e-01 1.028744000000000014e+01 6.825055000000000405e+01 2.230465000000000146e+03
7.000000000000000146e-03 1.817024999999999890e-01 1.198667000000000016e+01 6.527895000000000891e+01 2.229194999999999709e+03
8.000000000000000167e-03 1.815724999999999978e-01 1.334344500000000089e+01 6.266129999999999711e+01 2.228099999999999909e+03
9.000000000000001055e-03 1.814655000000000018e-01 1.442314999999999969e+01 6.057144999999999868e+01 2.227204999999999927e+03
1.000000000000000194e-02 1.813799999999999857e-01 1.524680000000000035e+01 5.898239999999999839e+01 2.226505000000000109e+03
1.099999999999999936e-02 1.813155000000000183e-01 1.584050000000000047e+01 5.781924999999999670e+01 2.225984999999999673e+03
1.200000000000000025e-02 1.812664999999999971e-01 1.620755000000000123e+01 5.694069999999999965e+01 2.225595000000000255e+03
1.300000000000000114e-02 1.812265000000000126e-01 1.635820000000000007e+01 5.615879999999999939e+01 2.225289999999999964e+03
1.400000000000000203e-02 1.811955000000000093e-01 1.641394999999999982e+01 5.555689999999999884e+01 2.225055000000000291e+03
1.499999999999999944e-02 1.811840000000000117e-01 1.661435000000000173e+01 5.566414999999999935e+01 2.224980000000000018e+03
1.600000000000000033e-02 1.812084999999999946e-01 1.717240000000000322e+01 5.712834999999999752e+01 2.225184999999999945e+03
1.700000000000000122e-02 1.812769999999999937e-01 1.811319999999999908e+01 6.015585000000000093e+01 2.225755000000000109e+03
1.800000000000000211e-02 1.813825000000000021e-01 1.923290000000000077e+01 6.421590000000000487e+01 2.226630000000000109e+03
1.900000000000000300e-02 1.815009999999999957e-01 2.019505000000000194e+01 6.821625000000000227e+01 2.227635000000000218e+03
2.000000000000000042e-02 1.816019999999999857e-01 2.069109999999999872e+01 7.099755000000000393e+01 2.228505000000000109e+03
2.100000000000000130e-02 1.816619999999999902e-01 2.057300000000000040e+01 7.184165000000000134e+01 2.229045000000000073e+03
2.200000000000000219e-02 1.816699999999999982e-01 1.989965000000000117e+01 7.074150000000000205e+01 2.229159999999999854e+03
2.299999999999999961e-02 1.816349999999999909e-01 1.888615000000000066e+01 6.832795000000000130e+01 2.228894999999999982e+03
2.400000000000000050e-02 1.815749999999999864e-01 1.779269999999999996e+01 6.552700000000000102e+01 2.228405000000000200e+03
2.500000000000000139e-02 1.815110000000000057e-01 1.681300000000000239e+01 6.314150000000000063e+01 2.227869999999999891e+03
2.600000000000000228e-02 1.814569999999999794e-01 1.601275000000000048e+01 6.155890000000000128e+01 2.227409999999999854e+03
2.700000000000000316e-02 1.814189999999999969e-01 1.533389999999999986e+01 6.068549999999999756e+01 2.227074999999999818e+03
2.800000000000000058e-02 1.813905000000000101e-01 1.464905000000000079e+01 6.009069999999999823e+01 2.226829999999999927e+03
2.900000000000000147e-02 1.813609999999999944e-01 1.383600000000000030e+01 5.926324999999999932e+01 2.226579999999999927e+03
3.000000000000000236e-02 1.813204999999999956e-01 1.284290000000000020e+01 5.786664999999999992e+01 2.226244999999999891e+03
3.099999999999999978e-02 1.812650000000000095e-01 1.172034999999999982e+01 5.590229999999999677e+01 2.225789999999999964e+03
3.200000000000000067e-02 1.812015000000000153e-01 1.061192000000000135e+01 5.372585000000000122e+01 2.225250000000000000e+03
3.300000000000000155e-02 1.811404999999999821e-01 9.706005000000001104e+00 5.191839999999999833e+01 2.224734999999999673e+03
3.400000000000000244e-02 1.810979999999999812e-01 9.170075000000000642e+00 5.106784999999999997e+01 2.224369999999999891e+03
3.500000000000000333e-02 1.810879999999999990e-01 9.092790000000000816e+00 5.155035000000000167e+01 2.224260000000000218e+03
3.600000000000000422e-02 1.811165000000000136e-01 9.454010000000000247e+00 5.339275000000000659e+01 2.224470000000000255e+03
3.700000000000000511e-02 1.811785000000000201e-01 1.013001500000000021e+01 5.625665000000000049e+01 2.224965000000000146e+03
3.799999999999999906e-02 1.812630000000000075e-01 1.092661499999999997e+01 5.953275000000000006e+01 2.225654999999999745e+03
3.899999999999999994e-02 1.813514999999999988e-01 1.162645000000000017e+01 6.250069999999999482e+01 2.226400000000000091e+03
4.000000000000000083e-02 1.814255000000000173e-01 1.203460000000000107e+01 6.449895000000000778e+01 2.227029999999999745e+03
4.100000000000000172e-02 1.814685000000000048e-01 1.201239999999999952e+01 6.505654999999998722e+01 2.227409999999999854e+03
4.200000000000000261e-02 1.814685000000000048e-01 1.149329999999999963e+01 6.396215000000000117e+01 2.227430000000000291e+03
4.300000000000000350e-02 1.814224999999999866e-01 1.048115499999999933e+01 6.126364999999999839e+01 2.227059999999999945e+03
4.400000000000000439e-02 1.813315000000000066e-01 9.035384999999999778e+00 5.721294999999999931e+01 2.226319999999999709e+03
4.499999999999999833e-02 1.812024999999999886e-01 7.249869999999999592e+00 5.218155000000000143e+01 2.225250000000000000e+03
4.599999999999999922e-02 1.810454999999999981e-01 5.232623999999999498e+00 4.657495000000000118e+01 2.223940000000000055e+03
4.700000000000000011e-02 1.808724999999999916e-01 3.090554999999999719e+00 4.076769999999999783e+01 2.222484999999999673e+03
4.800000000000000100e-02 1.806919999999999915e-01 9.219899999999998652e-01 3.506950000000000500e+01 2.220970000000000255e+03
4.900000000000000189e-02 1.805130000000000068e-01 -1.184784999999999755e+00 2.972090000000000032e+01 2.219460000000000036e+03
5.000000000000000278e-02 1.803444999999999909e-01 -3.149112499999999759e+00 2.490809999999999746e+01 2.218029999999999745e+03
5.100000000000000366e-02 1.801915000000000044e-01 -4.894779999999999909e+00 2.078519999999999968e+01 2.216730000000000018e+03
5.200000000000000455e-02 1.800589999999999968e-01 -6.348415000000000141e+00 1.749264999999999759e+01 2.215605000000000018e+03
5.300000000000000544e-02 1.799534999999999885e-01 -7.440604999999999691e+00 1.516482999999999848e+01 2.214694999999999709e+03
5.399999999999999939e-02 1.798790000000000111e-01 -8.109745000000000203e+00 1.392624999999999957e+01 2.214050000000000182e+03
5.500000000000000028e-02 1.798399999999999999e-01 -8.307610000000000383e+00 1.387794999999999845e+01 2.213690000000000055e+03
5.600000000000000117e-02 1.798399999999999999e-01 -8.005075000000001495e+00 1.507989999999999853e+01 2.213654999999999745e+03
5.700000000000000205e-02 1.798790000000000111e-01 -7.196390000000000065e+00 1.753604999999999947e+01 2.213949999999999818e+03
5.800000000000000294e-02 1.799574999999999925e-01 -5.900920000000000165e+00 2.118605000000000160e+01 2.214579999999999927e+03
5.900000000000000383e-02 1.800740000000000118e-01 -4.161953999999999709e+00 2.590615000000000023e+01 2.215519999999999982e+03
6.000000000000000472e-02 1.802234999999999809e-01 -2.042995000000000339e+00 3.151924999999999955e+01 2.216760000000000218e+03
6.099999999999999867e-02 1.804020000000000068e-01 3.776500000000000412e-01 3.781080000000000041e+01 2.218235000000000127e+03
6.199999999999999956e-02 1.806010000000000115e-01 3.012814999999999799e+00 4.454809999999999803e+01 2.219894999999999982e+03
6.300000000000000044e-02 1.808155000000000179e-01 5.772319500000000048e+00 5.149739999999999895e+01 2.221690000000000055e+03
6.400000000000000133e-02 1.810364999999999891e-01 8.568160000000000664e+00 5.843980000000000530e+01 2.223560000000000400e+03
6.500000000000000222e-02 1.812584999999999891e-01 1.131892500000000013e+01 6.518274999999999864e+01 2.225440000000000055e+03
6.600000000000000311e-02 1.814759999999999984e-01 1.395349000000000217e+01 7.156884999999999764e+01 2.227295000000000073e+03
6.700000000000000400e-02 1.816834999999999978e-01 1.641460000000000008e+01 7.748265000000000668e+01 2.229065000000000055e+03
6.800000000000000488e-02 1.818770000000000109e-01 1.866120000000000090e+01 8.285499999999998977e+01 2.230730000000000018e+03
6.900000000000000577e-02 1.820559999999999956e-01 2.067024999999999935e+01 8.766530000000000200e+01 2.232269999999999982e+03
7.000000000000000666e-02 1.822179999999999911e-01 2.243694999999999951e+01 9.194010000000000105e+01 2.233675000000000182e+03
7.100000000000000755e-02 1.823649999999999993e-01 2.397390000000000043e+01 9.574880000000000280e+01 2.234954999999999927e+03
7.200000000000000844e-02 1.824985000000000079e-01 2.530839999999999890e+01 9.919525000000000148e+01 2.236119999999999891e+03
7.300000000000000933e-02 1.826214999999999922e-01 2.647885000000000133e+01 1.024043499999999938e+02 2.237199999999999818e+03
7.399999999999999634e-02 1.827389999999999848e-01 2.752974999999999994e+01 1.055109999999999957e+02 2.238220000000000255e+03
7.499999999999999722e-02 1.828529999999999878e-01 2.850719999999999743e+01 1.086430000000000007e+02 2.239215000000000146e+03
7.599999999999999811e-02 1.829675000000000051e-01 2.945385000000000275e+01 1.119110000000000014e+02 2.240220000000000255e+03
7.699999999999999900e-02 1.830864999999999854e-01 3.040509999999999735e+01 1.153960000000000008e+02 2.241255000000000109e+03
7.799999999999999989e-02 1.832125000000000004e-01 3.138609999999999900e+01 1.191444999999999936e+02 2.242340000000000146e+03
7.900000000000000078e-02 1.833450000000000080e-01 3.241004999999999825e+01 1.231639999999999873e+02 2.243484999999999673e+03
8.000000000000000167e-02 1.834850000000000092e-01 3.347749999999999915e+01 1.274269999999999925e+02 2.244699999999999818e+03
8.100000000000000255e-02 1.836319999999999897e-01 3.457750000000000057e+01 1.318704999999999927e+02 2.245970000000000255e+03
8.200000000000000344e-02 1.837825000000000153e-01 3.568855000000000643e+01 1.364094999999999800e+02 2.247275000000000091e+03
8.300000000000000433e-02 1.839359999999999884e-01 3.678155000000000285e+01 1.409389999999999930e+02 2.248599999999999909e+03
8.400000000000000522e-02 1.840880000000000016e-01 3.782205000000000439e+01 1.453449999999999989e+02 2.249920000000000073e+03
8.500000000000000611e-02 1.842344999999999955e-01 3.877344999999999686e+01 1.495155000000000030e+02 2.251199999999999818e+03
8.600000000000000699e-02 1.843734999999999957e-01 3.959949999999999903e+01 1.533444999999999823e+02 2.252404999999999745e+03
8.700000000000000788e-02 1.845009999999999983e-01 4.026725000000000421e+01 1.567404999999999973e+02 2.253525000000000091e+03
8.800000000000000877e-02 1.846150000000000013e-01 4.074899999999999523e+01 1.596320000000000050e+02 2.254524999999999636e+03
8.899999999999999578e-02 1.847125000000000017e-01 4.102405000000000257e+01 1.619699999999999989e+02 2.255385000000000218e+03
8.999999999999999667e-02 1.847925000000000262e-01 4.108015000000000327e+01 1.637289999999999850e+02 2.256095000000000255e+03
9.099999999999999756e-02 1.848535000000000039e-01 4.091375000000000028e+01 1.649094999999999800e+02 2.256644999999999982e+03
9.199999999999999845e-02 1.848964999999999914e-01 4.053029999999999688e+01 1.655355000000000132e+02 2.257039999999999964e+03
9.299999999999999933e-02 1.849224999999999897e-01 3.994375000000000142e+01 1.656510000000000105e+02 2.257279999999999745e+03
9.400000000000000022e-02 1.849314999999999987e-01 3.917524999999999835e+01 1.653174999999999955e+02 2.257375000000000000e+03
9.500000000000000111e-02 1.849264999999999937e-01 3.825204999999999700e+01 1.646095000000000255e+02 2.257350000000000364e+03
9.600000000000000200e-02 1.849100000000000188e-01 3.720575000000000188e+01 1.636105000000000018e+02 2.257220000000000255e+03
9.700000000000000289e-02 1.848835000000000062e-01 3.607049999999999557e+01 1.624060000000000059e+02 2.257000000000000000e+03
9.800000000000000377e-02 1.848494999999999999e-01 3.488119999999999976e+01 1.610815000000000055e+02 2.256715000000000146e+03
9.900000000000000466e-02 1.848119999999999763e-01 3.367194999999999538e+01 1.597169999999999845e+02 2.256390000000000327e+03
1.000000000000000056e-01 1.847719999999999918e-01 3.247429999999999950e+01 1.583840000000000146e+02 2.256054999999999836e+03
1.010000000000000064e-01 1.847334999999999949e-01 3.131615000000000038e+01 1.571435000000000173e+02 2.255715000000000146e+03
1.020000000000000073e-01 1.846959999999999991e-01 3.022044999999999959e+01 1.560414999999999850e+02 2.255389999999999873e+03
1.030000000000000082e-01 1.846625000000000072e-01 2.920445000000000135e+01 1.551115000000000066e+02 2.255099999999999909e+03
1.040000000000000091e-01 1.846339999999999926e-01 2.827915000000000134e+01 1.543695000000000164e+02 2.254845000000000255e+03
1.050000000000000100e-01 1.846109999999999973e-01 2.744879999999999853e+01 1.538165000000000191e+02 2.254639999999999873e+03
1.059999999999999970e-01 1.845930000000000071e-01 2.671134999999999948e+01 1.534375000000000000e+02 2.254470000000000255e+03
1.069999999999999979e-01 1.845799999999999941e-01 2.605874999999999986e+01 1.532035000000000196e+02 2.254350000000000364e+03
1.079999999999999988e-01 1.845709999999999851e-01 2.547745000000000104e+01 1.530734999999999957e+02 2.254264999999999873e+03
1.089999999999999997e-01 1.845645000000000202e-01 2.494984999999999786e+01 1.529984999999999786e+02 2.254204999999999927e+03
1.100000000000000006e-01 1.845594999999999875e-01 2.445539999999999736e+01 1.529225000000000136e+02 2.254150000000000091e+03
1.110000000000000014e-01 1.845539999999999958e-01 2.397194999999999965e+01 1.527889999999999873e+02 2.254099999999999909e+03
1.120000000000000023e-01 1.845465000000000022e-01 2.347749999999999915e+01 1.525420000000000016e+02 2.254029999999999745e+03
1.130000000000000032e-01 1.845350000000000046e-01 2.295149999999999935e+01 1.521324999999999932e+02 2.253930000000000291e+03
1.140000000000000041e-01 1.845185000000000020e-01 2.237640000000000029e+01 1.515204999999999984e+02 2.253789999999999964e+03
1.150000000000000050e-01 1.844955000000000067e-01 2.173874999999999957e+01 1.506779999999999973e+02 2.253590000000000146e+03
1.160000000000000059e-01 1.844659999999999911e-01 2.103020000000000067e+01 1.495925000000000011e+02 2.253335000000000036e+03
1.170000000000000068e-01 1.844284999999999952e-01 2.024795000000000300e+01 1.482649999999999864e+02 2.253010000000000218e+03
1.180000000000000077e-01 1.843835000000000057e-01 1.939504999999999768e+01 1.467125000000000057e+02 2.252625000000000000e+03
1.190000000000000085e-01 1.843319999999999959e-01 1.848029999999999973e+01 1.449669999999999845e+02 2.252180000000000291e+03
1.200000000000000094e-01 1.842739999999999934e-01 1.751729999999999876e+01 1.430715000000000146e+02 2.251684999999999945e+03
1.209999999999999964e-01 1.842125000000000012e-01 1.652400000000000091e+01 1.410799999999999841e+02 2.251154999999999745e+03
1.219999999999999973e-01 1.841475000000000195e-01 1.552114999999999867e+01 1.390515000000000043e+02 2.250590000000000146e+03
1.229999999999999982e-01 1.840815000000000090e-01 1.453129999999999988e+01 1.370469999999999970e+02 2.250025000000000091e+03
1.239999999999999991e-01 1.840164999999999995e-01 1.357699999999999996e+01 1.351279999999999859e+02 2.249460000000000036e+03
1.250000000000000000e-01 1.839544999999999930e-01 1.267989999999999995e+01 1.333489999999999895e+02 2.248914999999999964e+03
1.260000000000000009e-01 1.838964999999999905e-01 1.185920499999999933e+01 1.317570000000000050e+02 2.248414999999999964e+03
1.270000000000000018e-01 1.838444999999999940e-01 1.113086999999999982e+01 1.303899999999999864e+02 2.247960000000000036e+03
1.280000000000000027e-01 1.837995000000000045e-01 1.050666499999999992e+01 1.292729999999999961e+02 2.247559999999999945e+03
1.290000000000000036e-01 1.837620000000000087e-01 9.993885000000000574e+00 1.284194999999999993e+02 2.247234999999999673e+03
1.300000000000000044e-01 1.837329999999999797e-01 9.595019999999999882e+00 1.278305000000000007e+02 2.246970000000000255e+03
1.310000000000000053e-01 1.837119999999999864e-01 9.308060000000001111e+00 1.274944999999999879e+02 2.246779999999999745e+03
1.320000000000000062e-01 1.836995000000000156e-01 9.126625000000000654e+00 1.273900000000000148e+02 2.246659999999999854e+03
1.330000000000000071e-01 1.836935000000000096e-01 9.040680000000000049e+00 1.274879999999999995e+02 2.246599999999999909e+03
1.340000000000000080e-01 1.836939999999999962e-01 9.037175000000001290e+00 1.277535000000000025e+02 2.246594999999999800e+03
1.350000000000000089e-01 1.836999999999999744e-01 9.100840000000001595e+00 1.281454999999999984e+02 2.246644999999999982e+03
1.360000000000000098e-01 1.837099999999999844e-01 9.215044999999999931e+00 1.286225000000000023e+02 2.246720000000000255e+03
1.370000000000000107e-01 1.837225000000000108e-01 9.362610000000000099e+00 1.291435000000000173e+02 2.246829999999999927e+03
1.380000000000000115e-01 1.837369999999999837e-01 9.526595000000000368e+00 1.296684999999999945e+02 2.246945000000000164e+03
1.390000000000000124e-01 1.837519999999999987e-01 9.691024999999999778e+00 1.301625000000000227e+02 2.247074999999999818e+03
1.400000000000000133e-01 1.837659999999999849e-01 9.841504999999999725e+00 1.305925000000000011e+02 2.247194999999999709e+03
1.410000000000000142e-01 1.837785000000000113e-01 9.965804999999999580e+00 1.309354999999999905e+02 2.247300000000000182e+03
1.420000000000000151e-01 1.837880000000000069e-01 1.005408500000000060e+01 1.311720000000000255e+02 2.247380000000000109e+03
1.430000000000000160e-01 1.837944999999999995e-01 1.009943999999999953e+01 1.312909999999999968e+02 2.247439999999999600e+03
1.440000000000000169e-01 1.837975000000000025e-01 1.009769499999999987e+01 1.312874999999999943e+02 2.247470000000000255e+03
1.450000000000000178e-01 1.837969999999999882e-01 1.004771500000000017e+01 1.311644999999999754e+02 2.247470000000000255e+03
1.459999999999999909e-01 1.837929999999999842e-01 9.951000000000000512e+00 1.309309999999999832e+02 2.247434999999999945e+03
1.469999999999999918e-01 1.837854999999999905e-01 9.811560000000000059e+00 1.305999999999999943e+02 2.247375000000000000e+03
1.479999999999999927e-01 1.837754999999999805e-01 9.635374999999999801e+00 1.301895000000000095e+02 2.247289999999999964e+03
1.489999999999999936e-01 1.837624999999999953e-01 9.429949999999999832e+00 1.297214999999999918e+02 2.247184999999999945e+03
1.499999999999999944e-01 1.837475000000000080e-01 9.203685000000000116e+00 1.292169999999999845e+02 2.247059999999999945e+03
1.509999999999999953e-01 1.837320000000000064e-01 8.965365000000000251e+00 1.286980000000000075e+02 2.246925000000000182e+03
1.519999999999999962e-01 1.837159999999999904e-01 8.723530000000000229e+00 1.281860000000000070e+02 2.246789999999999964e+03
1.529999999999999971e-01 1.837000000000000022e-01 8.485929999999999751e+00 1.276964999999999861e+02 2.246650000000000091e+03
1.539999999999999980e-01 1.836849999999999872e-01 8.259159999999999613e+00 1.272444999999999879e+02 2.246514999999999873e+03
1.549999999999999989e-01 1.836699999999999999e-01 8.048329999999999984e+00 1.268384999999999962e+02 2.246390000000000327e+03
1.559999999999999998e-01 1.836569999999999869e-01 7.856889999999999930e+00 1.264840000000000089e+02 2.246279999999999745e+03
1.570000000000000007e-01 1.836460000000000037e-01 7.686600000000000321e+00 1.261804999999999950e+02 2.246180000000000291e+03
1.580000000000000016e-01 1.836355000000000071e-01 7.537614999999999732e+00 1.259250000000000114e+02 2.246090000000000146e+03
1.590000000000000024e-01 1.836269999999999847e-01 7.408640000000000114e+00 1.257100000000000080e+02 2.246010000000000218e+03
