# t [s], A [cm^2], U [cm/s], P [cPa], c [cm/s]
1.000000000000000021e-03 2.044199999999999906e-01 1.924575000000000036e-01 1.037460000000000093e+02 1.981715000000000146e+03
2.000000000000000042e-03 2.043780000000000041e-01 1.653436499999999976e+00 1.008208500000000072e+02 1.981440000000000055e+03
3.000000000000000062e-03 2.042380000000000029e-01 3.520604000000000067e+00 9.671614999999999895e+01 1.980574999999999818e+03
4.000000000000000083e-03 2.040330000000000199e-01 5.632140500000000216e+00 9.194765000000001010e+01 1.979325000000000045e+03
5.000000000000000104e-03 2.037999999999999812e-01 7.925774999999999793e+00 8.733344999999999914e+01 1.977925000000000182e+03
6.000000000000000125e-03 2.035664999999999836e-01 1.027912999999999855e+01 8.334229999999999450e+01 1.976529999999999973e+03
7.000000000000000146e-03 2.033444999999999836e-01 1.250187999999999988e+01 7.996889999999999077e+01 1.975224999999999909e+03
8.000000000000000167e-03 2.031374999999999986e-01 1.444596499999999928e+01 7.698720000000000141e+01 1.974025000000000091e+03
9.000000000000001055e-03 2.029489999999999905e-01 1.608840000000000003e+01 7.431870000000000687e+01 1.972960000000000036e+03
1.000000000000000194e-02 2.027845000000000064e-01 1.746454999999999913e+01 7.203374999999999773e+01 1.972039999999999964e+03
1.099999999999999936e-02 2.026469999999999938e-01 1.860045000000000215e+01 7.017324999999999591e+01 1.971269999999999982e+03
1.200000000000000025e-02 2.025334999999999774e-01 1.951384999999999792e+01 6.871609999999999729e+01 1.970650000000000091e+03
1.300000000000000114e-02 2.024440000000000128e-01 2.021954999999999814e+01 6.760974999999999113e+01 1.970164999999999964e+03
1.400000000000000203e-02 2.023739999999999983e-01 2.072285000000000110e+01 6.676555000000000462e+01 1.969795000000000073e+03
1.499999999999999944e-02 2.023179999999999978e-01 2.103535000000000110e+01 6.608365000000000578e+01 1.969505000000000109e+03
1.600000000000000033e-02 2.022744999999999960e-01 2.120700000000000074e+01 6.554240000000000066e+01 1.969279999999999973e+03
1.700000000000000122e-02 2.022454999999999947e-01 2.133749999999999858e+01 6.526760000000000161e+01 1.969144999999999982e+03
1.800000000000000211e-02 2.022380000000000011e-01 2.154639999999999844e+01 6.549540000000000362e+01 1.969115000000000009e+03
1.900000000000000300e-02 2.022599999999999953e-01 2.192020000000000124e+01 6.644050000000000011e+01 1.969244999999999891e+03
2.000000000000000042e-02 2.023145000000000082e-01 2.247234999999999872e+01 6.815854999999999109e+01 1.969559999999999945e+03
2.100000000000000130e-02 2.023979999999999946e-01 2.313729999999999976e+01 7.048359999999999559e+01 1.970025000000000091e+03
2.200000000000000219e-02 2.025004999999999999e-01 2.379674999999999940e+01 7.306714999999999804e+01 1.970599999999999909e+03
2.299999999999999961e-02 2.026064999999999949e-01 2.432300000000000040e+01 7.548850000000000193e+01 1.971210000000000036e+03
2.400000000000000050e-02 2.027019999999999933e-01 2.462030000000000030e+01 7.738405000000000200e+01 1.971765000000000100e+03
2.500000000000000139e-02 2.027754999999999974e-01 2.465010000000000190e+01 7.854630000000000223e+01 1.972204999999999927e+03
2.600000000000000228e-02 2.028234999999999899e-01 2.443444999999999823e+01 7.896245000000000402e+01 1.972494999999999891e+03
2.700000000000000316e-02 2.028459999999999985e-01 2.403974999999999795e+01 7.878764999999999930e+01 1.972644999999999982e+03
2.800000000000000058e-02 2.028500000000000025e-01 2.354850000000000065e+01 7.827020000000000266e+01 1.972680000000000064e+03
2.900000000000000147e-02 2.028424999999999812e-01 2.303130000000000166e+01 7.765905000000000769e+01 1.972644999999999982e+03
3.000000000000000236e-02 2.028310000000000113e-01 2.252680000000000149e+01 7.712774999999999181e+01 1.972585000000000036e+03
3.099999999999999978e-02 2.028200000000000003e-01 2.203630000000000067e+01 7.673484999999999445e+01 1.972525000000000091e+03
3.200000000000000067e-02 2.028090000000000170e-01 2.153109999999999857e+01 7.642875000000000796e+01 1.972460000000000036e+03
3.300000000000000155e-02 2.027964999999999907e-01 2.096929999999999694e+01 7.608774999999999977e+01 1.972389999999999873e+03
3.400000000000000244e-02 2.027780000000000138e-01 2.031514999999999915e+01 7.557800000000000296e+01 1.972289999999999964e+03
3.500000000000000333e-02 2.027505000000000002e-01 1.955620000000000047e+01 7.481170000000000186e+01 1.972139999999999873e+03
3.600000000000000422e-02 2.027124999999999899e-01 1.871255000000000024e+01 7.378804999999999836e+01 1.971934999999999945e+03
3.700000000000000511e-02 2.026660000000000128e-01 1.783650000000000091e+01 7.260585000000000377e+01 1.971674999999999955e+03
3.799999999999999906e-02 2.026169999999999916e-01 1.700240000000000151e+01 7.144585000000000719e+01 1.971400000000000091e+03
3.899999999999999994e-02 2.025724999999999887e-01 1.629019999999999868e+01 7.052719999999999345e+01 1.971150000000000091e+03
4.000000000000000083e-02 2.025405000000000122e-01 1.576664999999999850e+01 7.005289999999999395e+01 1.970969999999999800e+03
4.100000000000000172e-02 2.025295000000000012e-01 1.547054999999999936e+01 7.015874999999999773e+01 1.970889999999999873e+03
4.200000000000000261e-02 2.025409999999999988e-01 1.540445000000000064e+01 7.088030000000000541e+01 1.970945000000000164e+03
4.300000000000000350e-02 2.025759999999999783e-01 1.553485000000000049e+01 7.214410000000000878e+01 1.971125000000000000e+03
4.400000000000000439e-02 2.026310000000000056e-01 1.579964999999999975e+01 7.378360000000000696e+01 1.971420000000000073e+03
4.499999999999999833e-02 2.026985000000000037e-01 1.612010000000000076e+01 7.557184999999999775e+01 1.971795000000000073e+03
4.599999999999999922e-02 2.027690000000000048e-01 1.641434999999999889e+01 7.726330000000000098e+01 1.972190000000000055e+03
4.700000000000000011e-02 2.028349999999999875e-01 1.660875000000000057e+01 7.863344999999999629e+01 1.972555000000000064e+03
4.800000000000000100e-02 2.028864999999999974e-01 1.664724999999999966e+01 7.950934999999999775e+01 1.972860000000000127e+03
4.900000000000000189e-02 2.029175000000000006e-01 1.649499999999999744e+01 7.978725000000000023e+01 1.973039999999999964e+03
5.000000000000000278e-02 2.029255000000000086e-01 1.613875000000000171e+01 7.943565000000000964e+01 1.973095000000000027e+03
5.100000000000000366e-02 2.029079999999999773e-01 1.558389999999999986e+01 7.848595000000000255e+01 1.973005000000000109e+03
5.200000000000000455e-02 2.028665000000000052e-01 1.484905000000000008e+01 7.701585000000000036e+01 1.972785000000000082e+03
5.300000000000000544e-02 2.028030000000000110e-01 1.396090000000000053e+01 7.512870000000000914e+01 1.972434999999999945e+03
5.399999999999999939e-02 2.027220000000000133e-01 1.294899999999999984e+01 7.293529999999999802e+01 1.971980000000000018e+03
5.500000000000000028e-02 2.026270000000000016e-01 1.184305999999999948e+01 7.053954999999999131e+01 1.971450000000000045e+03
5.600000000000000117e-02 2.025220000000000076e-01 1.067093999999999987e+01 6.803125000000000000e+01 1.970860000000000127e+03
5.700000000000000205e-02 2.024110000000000076e-01 9.458944999999999936e+00 6.548484999999999445e+01 1.970235000000000127e+03
5.800000000000000294e-02 2.022960000000000036e-01 8.232710000000000861e+00 6.296204999999999785e+01 1.969585000000000036e+03
5.900000000000000383e-02 2.021815000000000140e-01 7.018674999999999997e+00 6.051774999999999949e+01 1.968934999999999945e+03
6.000000000000000472e-02 2.020695000000000130e-01 5.845010000000000261e+00 5.820584999999999809e+01 1.968299999999999955e+03
6.099999999999999867e-02 2.019624999999999893e-01 4.742259999999999920e+00 5.608355000000000246e+01 1.967695000000000164e+03
6.199999999999999956e-02 2.018639999999999879e-01 3.743055000000000021e+00 5.421340000000000003e+01 1.967134999999999991e+03
6.300000000000000044e-02 2.017774999999999985e-01 2.880974000000000146e+00 5.266219999999999857e+01 1.966634999999999991e+03
6.400000000000000133e-02 2.017049999999999954e-01 2.188773999999999997e+00 5.149779999999999802e+01 1.966215000000000146e+03
6.500000000000000222e-02 2.016505000000000103e-01 1.696297999999999861e+00 5.078390000000000271e+01 1.965894999999999982e+03
6.600000000000000311e-02 2.016165000000000040e-01 1.428323999999999927e+00 5.057444999999999879e+01 1.965690000000000055e+03
6.700000000000000400e-02 2.016045000000000198e-01 1.402760000000000007e+00 5.090825000000000244e+01 1.965605000000000018e+03
6.800000000000000488e-02 2.016179999999999917e-01 1.629315000000000069e+00 5.180494999999999806e+01 1.965664999999999964e+03
6.900000000000000577e-02 2.016560000000000019e-01 2.108839999999999826e+00 5.326299999999999812e+01 1.965865000000000009e+03
7.000000000000000666e-02 2.017200000000000104e-01 2.833355000000000068e+00 5.525914999999999822e+01 1.966204999999999927e+03
7.100000000000000755e-02 2.018070000000000142e-01 3.786690000000000111e+00 5.775025000000000119e+01 1.966684999999999945e+03
7.200000000000000844e-02 2.019170000000000131e-01 4.945594999999999963e+00 6.067654999999999887e+01 1.967289999999999964e+03
7.300000000000000933e-02 2.020470000000000044e-01 6.281194999999999418e+00 6.396540000000000248e+01 1.968009999999999991e+03
7.399999999999999634e-02 2.021934999999999982e-01 7.760659999999999670e+00 6.753645000000000209e+01 1.968835000000000036e+03
7.499999999999999722e-02 2.023539999999999783e-01 9.349074999999999136e+00 7.130620000000000402e+01 1.969730000000000018e+03
7.599999999999999811e-02 2.025240000000000096e-01 1.101097999999999999e+01 7.519289999999999452e+01 1.970690000000000055e+03
7.699999999999999900e-02 2.027009999999999923e-01 1.271220500000000087e+01 7.912075000000000102e+01 1.971684999999999945e+03
7.799999999999999989e-02 2.028805000000000192e-01 1.442145000000000010e+01 8.302344999999999686e+01 1.972704999999999927e+03
7.900000000000000078e-02 2.030604999999999771e-01 1.611120000000000019e+01 8.684725000000000250e+01 1.973730000000000018e+03
8.000000000000000167e-02 2.032384999999999886e-01 1.775884999999999891e+01 9.055230000000000246e+01 1.974740000000000009e+03
8.100000000000000255e-02 2.034124999999999961e-01 1.934730000000000061e+01 9.411394999999998845e+01 1.975735000000000127e+03
8.200000000000000344e-02 2.035814999999999986e-01 2.086469999999999914e+01 9.752084999999999582e+01 1.976710000000000036e+03
8.300000000000000433e-02 2.037444999999999951e-01 2.230450000000000088e+01 1.007759000000000071e+02 1.977650000000000091e+03
8.400000000000000522e-02 2.039024999999999865e-01 2.366454999999999842e+01 1.038919000000000068e+02 1.978555000000000064e+03
8.500000000000000611e-02 2.040544999999999998e-01 2.494640000000000057e+01 1.068880000000000052e+02 1.979434999999999945e+03
8.600000000000000699e-02 2.042019999999999946e-01 2.615409999999999968e+01 1.097874999999999943e+02 1.980289999999999964e+03
8.700000000000000788e-02 2.043455000000000132e-01 2.729325000000000045e+01 1.126165000000000020e+02 1.981119999999999891e+03
8.800000000000000877e-02 2.044860000000000011e-01 2.836980000000000146e+01 1.153960000000000008e+02 1.981934999999999945e+03
8.899999999999999578e-02 2.046244999999999870e-01 2.938960000000000150e+01 1.181449999999999960e+02 1.982735000000000127e+03
8.999999999999999667e-02 2.047614999999999852e-01 3.035719999999999885e+01 1.208760000000000048e+02 1.983530000000000200e+03
9.099999999999999756e-02 2.048969999999999958e-01 3.127609999999999957e+01 1.235930000000000035e+02 1.984319999999999936e+03
9.199999999999999845e-02 2.050319999999999920e-01 3.214775000000000205e+01 1.262969999999999970e+02 1.985099999999999909e+03
9.299999999999999933e-02 2.051665000000000016e-01 3.297214999999999918e+01 1.289795000000000016e+02 1.985875000000000000e+03
9.400000000000000022e-02 2.052990000000000093e-01 3.374745000000000061e+01 1.316289999999999907e+02 1.986650000000000091e+03
9.500000000000000111e-02 2.054300000000000015e-01 3.447055000000000291e+01 1.342284999999999968e+02 1.987410000000000082e+03
9.600000000000000200e-02 2.055584999999999773e-01 3.513680000000000092e+01 1.367579999999999814e+02 1.988154999999999973e+03
9.700000000000000289e-02 2.056830000000000047e-01 3.574094999999999800e+01 1.391959999999999980e+02 1.988880000000000109e+03
9.800000000000000377e-02 2.058030000000000137e-01 3.627674999999999983e+01 1.415204999999999984e+02 1.989579999999999927e+03
9.900000000000000466e-02 2.059179999999999899e-01 3.673765000000000214e+01 1.437074999999999818e+02 1.990250000000000000e+03
1.000000000000000056e-01 2.060265000000000013e-01 3.711710000000000065e+01 1.457359999999999900e+02 1.990880000000000109e+03
1.010000000000000064e-01 2.061270000000000047e-01 3.740874999999999773e+01 1.475860000000000127e+02 1.991470000000000027e+03
1.020000000000000073e-01 2.062200000000000144e-01 3.760679999999999978e+01 1.492390000000000043e+02 1.992015000000000100e+03
1.030000000000000082e-01 2.063030000000000141e-01 3.770624999999999716e+01 1.506800000000000068e+02 1.992505000000000109e+03
1.040000000000000091e-01 2.063765000000000183e-01 3.770354999999999990e+01 1.518965000000000032e+02 1.992940000000000055e+03
1.050000000000000100e-01 2.064400000000000124e-01 3.759644999999999726e+01 1.528820000000000050e+02 1.993309999999999945e+03
1.059999999999999970e-01 2.064925000000000233e-01 3.738464999999999350e+01 1.536324999999999932e+02 1.993625000000000000e+03
1.069999999999999979e-01 2.065335000000000087e-01 3.706964999999999577e+01 1.541505000000000223e+02 1.993875000000000000e+03
1.079999999999999988e-01 2.065639999999999976e-01 3.665529999999999688e+01 1.544424999999999955e+02 1.994059999999999945e+03
1.089999999999999997e-01 2.065839999999999899e-01 3.614719999999999800e+01 1.545210000000000150e+02 1.994179999999999836e+03
1.100000000000000006e-01 2.065939999999999999e-01 3.555320000000000391e+01 1.544025000000000034e+02 1.994244999999999891e+03
1.110000000000000014e-01 2.065939999999999999e-01 3.488264999999999816e+01 1.541075000000000159e+02 1.994259999999999991e+03
1.120000000000000023e-01 2.065865000000000062e-01 3.414645000000000152e+01 1.536589999999999918e+02 1.994220000000000027e+03
1.130000000000000032e-01 2.065710000000000046e-01 3.335644999999999527e+01 1.530840000000000032e+02 1.994140000000000100e+03
1.140000000000000041e-01 2.065494999999999970e-01 3.252499999999999858e+01 1.524080000000000155e+02 1.994019999999999982e+03
1.150000000000000050e-01 2.065230000000000121e-01 3.166475000000000151e+01 1.516589999999999918e+02 1.993869999999999891e+03
1.160000000000000059e-01 2.064924999999999955e-01 3.078780000000000072e+01 1.508609999999999900e+02 1.993695000000000164e+03
1.170000000000000068e-01 2.064590000000000036e-01 2.990564999999999785e+01 1.500380000000000109e+02 1.993509999999999991e+03
1.180000000000000077e-01 2.064239999999999964e-01 2.902880000000000038e+01 1.492110000000000127e+02 1.993309999999999945e+03
1.190000000000000085e-01 2.063880000000000159e-01 2.816619999999999990e+01 1.483954999999999984e+02 1.993099999999999909e+03
1.200000000000000094e-01 2.063519999999999799e-01 2.732525000000000048e+01 1.476050000000000182e+02 1.992890000000000100e+03
1.209999999999999964e-01 2.063170000000000004e-01 2.651160000000000139e+01 1.468485000000000014e+02 1.992684999999999945e+03
1.219999999999999973e-01 2.062820000000000209e-01 2.572899999999999920e+01 1.461299999999999955e+02 1.992485000000000127e+03
1.229999999999999982e-01 2.062490000000000157e-01 2.497935000000000016e+01 1.454509999999999934e+02 1.992289999999999964e+03
1.239999999999999991e-01 2.062169999999999837e-01 2.426290000000000191e+01 1.448075000000000045e+02 1.992105000000000018e+03
1.250000000000000000e-01 2.061860000000000082e-01 2.357789999999999964e+01 1.441924999999999955e+02 1.991920000000000073e+03
1.260000000000000009e-01 2.061560000000000059e-01 2.292129999999999868e+01 1.435964999999999918e+02 1.991740000000000009e+03
1.270000000000000018e-01 2.061264999999999903e-01 2.228865000000000052e+01 1.430074999999999932e+02 1.991569999999999936e+03
1.280000000000000027e-01 2.060974999999999890e-01 2.167470000000000141e+01 1.424114999999999895e+02 1.991400000000000091e+03
1.290000000000000036e-01 2.060675000000000145e-01 2.107325000000000159e+01 1.417940000000000111e+02 1.991224999999999909e+03
1.300000000000000044e-01 2.060369999999999979e-01 2.047789999999999822e+01 1.411399999999999864e+02 1.991045000000000073e+03
1.310000000000000053e-01 2.060040000000000204e-01 1.988224999999999909e+01 1.404350000000000023e+02 1.990849999999999909e+03
1.320000000000000062e-01 2.059690000000000132e-01 1.928020000000000067e+01 1.396659999999999968e+02 1.990644999999999982e+03
1.330000000000000071e-01 2.059310000000000029e-01 1.866629999999999967e+01 1.388229999999999791e+02 1.990424999999999955e+03
1.340000000000000080e-01 2.058895000000000031e-01 1.803614999999999924e+01 1.378965000000000032e+02 1.990190000000000055e+03
1.350000000000000089e-01 2.058439999999999992e-01 1.738640000000000185e+01 1.368820000000000050e+02 1.989929999999999836e+03
1.360000000000000098e-01 2.057950000000000057e-01 1.671525000000000105e+01 1.357789999999999964e+02 1.989644999999999982e+03
1.370000000000000107e-01 2.057420000000000082e-01 1.602250000000000085e+01 1.345879999999999939e+02 1.989335000000000036e+03
1.380000000000000115e-01 2.056850000000000067e-01 1.530945000000000178e+01 1.333165000000000191e+02 1.989005000000000109e+03
1.390000000000000124e-01 2.056244999999999878e-01 1.457910000000000039e+01 1.319739999999999895e+02 1.988659999999999854e+03
1.400000000000000133e-01 2.055605000000000071e-01 1.383595000000000041e+01 1.305745000000000005e+02 1.988289999999999964e+03
1.410000000000000142e-01 2.054940000000000100e-01 1.308600000000000030e+01 1.291339999999999861e+02 1.987909999999999854e+03
1.420000000000000151e-01 2.054259999999999975e-01 1.233624000000000009e+01 1.276705000000000041e+02 1.987514999999999873e+03
1.430000000000000160e-01 2.053570000000000118e-01 1.159460499999999961e+01 1.262060000000000031e+02 1.987115000000000009e+03
1.440000000000000169e-01 2.052875000000000116e-01 1.086964000000000041e+01 1.247605000000000075e+02 1.986720000000000027e+03
1.450000000000000178e-01 2.052184999999999981e-01 1.016989000000000054e+01 1.233555000000000064e+02 1.986319999999999936e+03
1.459999999999999909e-01 2.051520000000000010e-01 9.503989999999999938e+00 1.220120000000000005e+02 1.985934999999999945e+03
1.469999999999999918e-01 2.050875000000000059e-01 8.879750000000001364e+00 1.207480000000000047e+02 1.985565000000000055e+03
1.479999999999999927e-01 2.050270000000000148e-01 8.304370000000000474e+00 1.195794999999999959e+02 1.985210000000000036e+03
1.489999999999999936e-01 2.049704999999999999e-01 7.783844999999999459e+00 1.185204999999999984e+02 1.984880000000000109e+03
1.499999999999999944e-01 2.049185000000000034e-01 7.322829999999999728e+00 1.175799999999999983e+02 1.984579999999999927e+03
1.509999999999999953e-01 2.048719999999999986e-01 6.924574999999999925e+00 1.167644999999999982e+02 1.984309999999999945e+03
1.519999999999999962e-01 2.048309999999999853e-01 6.590770000000000017e+00 1.160769999999999982e+02 1.984065000000000055e+03
1.529999999999999971e-01 2.047959999999999781e-01 6.321609999999999729e+00 1.155150000000000006e+02 1.983860000000000127e+03
1.539999999999999980e-01 2.047670000000000046e-01 6.115809999999999746e+00 1.150759999999999934e+02 1.983684999999999945e+03
1.549999999999999989e-01 2.047430000000000083e-01 5.970749999999999780e+00 1.147520000000000095e+02 1.983539999999999964e+03
1.559999999999999998e-01 2.047245000000000037e-01 5.882645000000000124e+00 1.145330000000000013e+02 1.983429999999999836e+03
1.570000000000000007e-01 2.047105000000000175e-01 5.846709999999999852e+00 1.144089999999999918e+02 1.983345000000000027e+03
1.580000000000000016e-01 2.047010000000000218e-01 5.857395000000000351e+00 1.143659999999999997e+02 1.983284999999999854e+03
1.590000000000000024e-01 2.046959999999999891e-01 5.908599999999999852e+00 1.143910000000000053e+02 1.983250000000000000e+03
