# t [s], A [cm^2], U [cm/s], P [cPa], c [cm/s]
1.000000000000000021e-03 4.666669999999999985e-01 4.234399999999999276e-03 1.090080000000000098e+02 1.469694999999999936e+03
2.000000000000000042e-03 4.666600000000000192e-01 -4.220694999999999677e-04 1.089894999999999925e+02 1.469684999999999945e+03
3.000000000000000062e-03 4.666884999999999506e-01 5.724734999999999546e-02 1.090450000000000017e+02 1.469704999999999927e+03
4.000000000000000083e-03 4.667305000000000481e-01 1.448771500000000101e-01 1.091509999999999962e+02 1.469735000000000127e+03
5.000000000000000104e-03 4.667350000000000110e-01 1.604164999999999897e-01 1.091705000000000041e+02 1.469744999999999891e+03
6.000000000000000125e-03 4.667019999999999502e-01 9.753499999999998282e-02 1.090604999999999905e+02 1.469720000000000027e+03
7.000000000000000146e-03 4.666649999999999965e-01 2.208100000000001728e-02 1.088804999999999978e+02 1.469679999999999836e+03
8.000000000000000167e-03 4.666250000000000120e-01 -6.315949999999997955e-02 1.086444999999999936e+02 1.469630000000000109e+03
9.000000000000001055e-03 4.665580000000000283e-01 -2.149360000000000159e-01 1.082909999999999968e+02 1.469545000000000073e+03
1.000000000000000194e-02 4.664540000000000353e-01 -4.570949999999999180e-01 1.077710000000000008e+02 1.469424999999999955e+03
1.099999999999999936e-02 4.663080000000000003e-01 -7.924949999999999495e-01 1.070529999999999973e+02 1.469260000000000218e+03
1.200000000000000025e-02 4.661095000000000099e-01 -1.232580000000000009e+00 1.060955000000000013e+02 1.469029999999999973e+03
1.300000000000000114e-02 4.658535000000000315e-01 -1.775729999999999809e+00 1.048670000000000044e+02 1.468724999999999909e+03
1.400000000000000203e-02 4.655534999999999535e-01 -2.375425000000000342e+00 1.033912499999999994e+02 1.468359999999999900e+03
1.499999999999999944e-02 4.652380000000000404e-01 -2.942234999999999712e+00 1.017565999999999917e+02 1.467934999999999945e+03
1.600000000000000033e-02 4.649404999999999788e-01 -3.377390000000000114e+00 1.000869500000000016e+02 1.467485000000000127e+03
1.700000000000000122e-02 4.646835000000000271e-01 -3.609275999999999929e+00 9.849460000000000548e+01 1.467035000000000082e+03
1.800000000000000211e-02 4.644705000000000084e-01 -3.611884499999999942e+00 9.704859999999999332e+01 1.466610000000000127e+03
1.900000000000000300e-02 4.642910000000000093e-01 -3.403228499999999990e+00 9.576085000000000491e+01 1.466204999999999927e+03
2.000000000000000042e-02 4.641259999999999830e-01 -3.030925500000000383e+00 9.459639999999998849e+01 1.465824999999999818e+03
2.100000000000000130e-02 4.639540000000000330e-01 -2.553261500000000073e+00 9.349235000000000184e+01 1.465454999999999927e+03
2.200000000000000219e-02 4.637594999999999912e-01 -2.021599999999999842e+00 9.238155000000000427e+01 1.465079999999999927e+03
2.299999999999999961e-02 4.635345000000000160e-01 -1.468215000000000270e+00 9.121309999999999718e+01 1.464695000000000164e+03
2.400000000000000050e-02 4.632824999999999860e-01 -9.021800000000002040e-01 8.996510000000000673e+01 1.464289999999999964e+03
2.500000000000000139e-02 4.630115000000000203e-01 -3.139050000000001006e-01 8.864570000000000505e+01 1.463865000000000009e+03
2.600000000000000228e-02 4.627330000000000054e-01 3.141449999999998965e-01 8.728385000000000105e+01 1.463429999999999836e+03
2.700000000000000316e-02 4.624574999999999658e-01 9.950600000000000556e-01 8.591384999999999650e+01 1.462990000000000009e+03
2.800000000000000058e-02 4.621880000000000432e-01 1.727835000000000010e+00 8.456080000000000041e+01 1.462549999999999955e+03
2.900000000000000147e-02 4.619219999999999993e-01 2.492999999999999883e+00 8.322974999999999568e+01 1.462110000000000127e+03
3.000000000000000236e-02 4.616504999999999637e-01 3.253870000000000040e+00 8.190210000000000434e+01 1.461679999999999836e+03
3.099999999999999978e-02 4.613614999999999799e-01 3.962444999999999773e+00 8.053874999999999318e+01 1.461235000000000127e+03
3.200000000000000067e-02 4.610420000000000629e-01 4.568004999999999427e+00 7.908894999999999698e+01 1.460775000000000091e+03
3.300000000000000155e-02 4.606804999999999928e-01 5.026835000000000164e+00 7.750204999999999700e+01 1.460285000000000082e+03
3.400000000000000244e-02 4.602729999999999877e-01 5.310354999999999492e+00 7.574054999999999893e+01 1.459750000000000000e+03
3.500000000000000333e-02 4.598204999999999654e-01 5.410840000000000316e+00 7.379054999999999609e+01 1.459180000000000064e+03
3.600000000000000422e-02 4.593320000000000181e-01 5.342660000000000409e+00 7.166779999999999973e+01 1.458569999999999936e+03
3.700000000000000511e-02 4.588240000000000096e-01 5.139605000000000423e+00 6.941800000000000637e+01 1.457920000000000073e+03
3.799999999999999906e-02 4.583145000000000135e-01 4.848395000000000010e+00 6.711140000000000327e+01 1.457255000000000109e+03
3.899999999999999994e-02 4.578234999999999943e-01 4.521475000000000577e+00 6.483379999999999654e+01 1.456595000000000027e+03
4.000000000000000083e-02 4.573699999999999988e-01 4.209670000000000023e+00 6.267574999999999363e+01 1.455960000000000036e+03
4.100000000000000172e-02 4.569699999999999873e-01 3.956770000000000120e+00 6.072319999999999851e+01 1.455375000000000000e+03
4.200000000000000261e-02 4.566350000000000131e-01 3.796734999999999971e+00 5.904970000000000141e+01 1.454849999999999909e+03
4.300000000000000350e-02 4.563734999999999875e-01 3.752924999999999844e+00 5.771229999999999905e+01 1.454414999999999964e+03
4.400000000000000439e-02 4.561895000000000255e-01 3.839224000000000192e+00 5.674974999999999881e+01 1.454075000000000045e+03
4.499999999999999833e-02 4.560840000000000449e-01 4.062330000000000219e+00 5.618399999999999750e+01 1.453849999999999909e+03
4.599999999999999922e-02 4.560575000000000045e-01 4.424459999999999837e+00 5.602280000000000371e+01 1.453730000000000018e+03
4.700000000000000011e-02 4.561079999999999579e-01 4.925774999999999793e+00 5.626335000000000264e+01 1.453720000000000027e+03
4.800000000000000100e-02 4.562335000000000140e-01 5.566119999999999735e+00 5.689620000000000033e+01 1.453824999999999818e+03
4.900000000000000189e-02 4.564325000000000188e-01 6.345739999999999270e+00 5.790785000000000338e+01 1.454039999999999964e+03
5.000000000000000278e-02 4.567019999999999968e-01 7.265045000000000641e+00 5.928274999999999295e+01 1.454369999999999891e+03
5.100000000000000366e-02 4.570395000000000429e-01 8.323574999999999946e+00 6.100339999999999918e+01 1.454795000000000073e+03
5.200000000000000455e-02 4.574424999999999741e-01 9.518649999999999167e+00 6.305030000000000001e+01 1.455324999999999818e+03
5.300000000000000544e-02 4.579054999999999653e-01 1.084427999999999948e+01 6.540064999999999884e+01 1.455940000000000055e+03
5.399999999999999939e-02 4.584224999999999550e-01 1.228994499999999945e+01 6.802734999999999843e+01 1.456650000000000091e+03
5.500000000000000028e-02 4.589885000000000215e-01 1.384055999999999997e+01 7.089849999999999852e+01 1.457429999999999836e+03
5.600000000000000117e-02 4.595940000000000025e-01 1.547691499999999998e+01 7.397745000000000459e+01 1.458275000000000091e+03
5.700000000000000205e-02 4.602304999999999868e-01 1.717637500000000017e+01 7.722339999999999804e+01 1.459179999999999836e+03
5.800000000000000294e-02 4.608889999999999931e-01 1.891427000000000191e+01 8.059284999999999854e+01 1.460135000000000218e+03
5.900000000000000383e-02 4.615609999999999991e-01 2.066554999999999964e+01 8.404169999999999163e+01 1.461119999999999891e+03
6.000000000000000472e-02 4.622370000000000090e-01 2.240579999999999927e+01 8.752705000000000268e+01 1.462130000000000109e+03
6.099999999999999867e-02 4.629094999999999738e-01 2.411310000000000286e+01 9.100929999999999609e+01 1.463144999999999982e+03
6.199999999999999956e-02 4.635740000000000416e-01 2.576825000000000188e+01 9.445310000000000628e+01 1.464164999999999964e+03
6.300000000000000044e-02 4.642240000000000255e-01 2.735600000000000165e+01 9.782984999999999332e+01 1.465174999999999955e+03
6.400000000000000133e-02 4.648575000000000346e-01 2.886460000000000292e+01 1.011186000000000007e+02 1.466170000000000073e+03
6.500000000000000222e-02 4.654715000000000380e-01 3.028630000000000067e+01 1.043034999999999997e+02 1.467144999999999982e+03
6.600000000000000311e-02 4.660650000000000071e-01 3.161670000000000158e+01 1.073766499999999979e+02 1.468089999999999918e+03
6.700000000000000400e-02 4.666394999999999849e-01 3.285425000000000040e+01 1.103367499999999950e+02 1.469005000000000109e+03
6.800000000000000488e-02 4.671950000000000269e-01 3.399980000000000047e+01 1.131855000000000047e+02 1.469904999999999973e+03
6.900000000000000577e-02 4.677334999999999687e-01 3.505610000000000070e+01 1.159309999999999974e+02 1.470769999999999982e+03
7.000000000000000666e-02 4.682564999999999644e-01 3.602710000000000434e+01 1.185815000000000055e+02 1.471605000000000018e+03
7.100000000000000755e-02 4.687664999999999749e-01 3.691754999999999853e+01 1.211490000000000009e+02 1.472420000000000073e+03
7.200000000000000844e-02 4.692650000000000432e-01 3.773229999999999507e+01 1.236440000000000055e+02 1.473215000000000146e+03
7.300000000000000933e-02 4.697544999999999638e-01 3.847624999999999318e+01 1.260769999999999982e+02 1.473990000000000009e+03
7.399999999999999634e-02 4.702355000000000285e-01 3.915350000000000108e+01 1.284575000000000102e+02 1.474755000000000109e+03
7.499999999999999722e-02 4.707090000000000440e-01 3.976735000000000042e+01 1.307909999999999968e+02 1.475494999999999891e+03
7.599999999999999811e-02 4.711750000000000105e-01 4.032000000000000028e+01 1.330805000000000007e+02 1.476230000000000018e+03
7.699999999999999900e-02 4.716334999999999833e-01 4.081244999999999834e+01 1.353255000000000052e+02 1.476950000000000045e+03
7.799999999999999989e-02 4.720824999999999605e-01 4.124439999999999884e+01 1.375235000000000127e+02 1.477654999999999973e+03
7.900000000000000078e-02 4.725209999999999688e-01 4.161435000000000173e+01 1.396670000000000016e+02 1.478339999999999918e+03
8.000000000000000167e-02 4.729465000000000474e-01 4.191984999999999673e+01 1.417464999999999975e+02 1.479009999999999991e+03
8.100000000000000255e-02 4.733559999999999990e-01 4.215784999999999627e+01 1.437500000000000000e+02 1.479659999999999854e+03
8.200000000000000344e-02 4.737474999999999881e-01 4.232495000000000118e+01 1.456645000000000039e+02 1.480279999999999973e+03
8.300000000000000433e-02 4.741174999999999695e-01 4.241759999999999309e+01 1.474749999999999943e+02 1.480875000000000000e+03
8.400000000000000522e-02 4.744639999999999969e-01 4.243264999999999532e+01 1.491689999999999827e+02 1.481429999999999836e+03
8.500000000000000611e-02 4.747839999999999838e-01 4.236745000000000516e+01 1.507334999999999923e+02 1.481954999999999927e+03
8.600000000000000699e-02 4.750759999999999983e-01 4.222030000000000172e+01 1.521564999999999941e+02 1.482434999999999945e+03
8.700000000000000788e-02 4.753380000000000383e-01 4.199025000000000318e+01 1.534294999999999902e+02 1.482869999999999891e+03
8.800000000000000877e-02 4.755685000000000051e-01 4.167770000000000152e+01 1.545449999999999875e+02 1.483264999999999873e+03
8.899999999999999578e-02 4.757675000000000098e-01 4.128400000000000603e+01 1.555000000000000000e+02 1.483610000000000127e+03
8.999999999999999667e-02 4.759344999999999826e-01 4.081184999999999974e+01 1.562930000000000064e+02 1.483904999999999973e+03
9.099999999999999756e-02 4.760704999999999520e-01 4.026500000000000057e+01 1.569250000000000114e+02 1.484150000000000091e+03
9.199999999999999845e-02 4.761760000000000437e-01 3.964830000000000609e+01 1.574010000000000105e+02 1.484349999999999909e+03
9.299999999999999933e-02 4.762524999999999675e-01 3.896770000000000067e+01 1.577280000000000086e+02 1.484505000000000109e+03
9.400000000000000022e-02 4.763015000000000443e-01 3.822995000000000232e+01 1.579149999999999920e+02 1.484610000000000127e+03
9.500000000000000111e-02 4.763264999999999860e-01 3.744265000000000043e+01 1.579730000000000132e+02 1.484674999999999955e+03
9.600000000000000200e-02 4.763280000000000292e-01 3.661390000000000100e+01 1.579145000000000039e+02 1.484704999999999927e+03
9.700000000000000289e-02 4.763105000000000255e-01 3.575239999999999441e+01 1.577545000000000073e+02 1.484700000000000045e+03
9.800000000000000377e-02 4.762760000000000327e-01 3.486690000000000111e+01 1.575070000000000050e+02 1.484664999999999964e+03
9.900000000000000466e-02 4.762275000000000258e-01 3.396625000000000227e+01 1.571875000000000000e+02 1.484599999999999909e+03
1.000000000000000056e-01 4.761680000000000357e-01 3.305915000000000248e+01 1.568110000000000070e+02 1.484514999999999873e+03
1.010000000000000064e-01 4.761004999999999820e-01 3.215364999999999895e+01 1.563924999999999841e+02 1.484409999999999854e+03
1.020000000000000073e-01 4.760269999999999779e-01 3.125724999999999909e+01 1.559449999999999932e+02 1.484299999999999955e+03
1.030000000000000082e-01 4.759505000000000541e-01 3.037644999999999840e+01 1.554824999999999875e+02 1.484174999999999955e+03
1.040000000000000091e-01 4.758724999999999761e-01 2.951664999999999850e+01 1.550149999999999864e+02 1.484039999999999964e+03
1.050000000000000100e-01 4.757940000000000502e-01 2.868205000000000027e+01 1.545514999999999759e+02 1.483910000000000082e+03
1.059999999999999970e-01 4.757175000000000153e-01 2.787545000000000073e+01 1.540989999999999895e+02 1.483775000000000091e+03
1.069999999999999979e-01 4.756429999999999825e-01 2.709825000000000017e+01 1.536614999999999895e+02 1.483639999999999873e+03
1.079999999999999988e-01 4.755699999999999927e-01 2.635045000000000215e+01 1.532409999999999854e+02 1.483509999999999991e+03
1.089999999999999997e-01 4.754995000000000194e-01 2.563090000000000046e+01 1.528375000000000057e+02 1.483384999999999991e+03
1.100000000000000006e-01 4.754300000000000193e-01 2.493710000000000093e+01 1.524490000000000123e+02 1.483259999999999991e+03
1.110000000000000014e-01 4.753614999999999924e-01 2.426565000000000083e+01 1.520709999999999980e+02 1.483139999999999873e+03
1.120000000000000023e-01 4.752919999999999923e-01 2.361234999999999928e+01 1.516990000000000123e+02 1.483019999999999982e+03
1.130000000000000032e-01 4.752210000000000045e-01 2.297259999999999991e+01 1.513259999999999934e+02 1.482900000000000091e+03
1.140000000000000041e-01 4.751465000000000272e-01 2.234125000000000227e+01 1.509449999999999932e+02 1.482779999999999973e+03
1.150000000000000050e-01 4.750675000000000314e-01 2.171329999999999671e+01 1.505475000000000136e+02 1.482654999999999973e+03
1.160000000000000059e-01 4.749824999999999742e-01 2.108370000000000033e+01 1.501279999999999859e+02 1.482519999999999982e+03
1.170000000000000068e-01 4.748904999999999932e-01 2.044790000000000063e+01 1.496790000000000020e+02 1.482380000000000109e+03
1.180000000000000077e-01 4.747905000000000042e-01 1.980185000000000173e+01 1.491940000000000168e+02 1.482235000000000127e+03
1.190000000000000085e-01 4.746814999999999785e-01 1.914220000000000255e+01 1.486694999999999993e+02 1.482074999999999818e+03
1.200000000000000094e-01 4.745639999999999858e-01 1.846634999999999849e+01 1.481014999999999873e+02 1.481910000000000082e+03
1.209999999999999964e-01 4.744369999999999976e-01 1.777275000000000205e+01 1.474879999999999995e+02 1.481730000000000018e+03
1.219999999999999973e-01 4.743005000000000138e-01 1.706080000000000041e+01 1.468294999999999959e+02 1.481535000000000082e+03
1.229999999999999982e-01 4.741560000000000219e-01 1.633089999999999975e+01 1.461274999999999977e+02 1.481325000000000045e+03
1.239999999999999991e-01 4.740029999999999522e-01 1.558449999999999847e+01 1.453849999999999909e+02 1.481105000000000018e+03
1.250000000000000000e-01 4.738439999999999874e-01 1.482410499999999942e+01 1.446069999999999993e+02 1.480880000000000109e+03
1.260000000000000009e-01 4.736789999999999612e-01 1.405298999999999943e+01 1.438000000000000114e+02 1.480639999999999873e+03
1.270000000000000018e-01 4.735110000000000152e-01 1.327541499999999886e+01 1.429714999999999918e+02 1.480394999999999982e+03
1.280000000000000027e-01 4.733420000000000405e-01 1.249625499999999967e+01 1.421304999999999836e+02 1.480144999999999982e+03
1.290000000000000036e-01 4.731724999999999959e-01 1.172098500000000065e+01 1.412860000000000014e+02 1.479889999999999873e+03
1.300000000000000044e-01 4.730055000000000232e-01 1.095536500000000046e+01 1.404490000000000123e+02 1.479644999999999982e+03
1.310000000000000053e-01 4.728430000000000133e-01 1.020536000000000065e+01 1.396285000000000025e+02 1.479394999999999982e+03
1.320000000000000062e-01 4.726865000000000094e-01 9.477000000000000313e+00 1.388354999999999961e+02 1.479154999999999973e+03
1.330000000000000071e-01 4.725384999999999724e-01 8.775925000000000864e+00 1.380794999999999959e+02 1.478914999999999964e+03
1.340000000000000080e-01 4.724000000000000421e-01 8.107565000000001021e+00 1.373679999999999950e+02 1.478695000000000164e+03
1.350000000000000089e-01 4.722730000000000539e-01 7.476510000000000211e+00 1.367104999999999961e+02 1.478484999999999900e+03
1.360000000000000098e-01 4.721579999999999666e-01 6.886865000000000236e+00 1.361120000000000232e+02 1.478289999999999964e+03
1.370000000000000107e-01 4.720559999999999756e-01 6.341665000000000774e+00 1.355774999999999864e+02 1.478115000000000009e+03
1.380000000000000115e-01 4.719680000000000542e-01 5.843040000000000234e+00 1.351100000000000136e+02 1.477960000000000036e+03
1.390000000000000124e-01 4.718935000000000213e-01 5.392109999999999737e+00 1.347105000000000246e+02 1.477820000000000164e+03
1.400000000000000133e-01 4.718314999999999593e-01 4.988984999999999559e+00 1.343779999999999859e+02 1.477704999999999927e+03
1.410000000000000142e-01 4.717830000000000079e-01 4.632775000000000531e+00 1.341109999999999900e+02 1.477599999999999909e+03
1.420000000000000151e-01 4.717455000000000398e-01 4.321695000000000064e+00 1.339039999999999964e+02 1.477519999999999982e+03
1.430000000000000160e-01 4.717185000000000406e-01 4.053160000000000096e+00 1.337535000000000025e+02 1.477454999999999927e+03
1.440000000000000169e-01 4.717004999999999670e-01 3.823915000000000397e+00 1.336514999999999986e+02 1.477405000000000200e+03
1.450000000000000178e-01 4.716905000000000125e-01 3.630195000000000061e+00 1.335914999999999964e+02 1.477369999999999891e+03
1.459999999999999909e-01 4.716865000000000085e-01 3.467890000000000139e+00 1.335654999999999859e+02 1.477345000000000027e+03
1.469999999999999918e-01 4.716865000000000085e-01 3.332710000000000061e+00 1.335660000000000025e+02 1.477329999999999927e+03
1.479999999999999927e-01 4.716894999999999838e-01 3.220304999999999751e+00 1.335840000000000032e+02 1.477320000000000164e+03
1.489999999999999936e-01 4.716939999999999467e-01 3.126440000000000108e+00 1.336129999999999995e+02 1.477315000000000055e+03
1.499999999999999944e-01 4.716994999999999383e-01 3.047094999999999665e+00 1.336455000000000268e+02 1.477309999999999945e+03
1.509999999999999953e-01 4.717029999999999834e-01 2.978569999999999940e+00 1.336754999999999995e+02 1.477309999999999945e+03
1.519999999999999962e-01 4.717054999999999998e-01 2.917524999999999924e+00 1.336979999999999791e+02 1.477309999999999945e+03
1.529999999999999971e-01 4.717049999999999854e-01 2.861060000000000159e+00 1.337085000000000150e+02 1.477309999999999945e+03
1.539999999999999980e-01 4.717019999999999547e-01 2.806729999999999947e+00 1.337035000000000196e+02 1.477304999999999836e+03
1.549999999999999989e-01 4.716955000000000453e-01 2.752534999999999954e+00 1.336814999999999998e+02 1.477295000000000073e+03
1.559999999999999998e-01 4.716850000000000209e-01 2.696915000000000173e+00 1.336409999999999911e+02 1.477279999999999973e+03
1.570000000000000007e-01 4.716710000000000069e-01 2.638745000000000118e+00 1.335810000000000173e+02 1.477264999999999873e+03
1.580000000000000016e-01 4.716534999999999478e-01 2.577269999999999950e+00 1.335014999999999930e+02 1.477240000000000009e+03
1.590000000000000024e-01 4.716325000000000101e-01 2.512134999999999785e+00 1.334044999999999845e+02 1.477210000000000036e+03
