# t [s], A [cm^2], U [cm/s], P [cPa], c [cm/s]
1.000000000000000021e-03 1.625079999999999858e-01 2.066820000000000324e-01 9.990254999999999086e+01 1.748230000000000018e+03
2.000000000000000042e-03 1.624875000000000069e-01 1.631447499999999939e+00 9.727580000000000382e+01 1.748049999999999955e+03
3.000000000000000062e-03 1.623904999999999932e-01 3.417272499999999713e+00 9.387059999999999604e+01 1.747250000000000000e+03
4.000000000000000083e-03 1.622359999999999913e-01 5.400131000000000014e+00 8.991644999999999754e+01 1.746005000000000109e+03
5.000000000000000104e-03 1.620504999999999862e-01 7.531060000000000088e+00 8.600075000000001069e+01 1.744525000000000091e+03
6.000000000000000125e-03 1.618545000000000122e-01 9.736380000000000479e+00 8.252289999999999281e+01 1.742974999999999909e+03
7.000000000000000146e-03 1.616620000000000001e-01 1.189443999999999946e+01 7.957945000000000846e+01 1.741465000000000146e+03
8.000000000000000167e-03 1.614785000000000248e-01 1.388010000000000055e+01 7.705174999999999841e+01 1.740049999999999955e+03
9.000000000000001055e-03 1.613060000000000049e-01 1.562869000000000064e+01 7.480635000000000900e+01 1.738740000000000009e+03
1.000000000000000194e-02 1.611489999999999867e-01 1.714225000000000065e+01 7.281770000000000209e+01 1.737555000000000064e+03
1.099999999999999936e-02 1.610099999999999865e-01 1.844350000000000023e+01 7.111775000000000091e+01 1.736519999999999982e+03
1.200000000000000025e-02 1.608894999999999909e-01 1.954759999999999920e+01 6.971549999999999159e+01 1.735634999999999991e+03
1.300000000000000114e-02 1.607870000000000132e-01 2.046464999999999890e+01 6.858750000000000568e+01 1.734889999999999873e+03
1.400000000000000203e-02 1.607024999999999981e-01 2.120380000000000109e+01 6.769595000000001050e+01 1.734279999999999973e+03
1.499999999999999944e-02 1.606334999999999846e-01 2.177145000000000152e+01 6.699129999999999541e+01 1.733789999999999964e+03
1.600000000000000033e-02 1.605759999999999965e-01 2.217620000000000147e+01 6.641890000000000782e+01 1.733389999999999873e+03
1.700000000000000122e-02 1.605300000000000060e-01 2.244170000000000087e+01 6.594925000000000637e+01 1.733075000000000045e+03
1.800000000000000211e-02 1.604935000000000112e-01 2.261720000000000041e+01 6.561390000000000100e+01 1.732829999999999927e+03
1.900000000000000300e-02 1.604694999999999871e-01 2.277230000000000132e+01 6.551229999999999620e+01 1.732679999999999836e+03
2.000000000000000042e-02 1.604610000000000203e-01 2.297704999999999842e+01 6.577559999999999718e+01 1.732639999999999873e+03
2.100000000000000130e-02 1.604720000000000035e-01 2.327830000000000155e+01 6.650645000000000095e+01 1.732735000000000127e+03
2.200000000000000219e-02 1.605044999999999944e-01 2.368365000000000009e+01 6.772485000000000355e+01 1.732985000000000127e+03
2.299999999999999961e-02 1.605570000000000053e-01 2.416029999999999944e+01 6.934669999999999845e+01 1.733384999999999991e+03
2.400000000000000050e-02 1.606250000000000178e-01 2.464594999999999914e+01 7.119854999999999734e+01 1.733889999999999873e+03
2.500000000000000139e-02 1.607014999999999971e-01 2.506824999999999903e+01 7.306109999999999616e+01 1.734465000000000146e+03
2.600000000000000228e-02 1.607784999999999909e-01 2.536339999999999861e+01 7.472265000000000157e+01 1.735055000000000064e+03
2.700000000000000316e-02 1.608490000000000197e-01 2.549109999999999943e+01 7.602545000000000641e+01 1.735589999999999918e+03
2.800000000000000058e-02 1.609074999999999811e-01 2.544069999999999965e+01 7.689414999999999623e+01 1.736045000000000073e+03
2.900000000000000147e-02 1.609519999999999840e-01 2.522934999999999661e+01 7.734010000000000673e+01 1.736394999999999982e+03
3.000000000000000236e-02 1.609825000000000006e-01 2.489329999999999998e+01 7.744429999999999836e+01 1.736639999999999873e+03
3.099999999999999978e-02 1.610010000000000052e-01 2.447610000000000241e+01 7.732605000000000928e+01 1.736795000000000073e+03
3.200000000000000067e-02 1.610105000000000008e-01 2.401695000000000135e+01 7.710730000000000928e+01 1.736880000000000109e+03
3.300000000000000155e-02 1.610155000000000058e-01 2.354214999999999947e+01 7.688284999999999059e+01 1.736925000000000182e+03
3.400000000000000244e-02 1.610179999999999945e-01 2.306170000000000186e+01 7.670310000000000628e+01 1.736944999999999936e+03
3.500000000000000333e-02 1.610185000000000088e-01 2.257104999999999961e+01 7.657115000000000293e+01 1.736954999999999927e+03
3.600000000000000422e-02 1.610185000000000088e-01 2.205615000000000236e+01 7.645295000000000130e+01 1.736960000000000036e+03
3.700000000000000511e-02 1.610165000000000068e-01 2.150065000000000026e+01 7.629605000000000814e+01 1.736950000000000045e+03
3.799999999999999906e-02 1.610115000000000018e-01 2.089325000000000188e+01 7.605054999999998699e+01 1.736914999999999964e+03
3.899999999999999994e-02 1.610014999999999918e-01 2.023335000000000150e+01 7.568800000000000239e+01 1.736845000000000027e+03
4.000000000000000083e-02 1.609869999999999912e-01 1.953334999999999866e+01 7.521375000000000455e+01 1.736740000000000009e+03
4.100000000000000172e-02 1.609685000000000143e-01 1.881889999999999930e+01 7.466979999999999507e+01 1.736610000000000127e+03
4.200000000000000261e-02 1.609475000000000211e-01 1.812474999999999881e+01 7.412924999999999898e+01 1.736460000000000036e+03
4.300000000000000350e-02 1.609275000000000011e-01 1.748939999999999984e+01 7.368254999999999200e+01 1.736315000000000055e+03
4.400000000000000439e-02 1.609119999999999995e-01 1.694794999999999874e+01 7.342000000000000171e+01 1.736190000000000055e+03
4.499999999999999833e-02 1.609035000000000049e-01 1.652649999999999864e+01 7.341384999999999650e+01 1.736130000000000109e+03
4.599999999999999922e-02 1.609055000000000069e-01 1.623724999999999952e+01 7.370380000000000109e+01 1.736134999999999991e+03
4.700000000000000011e-02 1.609185000000000199e-01 1.607675000000000054e+01 7.428940000000000055e+01 1.736224999999999909e+03
4.800000000000000100e-02 1.609430000000000027e-01 1.602665000000000006e+01 7.512914999999999566e+01 1.736394999999999982e+03
4.900000000000000189e-02 1.609769999999999812e-01 1.605649999999999977e+01 7.614695000000000391e+01 1.736639999999999873e+03
5.000000000000000278e-02 1.610179999999999945e-01 1.612805000000000177e+01 7.724314999999999998e+01 1.736940000000000055e+03
5.100000000000000366e-02 1.610624999999999973e-01 1.620025000000000048e+01 7.830850000000000932e+01 1.737264999999999873e+03
5.200000000000000455e-02 1.611060000000000270e-01 1.623379999999999868e+01 7.923765000000000214e+01 1.737585000000000036e+03
5.300000000000000544e-02 1.611444999999999961e-01 1.619490000000000052e+01 7.994084999999999752e+01 1.737875000000000000e+03
5.399999999999999939e-02 1.611750000000000127e-01 1.605794999999999817e+01 8.035204999999999131e+01 1.738099999999999909e+03
5.500000000000000028e-02 1.611945000000000183e-01 1.580635000000000012e+01 8.043250000000000455e+01 1.738244999999999891e+03
5.600000000000000117e-02 1.612009999999999832e-01 1.543280000000000030e+01 8.017090000000000316e+01 1.738300000000000182e+03
5.700000000000000205e-02 1.611940000000000039e-01 1.493774999999999942e+01 7.957980000000000587e+01 1.738255000000000109e+03
5.800000000000000294e-02 1.611730000000000107e-01 1.432809999999999917e+01 7.869030000000000769e+01 1.738105000000000018e+03
5.900000000000000383e-02 1.611390000000000045e-01 1.361554999999999893e+01 7.754560000000000741e+01 1.737860000000000127e+03
6.000000000000000472e-02 1.610940000000000150e-01 1.281435000000000102e+01 7.619524999999998727e+01 1.737529999999999973e+03
6.099999999999999867e-02 1.610385000000000011e-01 1.194073000000000029e+01 7.469010000000000105e+01 1.737119999999999891e+03
6.199999999999999956e-02 1.609754999999999936e-01 1.101162000000000063e+01 7.307925000000000182e+01 1.736655000000000200e+03
6.300000000000000044e-02 1.609059999999999935e-01 1.004454499999999939e+01 7.140819999999999368e+01 1.736144999999999982e+03
6.400000000000000133e-02 1.608324999999999894e-01 9.057249999999999801e+00 6.971899999999999409e+01 1.735595000000000027e+03
6.500000000000000222e-02 1.607569999999999832e-01 8.068245000000000999e+00 6.805074999999999363e+01 1.735034999999999854e+03
6.600000000000000311e-02 1.606805000000000039e-01 7.096679999999999211e+00 6.644110000000000582e+01 1.734470000000000027e+03
6.700000000000000400e-02 1.606055000000000121e-01 6.162654999999999994e+00 6.492709999999999582e+01 1.733909999999999854e+03
6.800000000000000488e-02 1.605340000000000100e-01 5.286989999999999412e+00 6.354634999999999678e+01 1.733375000000000000e+03
6.900000000000000577e-02 1.604679999999999995e-01 4.491004999999999470e+00 6.233704999999999785e+01 1.732884999999999991e+03
7.000000000000000666e-02 1.604085000000000094e-01 3.795945000000000125e+00 6.133745000000000402e+01 1.732434999999999945e+03
7.100000000000000755e-02 1.603574999999999862e-01 3.222265000000000157e+00 6.058459999999999468e+01 1.732054999999999836e+03
7.200000000000000844e-02 1.603180000000000160e-01 2.788775000000000226e+00 6.011299999999999955e+01 1.731744999999999891e+03
7.300000000000000933e-02 1.602899999999999880e-01 2.511795000000000222e+00 5.995244999999999891e+01 1.731529999999999973e+03
7.399999999999999634e-02 1.602754999999999874e-01 2.404319999999999791e+00 6.012615000000000265e+01 1.731414999999999964e+03
7.499999999999999722e-02 1.602760000000000018e-01 2.475360000000000227e+00 6.064934999999999832e+01 1.731400000000000091e+03
7.599999999999999811e-02 1.602925000000000044e-01 2.729474999999999874e+00 6.152805000000000035e+01 1.731509999999999991e+03
7.699999999999999900e-02 1.603239999999999943e-01 3.166539999999999910e+00 6.275835000000000008e+01 1.731730000000000018e+03
7.799999999999999989e-02 1.603720000000000145e-01 3.781765000000000043e+00 6.432675000000000409e+01 1.732075000000000045e+03
7.900000000000000078e-02 1.604360000000000230e-01 4.565965000000000273e+00 6.621059999999999945e+01 1.732535000000000082e+03
8.000000000000000167e-02 1.605145000000000044e-01 5.506005000000000038e+00 6.837924999999999898e+01 1.733105000000000018e+03
8.100000000000000255e-02 1.606069999999999998e-01 6.585430000000000561e+00 7.079589999999998895e+01 1.733775000000000091e+03
8.200000000000000344e-02 1.607115000000000071e-01 7.785239999999999938e+00 7.341919999999998936e+01 1.734545000000000073e+03
8.300000000000000433e-02 1.608264999999999834e-01 9.084620000000001028e+00 7.620534999999999570e+01 1.735389999999999873e+03
8.400000000000000522e-02 1.609504999999999963e-01 1.046191499999999941e+01 7.911005000000000109e+01 1.736300000000000182e+03
8.500000000000000611e-02 1.610810000000000020e-01 1.189525000000000077e+01 8.209040000000000248e+01 1.737275000000000091e+03
8.600000000000000699e-02 1.612164999999999848e-01 1.336353499999999883e+01 8.510669999999998936e+01 1.738279999999999973e+03
8.700000000000000788e-02 1.613554999999999851e-01 1.484680000000000000e+01 8.812350000000000705e+01 1.739319999999999936e+03
8.800000000000000877e-02 1.614964999999999873e-01 1.632710000000000150e+01 9.111095000000000255e+01 1.740369999999999891e+03
8.899999999999999578e-02 1.616369999999999751e-01 1.778875000000000028e+01 9.404550000000000409e+01 1.741424999999999955e+03
8.999999999999999667e-02 1.617770000000000041e-01 1.921840000000000259e+01 9.690970000000000084e+01 1.742474999999999909e+03
9.099999999999999756e-02 1.619149999999999756e-01 2.060560000000000258e+01 9.969259999999999877e+01 1.743519999999999982e+03
9.199999999999999845e-02 1.620499999999999996e-01 2.194239999999999924e+01 1.023890000000000100e+02 1.744539999999999964e+03
9.299999999999999933e-02 1.621829999999999938e-01 2.322325000000000017e+01 1.049997500000000059e+02 1.745545000000000073e+03
9.400000000000000022e-02 1.623120000000000118e-01 2.444494999999999862e+01 1.075275000000000034e+02 1.746525000000000091e+03
9.500000000000000111e-02 1.624379999999999991e-01 2.560585000000000022e+01 1.099805000000000064e+02 1.747485000000000127e+03
9.600000000000000200e-02 1.625610000000000110e-01 2.670599999999999952e+01 1.123665000000000020e+02 1.748430000000000064e+03
9.700000000000000289e-02 1.626819999999999933e-01 2.774630000000000152e+01 1.146959999999999980e+02 1.749345000000000027e+03
9.800000000000000377e-02 1.628000000000000003e-01 2.872825000000000273e+01 1.169765000000000015e+02 1.750244999999999891e+03
9.900000000000000466e-02 1.629160000000000053e-01 2.965355000000000274e+01 1.192169999999999987e+02 1.751134999999999991e+03
1.000000000000000056e-01 1.630294999999999939e-01 3.052380000000000138e+01 1.214215000000000089e+02 1.752009999999999991e+03
1.010000000000000064e-01 1.631420000000000092e-01 3.134024999999999750e+01 1.235939999999999941e+02 1.752869999999999891e+03
1.020000000000000073e-01 1.632520000000000082e-01 3.210370000000000346e+01 1.257344999999999970e+02 1.753720000000000027e+03
1.030000000000000082e-01 1.633609999999999784e-01 3.281409999999999627e+01 1.278400000000000034e+02 1.754559999999999945e+03
1.040000000000000091e-01 1.634685000000000166e-01 3.347074999999999534e+01 1.299064999999999941e+02 1.755385000000000218e+03
1.050000000000000100e-01 1.635739999999999972e-01 3.407240000000000180e+01 1.319254999999999995e+02 1.756199999999999818e+03
1.059999999999999970e-01 1.636769999999999892e-01 3.461690000000000111e+01 1.338885000000000218e+02 1.756994999999999891e+03
1.069999999999999979e-01 1.637775000000000203e-01 3.510184999999999889e+01 1.357844999999999800e+02 1.757764999999999873e+03
1.079999999999999988e-01 1.638745000000000063e-01 3.552429999999999666e+01 1.376024999999999920e+02 1.758525000000000091e+03
1.089999999999999997e-01 1.639684999999999893e-01 3.588110000000000355e+01 1.393290000000000077e+02 1.759244999999999891e+03
1.100000000000000006e-01 1.640584999999999960e-01 3.616880000000000450e+01 1.409530000000000030e+02 1.759940000000000055e+03
1.110000000000000014e-01 1.641430000000000111e-01 3.638434999999999775e+01 1.424629999999999939e+02 1.760599999999999909e+03
1.120000000000000023e-01 1.642230000000000079e-01 3.652459999999999951e+01 1.438480000000000132e+02 1.761220000000000027e+03
1.130000000000000032e-01 1.642969999999999986e-01 3.658675000000000210e+01 1.450974999999999966e+02 1.761795000000000073e+03
1.140000000000000041e-01 1.643650000000000111e-01 3.656869999999999976e+01 1.462040000000000077e+02 1.762324999999999818e+03
1.150000000000000050e-01 1.644260000000000166e-01 3.646869999999999834e+01 1.471610000000000014e+02 1.762800000000000182e+03
1.160000000000000059e-01 1.644800000000000151e-01 3.628589999999999804e+01 1.479625000000000057e+02 1.763230000000000018e+03
1.170000000000000068e-01 1.645270000000000066e-01 3.602015000000000100e+01 1.486064999999999827e+02 1.763599999999999909e+03
1.180000000000000077e-01 1.645665000000000044e-01 3.567229999999999990e+01 1.490914999999999964e+02 1.763914999999999964e+03
1.190000000000000085e-01 1.645989999999999953e-01 3.524410000000000309e+01 1.494194999999999993e+02 1.764170000000000073e+03
1.200000000000000094e-01 1.646230000000000193e-01 3.473850000000000193e+01 1.495935000000000059e+02 1.764365000000000009e+03
1.209999999999999964e-01 1.646400000000000086e-01 3.415935000000000343e+01 1.496200000000000045e+02 1.764509999999999991e+03
1.219999999999999973e-01 1.646505000000000052e-01 3.351144999999999641e+01 1.495065000000000168e+02 1.764595000000000027e+03
1.229999999999999982e-01 1.646535000000000082e-01 3.280065000000000452e+01 1.492634999999999934e+02 1.764630000000000109e+03
1.239999999999999991e-01 1.646505000000000052e-01 3.203359999999999985e+01 1.489025000000000034e+02 1.764610000000000127e+03
1.250000000000000000e-01 1.646409999999999818e-01 3.121764999999999901e+01 1.484354999999999905e+02 1.764545000000000073e+03
1.260000000000000009e-01 1.646259999999999946e-01 3.036060000000000159e+01 1.478774999999999977e+02 1.764440000000000055e+03
1.270000000000000018e-01 1.646064999999999889e-01 2.947079999999999700e+01 1.472435000000000116e+02 1.764295000000000073e+03
1.280000000000000027e-01 1.645830000000000071e-01 2.855644999999999811e+01 1.465469999999999970e+02 1.764119999999999891e+03
1.290000000000000036e-01 1.645559999999999801e-01 2.762590000000000146e+01 1.458034999999999854e+02 1.763914999999999964e+03
1.300000000000000044e-01 1.645254999999999912e-01 2.668715000000000259e+01 1.450269999999999868e+02 1.763684999999999945e+03
1.310000000000000053e-01 1.644930000000000003e-01 2.574774999999999991e+01 1.442284999999999968e+02 1.763440000000000055e+03
1.320000000000000062e-01 1.644585000000000075e-01 2.481450000000000244e+01 1.434209999999999923e+02 1.763174999999999955e+03
1.330000000000000071e-01 1.644229999999999858e-01 2.389359999999999928e+01 1.426139999999999759e+02 1.762904999999999973e+03
1.340000000000000080e-01 1.643870000000000053e-01 2.299024999999999963e+01 1.418139999999999930e+02 1.762630000000000109e+03
1.350000000000000089e-01 1.643509999999999971e-01 2.210869999999999891e+01 1.410279999999999916e+02 1.762349999999999909e+03
1.360000000000000098e-01 1.643145000000000022e-01 2.125215000000000032e+01 1.402584999999999980e+02 1.762070000000000164e+03
1.370000000000000107e-01 1.642790000000000084e-01 2.042285000000000039e+01 1.395090000000000146e+02 1.761795000000000073e+03
1.380000000000000115e-01 1.642430000000000001e-01 1.962190000000000012e+01 1.387775000000000034e+02 1.761514999999999873e+03
1.390000000000000124e-01 1.642080000000000206e-01 1.884960000000000235e+01 1.380634999999999764e+02 1.761244999999999891e+03
1.400000000000000133e-01 1.641735000000000000e-01 1.810529999999999973e+01 1.373629999999999995e+02 1.760974999999999909e+03
1.410000000000000142e-01 1.641394999999999937e-01 1.738739999999999952e+01 1.366720000000000255e+02 1.760704999999999927e+03
1.420000000000000151e-01 1.641055000000000152e-01 1.669384999999999764e+01 1.359839999999999804e+02 1.760440000000000055e+03
1.430000000000000160e-01 1.640709999999999946e-01 1.602189999999999870e+01 1.352940000000000111e+02 1.760179999999999836e+03
1.440000000000000169e-01 1.640365000000000018e-01 1.536844999999999928e+01 1.345939999999999941e+02 1.759910000000000082e+03
1.450000000000000178e-01 1.640019999999999811e-01 1.473014999999999830e+01 1.338779999999999859e+02 1.759639999999999873e+03
1.459999999999999909e-01 1.639660000000000006e-01 1.410350000000000037e+01 1.331380000000000052e+02 1.759365000000000009e+03
1.469999999999999918e-01 1.639295000000000058e-01 1.348495000000000132e+01 1.323689999999999998e+02 1.759079999999999927e+03
1.479999999999999927e-01 1.638914999999999955e-01 1.287130000000000152e+01 1.315645000000000095e+02 1.758785000000000082e+03
1.489999999999999936e-01 1.638525000000000120e-01 1.225955000000000084e+01 1.307205000000000155e+02 1.758485000000000127e+03
1.499999999999999944e-01 1.638109999999999844e-01 1.164698500000000081e+01 1.298329999999999984e+02 1.758164999999999964e+03
1.509999999999999953e-01 1.637675000000000103e-01 1.103166500000000028e+01 1.288994999999999891e+02 1.757829999999999927e+03
1.519999999999999962e-01 1.637219999999999787e-01 1.041206500000000013e+01 1.279189999999999969e+02 1.757485000000000127e+03
1.529999999999999971e-01 1.636745000000000005e-01 9.787504999999999455e+00 1.268924999999999983e+02 1.757119999999999891e+03
1.539999999999999980e-01 1.636250000000000204e-01 9.157959999999999212e+00 1.258220000000000027e+02 1.756735000000000127e+03
1.549999999999999989e-01 1.635734999999999828e-01 8.524100000000000676e+00 1.247104999999999961e+02 1.756339999999999918e+03
1.559999999999999998e-01 1.635194999999999843e-01 7.887415000000000731e+00 1.235639999999999930e+02 1.755930000000000064e+03
1.570000000000000007e-01 1.634645000000000126e-01 7.250194999999999723e+00 1.223890000000000100e+02 1.755509999999999991e+03
1.580000000000000016e-01 1.634079999999999977e-01 6.615244999999999820e+00 1.211920000000000073e+02 1.755075000000000045e+03
1.590000000000000024e-01 1.633499999999999952e-01 5.986060000000000159e+00 1.199840000000000089e+02 1.754634999999999991e+03
