# t [s], A [cm^2], U [cm/s], P [cPa], c [cm/s]
1.000000000000000021e-03 6.190565000000000095e-01 3.161199999999995958e-03 9.701595000000000368e+01 1.426215000000000146e+03
2.000000000000000042e-03 6.190480000000000427e-01 -7.472750000000000442e-04 9.699994999999999834e+01 1.426210000000000036e+03
3.000000000000000062e-03 6.190809999999999924e-01 5.010400000000000964e-02 9.704439999999999600e+01 1.426224999999999909e+03
4.000000000000000083e-03 6.191370000000000484e-01 1.366129500000000108e-01 9.714339999999999975e+01 1.426255000000000109e+03
5.000000000000000104e-03 6.191484999999999905e-01 1.607121999999999995e-01 9.717319999999999425e+01 1.426269999999999982e+03
6.000000000000000125e-03 6.191105000000000080e-01 1.091479999999999950e-01 9.708760000000000900e+01 1.426250000000000000e+03
7.000000000000000146e-03 6.190625000000000711e-01 3.811100000000000598e-02 9.693160000000000309e+01 1.426210000000000036e+03
8.000000000000000167e-03 6.190145000000000231e-01 -3.734250000000000069e-02 9.672950000000000159e+01 1.426160000000000082e+03
9.000000000000001055e-03 6.189369999999999594e-01 -1.660169999999999702e-01 9.643299999999999272e+01 1.426085000000000036e+03
1.000000000000000194e-02 6.188130000000000575e-01 -3.777800000000000047e-01 9.599394999999999811e+01 1.425965000000000146e+03
1.099999999999999936e-02 6.186369999999999925e-01 -6.766799999999999482e-01 9.538394999999999868e+01 1.425804999999999836e+03
1.200000000000000025e-02 6.183989999999999210e-01 -1.071879999999999944e+00 9.456874999999999432e+01 1.425590000000000146e+03
1.300000000000000114e-02 6.180879999999999708e-01 -1.568959999999999910e+00 9.351529999999999632e+01 1.425295000000000073e+03
1.400000000000000203e-02 6.177124999999999977e-01 -2.140075000000000394e+00 9.222714999999999463e+01 1.424940000000000055e+03
1.499999999999999944e-02 6.173039999999999639e-01 -2.715060000000000251e+00 9.076534999999999798e+01 1.424514999999999873e+03
1.600000000000000033e-02 6.169050000000000367e-01 -3.203504999999999825e+00 8.923290000000000077e+01 1.424059999999999945e+03
1.700000000000000122e-02 6.165490000000000137e-01 -3.527911999999999715e+00 8.773829999999999529e+01 1.423599999999999909e+03
1.800000000000000211e-02 6.162520000000000220e-01 -3.646480500000000013e+00 8.636125000000001251e+01 1.423150000000000091e+03
1.900000000000000300e-02 6.160075000000000411e-01 -3.558453999999999784e+00 8.513550000000000750e+01 1.422735000000000127e+03
2.000000000000000042e-02 6.157969999999999278e-01 -3.295875499999999736e+00 8.404890000000000327e+01 1.422339999999999918e+03
2.100000000000000130e-02 6.155939999999999745e-01 -2.908587999999999951e+00 8.305604999999999905e+01 1.421969999999999800e+03
2.200000000000000219e-02 6.153735000000000177e-01 -2.448221000000000203e+00 8.209659999999999513e+01 1.421605000000000018e+03
2.299999999999999961e-02 6.151210000000000289e-01 -1.954984999999999973e+00 8.111455000000000837e+01 1.421235000000000127e+03
2.400000000000000050e-02 6.148320000000000451e-01 -1.450215000000000032e+00 8.007255000000000678e+01 1.420849999999999909e+03
2.500000000000000139e-02 6.145104999999999595e-01 -9.359399999999997721e-01 7.895879999999999654e+01 1.420444999999999936e+03
2.600000000000000228e-02 6.141695000000000348e-01 -4.008500000000001506e-01 7.778479999999998995e+01 1.420025000000000091e+03
2.700000000000000316e-02 6.138209999999999500e-01 1.699049999999999727e-01 7.657564999999999600e+01 1.419590000000000146e+03
2.800000000000000058e-02 6.134760000000000213e-01 7.850199999999998290e-01 7.535814999999999486e+01 1.419150000000000091e+03
2.900000000000000147e-02 6.131359999999999033e-01 1.440169999999999728e+00 7.414885000000001014e+01 1.418710000000000036e+03
3.000000000000000236e-02 6.127955000000000485e-01 2.115594999999999892e+00 7.294769999999999754e+01 1.418275000000000091e+03
3.099999999999999978e-02 6.124454999999999760e-01 2.777910000000000323e+00 7.173574999999999591e+01 1.417829999999999927e+03
3.200000000000000067e-02 6.120684999999999043e-01 3.385345000000000049e+00 7.047860000000000014e+01 1.417380000000000109e+03
3.300000000000000155e-02 6.116509999999999447e-01 3.894789999999999974e+00 6.913354999999999961e+01 1.416904999999999973e+03
3.400000000000000244e-02 6.111809999999999743e-01 4.269534999999999414e+00 6.765905000000000769e+01 1.416394999999999982e+03
3.500000000000000333e-02 6.106515000000000137e-01 4.485565000000000246e+00 6.602430000000001087e+01 1.415844999999999800e+03
3.600000000000000422e-02 6.100654999999999273e-01 4.536094999999999544e+00 6.421764999999999191e+01 1.415250000000000000e+03
3.700000000000000511e-02 6.094330000000000025e-01 4.432515000000000427e+00 6.225090000000000146e+01 1.414615000000000009e+03
3.799999999999999906e-02 6.087704999999999922e-01 4.202339999999999520e+00 6.016020000000000323e+01 1.413940000000000055e+03
3.899999999999999994e-02 6.081005000000000438e-01 3.884435000000000304e+00 5.800164999999999793e+01 1.413244999999999891e+03
4.000000000000000083e-02 6.074455000000000826e-01 3.523279999999999745e+00 5.584494999999999720e+01 1.412539999999999964e+03
4.100000000000000172e-02 6.068289999999999518e-01 3.163149999999999462e+00 5.376545000000000130e+01 1.411865000000000009e+03
4.200000000000000261e-02 6.062699999999999756e-01 2.843509999999999760e+00 5.183619999999999806e+01 1.411215000000000146e+03
4.300000000000000350e-02 6.057839999999999892e-01 2.596264999999999823e+00 5.012194999999999823e+01 1.410630000000000109e+03
4.400000000000000439e-02 6.053815000000000168e-01 2.444679999999999964e+00 4.867494999999999550e+01 1.410115000000000009e+03
4.499999999999999833e-02 6.050699999999999967e-01 2.403715000000000046e+00 4.753300000000000125e+01 1.409694999999999936e+03
4.599999999999999922e-02 6.048519999999999452e-01 2.481539999999999857e+00 4.671970000000000312e+01 1.409365000000000009e+03
4.700000000000000011e-02 6.047280000000000433e-01 2.681536499999999990e+00 4.624590000000000600e+01 1.409139999999999873e+03
4.800000000000000100e-02 6.046955000000000524e-01 3.004280000000000062e+00 4.611260000000000048e+01 1.409019999999999982e+03
4.900000000000000189e-02 6.047540000000000138e-01 3.449200000000000266e+00 4.631334999999999980e+01 1.409009999999999991e+03
5.000000000000000278e-02 6.048999999999999932e-01 4.015570000000000306e+00 4.683719999999999573e+01 1.409105000000000018e+03
5.100000000000000366e-02 6.051294999999999868e-01 4.702725000000000044e+00 4.767050000000000409e+01 1.409299999999999955e+03
5.200000000000000455e-02 6.054405000000000481e-01 5.509689999999999976e+00 4.879775000000000063e+01 1.409590000000000146e+03
5.300000000000000544e-02 6.058280000000000332e-01 6.434320000000000483e+00 5.020210000000000150e+01 1.409985000000000127e+03
5.399999999999999939e-02 6.062879999999999381e-01 7.472495000000000331e+00 5.186464999999999748e+01 1.410454999999999927e+03
5.500000000000000028e-02 6.068135000000000057e-01 8.616994999999999294e+00 5.376404999999999745e+01 1.411014999999999873e+03
5.600000000000000117e-02 6.073979999999999935e-01 9.857429999999999026e+00 5.587574999999999648e+01 1.411644999999999982e+03
5.700000000000000205e-02 6.080330000000000457e-01 1.117993500000000040e+01 5.817204999999999870e+01 1.412345000000000027e+03
5.800000000000000294e-02 6.087095000000000145e-01 1.256780499999999989e+01 6.062229999999999563e+01 1.413099999999999909e+03
5.900000000000000383e-02 6.094165000000000276e-01 1.400219000000000058e+01 6.319344999999999857e+01 1.413900000000000091e+03
6.000000000000000472e-02 6.101455000000000073e-01 1.546317499999999967e+01 6.585124999999999318e+01 1.414744999999999891e+03
6.099999999999999867e-02 6.108860000000000401e-01 1.693094500000000124e+01 6.856194999999999595e+01 1.415610000000000127e+03
6.199999999999999956e-02 6.116295000000000481e-01 1.838664999999999949e+01 7.129335000000000377e+01 1.416494999999999891e+03
6.300000000000000044e-02 6.123689999999999412e-01 1.981364999999999910e+01 7.401630000000000109e+01 1.417384999999999991e+03
6.400000000000000133e-02 6.130975000000000730e-01 2.119790000000000063e+01 7.670615000000000805e+01 1.418275000000000091e+03
6.500000000000000222e-02 6.138105000000000366e-01 2.252819999999999823e+01 7.934319999999999595e+01 1.419155000000000200e+03
6.600000000000000311e-02 6.145059999999999967e-01 2.379670000000000130e+01 8.191325000000000500e+01 1.420025000000000091e+03
6.700000000000000400e-02 6.151820000000000066e-01 2.499844999999999828e+01 8.440755000000000052e+01 1.420875000000000000e+03
6.800000000000000488e-02 6.158384999999999554e-01 2.613114999999999810e+01 8.682255000000000678e+01 1.421704999999999927e+03
6.900000000000000577e-02 6.164764999999999828e-01 2.719490000000000052e+01 8.915930000000000177e+01 1.422519999999999982e+03
7.000000000000000666e-02 6.170975000000000765e-01 2.819159999999999755e+01 9.142255000000000109e+01 1.423309999999999945e+03
7.100000000000000755e-02 6.177040000000000308e-01 2.912445000000000306e+01 9.362004999999999200e+01 1.424079999999999927e+03
7.200000000000000844e-02 6.182989999999999320e-01 2.999734999999999729e+01 9.576030000000000086e+01 1.424835000000000036e+03
7.300000000000000933e-02 6.188849999999999074e-01 3.081479999999999819e+01 9.785429999999999495e+01 1.425574999999999818e+03
7.399999999999999634e-02 6.194640000000000146e-01 3.158125000000000071e+01 9.991204999999999359e+01 1.426299999999999955e+03
7.499999999999999722e-02 6.200390000000000068e-01 3.230065000000000452e+01 1.019421499999999980e+02 1.427019999999999982e+03
7.599999999999999811e-02 6.206104999999999539e-01 3.297639999999999816e+01 1.039525000000000006e+02 1.427730000000000018e+03
7.699999999999999900e-02 6.211794999999999956e-01 3.361095000000000255e+01 1.059470000000000027e+02 1.428434999999999945e+03
7.799999999999999989e-02 6.217470000000000496e-01 3.420565000000000566e+01 1.079295000000000044e+02 1.429134999999999991e+03
7.900000000000000078e-02 6.223115000000000174e-01 3.476075000000000159e+01 1.098979999999999961e+02 1.429829999999999927e+03
8.000000000000000167e-02 6.228709999999999525e-01 3.527514999999999645e+01 1.118499999999999943e+02 1.430519999999999982e+03
8.100000000000000255e-02 6.234239999999999782e-01 3.574674999999999869e+01 1.137789999999999964e+02 1.431204999999999927e+03
8.200000000000000344e-02 6.239680000000000781e-01 3.617260000000000275e+01 1.156750000000000114e+02 1.431875000000000000e+03
8.300000000000000433e-02 6.244985000000000674e-01 3.654885000000000161e+01 1.175279999999999916e+02 1.432535000000000082e+03
8.400000000000000522e-02 6.250130000000000408e-01 3.687125000000000341e+01 1.193255000000000052e+02 1.433180000000000064e+03
8.500000000000000611e-02 6.255070000000000352e-01 3.713545000000000584e+01 1.210534999999999997e+02 1.433799999999999955e+03
8.600000000000000699e-02 6.259770000000000056e-01 3.733710000000000662e+01 1.226995000000000005e+02 1.434394999999999982e+03
8.700000000000000788e-02 6.264195000000000180e-01 3.747209999999999752e+01 1.242494999999999976e+02 1.434965000000000146e+03
8.800000000000000877e-02 6.268314999999999859e-01 3.753725000000000023e+01 1.256924999999999955e+02 1.435494999999999891e+03
8.899999999999999578e-02 6.272094999999999754e-01 3.752979999999999450e+01 1.270174999999999983e+02 1.435994999999999891e+03
8.999999999999999667e-02 6.275530000000000275e-01 3.744819999999999993e+01 1.282155000000000200e+02 1.436444999999999936e+03
9.099999999999999756e-02 6.278585000000000971e-01 3.729169999999999874e+01 1.292810000000000059e+02 1.436855000000000018e+03
9.199999999999999845e-02 6.281265000000000320e-01 3.706090000000000373e+01 1.302090000000000032e+02 1.437224999999999909e+03
9.299999999999999933e-02 6.283570000000000544e-01 3.675735000000000241e+01 1.309989999999999952e+02 1.437545000000000073e+03
9.400000000000000022e-02 6.285490000000000244e-01 3.638374999999999915e+01 1.316510000000000105e+02 1.437825000000000045e+03
9.500000000000000111e-02 6.287050000000000693e-01 3.594395000000000095e+01 1.321694999999999993e+02 1.438049999999999955e+03
9.600000000000000200e-02 6.288255000000000372e-01 3.544275000000000375e+01 1.325584999999999809e+02 1.438235000000000127e+03
9.700000000000000289e-02 6.289130000000000553e-01 3.488575000000000159e+01 1.328269999999999982e+02 1.438375000000000000e+03
9.800000000000000377e-02 6.289715000000000167e-01 3.427955000000000041e+01 1.329834999999999923e+02 1.438480000000000018e+03
9.900000000000000466e-02 6.290014999999999912e-01 3.363115000000000521e+01 1.330389999999999873e+02 1.438545000000000073e+03
1.000000000000000056e-01 6.290084999999999704e-01 3.294814999999999827e+01 1.330049999999999955e+02 1.438575000000000045e+03
1.010000000000000064e-01 6.289945000000000119e-01 3.223839999999999861e+01 1.328940000000000055e+02 1.438579999999999927e+03
1.020000000000000073e-01 6.289635000000000087e-01 3.150985000000000014e+01 1.327195000000000107e+02 1.438554999999999836e+03
1.030000000000000082e-01 6.289190000000000058e-01 3.077019999999999911e+01 1.324939999999999998e+02 1.438509999999999991e+03
1.040000000000000091e-01 6.288645000000000485e-01 3.002679999999999794e+01 1.322299999999999898e+02 1.438444999999999936e+03
1.050000000000000100e-01 6.288019999999999721e-01 2.928669999999999973e+01 1.319395000000000095e+02 1.438369999999999891e+03
1.059999999999999970e-01 6.287354999999998917e-01 2.855584999999999951e+01 1.316330000000000098e+02 1.438289999999999964e+03
1.069999999999999979e-01 6.286669999999999758e-01 2.783950000000000102e+01 1.313199999999999932e+02 1.438195000000000164e+03
1.079999999999999988e-01 6.285979999999999901e-01 2.714174999999999827e+01 1.310084999999999980e+02 1.438099999999999909e+03
1.089999999999999997e-01 6.285304999999999920e-01 2.646555000000000035e+01 1.307034999999999911e+02 1.438000000000000000e+03
1.100000000000000006e-01 6.284644999999999815e-01 2.581259999999999977e+01 1.304089999999999918e+02 1.437905000000000200e+03
1.110000000000000014e-01 6.284009999999999874e-01 2.518365000000000009e+01 1.301270000000000095e+02 1.437809999999999945e+03
1.120000000000000023e-01 6.283395000000000508e-01 2.457799999999999940e+01 1.298580000000000041e+02 1.437720000000000027e+03
1.130000000000000032e-01 6.282784999999999620e-01 2.399399999999999977e+01 1.295995000000000061e+02 1.437625000000000000e+03
1.140000000000000041e-01 6.282185000000000130e-01 2.342929999999999779e+01 1.293485000000000014e+02 1.437539999999999964e+03
1.150000000000000050e-01 6.281569999999999654e-01 2.288070000000000093e+01 1.291005000000000109e+02 1.437449999999999818e+03
1.160000000000000059e-01 6.280930000000000124e-01 2.234434999999999860e+01 1.288495000000000061e+02 1.437360000000000127e+03
1.170000000000000068e-01 6.280244999999999855e-01 2.181625000000000014e+01 1.285900000000000034e+02 1.437264999999999873e+03
1.180000000000000077e-01 6.279500000000000082e-01 2.129224999999999923e+01 1.283149999999999977e+02 1.437170000000000073e+03
1.190000000000000085e-01 6.278675000000000228e-01 2.076825000000000188e+01 1.280190000000000055e+02 1.437070000000000164e+03
1.200000000000000094e-01 6.277760000000000007e-01 2.024034999999999940e+01 1.276949999999999932e+02 1.436954999999999927e+03
1.209999999999999964e-01 6.276740000000000652e-01 1.970514999999999972e+01 1.273395000000000152e+02 1.436835000000000036e+03
1.219999999999999973e-01 6.275614999999999943e-01 1.915970000000000084e+01 1.269474999999999909e+02 1.436704999999999927e+03
1.229999999999999982e-01 6.274364999999999526e-01 1.860190000000000055e+01 1.265155000000000030e+02 1.436565000000000055e+03
1.239999999999999991e-01 6.272999999999999687e-01 1.803020000000000067e+01 1.260424999999999898e+02 1.436405000000000200e+03
1.250000000000000000e-01 6.271510000000000140e-01 1.744385000000000119e+01 1.255275000000000034e+02 1.436235000000000127e+03
1.260000000000000009e-01 6.269910000000000760e-01 1.684319999999999951e+01 1.249724999999999966e+02 1.436055000000000064e+03
1.270000000000000018e-01 6.268199999999999328e-01 1.622919999999999874e+01 1.243804999999999978e+02 1.435860000000000127e+03
1.280000000000000027e-01 6.266410000000000036e-01 1.560365000000000002e+01 1.237540000000000049e+02 1.435654999999999973e+03
1.290000000000000036e-01 6.264540000000000664e-01 1.496925000000000061e+01 1.230990000000000038e+02 1.435434999999999945e+03
1.300000000000000044e-01 6.262615000000000265e-01 1.432922999999999902e+01 1.224215000000000089e+02 1.435215000000000146e+03
1.310000000000000053e-01 6.260654999999999415e-01 1.368750000000000000e+01 1.217295000000000016e+02 1.434985000000000127e+03
1.320000000000000062e-01 6.258690000000000087e-01 1.304832999999999998e+01 1.210304999999999893e+02 1.434755000000000109e+03
1.330000000000000071e-01 6.256734999999999935e-01 1.241646500000000053e+01 1.203319999999999936e+02 1.434514999999999873e+03
1.340000000000000080e-01 6.254819999999999824e-01 1.179678000000000004e+01 1.196444999999999936e+02 1.434284999999999854e+03
1.350000000000000089e-01 6.252960000000000740e-01 1.119407499999999978e+01 1.189755000000000109e+02 1.434054999999999836e+03
1.360000000000000098e-01 6.251189999999999802e-01 1.061317000000000021e+01 1.183329999999999984e+02 1.433835000000000036e+03
1.370000000000000107e-01 6.249525000000000219e-01 1.005861999999999945e+01 1.177254999999999967e+02 1.433619999999999891e+03
1.380000000000000115e-01 6.247985000000000344e-01 9.534430000000000405e+00 1.171595000000000084e+02 1.433424999999999955e+03
1.390000000000000124e-01 6.246575000000000877e-01 9.044309999999999405e+00 1.166415000000000077e+02 1.433235000000000127e+03
1.400000000000000133e-01 6.245319999999999760e-01 8.591094999999999260e+00 1.161750000000000114e+02 1.433065000000000055e+03
1.410000000000000142e-01 6.244229999999999503e-01 8.177080000000000126e+00 1.157650000000000006e+02 1.432910000000000082e+03
1.420000000000000151e-01 6.243294999999999817e-01 7.803625000000000256e+00 1.154129999999999967e+02 1.432780000000000200e+03
1.430000000000000160e-01 6.242524999999999880e-01 7.471545000000000769e+00 1.151200000000000045e+02 1.432660000000000082e+03
1.440000000000000169e-01 6.241915000000000102e-01 7.180604999999999905e+00 1.148855000000000075e+02 1.432565000000000055e+03
1.450000000000000178e-01 6.241460000000000896e-01 6.929945000000000022e+00 1.147079999999999984e+02 1.432480000000000018e+03
1.459999999999999909e-01 6.241149999999999753e-01 6.717974999999999142e+00 1.145829999999999984e+02 1.432420000000000073e+03
1.469999999999999918e-01 6.240965000000000540e-01 6.542464999999999975e+00 1.145074999999999932e+02 1.432375000000000000e+03
1.479999999999999927e-01 6.240900000000000336e-01 6.400684999999999292e+00 1.144770000000000039e+02 1.432340000000000146e+03
1.489999999999999936e-01 6.240935000000000787e-01 6.289450000000000429e+00 1.144840000000000089e+02 1.432329999999999927e+03
1.499999999999999944e-01 6.241054999999999797e-01 6.205299999999999372e+00 1.145245000000000033e+02 1.432324999999999818e+03
1.509999999999999953e-01 6.241235000000000532e-01 6.144574999999999676e+00 1.145904999999999916e+02 1.432329999999999927e+03
1.519999999999999962e-01 6.241459999999999786e-01 6.103569999999999496e+00 1.146770000000000067e+02 1.432340000000000146e+03
1.529999999999999971e-01 6.241719999999999491e-01 6.078590000000000160e+00 1.147764999999999986e+02 1.432364999999999782e+03
1.539999999999999980e-01 6.241999999999999771e-01 6.066084999999999283e+00 1.148840000000000003e+02 1.432384999999999991e+03
1.549999999999999989e-01 6.242274999999999352e-01 6.062730000000000175e+00 1.149944999999999879e+02 1.432414999999999964e+03
1.559999999999999998e-01 6.242550000000000043e-01 6.065469999999999473e+00 1.151030000000000086e+02 1.432444999999999936e+03
1.570000000000000007e-01 6.242799999999999461e-01 6.071604999999999919e+00 1.152060000000000031e+02 1.432474999999999909e+03
1.580000000000000016e-01 6.243024999999999824e-01 6.078775000000000261e+00 1.152999999999999972e+02 1.432500000000000000e+03
1.590000000000000024e-01 6.243220000000000436e-01 6.085049999999999848e+00 1.153820000000000050e+02 1.432525000000000091e+03
