# t [s], A [cm^2], U [cm/s], P [cPa], c [cm/s]
1.000000000000000021e-03 7.280664999999999498e-01 7.039499999999997149e-03 9.384375000000000000e+01 1.750505000000000109e+03
2.000000000000000042e-03 7.280510000000000037e-01 -7.083545000000000119e-03 9.380555000000001087e+01 1.750500000000000000e+03
3.000000000000000062e-03 7.281044999999999323e-01 8.304804999999999826e-02 9.390890000000000271e+01 1.750514999999999873e+03
4.000000000000000083e-03 7.281600000000000295e-01 1.905273000000000105e-01 9.404689999999999372e+01 1.750545000000000073e+03
5.000000000000000104e-03 7.281279999999999974e-01 1.686603499999999867e-01 9.398080000000000211e+01 1.750534999999999854e+03
6.000000000000000125e-03 7.280484999999999873e-01 6.465450000000000363e-02 9.372884999999999422e+01 1.750485000000000127e+03
7.000000000000000146e-03 7.279910000000000547e-01 -1.076000000000004730e-02 9.345250000000000057e+01 1.750425000000000182e+03
8.000000000000000167e-03 7.278994999999999216e-01 -1.566375000000000406e-01 9.304994999999999550e+01 1.750340000000000146e+03
9.000000000000001055e-03 7.277434999999999876e-01 -4.325400000000000356e-01 9.242015000000000668e+01 1.750215000000000146e+03
1.000000000000000194e-02 7.275229999999999198e-01 -8.366299999999999848e-01 9.152850000000000819e+01 1.750025000000000091e+03
1.099999999999999936e-02 7.272129999999999983e-01 -1.402989999999999959e+00 9.028974999999999795e+01 1.749775000000000091e+03
1.200000000000000025e-02 7.268030000000000879e-01 -2.134100000000000108e+00 8.864789999999999281e+01 1.749429999999999836e+03
1.300000000000000114e-02 7.263454999999999773e-01 -2.918994999999999784e+00 8.670865000000000578e+01 1.749014999999999873e+03
1.400000000000000203e-02 7.259275000000000588e-01 -3.576175500000000174e+00 8.471665000000000134e+01 1.748570000000000164e+03
1.499999999999999944e-02 7.256100000000000882e-01 -3.961054999999999993e+00 8.291190000000000282e+01 1.748154999999999973e+03
1.600000000000000033e-02 7.253979999999999873e-01 -4.030314500000000244e+00 8.141280000000000427e+01 1.747775000000000091e+03
1.700000000000000122e-02 7.252499999999999503e-01 -3.836805000000000021e+00 8.018940000000000623e+01 1.747449999999999818e+03
1.800000000000000211e-02 7.251049999999999995e-01 -3.484334999999999738e+00 7.910894999999999300e+01 1.747154999999999973e+03
1.900000000000000300e-02 7.249130000000000296e-01 -3.075402000000000413e+00 7.801044999999999163e+01 1.746849999999999909e+03
2.000000000000000042e-02 7.246500000000000163e-01 -2.672517499999999657e+00 7.677360000000000184e+01 1.746525000000000091e+03
2.100000000000000130e-02 7.243245000000000378e-01 -2.283212999999999937e+00 7.536000000000001364e+01 1.746160000000000082e+03
2.200000000000000219e-02 7.239674999999999860e-01 -1.870159999999999823e+00 7.381454999999999700e+01 1.745764999999999873e+03
2.299999999999999961e-02 7.236160000000000370e-01 -1.379384999999999861e+00 7.223304999999999154e+01 1.745365000000000009e+03
2.400000000000000050e-02 7.232959999999999390e-01 -7.727900000000000880e-01 7.071199999999998909e+01 1.744974999999999909e+03
2.500000000000000139e-02 7.230130000000000168e-01 -5.141999999999979920e-02 6.930419999999999447e+01 1.744599999999999909e+03
2.600000000000000228e-02 7.227485000000000159e-01 7.373000000000000664e-01 6.799394999999999811e+01 1.744244999999999891e+03
2.700000000000000316e-02 7.224675000000000402e-01 1.507974999999999843e+00 6.669710000000000605e+01 1.743894999999999982e+03
2.800000000000000058e-02 7.221284999999999510e-01 2.157160000000000188e+00 6.528305000000000291e+01 1.743525000000000091e+03
2.900000000000000147e-02 7.216955000000000453e-01 2.589335000000000164e+00 6.361164999999999736e+01 1.743110000000000127e+03
3.000000000000000236e-02 7.211494999999999989e-01 2.742380000000000262e+00 6.157649999999999579e+01 1.742630000000000109e+03
3.099999999999999978e-02 7.204975000000000129e-01 2.604719999999999924e+00 5.914074999999999704e+01 1.742065000000000055e+03
3.200000000000000067e-02 7.197700000000000209e-01 2.217474999999999863e+00 5.635325000000000273e+01 1.741425000000000182e+03
3.300000000000000155e-02 7.190114999999999146e-01 1.661064999999999792e+00 5.333880000000000621e+01 1.740730000000000018e+03
3.400000000000000244e-02 7.182739999999999680e-01 1.032715000000000050e+00 5.026919999999999789e+01 1.740025000000000091e+03
3.500000000000000333e-02 7.175994999999999457e-01 4.241549999999998377e-01 4.732675000000000409e+01 1.739329999999999927e+03
3.600000000000000422e-02 7.170214999999999783e-01 -9.369499999999986173e-02 4.467300000000000182e+01 1.738690000000000055e+03
3.700000000000000511e-02 7.165559999999999707e-01 -4.768650000000000944e-01 4.242910000000000537e+01 1.738125000000000000e+03
3.799999999999999906e-02 7.162085000000000257e-01 -7.067200000000002369e-01 4.066854999999999620e+01 1.737670000000000073e+03
3.899999999999999994e-02 7.159754999999999869e-01 -7.830749999999999655e-01 3.942109999999999559e+01 1.737324999999999818e+03
4.000000000000000083e-02 7.158480000000000398e-01 -7.151600000000000179e-01 3.868345000000000056e+01 1.737094999999999800e+03
4.100000000000000172e-02 7.158195000000000530e-01 -5.127494999999999692e-01 3.843370000000000175e+01 1.736974999999999909e+03
4.200000000000000261e-02 7.158835000000000059e-01 -1.797570000000000001e-01 3.864509999999999934e+01 1.736974999999999909e+03
4.300000000000000350e-02 7.160385000000000222e-01 2.883899999999999242e-01 3.929594999999999771e+01 1.737075000000000045e+03
4.400000000000000439e-02 7.162865000000000482e-01 9.033100000000000573e-01 4.037319999999999709e+01 1.737284999999999854e+03
4.499999999999999833e-02 7.166289999999999605e-01 1.679049999999999931e+00 4.187040000000000362e+01 1.737590000000000146e+03
4.599999999999999922e-02 7.170669999999998989e-01 2.626320000000000210e+00 4.378140000000000498e+01 1.738000000000000000e+03
4.700000000000000011e-02 7.175960000000000116e-01 3.747324999999999573e+00 4.609290000000000020e+01 1.738505000000000109e+03
4.800000000000000100e-02 7.182090000000000973e-01 5.032834999999999503e+00 4.877864999999999895e+01 1.739105000000000018e+03
4.900000000000000189e-02 7.188930000000000042e-01 6.461573999999999707e+00 5.179625000000000057e+01 1.739779999999999973e+03
5.000000000000000278e-02 7.196320000000000494e-01 8.002418999999999727e+00 5.508785000000000309e+01 1.740529999999999973e+03
5.100000000000000366e-02 7.204074999999999784e-01 9.617639999999999745e+00 5.858374999999999488e+01 1.741335000000000036e+03
5.200000000000000455e-02 7.212009999999999810e-01 1.126723499999999945e+01 6.220830000000000126e+01 1.742179999999999836e+03
5.300000000000000544e-02 7.219955000000000123e-01 1.291281499999999838e+01 6.588650000000001228e+01 1.743049999999999955e+03
5.399999999999999939e-02 7.227790000000000603e-01 1.452123500000000078e+01 6.955039999999999623e+01 1.743924999999999955e+03
5.500000000000000028e-02 7.235389999999999322e-01 1.606623499999999893e+01 7.314374999999999716e+01 1.744789999999999964e+03
5.600000000000000117e-02 7.242709999999999981e-01 1.752935000000000088e+01 7.662470000000000425e+01 1.745639999999999873e+03
5.700000000000000205e-02 7.249714999999999909e-01 1.889969999999999928e+01 7.996699999999999875e+01 1.746464999999999918e+03
5.800000000000000294e-02 7.256400000000000627e-01 2.017249999999999943e+01 8.315870000000001028e+01 1.747264999999999873e+03
5.900000000000000383e-02 7.262800000000000367e-01 2.134805000000000064e+01 8.620019999999999527e+01 1.748025000000000091e+03
6.000000000000000472e-02 7.268939999999999291e-01 2.243019999999999925e+01 8.910150000000000148e+01 1.748759999999999991e+03
6.099999999999999867e-02 7.274869999999999948e-01 2.342475000000000307e+01 9.187879999999999825e+01 1.749460000000000036e+03
6.199999999999999956e-02 7.280630000000000157e-01 2.433875000000000099e+01 9.455230000000000246e+01 1.750144999999999982e+03
6.300000000000000044e-02 7.286254999999999260e-01 2.517909999999999826e+01 9.714254999999999995e+01 1.750805000000000064e+03
6.400000000000000133e-02 7.291790000000000216e-01 2.595199999999999818e+01 9.966700000000000159e+01 1.751450000000000045e+03
6.500000000000000222e-02 7.297244999999999981e-01 2.666219999999999857e+01 1.021418000000000035e+02 1.752079999999999927e+03
6.600000000000000311e-02 7.302640000000000242e-01 2.731210000000000093e+01 1.045740000000000123e+02 1.752694999999999936e+03
6.700000000000000400e-02 7.307960000000000012e-01 2.790204999999999913e+01 1.069659999999999940e+02 1.753304999999999836e+03
6.800000000000000488e-02 7.313175000000000647e-01 2.842999999999999972e+01 1.093119999999999976e+02 1.753900000000000091e+03
6.900000000000000577e-02 7.318259999999999765e-01 2.889219999999999899e+01 1.116015000000000015e+02 1.754485000000000127e+03
7.000000000000000666e-02 7.323169999999999957e-01 2.928354999999999819e+01 1.138179999999999978e+02 1.755050000000000182e+03
7.100000000000000755e-02 7.327854999999999785e-01 2.959859999999999758e+01 1.159410000000000025e+02 1.755594999999999800e+03
7.200000000000000844e-02 7.332265000000000033e-01 2.983230000000000004e+01 1.179505000000000052e+02 1.756115000000000009e+03
7.300000000000000933e-02 7.336374999999999424e-01 2.998055000000000092e+01 1.198264999999999958e+02 1.756605000000000018e+03
7.399999999999999634e-02 7.340134999999999854e-01 3.004064999999999941e+01 1.215504999999999995e+02 1.757054999999999836e+03
7.499999999999999722e-02 7.343524999999999636e-01 3.001119999999999877e+01 1.231085000000000065e+02 1.757470000000000027e+03
7.599999999999999811e-02 7.346524999999999306e-01 2.989254999999999995e+01 1.244890000000000043e+02 1.757845000000000027e+03
7.699999999999999900e-02 7.349125000000000796e-01 2.968605000000000160e+01 1.256854999999999905e+02 1.758170000000000073e+03
7.799999999999999989e-02 7.351324999999999665e-01 2.939440000000000097e+01 1.266939999999999884e+02 1.758449999999999818e+03
7.900000000000000078e-02 7.353110000000000479e-01 2.902150000000000318e+01 1.275150000000000006e+02 1.758684999999999945e+03
8.000000000000000167e-02 7.354514999999999247e-01 2.857205000000000084e+01 1.281514999999999986e+02 1.758880000000000109e+03
8.100000000000000255e-02 7.355534999999999712e-01 2.805199999999999960e+01 1.286094999999999970e+02 1.759019999999999982e+03
8.200000000000000344e-02 7.356199999999999406e-01 2.746855000000000047e+01 1.288999999999999773e+02 1.759125000000000000e+03
8.300000000000000433e-02 7.356540000000000301e-01 2.683014999999999972e+01 1.290355000000000132e+02 1.759190000000000055e+03
8.400000000000000522e-02 7.356589999999999518e-01 2.614625000000000199e+01 1.290314999999999941e+02 1.759220000000000027e+03
8.500000000000000611e-02 7.356395000000000017e-01 2.542770000000000152e+01 1.289060000000000059e+02 1.759215000000000146e+03
8.600000000000000699e-02 7.355994999999999617e-01 2.468569999999999709e+01 1.286800000000000068e+02 1.759180000000000064e+03
8.700000000000000788e-02 7.355445000000000455e-01 2.393209999999999837e+01 1.283745000000000118e+02 1.759125000000000000e+03
8.800000000000000877e-02 7.354780000000000761e-01 2.317815000000000225e+01 1.280120000000000005e+02 1.759054999999999836e+03
8.899999999999999578e-02 7.354060000000000041e-01 2.243455000000000155e+01 1.276135000000000019e+02 1.758970000000000027e+03
8.999999999999999667e-02 7.353309999999999569e-01 2.171039999999999992e+01 1.271979999999999933e+02 1.758875000000000000e+03
9.099999999999999756e-02 7.352570000000000494e-01 2.101304999999999978e+01 1.267824999999999989e+02 1.758775000000000091e+03
9.199999999999999845e-02 7.351860000000000062e-01 2.034765000000000157e+01 1.263795000000000073e+02 1.758680000000000064e+03
9.299999999999999933e-02 7.351194999999999258e-01 1.971699999999999875e+01 1.259979999999999905e+02 1.758585000000000036e+03
9.400000000000000022e-02 7.350570000000000714e-01 1.912160000000000082e+01 1.256425000000000125e+02 1.758494999999999891e+03
9.500000000000000111e-02 7.349989999999999579e-01 1.855985000000000085e+01 1.253140000000000072e+02 1.758409999999999854e+03
9.600000000000000200e-02 7.349434999999999718e-01 1.802834999999999965e+01 1.250080000000000098e+02 1.758329999999999927e+03
9.700000000000000289e-02 7.348890000000000144e-01 1.752210000000000178e+01 1.247189999999999941e+02 1.758255000000000109e+03
9.800000000000000377e-02 7.348339999999999872e-01 1.703500000000000014e+01 1.244375000000000000e+02 1.758179999999999836e+03
9.900000000000000466e-02 7.347755000000000258e-01 1.656034999999999968e+01 1.241534999999999940e+02 1.758099999999999909e+03
1.000000000000000056e-01 7.347110000000000030e-01 1.609120000000000061e+01 1.238559999999999945e+02 1.758025000000000091e+03
1.010000000000000064e-01 7.346379999999999022e-01 1.562049999999999983e+01 1.235330000000000013e+02 1.757940000000000055e+03
1.020000000000000073e-01 7.345555000000000279e-01 1.514185000000000159e+01 1.231740000000000066e+02 1.757849999999999909e+03
1.030000000000000082e-01 7.344610000000000305e-01 1.464945000000000164e+01 1.227710000000000008e+02 1.757755000000000109e+03
1.040000000000000091e-01 7.343530000000000335e-01 1.413874999999999815e+01 1.223164999999999907e+02 1.757639999999999873e+03
1.050000000000000100e-01 7.342325000000000657e-01 1.360660000000000025e+01 1.218059999999999974e+02 1.757519999999999982e+03
1.059999999999999970e-01 7.340984999999999872e-01 1.305132499999999851e+01 1.212385000000000019e+02 1.757389999999999873e+03
1.069999999999999979e-01 7.339519999999999378e-01 1.247318999999999889e+01 1.206154999999999973e+02 1.757240000000000009e+03
1.079999999999999988e-01 7.337955000000000449e-01 1.187401999999999980e+01 1.199424999999999955e+02 1.757079999999999927e+03
1.089999999999999997e-01 7.336305000000000742e-01 1.125745500000000021e+01 1.192280000000000086e+02 1.756909999999999854e+03
1.100000000000000006e-01 7.334605000000000707e-01 1.062868999999999886e+01 1.184834999999999923e+02 1.756730000000000018e+03
1.110000000000000014e-01 7.332885000000000097e-01 9.994099999999999540e+00 1.177219999999999942e+02 1.756549999999999955e+03
1.120000000000000023e-01 7.331179999999999364e-01 9.361140000000000683e+00 1.169600000000000080e+02 1.756365000000000009e+03
1.130000000000000032e-01 7.329539999999999944e-01 8.737725000000001074e+00 1.162129999999999939e+02 1.756184999999999945e+03
1.140000000000000041e-01 7.327989999999999782e-01 8.132134999999999891e+00 1.154985000000000070e+02 1.756009999999999991e+03
1.150000000000000050e-01 7.326559999999999739e-01 7.552199999999999136e+00 1.148325000000000102e+02 1.755844999999999800e+03
1.160000000000000059e-01 7.325300000000000145e-01 7.005245000000000388e+00 1.142295000000000016e+02 1.755684999999999945e+03
1.170000000000000068e-01 7.324215000000000586e-01 6.497659999999999769e+00 1.137015000000000100e+02 1.755555000000000064e+03
1.180000000000000077e-01 7.323330000000000117e-01 6.034514999999999851e+00 1.132590000000000003e+02 1.755434999999999945e+03
1.190000000000000085e-01 7.322659999999999725e-01 5.619424999999999670e+00 1.129085000000000036e+02 1.755340000000000146e+03
1.200000000000000094e-01 7.322195000000000231e-01 5.254405000000000214e+00 1.126520000000000010e+02 1.755264999999999873e+03
1.209999999999999964e-01 7.321944999999999704e-01 4.939799999999999969e+00 1.124909999999999997e+02 1.755214999999999918e+03
1.219999999999999973e-01 7.321885000000000199e-01 4.674389999999999823e+00 1.124200000000000017e+02 1.755180000000000064e+03
1.229999999999999982e-01 7.321999999999999620e-01 4.455499999999999794e+00 1.124325000000000045e+02 1.755170000000000073e+03
1.239999999999999991e-01 7.322265000000000024e-01 4.279255000000000031e+00 1.125194999999999936e+02 1.755180000000000064e+03
1.250000000000000000e-01 7.322655000000000136e-01 4.140814999999999912e+00 1.126689999999999969e+02 1.755199999999999818e+03
1.260000000000000009e-01 7.323140000000000205e-01 4.034720000000000084e+00 1.128685000000000116e+02 1.755240000000000009e+03
1.270000000000000018e-01 7.323690000000000477e-01 3.955155000000000420e+00 1.131050000000000040e+02 1.755284999999999854e+03
1.280000000000000027e-01 7.324275000000000091e-01 3.896244999999999958e+00 1.133650000000000091e+02 1.755340000000000146e+03
1.290000000000000036e-01 7.324874999999999581e-01 3.852289999999999992e+00 1.136364999999999981e+02 1.755400000000000091e+03
1.300000000000000044e-01 7.325460000000000305e-01 3.817960000000000242e+00 1.139070000000000107e+02 1.755460000000000036e+03
1.310000000000000053e-01 7.326010000000000577e-01 3.788440000000000030e+00 1.141670000000000016e+02 1.755519999999999982e+03
1.320000000000000062e-01 7.326515000000000111e-01 3.759509999999999685e+00 1.144085000000000036e+02 1.755575000000000045e+03
1.330000000000000071e-01 7.326960000000000139e-01 3.727615000000000123e+00 1.146239999999999952e+02 1.755630000000000109e+03
1.340000000000000080e-01 7.327329999999999677e-01 3.689874999999999794e+00 1.148094999999999999e+02 1.755674999999999955e+03
1.350000000000000089e-01 7.327630000000000532e-01 3.644085000000000019e+00 1.149609999999999985e+02 1.755715000000000146e+03
1.360000000000000098e-01 7.327854999999999785e-01 3.588734999999999786e+00 1.150769999999999982e+02 1.755744999999999891e+03
1.370000000000000107e-01 7.328000000000000069e-01 3.522924999999999862e+00 1.151574999999999989e+02 1.755769999999999982e+03
1.380000000000000115e-01 7.328075000000000561e-01 3.446360000000000312e+00 1.152025000000000006e+02 1.755784999999999854e+03
1.390000000000000124e-01 7.328079999999999039e-01 3.359284999999999854e+00 1.152139999999999986e+02 1.755795000000000073e+03
1.400000000000000133e-01 7.328025000000000233e-01 3.262420000000000098e+00 1.151949999999999932e+02 1.755789999999999964e+03
1.410000000000000142e-01 7.327915000000000401e-01 3.156864999999999810e+00 1.151490000000000009e+02 1.755784999999999854e+03
1.420000000000000151e-01 7.327755000000000241e-01 3.044020000000000170e+00 1.150780000000000030e+02 1.755775000000000091e+03
1.430000000000000160e-01 7.327559999999999629e-01 2.925440000000000040e+00 1.149874999999999972e+02 1.755755000000000109e+03
1.440000000000000169e-01 7.327335000000000376e-01 2.802755000000000329e+00 1.148804999999999978e+02 1.755724999999999909e+03
1.450000000000000178e-01 7.327080000000000259e-01 2.677545000000000286e+00 1.147595000000000027e+02 1.755704999999999927e+03
1.459999999999999909e-01 7.326809999999999157e-01 2.551260000000000083e+00 1.146285000000000025e+02 1.755675000000000182e+03
1.469999999999999918e-01 7.326520000000000810e-01 2.425124999999999975e+00 1.144890000000000043e+02 1.755639999999999873e+03
1.479999999999999927e-01 7.326224999999999543e-01 2.300075000000000092e+00 1.143429999999999893e+02 1.755605000000000018e+03
1.489999999999999936e-01 7.325915000000000621e-01 2.176779999999999937e+00 1.141905000000000001e+02 1.755569999999999936e+03
1.499999999999999944e-01 7.325589999999999602e-01 2.055600000000000094e+00 1.140324999999999989e+02 1.755534999999999854e+03
1.509999999999999953e-01 7.325250000000000927e-01 1.936639999999999917e+00 1.138675000000000068e+02 1.755500000000000000e+03
1.519999999999999962e-01 7.324889999999999457e-01 1.819819999999999993e+00 1.136949999999999932e+02 1.755450000000000045e+03
1.529999999999999971e-01 7.324509999999999632e-01 1.704944500000000085e+00 1.135130000000000052e+02 1.755409999999999854e+03
1.539999999999999980e-01 7.324100000000000055e-01 1.591778499999999985e+00 1.133209999999999980e+02 1.755365000000000009e+03
1.549999999999999989e-01 7.323669999999999902e-01 1.480171499999999973e+00 1.131169999999999902e+02 1.755315000000000055e+03
1.559999999999999998e-01 7.323205000000000409e-01 1.370117999999999947e+00 1.129004999999999939e+02 1.755264999999999873e+03
1.570000000000000007e-01 7.322705000000000464e-01 1.261835499999999888e+00 1.126709999999999923e+02 1.755210000000000036e+03
1.580000000000000016e-01 7.322180000000000355e-01 1.155814499999999967e+00 1.124284999999999997e+02 1.755144999999999982e+03
1.590000000000000024e-01 7.321629999999998972e-01 1.052836499999999953e+00 1.121740000000000066e+02 1.755090000000000146e+03
