# t [s], A [cm^2], U [cm/s], P [cPa], c [cm/s]
1.000000000000000021e-03 1.780404999999999904e-01 2.971637000000000306e-01 9.178749999999999432e+01 2.233234999999999673e+03
2.000000000000000042e-03 1.779895000000000227e-01 1.734242499999999909e+00 8.839549999999999841e+01 2.232734999999999673e+03
3.000000000000000062e-03 1.778629999999999933e-01 3.526708000000000176e+00 8.360909999999999798e+01 2.231525000000000091e+03
4.000000000000000083e-03 1.776975000000000082e-01 5.566493999999999609e+00 7.851869999999999550e+01 2.229965000000000146e+03
5.000000000000000104e-03 1.775275000000000047e-01 7.762735000000000163e+00 7.413079999999999359e+01 2.228380000000000109e+03
6.000000000000000125e-03 1.773689999999999989e-01 9.876200000000000756e+00 7.061634999999999707e+01 2.226920000000000073e+03
7.000000000000000146e-03 1.772219999999999906e-01 1.166647500000000015e+01 6.755010000000000048e+01 2.225600000000000364e+03
8.000000000000000167e-03 1.770899999999999974e-01 1.311122999999999905e+01 6.479019999999999868e+01 2.224439999999999600e+03
9.000000000000001055e-03 1.769789999999999974e-01 1.427630000000000088e+01 6.249864999999999782e+01 2.223475000000000364e+03
1.000000000000000194e-02 1.768889999999999907e-01 1.519019999999999904e+01 6.071665000000000134e+01 2.222704999999999927e+03
1.099999999999999936e-02 1.768195000000000183e-01 1.587509999999999977e+01 5.938980000000000103e+01 2.222114999999999782e+03
1.200000000000000025e-02 1.767664999999999931e-01 1.634109999999999729e+01 5.841420000000000101e+01 2.221680000000000291e+03
1.300000000000000114e-02 1.767249999999999932e-01 1.658275000000000077e+01 5.760460000000000491e+01 2.221335000000000036e+03
1.400000000000000203e-02 1.766905000000000003e-01 1.665415000000000134e+01 5.687884999999999991e+01 2.221065000000000055e+03
1.499999999999999944e-02 1.766679999999999917e-01 1.672364999999999924e+01 5.650384999999999991e+01 2.220889999999999873e+03
1.600000000000000033e-02 1.766694999999999793e-01 1.700720000000000098e+01 5.702575000000000216e+01 2.220914999999999964e+03
1.700000000000000122e-02 1.767070000000000030e-01 1.763090000000000046e+01 5.887644999999999840e+01 2.221239999999999782e+03
1.800000000000000211e-02 1.767814999999999803e-01 1.854005000000000081e+01 6.199514999999999532e+01 2.221885000000000218e+03
1.900000000000000300e-02 1.768820000000000114e-01 1.951689999999999969e+01 6.575309999999998922e+01 2.222760000000000218e+03
2.000000000000000042e-02 1.769860000000000044e-01 2.028425000000000011e+01 6.920570000000000732e+01 2.223680000000000291e+03
2.100000000000000130e-02 1.770705000000000195e-01 2.062725000000000009e+01 7.149514999999999532e+01 2.224449999999999818e+03
2.200000000000000219e-02 1.771199999999999997e-01 2.047409999999999997e+01 7.218704999999999927e+01 2.224920000000000073e+03
2.299999999999999961e-02 1.771294999999999953e-01 1.990615000000000023e+01 7.139424999999999955e+01 2.225039999999999964e+03
2.400000000000000050e-02 1.771070000000000144e-01 1.910314999999999941e+01 6.965980000000000416e+01 2.224869999999999891e+03
2.500000000000000139e-02 1.770670000000000022e-01 1.825694999999999979e+01 6.768129999999999313e+01 2.224539999999999964e+03
2.600000000000000228e-02 1.770249999999999879e-01 1.749569999999999936e+01 6.601789999999999736e+01 2.224175000000000182e+03
2.700000000000000316e-02 1.769899999999999807e-01 1.684799999999999898e+01 6.490389999999999304e+01 2.223859999999999673e+03
2.800000000000000058e-02 1.769640000000000102e-01 1.625330000000000297e+01 6.422495000000000687e+01 2.223619999999999891e+03
2.900000000000000147e-02 1.769410000000000149e-01 1.560670000000000002e+01 6.363479999999999848e+01 2.223414999999999964e+03
3.000000000000000236e-02 1.769140000000000157e-01 1.481520000000000081e+01 6.274689999999999657e+01 2.223180000000000291e+03
3.099999999999999978e-02 1.768744999999999901e-01 1.384670000000000023e+01 6.132365000000000066e+01 2.222845000000000255e+03
3.200000000000000067e-02 1.768219999999999792e-01 1.275339999999999918e+01 5.939634999999999820e+01 2.222390000000000327e+03
3.300000000000000155e-02 1.767610000000000015e-01 1.166263000000000005e+01 5.727674999999999983e+01 2.221859999999999673e+03
3.400000000000000244e-02 1.767024999999999846e-01 1.073865999999999943e+01 5.545839999999999748e+01 2.221344999999999800e+03
3.500000000000000333e-02 1.766599999999999837e-01 1.013023499999999899e+01 5.444749999999999801e+01 2.220954999999999927e+03
3.600000000000000422e-02 1.766439999999999955e-01 9.923590000000000799e+00 5.459094999999999942e+01 2.220795000000000073e+03
3.700000000000000511e-02 1.766614999999999991e-01 1.011715500000000034e+01 5.596135000000000304e+01 2.220914999999999964e+03
3.799999999999999906e-02 1.767100000000000060e-01 1.062316500000000019e+01 5.833324999999999960e+01 2.221320000000000164e+03
3.899999999999999994e-02 1.767810000000000215e-01 1.129142500000000027e+01 6.124575000000000102e+01 2.221920000000000073e+03
4.000000000000000083e-02 1.768609999999999904e-01 1.194575000000000031e+01 6.412014999999999532e+01 2.222609999999999673e+03
4.100000000000000172e-02 1.769350000000000089e-01 1.242024999999999935e+01 6.639279999999999404e+01 2.223265000000000327e+03
4.200000000000000261e-02 1.769880000000000064e-01 1.258840000000000003e+01 6.762620000000001141e+01 2.223739999999999782e+03
4.300000000000000350e-02 1.770105000000000151e-01 1.237794999999999845e+01 6.757560000000000855e+01 2.223960000000000036e+03
4.400000000000000439e-02 1.769969999999999877e-01 1.177275000000000027e+01 6.620284999999999798e+01 2.223864999999999782e+03
4.499999999999999833e-02 1.769475000000000076e-01 1.080332999999999899e+01 6.364544999999999675e+01 2.223444999999999709e+03
4.599999999999999922e-02 1.768655000000000088e-01 9.530789999999999651e+00 6.015574999999999761e+01 2.222744999999999891e+03
4.700000000000000011e-02 1.767580000000000262e-01 8.030419999999999447e+00 5.603355000000000530e+01 2.221815000000000055e+03
4.800000000000000100e-02 1.766324999999999978e-01 6.378459999999999575e+00 5.156869999999999976e+01 2.220724999999999909e+03
4.900000000000000189e-02 1.764965000000000006e-01 4.644656499999999966e+00 4.700589999999999691e+01 2.219529999999999745e+03
5.000000000000000278e-02 1.763564999999999994e-01 2.890579999999999927e+00 4.253399999999999892e+01 2.218300000000000182e+03
5.100000000000000366e-02 1.762179999999999858e-01 1.171439999999999815e+00 3.829394999999999527e+01 2.217079999999999927e+03
5.200000000000000455e-02 1.760855000000000059e-01 -4.601049999999999862e-01 3.439724999999999966e+01 2.215909999999999854e+03
5.300000000000000544e-02 1.759629999999999805e-01 -1.950909999999999922e+00 3.094480000000000075e+01 2.214829999999999927e+03
5.399999999999999939e-02 1.758540000000000103e-01 -3.246176999999999868e+00 2.804025000000000034e+01 2.213860000000000127e+03
5.500000000000000028e-02 1.757630000000000026e-01 -4.290829999999999700e+00 2.579390000000000072e+01 2.213045000000000073e+03
5.600000000000000117e-02 1.756929999999999881e-01 -5.033005000000000173e+00 2.431660000000000110e+01 2.212409999999999854e+03
5.700000000000000205e-02 1.756475000000000120e-01 -5.428855000000000430e+00 2.370739999999999981e+01 2.211985000000000127e+03
5.800000000000000294e-02 1.756300000000000083e-01 -5.447350000000000136e+00 2.403860000000000241e+01 2.211809999999999945e+03
5.900000000000000383e-02 1.756425000000000070e-01 -5.074044999999999916e+00 2.534250000000000114e+01 2.211885000000000218e+03
6.000000000000000472e-02 1.756840000000000068e-01 -4.313019999999999854e+00 2.760314999999999941e+01 2.212224999999999909e+03
6.099999999999999867e-02 1.757559999999999956e-01 -3.186782499999999629e+00 3.075515000000000043e+01 2.212829999999999927e+03
6.199999999999999956e-02 1.758554999999999979e-01 -1.734350000000000058e+00 3.468829999999999814e+01 2.213664999999999964e+03
6.300000000000000044e-02 1.759779999999999955e-01 -8.035000000000014353e-03 3.925719999999999743e+01 2.214725000000000364e+03
6.400000000000000133e-02 1.761199999999999988e-01 1.930529999999999857e+00 4.429395000000000238e+01 2.215960000000000036e+03
6.500000000000000222e-02 1.762774999999999759e-01 4.014558499999999697e+00 4.962075000000000102e+01 2.217320000000000164e+03
6.600000000000000311e-02 1.764435000000000031e-01 6.176260000000000083e+00 5.506279999999999575e+01 2.218775000000000091e+03
6.700000000000000400e-02 1.766130000000000200e-01 8.350844999999999629e+00 6.045919999999999561e+01 2.220274999999999636e+03
6.800000000000000488e-02 1.767825000000000091e-01 1.047986000000000040e+01 6.567239999999999611e+01 2.221774999999999636e+03
6.900000000000000577e-02 1.769475000000000076e-01 1.251450999999999958e+01 7.059584999999999866e+01 2.223235000000000127e+03
7.000000000000000666e-02 1.771040000000000114e-01 1.441789999999999949e+01 7.515919999999999845e+01 2.224635000000000218e+03
7.100000000000000755e-02 1.772509999999999919e-01 1.616655000000000086e+01 7.933074999999999477e+01 2.225944999999999709e+03
7.200000000000000844e-02 1.773870000000000169e-01 1.775059999999999860e+01 8.311639999999999873e+01 2.227175000000000182e+03
7.300000000000000933e-02 1.775120000000000031e-01 1.917279999999999873e+01 8.655564999999999998e+01 2.228300000000000182e+03
7.399999999999999634e-02 1.776285000000000225e-01 2.044684999999999775e+01 8.971399999999999864e+01 2.229355000000000018e+03
7.499999999999999722e-02 1.777369999999999783e-01 2.159434999999999860e+01 9.267404999999999404e+01 2.230335000000000036e+03
7.599999999999999811e-02 1.778394999999999837e-01 2.264154999999999873e+01 9.552459999999999241e+01 2.231269999999999982e+03
7.699999999999999900e-02 1.779395000000000004e-01 2.361599999999999966e+01 9.835020000000000095e+01 2.232175000000000182e+03
7.799999999999999989e-02 1.780395000000000172e-01 2.454364999999999952e+01 1.012235000000000014e+02 2.233079999999999927e+03
7.900000000000000078e-02 1.781405000000000072e-01 2.544630000000000081e+01 1.041984999999999957e+02 2.233994999999999891e+03
8.000000000000000167e-02 1.782445000000000002e-01 2.633970000000000056e+01 1.073059999999999974e+02 2.234930000000000291e+03
8.100000000000000255e-02 1.783514999999999961e-01 2.723290000000000077e+01 1.105519999999999925e+02 2.235899999999999636e+03
8.200000000000000344e-02 1.784629999999999828e-01 2.812765000000000271e+01 1.139219999999999970e+02 2.236894999999999982e+03
8.300000000000000433e-02 1.785764999999999991e-01 2.901885000000000048e+01 1.173799999999999955e+02 2.237925000000000182e+03
8.400000000000000522e-02 1.786929999999999907e-01 2.989555000000000007e+01 1.208744999999999976e+02 2.238970000000000255e+03
8.500000000000000611e-02 1.788089999999999957e-01 3.074204999999999899e+01 1.243429999999999893e+02 2.240025000000000091e+03
8.600000000000000699e-02 1.789235000000000131e-01 3.153914999999999935e+01 1.277185000000000059e+02 2.241059999999999945e+03
8.700000000000000788e-02 1.790349999999999997e-01 3.226599999999999824e+01 1.309304999999999950e+02 2.242065000000000055e+03
8.800000000000000877e-02 1.791409999999999947e-01 3.290120000000000289e+01 1.339130000000000109e+02 2.243019999999999982e+03
8.899999999999999578e-02 1.792389999999999817e-01 3.342459999999999809e+01 1.366059999999999945e+02 2.243914999999999964e+03
8.999999999999999667e-02 1.793275000000000008e-01 3.381820000000000448e+01 1.389594999999999914e+02 2.244730000000000018e+03
9.099999999999999756e-02 1.794050000000000089e-01 3.406779999999999831e+01 1.409354999999999905e+02 2.245440000000000055e+03
9.199999999999999845e-02 1.794715000000000060e-01 3.416344999999999743e+01 1.425095000000000027e+02 2.246045000000000073e+03
9.299999999999999933e-02 1.795239999999999891e-01 3.410040000000000049e+01 1.436719999999999970e+02 2.246539999999999964e+03
9.400000000000000022e-02 1.795645000000000158e-01 3.387935000000000230e+01 1.444295000000000186e+02 2.246914999999999964e+03
9.500000000000000111e-02 1.795924999999999883e-01 3.350650000000000261e+01 1.448004999999999995e+02 2.247180000000000291e+03
9.600000000000000200e-02 1.796079999999999899e-01 3.299329999999999785e+01 1.448195000000000050e+02 2.247335000000000036e+03
9.700000000000000289e-02 1.796125000000000083e-01 3.235555000000000092e+01 1.445310000000000059e+02 2.247390000000000327e+03
9.800000000000000377e-02 1.796074999999999755e-01 3.161295000000000144e+01 1.439859999999999900e+02 2.247355000000000018e+03
9.900000000000000466e-02 1.795940000000000036e-01 3.078759999999999764e+01 1.432420000000000186e+02 2.247244999999999891e+03
1.000000000000000056e-01 1.795740000000000114e-01 2.990305000000000035e+01 1.423584999999999923e+02 2.247074999999999818e+03
1.010000000000000064e-01 1.795499999999999874e-01 2.898310000000000031e+01 1.413935000000000173e+02 2.246864999999999782e+03
1.020000000000000073e-01 1.795229999999999881e-01 2.805089999999999861e+01 1.404014999999999986e+02 2.246619999999999891e+03
1.030000000000000082e-01 1.794945000000000013e-01 2.712760000000000105e+01 1.394304999999999950e+02 2.246369999999999891e+03
1.040000000000000091e-01 1.794660000000000144e-01 2.623174999999999812e+01 1.385199999999999818e+02 2.246114999999999782e+03
1.050000000000000100e-01 1.794399999999999884e-01 2.537854999999999706e+01 1.377019999999999982e+02 2.245875000000000000e+03
1.059999999999999970e-01 1.794155000000000055e-01 2.457914999999999850e+01 1.369959999999999809e+02 2.245654999999999745e+03
1.069999999999999979e-01 1.793939999999999979e-01 2.384040000000000248e+01 1.364120000000000061e+02 2.245460000000000036e+03
1.079999999999999988e-01 1.793760000000000077e-01 2.316474999999999795e+01 1.359479999999999791e+02 2.245289999999999964e+03
1.089999999999999997e-01 1.793609999999999927e-01 2.255015000000000214e+01 1.355914999999999964e+02 2.245154999999999745e+03
1.100000000000000006e-01 1.793494999999999950e-01 2.199044999999999916e+01 1.353215000000000146e+02 2.245034999999999854e+03
1.110000000000000014e-01 1.793399999999999994e-01 2.147599999999999909e+01 1.351075000000000159e+02 2.244944999999999709e+03
1.120000000000000023e-01 1.793314999999999770e-01 2.099429999999999907e+01 1.349134999999999991e+02 2.244864999999999782e+03
1.130000000000000032e-01 1.793234999999999968e-01 2.053089999999999904e+01 1.346999999999999886e+02 2.244789999999999964e+03
1.140000000000000041e-01 1.793140000000000012e-01 2.007045000000000101e+01 1.344269999999999925e+02 2.244699999999999818e+03
1.150000000000000050e-01 1.793029999999999902e-01 1.959770000000000323e+01 1.340554999999999950e+02 2.244605000000000018e+03
1.160000000000000059e-01 1.792890000000000039e-01 1.909879999999999711e+01 1.335504999999999995e+02 2.244474999999999909e+03
1.170000000000000068e-01 1.792699999999999849e-01 1.856184999999999974e+01 1.328874999999999886e+02 2.244300000000000182e+03
1.180000000000000077e-01 1.792469999999999897e-01 1.797814999999999941e+01 1.320459999999999923e+02 2.244090000000000146e+03
1.190000000000000085e-01 1.792179999999999884e-01 1.734244999999999948e+01 1.310194999999999936e+02 2.243829999999999927e+03
1.200000000000000094e-01 1.791829999999999812e-01 1.665360000000000085e+01 1.298110000000000070e+02 2.243525000000000091e+03
1.209999999999999964e-01 1.791429999999999967e-01 1.591475000000000151e+01 1.284350000000000023e+02 2.243164999999999964e+03
1.219999999999999973e-01 1.790980000000000072e-01 1.513285000000000124e+01 1.269165000000000134e+02 2.242765000000000327e+03
1.229999999999999982e-01 1.790490000000000137e-01 1.431850000000000023e+01 1.252895000000000039e+02 2.242319999999999709e+03
1.239999999999999991e-01 1.789965000000000028e-01 1.348519999999999897e+01 1.235935000000000059e+02 2.241849999999999909e+03
1.250000000000000000e-01 1.789419999999999900e-01 1.264874999999999972e+01 1.218750000000000000e+02 2.241364999999999782e+03
1.260000000000000009e-01 1.788869999999999905e-01 1.182593500000000120e+01 1.201795000000000044e+02 2.240869999999999891e+03
1.270000000000000018e-01 1.788325000000000053e-01 1.103365499999999955e+01 1.185529999999999973e+02 2.240380000000000109e+03
1.280000000000000027e-01 1.787809999999999955e-01 1.028814999999999991e+01 1.170379999999999967e+02 2.239914999999999964e+03
1.290000000000000036e-01 1.787325000000000164e-01 9.603995000000001170e+00 1.156700000000000017e+02 2.239474999999999909e+03
1.300000000000000044e-01 1.786885000000000001e-01 8.993299999999999628e+00 1.144789999999999992e+02 2.239074999999999818e+03
1.310000000000000053e-01 1.786504999999999899e-01 8.465294999999999348e+00 1.134849999999999994e+02 2.238724999999999909e+03
1.320000000000000062e-01 1.786179999999999990e-01 8.025985000000000369e+00 1.126995000000000005e+02 2.238425000000000182e+03
1.330000000000000071e-01 1.785920000000000007e-01 7.677989999999999426e+00 1.121244999999999976e+02 2.238184999999999945e+03
1.340000000000000080e-01 1.785725000000000229e-01 7.420670000000000321e+00 1.117549999999999955e+02 2.238000000000000000e+03
1.350000000000000089e-01 1.785590000000000233e-01 7.250354999999999883e+00 1.115769999999999982e+02 2.237869999999999891e+03
1.360000000000000098e-01 1.785515000000000019e-01 7.160709999999999908e+00 1.115720000000000027e+02 2.237800000000000182e+03
1.370000000000000107e-01 1.785494999999999999e-01 7.143224999999999270e+00 1.117160000000000082e+02 2.237774999999999636e+03
1.380000000000000115e-01 1.785519999999999885e-01 7.187705000000000233e+00 1.119819999999999993e+02 2.237789999999999964e+03
1.390000000000000124e-01 1.785585000000000089e-01 7.282814999999999372e+00 1.123414999999999964e+02 2.237840000000000146e+03
1.400000000000000133e-01 1.785680000000000045e-01 7.416615000000000180e+00 1.127665000000000077e+02 2.237920000000000073e+03
1.410000000000000142e-01 1.785800000000000165e-01 7.577070000000000860e+00 1.132284999999999968e+02 2.238025000000000091e+03
1.420000000000000151e-01 1.785924999999999874e-01 7.752494999999999692e+00 1.137009999999999934e+02 2.238135000000000218e+03
1.430000000000000160e-01 1.786059999999999870e-01 7.931974999999999554e+00 1.141604999999999990e+02 2.238255000000000109e+03
1.440000000000000169e-01 1.786194999999999866e-01 8.105739999999999057e+00 1.145879999999999939e+02 2.238375000000000000e+03
1.450000000000000178e-01 1.786320000000000130e-01 8.265460000000000917e+00 1.149660000000000082e+02 2.238485000000000127e+03
1.459999999999999909e-01 1.786435000000000106e-01 8.404450000000000642e+00 1.152835000000000036e+02 2.238579999999999927e+03
1.469999999999999918e-01 1.786530000000000062e-01 8.517844999999999445e+00 1.155330000000000013e+02 2.238670000000000073e+03
1.479999999999999927e-01 1.786599999999999855e-01 8.602669999999999817e+00 1.157109999999999985e+02 2.238739999999999782e+03
1.489999999999999936e-01 1.786654999999999771e-01 8.657779999999998921e+00 1.158185000000000002e+02 2.238789999999999964e+03
1.499999999999999944e-01 1.786689999999999945e-01 8.683785000000000309e+00 1.158609999999999900e+02 2.238824999999999818e+03
1.509999999999999953e-01 1.786705000000000099e-01 8.682790000000000674e+00 1.158470000000000084e+02 2.238840000000000146e+03
1.519999999999999962e-01 1.786705000000000099e-01 8.658170000000000144e+00 1.157870000000000061e+02 2.238840000000000146e+03
1.529999999999999971e-01 1.786690000000000222e-01 8.614174999999999471e+00 1.156935000000000002e+02 2.238829999999999927e+03
1.539999999999999980e-01 1.786670000000000202e-01 8.555590000000000472e+00 1.155784999999999911e+02 2.238815000000000055e+03
1.549999999999999989e-01 1.786639999999999895e-01 8.487344999999999473e+00 1.154560000000000031e+02 2.238784999999999854e+03
1.559999999999999998e-01 1.786610000000000142e-01 8.414165000000000560e+00 1.153359999999999985e+02 2.238760000000000218e+03
1.570000000000000007e-01 1.786575000000000246e-01 8.340260000000000673e+00 1.152274999999999920e+02 2.238734999999999673e+03
1.580000000000000016e-01 1.786544999999999939e-01 8.269099999999999895e+00 1.151380000000000052e+02 2.238704999999999927e+03
1.590000000000000024e-01 1.786520000000000052e-01 8.203240000000000975e+00 1.150705000000000098e+02 2.238684999999999945e+03
