# t [s], A [cm^2], U [cm/s], P [cPa], c [cm/s]
1.000000000000000021e-03 6.824959999999999916e-01 3.977499999999994929e-03 9.026654999999999518e+01 1.682119999999999891e+03
2.000000000000000042e-03 6.824894999999999712e-01 6.885599999999999533e-03 9.024119999999999209e+01 1.682115000000000009e+03
3.000000000000000062e-03 6.825660000000000061e-01 1.450769000000000086e-01 9.039369999999999550e+01 1.682154999999999973e+03
4.000000000000000083e-03 6.825989999999999558e-01 2.239855000000000040e-01 9.048619999999999663e+01 1.682174999999999955e+03
5.000000000000000104e-03 6.825354999999999617e-01 1.415404999999999858e-01 9.031595000000000084e+01 1.682139999999999873e+03
6.000000000000000125e-03 6.824544999999999639e-01 1.682800000000000962e-02 8.999090000000001055e+01 1.682065000000000055e+03
7.000000000000000146e-03 6.823619999999999131e-01 -1.411350000000000104e-01 8.954855000000000587e+01 1.681965000000000146e+03
8.000000000000000167e-03 6.821949999999999958e-01 -4.469299999999999384e-01 8.883799999999999386e+01 1.681799999999999955e+03
9.000000000000001055e-03 6.819435000000000358e-01 -9.161500000000000199e-01 8.778759999999999764e+01 1.681555000000000064e+03
1.000000000000000194e-02 6.815974999999999673e-01 -1.557724999999999804e+00 8.633705000000000496e+01 1.681214999999999918e+03
1.099999999999999936e-02 6.811305000000000831e-01 -2.396959999999999980e+00 8.440135000000000787e+01 1.680750000000000000e+03
1.200000000000000025e-02 6.805654999999999344e-01 -3.366174999999999695e+00 8.201435000000000741e+01 1.680164999999999964e+03
1.300000000000000114e-02 6.799935000000000285e-01 -4.272974999999999746e+00 7.941389999999999816e+01 1.679514999999999873e+03
1.400000000000000203e-02 6.795130000000000337e-01 -4.899695499999999981e+00 7.694174999999999898e+01 1.678860000000000127e+03
1.499999999999999944e-02 6.791745000000000143e-01 -5.118854999999999933e+00 7.486955000000000382e+01 1.678280000000000200e+03
1.600000000000000033e-02 6.789650000000000407e-01 -4.935999999999999943e+00 7.329144999999999754e+01 1.677789999999999964e+03
1.700000000000000122e-02 6.788229999999999542e-01 -4.462080000000000268e+00 7.211809999999999832e+01 1.677389999999999873e+03
1.800000000000000211e-02 6.786760000000000570e-01 -3.851984999999999992e+00 7.114320000000000732e+01 1.677039999999999964e+03
1.900000000000000300e-02 6.784675000000000011e-01 -3.239900000000000002e+00 7.014005000000000223e+01 1.676694999999999936e+03
2.000000000000000042e-02 6.781760000000000010e-01 -2.694087500000000190e+00 6.895105000000000928e+01 1.676315000000000055e+03
2.100000000000000130e-02 6.778170000000000028e-01 -2.207003999999999966e+00 6.753340000000000032e+01 1.675889999999999873e+03
2.200000000000000219e-02 6.774284999999999890e-01 -1.722014999999999851e+00 6.594700000000000273e+01 1.675425000000000182e+03
2.299999999999999961e-02 6.770464999999999955e-01 -1.179030000000000022e+00 6.429789999999999850e+01 1.674940000000000055e+03
2.400000000000000050e-02 6.766885000000000261e-01 -5.545950000000001712e-01 6.267154999999999632e+01 1.674454999999999927e+03
2.500000000000000139e-02 6.763445000000000151e-01 1.189249999999999474e-01 6.108535000000000537e+01 1.673974999999999909e+03
2.600000000000000228e-02 6.759824999999999307e-01 7.575000000000002842e-01 5.947350000000000136e+01 1.673490000000000009e+03
2.700000000000000316e-02 6.755575000000000330e-01 1.247030000000000083e+00 5.770324999999999704e+01 1.672965000000000146e+03
2.800000000000000058e-02 6.750279999999999614e-01 1.474339999999999762e+00 5.561374999999999602e+01 1.672369999999999891e+03
2.900000000000000147e-02 6.743650000000001032e-01 1.358865000000000212e+00 5.306714999999999804e+01 1.671675000000000182e+03
3.000000000000000236e-02 6.735670000000000268e-01 8.761149999999999771e-01 4.999545000000000528e+01 1.670855000000000018e+03
3.099999999999999978e-02 6.726590000000000069e-01 6.570499999999945828e-02 4.642980000000000018e+01 1.669924999999999955e+03
3.200000000000000067e-02 6.716880000000000628e-01 -9.782049999999999912e-01 4.250215000000000032e+01 1.668889999999999873e+03
3.300000000000000155e-02 6.707155000000000200e-01 -2.129239999999999355e+00 3.842105000000000103e+01 1.667809999999999945e+03
3.400000000000000244e-02 6.698005000000000209e-01 -3.255419999999999980e+00 3.443294999999999817e+01 1.666735000000000127e+03
3.500000000000000333e-02 6.689960000000000351e-01 -4.240820000000000256e+00 3.078054999999999808e+01 1.665724999999999909e+03
3.600000000000000422e-02 6.683384999999999465e-01 -4.999390000000000001e+00 2.767000000000000171e+01 1.664829999999999927e+03
3.700000000000000511e-02 6.678494999999999848e-01 -5.478840950000000376e+00 2.524969999999999715e+01 1.664094999999999800e+03
3.799999999999999906e-02 6.675360000000000182e-01 -5.657460000000000377e+00 2.360419999999999874e+01 1.663549999999999955e+03
3.899999999999999994e-02 6.673960000000001003e-01 -5.535974999999999646e+00 2.275880000000000081e+01 1.663210000000000036e+03
4.000000000000000083e-02 6.674185000000000256e-01 -5.128020000000000245e+00 2.269290000000000163e+01 1.663074999999999818e+03
4.100000000000000172e-02 6.675915000000000044e-01 -4.451624999999999943e+00 2.335645000000000238e+01 1.663134999999999991e+03
4.200000000000000261e-02 6.679010000000000780e-01 -3.524017499999999803e+00 2.468520000000000181e+01 1.663385000000000218e+03
4.300000000000000350e-02 6.683350000000000124e-01 -2.360324999999999562e+00 2.661059999999999803e+01 1.663800000000000182e+03
4.400000000000000439e-02 6.688819999999999766e-01 -9.756700000000000372e-01 2.906445000000000078e+01 1.664375000000000000e+03
4.499999999999999833e-02 6.695275000000000531e-01 6.110699999999997800e-01 3.197829999999999728e+01 1.665085000000000036e+03
4.599999999999999922e-02 6.702569999999999917e-01 2.373769999999999492e+00 3.527994999999999948e+01 1.665904999999999973e+03
4.700000000000000011e-02 6.710515000000000230e-01 4.277094999999999203e+00 3.889074999999999704e+01 1.666829999999999927e+03
4.800000000000000100e-02 6.718904999999999461e-01 6.277324999999999378e+00 4.272420000000000329e+01 1.667829999999999927e+03
4.900000000000000189e-02 6.727525000000000865e-01 8.324640500000000998e+00 4.668845000000000312e+01 1.668875000000000000e+03
5.000000000000000278e-02 6.736154999999999227e-01 1.036742499999999900e+01 5.069004999999999939e+01 1.669949999999999818e+03
5.100000000000000366e-02 6.744604999999999073e-01 1.235678000000000054e+01 5.464059999999999917e+01 1.671025000000000091e+03
5.200000000000000455e-02 6.752720000000000944e-01 1.425047999999999959e+01 5.846289999999999765e+01 1.672089999999999918e+03
5.300000000000000544e-02 6.760379999999999168e-01 1.601577999999999946e+01 6.209655000000000058e+01 1.673115000000000009e+03
5.399999999999999939e-02 6.767524999999999791e-01 1.763119999999999976e+01 6.550135000000000218e+01 1.674094999999999800e+03
5.500000000000000028e-02 6.774145000000000305e-01 1.908654999999999902e+01 6.865899999999999181e+01 1.675014999999999873e+03
5.600000000000000117e-02 6.780264999999999764e-01 2.038165000000000049e+01 7.157150000000000034e+01 1.675875000000000000e+03
5.700000000000000205e-02 6.785959999999999770e-01 2.152490000000000236e+01 7.425934999999999775e+01 1.676684999999999945e+03
5.800000000000000294e-02 6.791304999999999703e-01 2.253125000000000000e+01 7.675700000000000500e+01 1.677440000000000055e+03
5.900000000000000383e-02 6.796415000000000095e-01 2.342009999999999792e+01 7.910894999999999300e+01 1.678159999999999854e+03
6.000000000000000472e-02 6.801395000000000080e-01 2.421354999999999791e+01 8.136519999999998731e+01 1.678845000000000027e+03
6.099999999999999867e-02 6.806354999999999489e-01 2.493485000000000085e+01 8.357729999999999393e+01 1.679514999999999873e+03
6.199999999999999956e-02 6.811390000000000500e-01 2.560670000000000002e+01 8.579434999999999434e+01 1.680180000000000064e+03
6.300000000000000044e-02 6.816590000000000149e-01 2.624994999999999834e+01 8.805969999999999231e+01 1.680855000000000018e+03
6.400000000000000133e-02 6.822015000000000162e-01 2.688204999999999956e+01 9.040780000000000882e+01 1.681545000000000073e+03
6.500000000000000222e-02 6.827704999999999469e-01 2.751604999999999990e+01 9.286169999999999902e+01 1.682259999999999991e+03
6.600000000000000311e-02 6.833660000000000290e-01 2.815919999999999845e+01 9.543090000000000828e+01 1.683000000000000000e+03
6.700000000000000400e-02 6.839870000000000116e-01 2.881269999999999953e+01 9.811064999999999259e+01 1.683775000000000091e+03
6.800000000000000488e-02 6.846265000000000267e-01 2.947144999999999726e+01 1.008822499999999991e+02 1.684559999999999945e+03
6.900000000000000577e-02 6.852759999999999962e-01 3.012480000000000047e+01 1.037142000000000053e+02 1.685375000000000000e+03
7.000000000000000666e-02 6.859260000000000357e-01 3.075750000000000028e+01 1.065630000000000024e+02 1.686195000000000164e+03
7.100000000000000755e-02 6.865649999999999809e-01 3.135099999999999909e+01 1.093799999999999955e+02 1.687009999999999991e+03
7.200000000000000844e-02 6.871804999999999719e-01 3.188534999999999897e+01 1.121099999999999994e+02 1.687805000000000064e+03
7.300000000000000933e-02 6.877604999999999968e-01 3.234055000000000035e+01 1.147009999999999934e+02 1.688565000000000055e+03
7.399999999999999634e-02 6.882949999999999902e-01 3.269819999999999993e+01 1.171020000000000039e+02 1.689279999999999973e+03
7.499999999999999722e-02 6.887754999999999850e-01 3.294270000000000209e+01 1.192699999999999960e+02 1.689940000000000055e+03
7.599999999999999811e-02 6.891955000000000719e-01 3.306220000000000425e+01 1.211694999999999993e+02 1.690525000000000091e+03
7.699999999999999900e-02 6.895495000000000374e-01 3.304934999999999690e+01 1.227785000000000082e+02 1.691039999999999964e+03
7.799999999999999989e-02 6.898364999999999636e-01 3.290140000000000242e+01 1.240835000000000008e+02 1.691470000000000027e+03
7.900000000000000078e-02 6.900580000000000602e-01 3.262055000000000149e+01 1.250844999999999914e+02 1.691819999999999936e+03
8.000000000000000167e-02 6.902165000000000106e-01 3.221354999999999791e+01 1.257930000000000064e+02 1.692085000000000036e+03
8.100000000000000255e-02 6.903164999999999996e-01 3.169120000000000203e+01 1.262280000000000086e+02 1.692275000000000091e+03
8.200000000000000344e-02 6.903654999999999653e-01 3.106799999999999784e+01 1.264184999999999945e+02 1.692389999999999873e+03
8.300000000000000433e-02 6.903715000000000268e-01 3.036104999999999876e+01 1.264005000000000081e+02 1.692440000000000055e+03
8.400000000000000522e-02 6.903429999999999289e-01 2.958975000000000222e+01 1.262134999999999962e+02 1.692444999999999936e+03
8.500000000000000611e-02 6.902885000000000826e-01 2.877430000000000021e+01 1.259000000000000057e+02 1.692394999999999982e+03
8.600000000000000699e-02 6.902185000000000681e-01 2.793515000000000015e+01 1.255014999999999930e+02 1.692320000000000164e+03
8.700000000000000788e-02 6.901405000000000456e-01 2.709175000000000111e+01 1.250600000000000023e+02 1.692230000000000018e+03
8.800000000000000877e-02 6.900630000000000930e-01 2.626219999999999999e+01 1.246115000000000066e+02 1.692125000000000000e+03
8.899999999999999578e-02 6.899919999999999387e-01 2.546180000000000021e+01 1.241889999999999930e+02 1.692019999999999982e+03
8.999999999999999667e-02 6.899319999999999897e-01 2.470295000000000130e+01 1.238170000000000073e+02 1.691920000000000073e+03
9.099999999999999756e-02 6.898870000000000280e-01 2.399449999999999861e+01 1.235139999999999958e+02 1.691839999999999918e+03
9.199999999999999845e-02 6.898584999999999301e-01 2.334140000000000015e+01 1.232904999999999944e+02 1.691769999999999982e+03
9.299999999999999933e-02 6.898459999999999592e-01 2.274504999999999910e+01 1.231484999999999985e+02 1.691724999999999909e+03
9.400000000000000022e-02 6.898480000000000167e-01 2.220304999999999751e+01 1.230840000000000032e+02 1.691690000000000055e+03
9.500000000000000111e-02 6.898619999999999752e-01 2.170994999999999919e+01 1.230850000000000080e+02 1.691679999999999836e+03
9.600000000000000200e-02 6.898839999999999417e-01 2.125740000000000052e+01 1.231350000000000051e+02 1.691680000000000064e+03
9.700000000000000289e-02 6.899089999999999945e-01 2.083510000000000062e+01 1.232135000000000105e+02 1.691690000000000055e+03
9.800000000000000377e-02 6.899310000000000720e-01 2.043119999999999692e+01 1.232959999999999923e+02 1.691704999999999927e+03
9.900000000000000466e-02 6.899459999999999482e-01 2.003330000000000055e+01 1.233575000000000017e+02 1.691710000000000036e+03
1.000000000000000056e-01 6.899480000000000057e-01 1.962890000000000157e+01 1.233735000000000070e+02 1.691710000000000036e+03
1.010000000000000064e-01 6.899325000000000596e-01 1.920660000000000167e+01 1.233215000000000003e+02 1.691695000000000164e+03
1.020000000000000073e-01 6.898950000000000360e-01 1.875609999999999999e+01 1.231825000000000045e+02 1.691659999999999854e+03
1.030000000000000082e-01 6.898334999999999884e-01 1.826935000000000286e+01 1.229399999999999977e+02 1.691605000000000018e+03
1.040000000000000091e-01 6.897459999999999702e-01 1.774089999999999989e+01 1.225844999999999914e+02 1.691509999999999991e+03
1.050000000000000100e-01 6.896320000000000228e-01 1.716799999999999926e+01 1.221115000000000066e+02 1.691389999999999873e+03
1.059999999999999970e-01 6.894930000000000225e-01 1.655105000000000004e+01 1.215229999999999961e+02 1.691240000000000009e+03
1.069999999999999979e-01 6.893309999999999160e-01 1.589339999999999975e+01 1.208275000000000006e+02 1.691055000000000064e+03
1.079999999999999988e-01 6.891499999999999293e-01 1.520134999999999970e+01 1.200390000000000015e+02 1.690855000000000018e+03
1.089999999999999997e-01 6.889540000000000664e-01 1.448367999999999967e+01 1.191749999999999972e+02 1.690625000000000000e+03
1.100000000000000006e-01 6.887490000000000556e-01 1.375141500000000150e+01 1.182605000000000075e+02 1.690375000000000000e+03
1.110000000000000014e-01 6.885410000000000696e-01 1.301703000000000010e+01 1.173204999999999956e+02 1.690119999999999891e+03
1.120000000000000023e-01 6.883354999999999890e-01 1.229381000000000057e+01 1.163829999999999956e+02 1.689865000000000009e+03
1.130000000000000032e-01 6.881390000000000562e-01 1.159536999999999907e+01 1.154759999999999991e+02 1.689610000000000127e+03
1.140000000000000041e-01 6.879580000000000695e-01 1.093468000000000018e+01 1.146270000000000095e+02 1.689360000000000127e+03
1.150000000000000050e-01 6.877965000000000328e-01 1.032368999999999915e+01 1.138594999999999970e+02 1.689139999999999873e+03
1.160000000000000059e-01 6.876590000000000202e-01 9.772420000000000329e+00 1.131935000000000002e+02 1.688940000000000055e+03
1.170000000000000068e-01 6.875480000000000480e-01 9.288734999999999076e+00 1.126454999999999984e+02 1.688769999999999982e+03
1.180000000000000077e-01 6.874664999999999804e-01 8.877955000000000041e+00 1.122259999999999991e+02 1.688635000000000218e+03
1.190000000000000085e-01 6.874135000000000106e-01 8.542625000000001023e+00 1.119395000000000095e+02 1.688525000000000091e+03
1.200000000000000094e-01 6.873895000000000977e-01 8.282624999999999460e+00 1.117845000000000084e+02 1.688460000000000036e+03
1.209999999999999964e-01 6.873914999999999331e-01 8.095135000000000858e+00 1.117549999999999955e+02 1.688424999999999955e+03
1.219999999999999973e-01 6.874179999999999735e-01 7.975075000000000358e+00 1.118395000000000010e+02 1.688420000000000073e+03
1.229999999999999982e-01 6.874640000000000750e-01 7.915380000000000749e+00 1.120244999999999891e+02 1.688449999999999818e+03
1.239999999999999991e-01 6.875269999999999992e-01 7.907469999999999999e+00 1.122909999999999968e+02 1.688500000000000000e+03
1.250000000000000000e-01 6.876014999999999766e-01 7.941739999999999355e+00 1.126195000000000022e+02 1.688570000000000164e+03
1.260000000000000009e-01 6.876830000000000442e-01 8.008005000000000706e+00 1.129894999999999925e+02 1.688655000000000200e+03
1.270000000000000018e-01 6.877685000000000048e-01 8.096014999999999517e+00 1.133810000000000002e+02 1.688750000000000000e+03
1.280000000000000027e-01 6.878520000000000190e-01 8.195819999999999439e+00 1.137754999999999939e+02 1.688849999999999909e+03
1.290000000000000036e-01 6.879314999999999181e-01 8.298189999999999955e+00 1.141555000000000035e+02 1.688949999999999818e+03
1.300000000000000044e-01 6.880034999999999901e-01 8.394875000000000753e+00 1.145060000000000002e+02 1.689045000000000073e+03
1.310000000000000053e-01 6.880660000000000664e-01 8.478850000000001330e+00 1.148164999999999907e+02 1.689130000000000109e+03
1.320000000000000062e-01 6.881174999999999375e-01 8.544464999999998867e+00 1.150764999999999958e+02 1.689204999999999927e+03
1.330000000000000071e-01 6.881559999999999899e-01 8.587540000000000617e+00 1.152814999999999941e+02 1.689264999999999873e+03
1.340000000000000080e-01 6.881824999999999193e-01 8.605364999999999043e+00 1.154294999999999902e+02 1.689315000000000055e+03
1.350000000000000089e-01 6.881975000000000176e-01 8.596684999999999022e+00 1.155204999999999984e+02 1.689345000000000027e+03
1.360000000000000098e-01 6.882004999999999928e-01 8.561614999999999753e+00 1.155564999999999998e+02 1.689369999999999891e+03
1.370000000000000107e-01 6.881935000000000136e-01 8.501504999999999868e+00 1.155430000000000064e+02 1.689375000000000000e+03
1.380000000000000115e-01 6.881774999999999975e-01 8.418749999999999289e+00 1.154869999999999948e+02 1.689365000000000009e+03
1.390000000000000124e-01 6.881559999999999899e-01 8.316615000000000535e+00 1.153960000000000008e+02 1.689349999999999909e+03
1.400000000000000133e-01 6.881289999999999907e-01 8.199010000000001241e+00 1.152789999999999964e+02 1.689329999999999927e+03
1.410000000000000142e-01 6.880994999999999751e-01 8.070249999999999702e+00 1.151449999999999960e+02 1.689295000000000073e+03
1.420000000000000151e-01 6.880690000000000417e-01 7.934815000000000396e+00 1.150030000000000001e+02 1.689259999999999991e+03
1.430000000000000160e-01 6.880390000000000672e-01 7.797109999999999985e+00 1.148615000000000066e+02 1.689224999999999909e+03
1.440000000000000169e-01 6.880125000000000268e-01 7.661245000000000971e+00 1.147265000000000015e+02 1.689194999999999936e+03
1.450000000000000178e-01 6.879885000000000028e-01 7.530865000000000364e+00 1.146065000000000111e+02 1.689159999999999854e+03
1.459999999999999909e-01 6.879699999999999704e-01 7.408960000000000434e+00 1.145035000000000025e+02 1.689130000000000109e+03
1.469999999999999918e-01 6.879554999999999421e-01 7.297784999999999300e+00 1.144224999999999994e+02 1.689110000000000127e+03
1.479999999999999927e-01 6.879465000000000163e-01 7.198789999999999800e+00 1.143635000000000019e+02 1.689089999999999918e+03
1.489999999999999936e-01 6.879420000000000535e-01 7.112624999999999531e+00 1.143255000000000052e+02 1.689074999999999818e+03
1.499999999999999944e-01 6.879414999999999836e-01 7.039170000000000371e+00 1.143079999999999927e+02 1.689070000000000164e+03
1.509999999999999953e-01 6.879450000000000287e-01 6.977640000000000065e+00 1.143070000000000022e+02 1.689070000000000164e+03
1.519999999999999962e-01 6.879500000000000615e-01 6.926700000000000301e+00 1.143179999999999978e+02 1.689070000000000164e+03
1.529999999999999971e-01 6.879560000000000120e-01 6.884595000000000020e+00 1.143375000000000057e+02 1.689070000000000164e+03
1.539999999999999980e-01 6.879625000000000323e-01 6.849315000000000708e+00 1.143584999999999923e+02 1.689075000000000045e+03
1.549999999999999989e-01 6.879675000000000651e-01 6.818755000000000344e+00 1.143774999999999977e+02 1.689075000000000045e+03
1.559999999999999998e-01 6.879699999999999704e-01 6.790834999999999511e+00 1.143880000000000052e+02 1.689079999999999927e+03
1.570000000000000007e-01 6.879705000000000403e-01 6.763650000000000162e+00 1.143884999999999934e+02 1.689079999999999927e+03
1.580000000000000016e-01 6.879665000000000363e-01 6.735545000000000115e+00 1.143739999999999952e+02 1.689074999999999818e+03
1.590000000000000024e-01 6.879595000000000571e-01 6.705235000000000056e+00 1.143429999999999893e+02 1.689065000000000055e+03
