# t [s], A [cm^2], U [cm/s], P [cPa], c [cm/s]
1.000000000000000021e-03 6.008309999999998929e-01 4.537850000000002992e-03 1.089969999999999999e+02 1.452974999999999909e+03
2.000000000000000042e-03 6.008225000000000371e-01 4.960449999999999712e-04 1.089819999999999993e+02 1.452970000000000027e+03
3.000000000000000062e-03 6.008424999999999461e-01 2.815039999999999903e-02 1.090079999999999956e+02 1.452980000000000018e+03
4.000000000000000083e-03 6.008940000000000392e-01 1.070465000000000166e-01 1.091034999999999968e+02 1.453005000000000109e+03
5.000000000000000104e-03 6.009180000000000632e-01 1.505260999999999960e-01 1.091595000000000084e+02 1.453025000000000091e+03
6.000000000000000125e-03 6.008919999999999817e-01 1.190125999999999962e-01 1.091059999999999945e+02 1.453014999999999873e+03
7.000000000000000146e-03 6.008455000000000323e-01 5.443049999999999278e-02 1.089724999999999966e+02 1.452984999999999900e+03
8.000000000000000167e-03 6.008069999999999800e-01 6.174999999999930544e-04 1.088120000000000118e+02 1.452944999999999936e+03
9.000000000000001055e-03 6.007575000000000554e-01 -7.735500000000000709e-02 1.085989999999999895e+02 1.452894999999999982e+03
1.000000000000000194e-02 6.006745000000000001e-01 -2.208875000000000144e-01 1.082830000000000013e+02 1.452819999999999936e+03
1.099999999999999936e-02 6.005515000000000159e-01 -4.392899999999999583e-01 1.078354999999999961e+02 1.452715000000000146e+03
1.200000000000000025e-02 6.003825000000000411e-01 -7.396150000000000224e-01 1.072265000000000015e+02 1.452570000000000164e+03
1.300000000000000114e-02 6.001535000000000064e-01 -1.134205000000000130e+00 1.064184999999999945e+02 1.452375000000000000e+03
1.400000000000000203e-02 5.998639999999999528e-01 -1.614399999999999835e+00 1.053914999999999935e+02 1.452119999999999891e+03
1.499999999999999944e-02 5.995334999999999415e-01 -2.131349999999999856e+00 1.041749999999999972e+02 1.451809999999999945e+03
1.600000000000000033e-02 5.991949999999999221e-01 -2.606970000000000010e+00 1.028461999999999961e+02 1.451464999999999918e+03
1.700000000000000122e-02 5.988820000000000254e-01 -2.963690000000000158e+00 1.014962500000000034e+02 1.451105000000000018e+03
1.800000000000000211e-02 5.986115000000000741e-01 -3.150139999999999940e+00 1.002021000000000015e+02 1.450735000000000127e+03
1.900000000000000300e-02 5.983840000000000270e-01 -3.151209999999999845e+00 9.900119999999999720e+01 1.450384999999999991e+03
2.000000000000000042e-02 5.981830000000000203e-01 -2.983709999999999862e+00 9.789320000000000732e+01 1.450045000000000073e+03
2.100000000000000130e-02 5.979885000000000339e-01 -2.684177500000000105e+00 9.684524999999999295e+01 1.449710000000000036e+03
2.200000000000000219e-02 5.977780000000000316e-01 -2.294794999999999696e+00 9.581029999999999802e+01 1.449375000000000000e+03
2.299999999999999961e-02 5.975369999999999848e-01 -1.851374999999999771e+00 9.474205000000000609e+01 1.449029999999999973e+03
2.400000000000000050e-02 5.972589999999999844e-01 -1.375555000000000083e+00 9.360855000000000814e+01 1.448660000000000082e+03
2.500000000000000139e-02 5.969480000000000341e-01 -8.724700000000003008e-01 9.239930000000001087e+01 1.448275000000000091e+03
2.600000000000000228e-02 5.966145000000000476e-01 -3.338549999999997908e-01 9.112555000000000405e+01 1.447875000000000000e+03
2.700000000000000316e-02 5.962715000000000654e-01 2.547150000000000247e-01 8.981374999999999886e+01 1.447454999999999927e+03
2.800000000000000058e-02 5.959305000000000296e-01 9.051700000000000301e-01 8.849530000000000030e+01 1.447035000000000082e+03
2.900000000000000147e-02 5.955975000000000019e-01 1.619580000000000020e+00 8.719544999999999391e+01 1.446619999999999891e+03
3.000000000000000236e-02 5.952729999999999411e-01 2.386124999999999829e+00 8.592544999999999789e+01 1.446204999999999927e+03
3.099999999999999978e-02 5.949489999999999501e-01 3.178824999999999790e+00 8.467879999999999541e+01 1.445795000000000073e+03
3.200000000000000067e-02 5.946135000000000170e-01 3.960770000000000124e+00 8.343179999999999552e+01 1.445389999999999873e+03
3.300000000000000155e-02 5.942539999999999489e-01 4.689850000000000740e+00 8.214884999999999593e+01 1.444970000000000027e+03
3.400000000000000244e-02 5.938559999999999395e-01 5.325329999999999231e+00 8.078999999999999204e+01 1.444539999999999964e+03
3.500000000000000333e-02 5.934125000000000094e-01 5.835144999999999804e+00 7.932019999999999982e+01 1.444085000000000036e+03
3.600000000000000422e-02 5.929204999999999615e-01 6.200635000000000119e+00 7.771760000000000446e+01 1.443599999999999909e+03
3.700000000000000511e-02 5.923855000000000093e-01 6.419945000000000235e+00 7.597990000000000066e+01 1.443090000000000146e+03
3.799999999999999906e-02 5.918200000000000127e-01 6.507360000000000255e+00 7.412664999999999793e+01 1.442545000000000073e+03
3.899999999999999994e-02 5.912404999999999466e-01 6.490044999999999398e+00 7.219750000000000512e+01 1.441985000000000127e+03
4.000000000000000083e-02 5.906675000000000120e-01 6.403154999999999930e+00 7.024684999999999491e+01 1.441414999999999964e+03
4.100000000000000172e-02 5.901195000000000190e-01 6.283830000000000027e+00 6.833705000000000496e+01 1.440849999999999909e+03
4.200000000000000261e-02 5.896135000000000126e-01 6.166605000000000558e+00 6.653090000000000259e+01 1.440320000000000164e+03
4.300000000000000350e-02 5.891640000000000210e-01 6.080140000000000100e+00 6.488535000000000252e+01 1.439825000000000045e+03
4.400000000000000439e-02 5.887795000000000112e-01 6.045510000000000161e+00 6.344769999999999754e+01 1.439380000000000109e+03
4.499999999999999833e-02 5.884665000000000035e-01 6.076518300000000039e+00 6.225319999999999965e+01 1.438994999999999891e+03
4.599999999999999922e-02 5.882264999999999855e-01 6.180930000000000035e+00 6.132520000000000238e+01 1.438684999999999945e+03
4.700000000000000011e-02 5.880609999999999449e-01 6.362549999999999706e+00 6.067664999999999509e+01 1.438454999999999927e+03
4.800000000000000100e-02 5.879685000000000050e-01 6.623305000000000220e+00 6.031234999999999502e+01 1.438295000000000073e+03
4.900000000000000189e-02 5.879490000000000549e-01 6.964954999999999785e+00 6.023199999999999932e+01 1.438224999999999909e+03
5.000000000000000278e-02 5.880009999999999959e-01 7.390470000000000539e+00 6.043260000000000076e+01 1.438230000000000018e+03
5.100000000000000366e-02 5.881244999999999390e-01 7.904385000000000439e+00 6.091029999999999944e+01 1.438319999999999936e+03
5.200000000000000455e-02 5.883199999999999541e-01 8.512420000000000542e+00 6.166105000000000302e+01 1.438490000000000009e+03
5.300000000000000544e-02 5.885875000000000412e-01 9.220620000000000260e+00 6.268120000000000402e+01 1.438740000000000009e+03
5.399999999999999939e-02 5.889254999999999907e-01 1.003378000000000014e+01 6.396585000000000321e+01 1.439065000000000055e+03
5.500000000000000028e-02 5.893334999999999546e-01 1.095454999999999934e+01 6.550825000000000387e+01 1.439474999999999909e+03
5.600000000000000117e-02 5.898079999999999989e-01 1.198200499999999913e+01 6.729834999999999923e+01 1.439949999999999818e+03
5.700000000000000205e-02 5.903450000000000086e-01 1.311117499999999936e+01 6.932169999999999277e+01 1.440494999999999891e+03
5.800000000000000294e-02 5.909375000000000044e-01 1.433309000000000033e+01 7.155904999999999916e+01 1.441115000000000009e+03
5.900000000000000383e-02 5.915780000000000483e-01 1.563503000000000043e+01 7.398664999999999736e+01 1.441784999999999854e+03
6.000000000000000472e-02 5.922585000000000210e-01 1.700139000000000067e+01 7.657649999999999579e+01 1.442510000000000218e+03
6.099999999999999867e-02 5.929699999999999971e-01 1.841469999999999985e+01 7.929804999999998927e+01 1.443275000000000091e+03
6.199999999999999956e-02 5.937034999999999396e-01 1.985685000000000144e+01 8.211910000000000309e+01 1.444085000000000036e+03
6.300000000000000044e-02 5.944504999999999928e-01 2.131000000000000227e+01 8.500790000000000646e+01 1.444920000000000073e+03
6.400000000000000133e-02 5.952040000000000664e-01 2.275769999999999982e+01 8.793430000000000746e+01 1.445769999999999982e+03
6.500000000000000222e-02 5.959565000000000001e-01 2.418544999999999945e+01 9.087059999999999604e+01 1.446630000000000109e+03
6.600000000000000311e-02 5.967040000000000122e-01 2.558109999999999928e+01 9.379384999999999195e+01 1.447494999999999891e+03
6.700000000000000400e-02 5.974420000000000286e-01 2.693495000000000061e+01 9.668510000000000559e+01 1.448360000000000127e+03
6.800000000000000488e-02 5.981680000000000330e-01 2.823989999999999867e+01 9.953010000000000446e+01 1.449220000000000027e+03
6.900000000000000577e-02 5.988799999999999679e-01 2.949074999999999847e+01 1.023184499999999986e+02 1.450065000000000055e+03
7.000000000000000666e-02 5.995774999999999855e-01 3.068435000000000201e+01 1.050448499999999967e+02 1.450894999999999982e+03
7.100000000000000755e-02 6.002609999999999335e-01 3.181895000000000095e+01 1.077063500000000005e+02 1.451715000000000146e+03
7.200000000000000844e-02 6.009299999999999642e-01 3.289385000000000048e+01 1.103029999999999973e+02 1.452519999999999982e+03
7.300000000000000933e-02 6.015854999999999952e-01 3.390900000000000603e+01 1.128370000000000033e+02 1.453299999999999955e+03
7.399999999999999634e-02 6.022285000000000554e-01 3.486469999999999914e+01 1.153100000000000023e+02 1.454075000000000045e+03
7.499999999999999722e-02 6.028590000000000337e-01 3.576130000000000564e+01 1.177270000000000039e+02 1.454829999999999927e+03
7.599999999999999811e-02 6.034785000000000288e-01 3.659904999999999831e+01 1.200895000000000010e+02 1.455565000000000055e+03
7.699999999999999900e-02 6.040855000000000530e-01 3.737794999999999845e+01 1.224000000000000057e+02 1.456289999999999964e+03
7.799999999999999989e-02 6.046815000000000939e-01 3.809725000000000250e+01 1.246590000000000060e+02 1.457000000000000000e+03
7.900000000000000078e-02 6.052640000000000242e-01 3.875610000000000355e+01 1.268649999999999949e+02 1.457694999999999936e+03
8.000000000000000167e-02 6.058329999999999549e-01 3.935285000000000366e+01 1.290165000000000077e+02 1.458380000000000109e+03
8.100000000000000255e-02 6.063870000000000093e-01 3.988550000000000040e+01 1.311080000000000041e+02 1.459045000000000073e+03
8.200000000000000344e-02 6.069244999999999779e-01 4.035170000000000101e+01 1.331340000000000146e+02 1.459690000000000055e+03
8.300000000000000433e-02 6.074420000000000375e-01 4.074909999999999854e+01 1.350880000000000223e+02 1.460315000000000055e+03
8.400000000000000522e-02 6.079379999999999784e-01 4.107519999999999527e+01 1.369619999999999891e+02 1.460914999999999964e+03
8.500000000000000611e-02 6.084110000000000351e-01 4.132770000000000010e+01 1.387479999999999905e+02 1.461490000000000009e+03
8.600000000000000699e-02 6.088569999999999816e-01 4.150495000000000090e+01 1.404370000000000118e+02 1.462039999999999964e+03
8.700000000000000788e-02 6.092770000000000685e-01 4.160560000000000258e+01 1.420219999999999914e+02 1.462559999999999945e+03
8.800000000000000877e-02 6.096669999999999590e-01 4.162890000000000157e+01 1.434964999999999975e+02 1.463050000000000182e+03
8.899999999999999578e-02 6.100269999999999859e-01 4.157504999999999740e+01 1.448545000000000016e+02 1.463500000000000000e+03
8.999999999999999667e-02 6.103549999999999809e-01 4.144469999999999743e+01 1.460919999999999845e+02 1.463920000000000073e+03
9.099999999999999756e-02 6.106519999999999726e-01 4.123945000000000505e+01 1.472059999999999889e+02 1.464299999999999955e+03
9.199999999999999845e-02 6.109165000000000845e-01 4.096134999999999593e+01 1.481949999999999932e+02 1.464644999999999982e+03
9.299999999999999933e-02 6.111489999999999423e-01 4.061319999999999908e+01 1.490589999999999975e+02 1.464950000000000045e+03
9.400000000000000022e-02 6.113494999999999902e-01 4.019849999999999568e+01 1.497994999999999948e+02 1.465214999999999918e+03
9.500000000000000111e-02 6.115194999999999936e-01 3.972105000000000530e+01 1.504194999999999993e+02 1.465450000000000045e+03
9.600000000000000200e-02 6.116595000000000226e-01 3.918540000000000134e+01 1.509219999999999970e+02 1.465640000000000100e+03
9.700000000000000289e-02 6.117719999999999825e-01 3.859640000000000271e+01 1.513129999999999882e+02 1.465800000000000182e+03
9.800000000000000377e-02 6.118570000000000952e-01 3.795955000000000013e+01 1.515985000000000014e+02 1.465929999999999836e+03
9.900000000000000466e-02 6.119175000000000031e-01 3.728065000000000140e+01 1.517855000000000132e+02 1.466025000000000091e+03
1.000000000000000056e-01 6.119550000000000267e-01 3.656584999999999752e+01 1.518824999999999932e+02 1.466085000000000036e+03
1.010000000000000064e-01 6.119719999999999605e-01 3.582159999999999656e+01 1.518974999999999795e+02 1.466125000000000000e+03
1.020000000000000073e-01 6.119710000000000427e-01 3.505460000000000065e+01 1.518404999999999916e+02 1.466139999999999873e+03
1.030000000000000082e-01 6.119544999999999568e-01 3.427145000000000152e+01 1.517210000000000036e+02 1.466130000000000109e+03
1.040000000000000091e-01 6.119244999999999823e-01 3.347860000000000014e+01 1.515484999999999900e+02 1.466099999999999909e+03
1.050000000000000100e-01 6.118839999999999835e-01 3.268240000000000123e+01 1.513319999999999936e+02 1.466054999999999836e+03
1.059999999999999970e-01 6.118345000000000589e-01 3.188850000000000051e+01 1.510810000000000173e+02 1.466000000000000000e+03
1.069999999999999979e-01 6.117785000000000029e-01 3.110210000000000008e+01 1.508039999999999736e+02 1.465930000000000064e+03
1.079999999999999988e-01 6.117179999999999840e-01 3.032750000000000057e+01 1.505095000000000027e+02 1.465849999999999909e+03
1.089999999999999997e-01 6.116540000000000310e-01 2.956824999999999903e+01 1.502015000000000100e+02 1.465769999999999982e+03
1.100000000000000006e-01 6.115880000000000205e-01 2.882679999999999865e+01 1.498865000000000123e+02 1.465679999999999836e+03
1.110000000000000014e-01 6.115194999999999936e-01 2.810455000000000325e+01 1.495674999999999955e+02 1.465585000000000036e+03
1.120000000000000023e-01 6.114500000000000490e-01 2.740220000000000056e+01 1.492465000000000259e+02 1.465494999999999891e+03
1.130000000000000032e-01 6.113779999999999770e-01 2.671920000000000073e+01 1.489239999999999782e+02 1.465400000000000091e+03
1.140000000000000041e-01 6.113049999999999873e-01 2.605434999999999945e+01 1.486000000000000227e+02 1.465295000000000073e+03
1.150000000000000050e-01 6.112284999999999524e-01 2.540570000000000306e+01 1.482710000000000150e+02 1.465195000000000164e+03
1.160000000000000059e-01 6.111489999999999423e-01 2.477084999999999937e+01 1.479350000000000023e+02 1.465090000000000146e+03
1.170000000000000068e-01 6.110645000000000104e-01 2.414685000000000059e+01 1.475885000000000105e+02 1.464984999999999900e+03
1.180000000000000077e-01 6.109744999999999759e-01 2.353054999999999808e+01 1.472280000000000086e+02 1.464875000000000000e+03
1.190000000000000085e-01 6.108780000000000321e-01 2.291890000000000072e+01 1.468480000000000132e+02 1.464755000000000109e+03
1.200000000000000094e-01 6.107739999999999281e-01 2.230870000000000175e+01 1.464459999999999980e+02 1.464634999999999991e+03
1.209999999999999964e-01 6.106610000000000094e-01 2.169695000000000107e+01 1.460180000000000007e+02 1.464505000000000109e+03
1.219999999999999973e-01 6.105399999999999716e-01 2.108109999999999928e+01 1.455600000000000023e+02 1.464364999999999782e+03
1.229999999999999982e-01 6.104089999999999794e-01 2.045899999999999963e+01 1.450709999999999980e+02 1.464215000000000146e+03
1.239999999999999991e-01 6.102680000000000327e-01 1.982874999999999943e+01 1.445480000000000018e+02 1.464065000000000055e+03
1.250000000000000000e-01 6.101174999999999793e-01 1.918919999999999959e+01 1.439909999999999854e+02 1.463894999999999982e+03
1.260000000000000009e-01 6.099580000000000002e-01 1.853979999999999961e+01 1.433999999999999773e+02 1.463720000000000027e+03
1.270000000000000018e-01 6.097894999999999843e-01 1.788049999999999784e+01 1.427760000000000105e+02 1.463535000000000082e+03
1.280000000000000027e-01 6.096129999999999605e-01 1.721195000000000164e+01 1.421225000000000023e+02 1.463340000000000146e+03
1.290000000000000036e-01 6.094300000000000272e-01 1.653555000000000064e+01 1.414415000000000191e+02 1.463139999999999873e+03
1.300000000000000044e-01 6.092409999999999215e-01 1.585310000000000130e+01 1.407379999999999995e+02 1.462925000000000182e+03
1.310000000000000053e-01 6.090480000000000338e-01 1.516714499999999965e+01 1.400169999999999959e+02 1.462710000000000036e+03
1.320000000000000062e-01 6.088525000000000187e-01 1.448051999999999850e+01 1.392839999999999918e+02 1.462494999999999891e+03
1.330000000000000071e-01 6.086570000000000036e-01 1.379675499999999921e+01 1.385459999999999923e+02 1.462269999999999982e+03
1.340000000000000080e-01 6.084620000000000584e-01 1.311951499999999982e+01 1.378089999999999975e+02 1.462049999999999955e+03
1.350000000000000089e-01 6.082704999999999362e-01 1.245275499999999980e+01 1.370810000000000173e+02 1.461829999999999927e+03
1.360000000000000098e-01 6.080845000000000278e-01 1.180057000000000045e+01 1.363684999999999832e+02 1.461615000000000009e+03
1.370000000000000107e-01 6.079049999999999176e-01 1.116703000000000046e+01 1.356790000000000020e+02 1.461400000000000091e+03
1.380000000000000115e-01 6.077339999999999964e-01 1.055602000000000018e+01 1.350190000000000055e+02 1.461194999999999936e+03
1.390000000000000124e-01 6.075739999999999474e-01 9.971275000000000333e+00 1.343944999999999936e+02 1.461000000000000000e+03
1.400000000000000133e-01 6.074249999999999927e-01 9.416125000000000966e+00 1.338114999999999952e+02 1.460815000000000055e+03
1.410000000000000142e-01 6.072889999999999677e-01 8.893480000000000274e+00 1.332744999999999891e+02 1.460644999999999982e+03
1.420000000000000151e-01 6.071670000000000122e-01 8.405609999999999360e+00 1.327870000000000061e+02 1.460485000000000127e+03
1.430000000000000160e-01 6.070584999999999454e-01 7.954354999999999620e+00 1.323514999999999873e+02 1.460340000000000146e+03
1.440000000000000169e-01 6.069640000000000590e-01 7.540760000000000574e+00 1.319699999999999989e+02 1.460215000000000146e+03
1.450000000000000178e-01 6.068835000000000202e-01 7.165300000000000225e+00 1.316424999999999841e+02 1.460099999999999909e+03
1.459999999999999909e-01 6.068175000000000097e-01 6.827754999999999797e+00 1.313679999999999950e+02 1.460000000000000000e+03
1.469999999999999918e-01 6.067645000000000399e-01 6.527284999999999116e+00 1.311449999999999818e+02 1.459914999999999964e+03
1.479999999999999927e-01 6.067234999999999712e-01 6.262515000000000498e+00 1.309705000000000155e+02 1.459849999999999909e+03
1.489999999999999936e-01 6.066934999999999967e-01 6.031555000000000000e+00 1.308405000000000200e+02 1.459799999999999955e+03
1.499999999999999944e-01 6.066739999999999355e-01 5.832105000000000317e+00 1.307504999999999882e+02 1.459755000000000109e+03
1.509999999999999953e-01 6.066620000000000346e-01 5.661579999999999835e+00 1.306965000000000146e+02 1.459724999999999909e+03
1.519999999999999962e-01 6.066580000000000306e-01 5.517174999999999940e+00 1.306719999999999970e+02 1.459700000000000045e+03
1.529999999999999971e-01 6.066595000000000182e-01 5.395970000000000155e+00 1.306725000000000136e+02 1.459690000000000055e+03
1.539999999999999980e-01 6.066650000000000098e-01 5.295049999999999812e+00 1.306929999999999836e+02 1.459684999999999945e+03
1.549999999999999989e-01 6.066745000000000054e-01 5.211545000000000094e+00 1.307284999999999968e+02 1.459684999999999945e+03
1.559999999999999998e-01 6.066860000000000586e-01 5.142725000000000435e+00 1.307735000000000127e+02 1.459684999999999945e+03
1.570000000000000007e-01 6.066975000000000007e-01 5.086050000000000182e+00 1.308249999999999886e+02 1.459695000000000164e+03
1.580000000000000016e-01 6.067104999999999304e-01 5.039199999999999235e+00 1.308785000000000025e+02 1.459704999999999927e+03
1.590000000000000024e-01 6.067219999999999835e-01 5.000104999999999578e+00 1.309310000000000116e+02 1.459720000000000027e+03
