# t [s], A [cm^2], U [cm/s], P [cPa], c [cm/s]
1.000000000000000021e-03 1.596069999999999989e-01 1.169544500000000153e-01 1.048054999999999950e+02 1.829345000000000027e+03
2.000000000000000042e-03 1.595874999999999932e-01 1.474092999999999876e+00 1.022447499999999962e+02 1.829170000000000073e+03
3.000000000000000062e-03 1.594929999999999959e-01 3.242651999999999646e+00 9.880079999999999529e+01 1.828380000000000109e+03
4.000000000000000083e-03 1.593430000000000124e-01 5.242230499999999793e+00 9.465555000000000518e+01 1.827150000000000091e+03
5.000000000000000104e-03 1.591609999999999969e-01 7.417581999999999454e+00 9.041024999999999068e+01 1.825684999999999945e+03
6.000000000000000125e-03 1.589689999999999992e-01 9.695895000000000152e+00 8.652215000000001055e+01 1.824144999999999982e+03
7.000000000000000146e-03 1.587794999999999901e-01 1.195357000000000092e+01 8.315180000000000859e+01 1.822644999999999982e+03
8.000000000000000167e-03 1.585989999999999900e-01 1.405127500000000040e+01 8.021119999999999095e+01 1.821235000000000127e+03
9.000000000000001055e-03 1.584289999999999865e-01 1.590734500000000118e+01 7.756550000000000011e+01 1.819934999999999945e+03
1.000000000000000194e-02 1.582739999999999980e-01 1.751624999999999943e+01 7.518824999999999648e+01 1.818755000000000109e+03
1.099999999999999936e-02 1.581359999999999988e-01 1.890090000000000003e+01 7.312209999999998900e+01 1.817714999999999918e+03
1.200000000000000025e-02 1.580159999999999898e-01 2.007954999999999757e+01 7.139019999999999300e+01 1.816829999999999927e+03
1.300000000000000114e-02 1.579154999999999864e-01 2.106564999999999799e+01 6.998050000000000637e+01 1.816089999999999918e+03
1.400000000000000203e-02 1.578324999999999867e-01 2.187004999999999910e+01 6.885945000000000960e+01 1.815485000000000127e+03
1.499999999999999944e-02 1.577640000000000153e-01 2.249824999999999875e+01 6.797175000000000011e+01 1.814994999999999891e+03
1.600000000000000033e-02 1.577085000000000015e-01 2.295629999999999882e+01 6.724864999999999782e+01 1.814605000000000018e+03
1.700000000000000122e-02 1.576629999999999976e-01 2.326745000000000019e+01 6.664730000000000132e+01 1.814295000000000073e+03
1.800000000000000211e-02 1.576274999999999760e-01 2.348489999999999966e+01 6.619660000000000366e+01 1.814050000000000182e+03
1.900000000000000300e-02 1.576035000000000075e-01 2.368529999999999802e+01 6.600520000000000209e+01 1.813900000000000091e+03
2.000000000000000042e-02 1.575969999999999871e-01 2.394510000000000005e+01 6.621840000000000259e+01 1.813860000000000127e+03
2.100000000000000130e-02 1.576089999999999991e-01 2.431295000000000073e+01 6.694615000000000293e+01 1.813960000000000036e+03
2.200000000000000219e-02 1.576425000000000187e-01 2.479305000000000092e+01 6.820255000000000223e+01 1.814220000000000027e+03
2.299999999999999961e-02 1.576945000000000152e-01 2.534515000000000029e+01 6.988400000000000034e+01 1.814614999999999782e+03
2.400000000000000050e-02 1.577609999999999846e-01 2.589914999999999878e+01 7.179089999999999350e+01 1.815109999999999900e+03
2.500000000000000139e-02 1.578330000000000011e-01 2.637754999999999939e+01 7.368080000000000496e+01 1.815660000000000082e+03
2.600000000000000228e-02 1.579030000000000156e-01 2.671675000000000111e+01 7.532910000000001105e+01 1.816204999999999927e+03
2.700000000000000316e-02 1.579650000000000221e-01 2.688155000000000072e+01 7.658044999999999902e+01 1.816684999999999945e+03
2.800000000000000058e-02 1.580139999999999878e-01 2.687004999999999910e+01 7.737494999999999834e+01 1.817074999999999818e+03
2.900000000000000147e-02 1.580495000000000094e-01 2.670909999999999940e+01 7.774754999999998972e+01 1.817355000000000018e+03
3.000000000000000236e-02 1.580719999999999903e-01 2.644259999999999877e+01 7.780289999999999395e+01 1.817539999999999964e+03
3.099999999999999978e-02 1.580844999999999889e-01 2.611730000000000018e+01 7.767619999999999436e+01 1.817654999999999973e+03
3.200000000000000067e-02 1.580910000000000093e-01 2.577004999999999768e+01 7.749250000000000682e+01 1.817714999999999918e+03
3.300000000000000155e-02 1.580949999999999855e-01 2.541980000000000217e+01 7.733554999999999779e+01 1.817744999999999891e+03
3.400000000000000244e-02 1.580980000000000163e-01 2.506609999999999872e+01 7.723310000000000741e+01 1.817764999999999873e+03
3.500000000000000333e-02 1.580995000000000039e-01 2.469290000000000163e+01 7.715970000000000084e+01 1.817784999999999854e+03
3.600000000000000422e-02 1.580995000000000039e-01 2.427669999999999817e+01 7.705419999999999447e+01 1.817789999999999964e+03
3.700000000000000511e-02 1.580954999999999999e-01 2.379579999999999984e+01 7.684524999999999295e+01 1.817760000000000218e+03
3.799999999999999906e-02 1.580864999999999909e-01 2.323910000000000053e+01 7.647755000000000791e+01 1.817700000000000045e+03
3.899999999999999994e-02 1.580709999999999893e-01 2.261155000000000115e+01 7.593330000000000268e+01 1.817585000000000036e+03
4.000000000000000083e-02 1.580495000000000094e-01 2.193619999999999948e+01 7.524289999999999168e+01 1.817434999999999945e+03
4.100000000000000172e-02 1.580229999999999968e-01 2.125115000000000265e+01 7.448335000000000150e+01 1.817244999999999891e+03
4.200000000000000261e-02 1.579960000000000253e-01 2.060314999999999941e+01 7.376484999999999559e+01 1.817045000000000073e+03
4.300000000000000350e-02 1.579720000000000013e-01 2.003889999999999816e+01 7.320885000000001241e+01 1.816860000000000127e+03
4.400000000000000439e-02 1.579539999999999833e-01 1.959660000000000224e+01 7.292350000000000421e+01 1.816724999999999909e+03
4.499999999999999833e-02 1.579470000000000041e-01 1.929899999999999949e+01 7.298210000000000264e+01 1.816659999999999854e+03
4.599999999999999922e-02 1.579524999999999957e-01 1.914965000000000117e+01 7.340869999999999607e+01 1.816690000000000055e+03
4.700000000000000011e-02 1.579705000000000137e-01 1.913335000000000008e+01 7.417414999999999736e+01 1.816820000000000164e+03
4.800000000000000100e-02 1.580004999999999882e-01 1.921889999999999787e+01 7.520189999999999486e+01 1.817029999999999973e+03
4.900000000000000189e-02 1.580385000000000262e-01 1.936455000000000126e+01 7.638130000000001019e+01 1.817309999999999945e+03
5.000000000000000278e-02 1.580814999999999859e-01 1.952445000000000164e+01 7.758520000000000039e+01 1.817625000000000000e+03
5.100000000000000366e-02 1.581255000000000022e-01 1.965425000000000111e+01 7.868800000000000239e+01 1.817954999999999927e+03
5.200000000000000455e-02 1.581655000000000144e-01 1.971654999999999802e+01 7.958145000000000380e+01 1.818255000000000109e+03
5.300000000000000544e-02 1.581984999999999919e-01 1.968330000000000268e+01 8.018550000000000466e+01 1.818505000000000109e+03
5.399999999999999939e-02 1.582215000000000149e-01 1.953755000000000308e+01 8.045349999999999113e+01 1.818684999999999945e+03
5.500000000000000028e-02 1.582319999999999838e-01 1.927274999999999849e+01 8.037205000000000155e+01 1.818769999999999982e+03
5.600000000000000117e-02 1.582299999999999818e-01 1.889104999999999990e+01 7.995595000000000141e+01 1.818765000000000100e+03
5.700000000000000205e-02 1.582155000000000089e-01 1.840109999999999957e+01 7.924099999999999966e+01 1.818664999999999964e+03
5.800000000000000294e-02 1.581899999999999973e-01 1.781520000000000081e+01 7.827500000000000568e+01 1.818480000000000018e+03
5.900000000000000383e-02 1.581545000000000034e-01 1.714764999999999873e+01 7.711025000000000773e+01 1.818220000000000027e+03
6.000000000000000472e-02 1.581104999999999872e-01 1.641274999999999906e+01 7.579724999999999113e+01 1.817889999999999873e+03
6.099999999999999867e-02 1.580594999999999917e-01 1.562460000000000093e+01 7.438130000000001019e+01 1.817514999999999873e+03
6.199999999999999956e-02 1.580040000000000056e-01 1.479680000000000106e+01 7.290179999999999438e+01 1.817094999999999800e+03
6.300000000000000044e-02 1.579444999999999877e-01 1.394300000000000139e+01 7.139265000000000327e+01 1.816650000000000091e+03
6.400000000000000133e-02 1.578824999999999812e-01 1.307774999999999999e+01 6.988530000000000086e+01 1.816184999999999945e+03
6.500000000000000222e-02 1.578205000000000024e-01 1.221702999999999939e+01 6.841089999999999804e+01 1.815715000000000146e+03
6.600000000000000311e-02 1.577589999999999826e-01 1.137876999999999938e+01 6.700310000000000343e+01 1.815255000000000109e+03
6.700000000000000400e-02 1.576994999999999925e-01 1.058325500000000119e+01 6.569964999999999122e+01 1.814804999999999836e+03
6.800000000000000488e-02 1.576440000000000063e-01 9.852499999999999147e+00 6.454259999999999309e+01 1.814384999999999991e+03
6.900000000000000577e-02 1.575944999999999985e-01 9.209714999999999208e+00 6.357780000000000342e+01 1.814009999999999991e+03
7.000000000000000666e-02 1.575524999999999842e-01 8.678440000000000154e+00 6.285280000000000200e+01 1.813690000000000055e+03
7.100000000000000755e-02 1.575205000000000077e-01 8.281159999999999854e+00 6.241420000000000101e+01 1.813434999999999945e+03
7.200000000000000844e-02 1.575004999999999877e-01 8.038270000000000692e+00 6.230490000000000350e+01 1.813275000000000091e+03
7.300000000000000933e-02 1.574929999999999941e-01 7.966770000000000351e+00 6.256080000000000041e+01 1.813210000000000036e+03
7.399999999999999634e-02 1.575010000000000021e-01 8.079394999999999882e+00 6.320839999999999748e+01 1.813255000000000109e+03
7.499999999999999722e-02 1.575249999999999984e-01 8.383945000000000647e+00 6.426319999999999766e+01 1.813420000000000073e+03
7.599999999999999811e-02 1.575650000000000106e-01 8.882944999999999425e+00 6.572835000000000605e+01 1.813704999999999927e+03
7.699999999999999900e-02 1.576224999999999987e-01 9.573605000000000587e+00 6.759479999999999222e+01 1.814119999999999891e+03
7.799999999999999989e-02 1.576960000000000028e-01 1.044808499999999896e+01 6.984205000000000041e+01 1.814664999999999964e+03
7.900000000000000078e-02 1.577859999999999818e-01 1.149413499999999999e+01 7.243935000000000457e+01 1.815324999999999818e+03
8.000000000000000167e-02 1.578904999999999892e-01 1.269562499999999972e+01 7.534805000000000064e+01 1.816105000000000018e+03
8.100000000000000255e-02 1.580084999999999962e-01 1.403350000000000009e+01 7.852344999999999686e+01 1.816980000000000018e+03
8.200000000000000344e-02 1.581380000000000008e-01 1.548675000000000068e+01 8.191755000000000564e+01 1.817949999999999818e+03
8.300000000000000433e-02 1.582780000000000020e-01 1.703325000000000244e+01 8.548134999999999195e+01 1.818994999999999891e+03
8.400000000000000522e-02 1.584254999999999969e-01 1.865070000000000050e+01 8.916704999999998904e+01 1.820105000000000018e+03
8.500000000000000611e-02 1.585794999999999844e-01 2.031750000000000256e+01 9.293000000000000682e+01 1.821269999999999982e+03
8.600000000000000699e-02 1.587374999999999758e-01 2.201339999999999719e+01 9.673085000000000377e+01 1.822470000000000027e+03
8.700000000000000788e-02 1.588990000000000125e-01 2.372009999999999863e+01 1.005357500000000073e+02 1.823694999999999936e+03
8.800000000000000877e-02 1.590614999999999946e-01 2.542170000000000130e+01 1.043177499999999895e+02 1.824929999999999836e+03
8.899999999999999578e-02 1.592244999999999910e-01 2.710474999999999923e+01 1.080579999999999927e+02 1.826174999999999955e+03
8.999999999999999667e-02 1.593864999999999865e-01 2.875839999999999819e+01 1.117420000000000044e+02 1.827414999999999964e+03
9.099999999999999756e-02 1.595475000000000088e-01 3.037434999999999974e+01 1.153629999999999995e+02 1.828644999999999982e+03
9.199999999999999845e-02 1.597069999999999879e-01 3.194604999999999961e+01 1.189180000000000064e+02 1.829869999999999891e+03
9.299999999999999933e-02 1.598634999999999917e-01 3.346909999999999741e+01 1.224085000000000036e+02 1.831079999999999927e+03
9.400000000000000022e-02 1.600190000000000223e-01 3.494015000000000271e+01 1.258359999999999843e+02 1.832279999999999973e+03
9.500000000000000111e-02 1.601719999999999811e-01 3.635685000000000144e+01 1.292040000000000077e+02 1.833460000000000036e+03
9.600000000000000200e-02 1.603229999999999933e-01 3.771724999999999994e+01 1.325155000000000030e+02 1.834625000000000000e+03
9.700000000000000289e-02 1.604714999999999892e-01 3.901964999999999861e+01 1.357724999999999795e+02 1.835779999999999973e+03
9.800000000000000377e-02 1.606180000000000108e-01 4.026219999999999999e+01 1.389730000000000132e+02 1.836920000000000073e+03
9.900000000000000466e-02 1.607620000000000160e-01 4.144294999999999618e+01 1.421150000000000091e+02 1.838035000000000082e+03
1.000000000000000056e-01 1.609045000000000059e-01 4.255930000000000035e+01 1.451920000000000073e+02 1.839144999999999982e+03
1.010000000000000064e-01 1.610429999999999917e-01 4.360875000000000057e+01 1.481979999999999791e+02 1.840224999999999909e+03
1.020000000000000073e-01 1.611790000000000167e-01 4.458820000000000050e+01 1.511220000000000141e+02 1.841289999999999964e+03
1.030000000000000082e-01 1.613120000000000109e-01 4.549455000000000382e+01 1.539540000000000077e+02 1.842324999999999818e+03
1.040000000000000091e-01 1.614404999999999868e-01 4.632435000000000258e+01 1.566829999999999927e+02 1.843335000000000036e+03
1.050000000000000100e-01 1.615644999999999998e-01 4.707439999999999714e+01 1.592964999999999804e+02 1.844304999999999836e+03
1.059999999999999970e-01 1.616845000000000088e-01 4.774124999999999375e+01 1.617830000000000155e+02 1.845244999999999891e+03
1.069999999999999979e-01 1.617985000000000118e-01 4.832184999999999775e+01 1.641310000000000002e+02 1.846140000000000100e+03
1.079999999999999988e-01 1.619070000000000231e-01 4.881314999999999316e+01 1.663290000000000077e+02 1.846994999999999891e+03
1.089999999999999997e-01 1.620090000000000141e-01 4.921255000000000024e+01 1.683675000000000068e+02 1.847795000000000073e+03
1.100000000000000006e-01 1.621039999999999981e-01 4.951760000000000161e+01 1.702365000000000066e+02 1.848550000000000182e+03
1.110000000000000014e-01 1.621914999999999885e-01 4.972664999999999935e+01 1.719290000000000020e+02 1.849244999999999891e+03
1.120000000000000023e-01 1.622724999999999862e-01 4.983820000000000050e+01 1.734375000000000000e+02 1.849884999999999991e+03
1.130000000000000032e-01 1.623445000000000027e-01 4.985170000000000101e+01 1.747574999999999932e+02 1.850465000000000146e+03
1.140000000000000041e-01 1.624089999999999978e-01 4.976734999999999332e+01 1.758854999999999791e+02 1.850974999999999909e+03
1.150000000000000050e-01 1.624659999999999993e-01 4.958615000000000350e+01 1.768209999999999980e+02 1.851424999999999955e+03
1.160000000000000059e-01 1.625139999999999918e-01 4.931024999999999636e+01 1.775639999999999930e+02 1.851809999999999945e+03
1.170000000000000068e-01 1.625530000000000030e-01 4.894270000000000209e+01 1.781195000000000164e+02 1.852134999999999991e+03
1.180000000000000077e-01 1.625845000000000207e-01 4.848785000000000167e+01 1.784929999999999950e+02 1.852390000000000100e+03
1.190000000000000085e-01 1.626084999999999892e-01 4.795105000000000217e+01 1.786935000000000002e+02 1.852585000000000036e+03
1.200000000000000094e-01 1.626245000000000052e-01 4.733875000000000455e+01 1.787324999999999875e+02 1.852720000000000027e+03
1.209999999999999964e-01 1.626329999999999998e-01 4.665825000000000244e+01 1.786229999999999905e+02 1.852795000000000073e+03
1.219999999999999973e-01 1.626354999999999884e-01 4.591764999999999475e+01 1.783799999999999955e+02 1.852824999999999818e+03
1.229999999999999982e-01 1.626314999999999844e-01 4.512559999999999860e+01 1.780199999999999818e+02 1.852799999999999955e+03
1.239999999999999991e-01 1.626225000000000032e-01 4.429115000000000180e+01 1.775604999999999905e+02 1.852740000000000009e+03
1.250000000000000000e-01 1.626084999999999892e-01 4.342324999999999591e+01 1.770184999999999889e+02 1.852634999999999991e+03
1.260000000000000009e-01 1.625904999999999989e-01 4.253090000000000259e+01 1.764105000000000132e+02 1.852500000000000000e+03
1.270000000000000018e-01 1.625689999999999913e-01 4.162250000000000227e+01 1.757524999999999977e+02 1.852340000000000146e+03
1.280000000000000027e-01 1.625449999999999950e-01 4.070595000000000141e+01 1.750590000000000259e+02 1.852154999999999973e+03
1.290000000000000036e-01 1.625194999999999834e-01 3.978839999999999577e+01 1.743429999999999893e+02 1.851949999999999818e+03
1.300000000000000044e-01 1.624920000000000253e-01 3.887604999999999933e+01 1.736150000000000091e+02 1.851740000000000009e+03
1.310000000000000053e-01 1.624630000000000241e-01 3.797400000000000375e+01 1.728829999999999814e+02 1.851514999999999873e+03
1.320000000000000062e-01 1.624335000000000084e-01 3.708639999999999759e+01 1.721535000000000082e+02 1.851284999999999854e+03
1.330000000000000071e-01 1.624035000000000062e-01 3.621630000000000393e+01 1.714295000000000186e+02 1.851045000000000073e+03
1.340000000000000080e-01 1.623735000000000039e-01 3.536554999999999893e+01 1.707144999999999868e+02 1.850815000000000055e+03
1.350000000000000089e-01 1.623435000000000017e-01 3.453495000000000203e+01 1.700054999999999836e+02 1.850575000000000045e+03
1.360000000000000098e-01 1.623129999999999851e-01 3.372455000000000069e+01 1.693029999999999973e+02 1.850340000000000146e+03
1.370000000000000107e-01 1.622830000000000106e-01 3.293319999999999936e+01 1.686014999999999873e+02 1.850099999999999909e+03
1.380000000000000115e-01 1.622524999999999940e-01 3.215914999999999679e+01 1.678960000000000150e+02 1.849855000000000018e+03
1.390000000000000124e-01 1.622210000000000041e-01 3.140010000000000190e+01 1.671819999999999879e+02 1.849615000000000009e+03
1.400000000000000133e-01 1.621894999999999865e-01 3.065310000000000201e+01 1.664509999999999934e+02 1.849365000000000009e+03
1.410000000000000142e-01 1.621575000000000100e-01 2.991485000000000127e+01 1.656970000000000027e+02 1.849110000000000127e+03
1.420000000000000151e-01 1.621239999999999903e-01 2.918205000000000027e+01 1.649120000000000061e+02 1.848845000000000027e+03
1.430000000000000160e-01 1.620889999999999831e-01 2.845120000000000005e+01 1.640894999999999868e+02 1.848575000000000045e+03
1.440000000000000169e-01 1.620524999999999882e-01 2.771900000000000119e+01 1.632235000000000014e+02 1.848289999999999964e+03
1.450000000000000178e-01 1.620145000000000057e-01 2.698230000000000217e+01 1.623079999999999927e+02 1.847990000000000009e+03
1.459999999999999909e-01 1.619740000000000069e-01 2.623850000000000193e+01 1.613389999999999986e+02 1.847674999999999955e+03
1.469999999999999918e-01 1.619315000000000060e-01 2.548545000000000016e+01 1.603134999999999764e+02 1.847340000000000146e+03
1.479999999999999927e-01 1.618870000000000031e-01 2.472175000000000011e+01 1.592300000000000182e+02 1.846994999999999891e+03
1.489999999999999936e-01 1.618394999999999972e-01 2.394650000000000034e+01 1.580880000000000223e+02 1.846625000000000000e+03
1.499999999999999944e-01 1.617894999999999750e-01 2.315970000000000084e+01 1.568890000000000100e+02 1.846235000000000127e+03
1.509999999999999953e-01 1.617374999999999785e-01 2.236229999999999762e+01 1.556374999999999886e+02 1.845835000000000036e+03
1.519999999999999962e-01 1.616830000000000211e-01 2.155584999999999951e+01 1.543385000000000105e+02 1.845409999999999854e+03
1.529999999999999971e-01 1.616270000000000207e-01 2.074289999999999878e+01 1.529989999999999952e+02 1.844970000000000027e+03
1.539999999999999980e-01 1.615685000000000038e-01 1.992670000000000030e+01 1.516274999999999977e+02 1.844519999999999982e+03
1.549999999999999989e-01 1.615090000000000137e-01 1.911100000000000065e+01 1.502334999999999923e+02 1.844059999999999945e+03
1.559999999999999998e-01 1.614484999999999948e-01 1.830045000000000144e+01 1.488290000000000077e+02 1.843585000000000036e+03
1.570000000000000007e-01 1.613875000000000171e-01 1.749990000000000023e+01 1.474244999999999948e+02 1.843110000000000127e+03
1.580000000000000016e-01 1.613259999999999972e-01 1.671444999999999936e+01 1.460324999999999989e+02 1.842634999999999991e+03
1.590000000000000024e-01 1.612655000000000061e-01 1.594950000000000045e+01 1.446659999999999968e+02 1.842159999999999854e+03
