# t [s], A [cm^2], U [cm/s], P [cPa], c [cm/s]
1.000000000000000021e-03 6.186544999999999961e-01 6.880499999999997729e-03 1.040845000000000056e+02 1.706309999999999945e+03
2.000000000000000042e-03 6.186434999999999018e-01 -2.378920999999999987e-03 1.040504999999999995e+02 1.706299999999999955e+03
3.000000000000000062e-03 6.187015000000000153e-01 1.100429500000000005e-01 1.041790000000000020e+02 1.706329999999999927e+03
4.000000000000000083e-03 6.187439999999999607e-01 2.085991999999999846e-01 1.043019999999999925e+02 1.706360000000000127e+03
5.000000000000000104e-03 6.187004999999999866e-01 1.564834999999999976e-01 1.041850000000000023e+02 1.706335000000000036e+03
6.000000000000000125e-03 6.186279999999999557e-01 4.195499999999996454e-02 1.038960000000000008e+02 1.706275000000000091e+03
7.000000000000000146e-03 6.185650000000000315e-01 -6.561200000000005916e-02 1.035480000000000018e+02 1.706190000000000055e+03
8.000000000000000167e-03 6.184534999999999894e-01 -2.832500000000000018e-01 1.030049999999999955e+02 1.706065000000000055e+03
9.000000000000001055e-03 6.182769999999999655e-01 -6.467899999999999761e-01 1.021835000000000093e+02 1.705884999999999991e+03
1.000000000000000194e-02 6.180330000000000545e-01 -1.154265000000000096e+00 1.010390500000000031e+02 1.705625000000000000e+03
1.099999999999999936e-02 6.176949999999999941e-01 -1.840230000000000032e+00 9.947665000000000646e+01 1.705264999999999873e+03
1.200000000000000025e-02 6.172640000000000349e-01 -2.681610000000000049e+00 9.746690000000000964e+01 1.704800000000000182e+03
1.300000000000000114e-02 6.168005000000000848e-01 -3.529119999999999813e+00 9.516624999999999091e+01 1.704244999999999891e+03
1.400000000000000203e-02 6.163885000000000058e-01 -4.175302999999999543e+00 9.286780000000000257e+01 1.703675000000000182e+03
1.499999999999999944e-02 6.160829999999999362e-01 -4.471920500000000409e+00 9.083574999999999022e+01 1.703134999999999991e+03
1.600000000000000033e-02 6.158814999999999706e-01 -4.390295000000000059e+00 8.918970000000000198e+01 1.702670000000000073e+03
1.700000000000000122e-02 6.157399999999999540e-01 -4.008465000000000167e+00 8.788004999999999711e+01 1.702260000000000218e+03
1.800000000000000211e-02 6.155964999999999909e-01 -3.458610000000000184e+00 8.674070000000000391e+01 1.701900000000000091e+03
1.900000000000000300e-02 6.154014999999999347e-01 -2.867162500000000058e+00 8.557444999999999879e+01 1.701529999999999973e+03
2.000000000000000042e-02 6.151324999999999710e-01 -2.309013000000000204e+00 8.423494999999999777e+01 1.701130000000000109e+03
2.100000000000000130e-02 6.147989999999999844e-01 -1.789985000000000159e+00 8.267705000000000837e+01 1.700679999999999836e+03
2.200000000000000219e-02 6.144344999999999946e-01 -1.262244999999999839e+00 8.095664999999999623e+01 1.700194999999999936e+03
2.299999999999999961e-02 6.140754999999999963e-01 -6.623399999999999288e-01 7.918684999999999263e+01 1.699694999999999936e+03
2.400000000000000050e-02 6.137470000000000425e-01 4.853499999999977277e-02 7.747560000000000002e+01 1.699199999999999818e+03
2.500000000000000139e-02 6.134485000000000632e-01 8.593299999999999272e-01 7.587375000000000114e+01 1.698724999999999909e+03
2.600000000000000228e-02 6.131604999999999972e-01 1.704910000000000148e+00 7.435075000000000500e+01 1.698269999999999982e+03
2.700000000000000316e-02 6.128454999999999320e-01 2.480240000000000222e+00 7.279965000000001396e+01 1.697809999999999945e+03
2.800000000000000058e-02 6.124620000000000619e-01 3.066570000000000462e+00 7.106690000000000396e+01 1.697319999999999936e+03
2.900000000000000147e-02 6.119790000000000507e-01 3.362555000000000405e+00 6.899824999999999875e+01 1.696755000000000109e+03
3.000000000000000236e-02 6.113834999999999686e-01 3.312255000000000393e+00 6.648779999999999291e+01 1.696099999999999909e+03
3.099999999999999978e-02 6.106860000000000621e-01 2.921139999999999848e+00 6.351624999999999943e+01 1.695339999999999918e+03
3.200000000000000067e-02 6.099209999999999354e-01 2.254215000000000302e+00 6.016380000000000194e+01 1.694490000000000009e+03
3.300000000000000155e-02 6.091379999999999573e-01 1.417734999999999523e+00 5.659510000000000218e+01 1.693579999999999927e+03
3.400000000000000244e-02 6.083879999999999288e-01 5.329300000000003479e-01 5.302400000000000091e+01 1.692664999999999964e+03
3.500000000000000333e-02 6.077159999999999229e-01 -2.883550000000001390e-01 4.967255000000000109e+01 1.691779999999999973e+03
3.600000000000000422e-02 6.071545000000000414e-01 -9.599999999999999645e-01 4.673600000000000421e+01 1.690980000000000018e+03
3.700000000000000511e-02 6.067230000000000123e-01 -1.427804999999999769e+00 4.436055000000000348e+01 1.690304999999999836e+03
3.799999999999999906e-02 6.064279999999999671e-01 -1.667559999999999931e+00 4.263445000000000107e+01 1.689789999999999964e+03
3.899999999999999994e-02 6.062665000000000415e-01 -1.677646999999999888e+00 4.159154999999999802e+01 1.689434999999999945e+03
4.000000000000000083e-02 6.062300000000000466e-01 -1.469071999999999933e+00 4.122265000000000157e+01 1.689250000000000000e+03
4.100000000000000172e-02 6.063095000000000567e-01 -1.055957814999999966e+00 4.149215000000000231e+01 1.689230000000000018e+03
4.200000000000000261e-02 6.064959999999999241e-01 -4.487099999999999422e-01 4.235330000000000439e+01 1.689375000000000000e+03
4.300000000000000350e-02 6.067830000000000723e-01 3.486000000000000210e-01 4.376009999999999422e+01 1.689664999999999964e+03
4.400000000000000439e-02 6.071659999999999835e-01 1.336579999999999879e+00 4.567180000000000462e+01 1.690095000000000027e+03
4.499999999999999833e-02 6.076405000000000278e-01 2.515934999999999810e+00 4.805194999999999794e+01 1.690654999999999973e+03
4.599999999999999922e-02 6.082009999999999916e-01 3.882035000000000124e+00 5.086310000000000286e+01 1.691335000000000036e+03
4.700000000000000011e-02 6.088374999999999204e-01 5.420544999999999725e+00 5.406040000000000134e+01 1.692119999999999891e+03
4.800000000000000100e-02 6.095364999999999256e-01 7.105794999999999639e+00 5.758724999999999739e+01 1.693000000000000000e+03
4.900000000000000189e-02 6.102825000000000610e-01 8.901313200000000592e+00 6.137415000000000020e+01 1.693960000000000036e+03
5.000000000000000278e-02 6.110575000000000312e-01 1.076317999999999842e+01 6.534059999999999491e+01 1.694974999999999909e+03
5.100000000000000366e-02 6.118430000000000257e-01 1.264410000000000167e+01 6.940040000000000475e+01 1.696034999999999854e+03
5.200000000000000455e-02 6.126224999999999588e-01 1.449820000000000064e+01 7.346824999999999761e+01 1.697105000000000018e+03
5.300000000000000544e-02 6.133804999999999952e-01 1.628494999999999848e+01 7.746635000000000559e+01 1.698170000000000073e+03
5.399999999999999939e-02 6.141069999999999585e-01 1.797200000000000131e+01 8.133035000000000991e+01 1.699220000000000027e+03
5.500000000000000028e-02 6.147955000000000503e-01 1.953650000000000020e+01 8.501300000000000523e+01 1.700224999999999909e+03
5.600000000000000117e-02 6.154425000000000034e-01 2.096504999999999797e+01 8.848550000000000182e+01 1.701195000000000164e+03
5.700000000000000205e-02 6.160490000000000688e-01 2.225300000000000011e+01 9.173679999999998813e+01 1.702110000000000127e+03
5.800000000000000294e-02 6.166169999999999707e-01 2.340234999999999843e+01 9.477195000000000391e+01 1.702974999999999909e+03
5.900000000000000383e-02 6.171519999999999229e-01 2.442060000000000031e+01 9.760854999999999393e+01 1.703789999999999964e+03
6.000000000000000472e-02 6.176595000000000280e-01 2.531884999999999764e+01 1.002726499999999987e+02 1.704559999999999945e+03
6.099999999999999867e-02 6.181460000000000843e-01 2.611059999999999803e+01 1.027967500000000030e+02 1.705289999999999964e+03
6.199999999999999956e-02 6.186169999999999725e-01 2.681020000000000181e+01 1.052145000000000010e+02 1.705994999999999891e+03
6.300000000000000044e-02 6.190805000000000335e-01 2.743224999999999980e+01 1.075594999999999999e+02 1.706675000000000182e+03
6.400000000000000133e-02 6.195395000000000207e-01 2.798969999999999914e+01 1.098609999999999900e+02 1.707340000000000146e+03
6.500000000000000222e-02 6.199980000000000491e-01 2.849350000000000094e+01 1.121425000000000125e+02 1.707994999999999891e+03
6.600000000000000311e-02 6.204579999999999540e-01 2.895149999999999935e+01 1.144180000000000064e+02 1.708644999999999982e+03
6.700000000000000400e-02 6.209189999999999987e-01 2.936755000000000138e+01 1.166920000000000073e+02 1.709289999999999964e+03
6.800000000000000488e-02 6.213785000000000558e-01 2.974170000000000158e+01 1.189594999999999914e+02 1.709934999999999945e+03
6.900000000000000577e-02 6.218330000000000801e-01 3.007005000000000194e+01 1.212044999999999959e+02 1.710570000000000164e+03
7.000000000000000666e-02 6.222765000000000102e-01 3.034584999999999866e+01 1.234034999999999940e+02 1.711195000000000164e+03
7.100000000000000755e-02 6.227024999999999366e-01 3.056029999999999802e+01 1.255270000000000010e+02 1.711800000000000182e+03
7.200000000000000844e-02 6.231044999999999501e-01 3.070344999999999658e+01 1.275415000000000134e+02 1.712384999999999991e+03
7.300000000000000933e-02 6.234759999999999192e-01 3.076570000000000249e+01 1.294134999999999991e+02 1.712924999999999955e+03
7.399999999999999634e-02 6.238105000000000455e-01 3.073839999999999861e+01 1.311109999999999900e+02 1.713424999999999955e+03
7.499999999999999722e-02 6.241039999999999921e-01 3.061475000000000080e+01 1.326069999999999993e+02 1.713869999999999891e+03
7.599999999999999811e-02 6.243530000000000468e-01 3.039044999999999774e+01 1.338785000000000025e+02 1.714264999999999873e+03
7.699999999999999900e-02 6.245540000000000536e-01 3.006360000000000099e+01 1.349110000000000014e+02 1.714590000000000146e+03
7.799999999999999989e-02 6.247074999999999712e-01 2.963530000000000086e+01 1.356974999999999909e+02 1.714855000000000018e+03
7.900000000000000078e-02 6.248130000000000628e-01 2.910920000000000130e+01 1.362375000000000114e+02 1.715050000000000182e+03
8.000000000000000167e-02 6.248730000000000118e-01 2.849155000000000015e+01 1.365380000000000109e+02 1.715179999999999836e+03
8.100000000000000255e-02 6.248905000000000154e-01 2.779125000000000156e+01 1.366119999999999948e+02 1.715244999999999891e+03
8.200000000000000344e-02 6.248690000000000078e-01 2.701924999999999955e+01 1.364794999999999732e+02 1.715255000000000109e+03
8.300000000000000433e-02 6.248135000000000217e-01 2.618815000000000026e+01 1.361645000000000039e+02 1.715214999999999918e+03
8.400000000000000522e-02 6.247300000000000075e-01 2.531215000000000259e+01 1.356945000000000050e+02 1.715119999999999891e+03
8.500000000000000611e-02 6.246244999999999159e-01 2.440630000000000166e+01 1.350999999999999943e+02 1.714990000000000009e+03
8.600000000000000699e-02 6.245020000000000016e-01 2.348600000000000065e+01 1.344134999999999991e+02 1.714835000000000036e+03
8.700000000000000788e-02 6.243695000000000217e-01 2.256615000000000038e+01 1.336664999999999850e+02 1.714644999999999982e+03
8.800000000000000877e-02 6.242324999999999680e-01 2.166100000000000136e+01 1.328885000000000218e+02 1.714454999999999927e+03
8.899999999999999578e-02 6.240959999999999841e-01 2.078304999999999936e+01 1.321090000000000089e+02 1.714250000000000000e+03
8.999999999999999667e-02 6.239649999999999919e-01 1.994259999999999877e+01 1.313509999999999991e+02 1.714045000000000073e+03
9.099999999999999756e-02 6.238414999999999377e-01 1.914755000000000251e+01 1.306340000000000146e+02 1.713849999999999909e+03
9.199999999999999845e-02 6.237274999999999903e-01 1.840274999999999750e+01 1.299714999999999918e+02 1.713664999999999964e+03
9.299999999999999933e-02 6.236249999999999849e-01 1.770994999999999919e+01 1.293720000000000141e+02 1.713490000000000009e+03
9.400000000000000022e-02 6.235334999999999628e-01 1.706820000000000093e+01 1.288365000000000009e+02 1.713335000000000036e+03
9.500000000000000111e-02 6.234519999999998952e-01 1.647360000000000113e+01 1.283629999999999995e+02 1.713190000000000055e+03
9.600000000000000200e-02 6.233774999999999178e-01 1.592004999999999981e+01 1.279419999999999931e+02 1.713059999999999945e+03
9.700000000000000289e-02 6.233090000000000019e-01 1.539949999999999974e+01 1.275614999999999952e+02 1.712944999999999936e+03
9.800000000000000377e-02 6.232415000000000038e-01 1.490240000000000009e+01 1.272059999999999889e+02 1.712829999999999927e+03
9.900000000000000466e-02 6.231735000000000468e-01 1.441880000000000095e+01 1.268569999999999993e+02 1.712724999999999909e+03
1.000000000000000056e-01 6.230999999999999872e-01 1.393815000000000026e+01 1.264979999999999905e+02 1.712619999999999891e+03
1.010000000000000064e-01 6.230185000000000306e-01 1.345039999999999836e+01 1.261105000000000018e+02 1.712505000000000109e+03
1.020000000000000073e-01 6.229264999999999386e-01 1.294650000000000034e+01 1.256779999999999973e+02 1.712385000000000218e+03
1.030000000000000082e-01 6.228209999999999580e-01 1.241871000000000080e+01 1.251870000000000118e+02 1.712255000000000109e+03
1.040000000000000091e-01 6.227009999999999490e-01 1.186112500000000125e+01 1.246280000000000001e+02 1.712099999999999909e+03
1.050000000000000100e-01 6.225654999999999939e-01 1.127012500000000017e+01 1.239930000000000092e+02 1.711934999999999945e+03
1.059999999999999970e-01 6.224149999999999405e-01 1.064447000000000010e+01 1.232824999999999989e+02 1.711744999999999891e+03
1.069999999999999979e-01 6.222505000000000397e-01 9.985440000000000538e+00 1.224979999999999905e+02 1.711539999999999964e+03
1.079999999999999988e-01 6.220745000000000857e-01 9.296934999999999505e+00 1.216495000000000033e+02 1.711315000000000055e+03
1.089999999999999997e-01 6.218894999999999840e-01 8.585065000000000168e+00 1.207475000000000023e+02 1.711079999999999927e+03
1.100000000000000006e-01 6.216995000000000715e-01 7.858049999999999535e+00 1.198100000000000023e+02 1.710835000000000036e+03
1.110000000000000014e-01 6.215079999999999494e-01 7.125675000000000203e+00 1.188559999999999945e+02 1.710579999999999927e+03
1.120000000000000023e-01 6.213204999999999423e-01 6.398904999999999177e+00 1.179069999999999965e+02 1.710324999999999818e+03
1.130000000000000032e-01 6.211404999999999843e-01 5.689185000000000159e+00 1.169860000000000042e+02 1.710074999999999818e+03
1.140000000000000041e-01 6.209734999999999561e-01 5.007915000000000560e+00 1.161154999999999973e+02 1.709835000000000036e+03
1.150000000000000050e-01 6.208219999999999850e-01 4.365870000000000140e+00 1.153164999999999907e+02 1.709610000000000127e+03
1.160000000000000059e-01 6.206899999999999640e-01 3.772650000000000059e+00 1.146069999999999993e+02 1.709410000000000082e+03
1.170000000000000068e-01 6.205804999999999794e-01 3.236234999999999751e+00 1.140019999999999953e+02 1.709235000000000127e+03
1.180000000000000077e-01 6.204939999999999900e-01 2.762595000000000134e+00 1.135134999999999934e+02 1.709079999999999927e+03
1.190000000000000085e-01 6.204324999999999424e-01 2.355465000000000142e+00 1.131469999999999914e+02 1.708965000000000146e+03
1.200000000000000094e-01 6.203950000000000298e-01 2.016245000000000065e+00 1.129039999999999964e+02 1.708875000000000000e+03
1.209999999999999964e-01 6.203810000000000713e-01 1.744029999999999969e+00 1.127804999999999893e+02 1.708825000000000045e+03
1.219999999999999973e-01 6.203875000000000917e-01 1.535744999999999916e+00 1.127700000000000102e+02 1.708795000000000073e+03
1.229999999999999982e-01 6.204125000000000334e-01 1.386454999999999993e+00 1.128594999999999970e+02 1.708805000000000064e+03
1.239999999999999991e-01 6.204530000000000323e-01 1.289678499999999950e+00 1.130349999999999966e+02 1.708829999999999927e+03
1.250000000000000000e-01 6.205049999999999732e-01 1.237794999999999979e+00 1.132789999999999964e+02 1.708880000000000109e+03
1.260000000000000009e-01 6.205654999999999921e-01 1.222483500000000056e+00 1.135740000000000123e+02 1.708940000000000055e+03
1.270000000000000018e-01 6.206309999999999327e-01 1.235122999999999971e+00 1.139009999999999962e+02 1.709014999999999873e+03
1.280000000000000027e-01 6.206970000000000542e-01 1.267158500000000076e+00 1.142419999999999902e+02 1.709095000000000027e+03
1.290000000000000036e-01 6.207614999999999661e-01 1.310443999999999942e+00 1.145809999999999889e+02 1.709179999999999836e+03
1.300000000000000044e-01 6.208219999999999850e-01 1.357518000000000225e+00 1.149029999999999916e+02 1.709259999999999991e+03
1.310000000000000053e-01 6.208750000000000657e-01 1.401765999999999845e+00 1.151954999999999956e+02 1.709335000000000036e+03
1.320000000000000062e-01 6.209204999999999863e-01 1.437599000000000071e+00 1.154484999999999957e+02 1.709404999999999973e+03
1.330000000000000071e-01 6.209564999999999113e-01 1.460520000000000040e+00 1.156544999999999987e+02 1.709464999999999918e+03
1.340000000000000080e-01 6.209819999999999229e-01 1.467150000000000176e+00 1.158079999999999927e+02 1.709509999999999991e+03
1.350000000000000089e-01 6.209970000000000212e-01 1.455229999999999801e+00 1.159074999999999989e+02 1.709539999999999964e+03
1.360000000000000098e-01 6.210020000000000540e-01 1.423585000000000100e+00 1.159534999999999911e+02 1.709559999999999945e+03
1.370000000000000107e-01 6.209970000000000212e-01 1.372030000000000083e+00 1.159454999999999956e+02 1.709565000000000055e+03
1.380000000000000115e-01 6.209830000000000627e-01 1.301288000000000000e+00 1.158890000000000100e+02 1.709559999999999945e+03
1.390000000000000124e-01 6.209610000000000962e-01 1.212880500000000028e+00 1.157870000000000061e+02 1.709534999999999854e+03
1.400000000000000133e-01 6.209320000000000395e-01 1.108974499999999974e+00 1.156460000000000008e+02 1.709509999999999991e+03
1.410000000000000142e-01 6.208974999999999911e-01 9.922514999999999530e-01 1.154730000000000132e+02 1.709470000000000027e+03
1.420000000000000151e-01 6.208590000000000497e-01 8.657169999999999588e-01 1.152735000000000127e+02 1.709420000000000073e+03
1.430000000000000160e-01 6.208165000000001044e-01 7.325625500000000345e-01 1.150544999999999902e+02 1.709369999999999891e+03
1.440000000000000169e-01 6.207724999999999493e-01 5.959790000000000365e-01 1.148220000000000027e+02 1.709309999999999945e+03
1.450000000000000178e-01 6.207279999999999465e-01 4.589929999999999843e-01 1.145819999999999936e+02 1.709244999999999891e+03
1.459999999999999909e-01 6.206829999999999847e-01 3.243565000000000476e-01 1.143395000000000010e+02 1.709184999999999945e+03
1.469999999999999918e-01 6.206384999999999819e-01 1.944039999999999657e-01 1.140974999999999966e+02 1.709119999999999891e+03
1.479999999999999927e-01 6.205950000000000077e-01 7.099949999999999317e-02 1.138589999999999947e+02 1.709059999999999945e+03
1.489999999999999936e-01 6.205529999999999102e-01 -4.451600000000000001e-02 1.136260000000000048e+02 1.708994999999999891e+03
1.499999999999999944e-01 6.205114999999999936e-01 -1.513229999999999853e-01 1.133975000000000080e+02 1.708930000000000064e+03
1.509999999999999953e-01 6.204704999999999249e-01 -2.490905000000000202e-01 1.131740000000000066e+02 1.708869999999999891e+03
1.519999999999999962e-01 6.204304999999999959e-01 -3.379149999999999654e-01 1.129540000000000077e+02 1.708809999999999945e+03
1.529999999999999971e-01 6.203899999999999970e-01 -4.182407500000000500e-01 1.127344999999999970e+02 1.708750000000000000e+03
1.539999999999999980e-01 6.203490000000000393e-01 -4.907671500000000409e-01 1.125140000000000100e+02 1.708684999999999945e+03
1.549999999999999989e-01 6.203065000000000939e-01 -5.563576999999999551e-01 1.122890000000000015e+02 1.708625000000000000e+03
1.559999999999999998e-01 6.202624999999999389e-01 -6.159414999999999196e-01 1.120575000000000045e+02 1.708559999999999945e+03
1.570000000000000007e-01 6.202164999999999484e-01 -6.704434999999999700e-01 1.118164999999999907e+02 1.708494999999999891e+03
1.580000000000000016e-01 6.201680000000000526e-01 -7.207224999999999326e-01 1.115649999999999977e+02 1.708424999999999955e+03
1.590000000000000024e-01 6.201160000000000005e-01 -7.675049999999999928e-01 1.113004999999999995e+02 1.708349999999999909e+03
