# t [s], A [cm^2], U [cm/s], P [cPa], c [cm/s]
1.000000000000000021e-03 8.204004999999999770e-01 4.881549999999998390e-03 9.565219999999999345e+01 1.656485000000000127e+03
2.000000000000000042e-03 8.203880000000000061e-01 -6.932950000000000224e-04 9.562424999999998931e+01 1.656474999999999909e+03
3.000000000000000062e-03 8.204624999999999835e-01 1.046774500000000052e-01 9.573959999999999582e+01 1.656505000000000109e+03
4.000000000000000083e-03 8.205195000000000682e-01 1.983264999999999889e-01 9.585695000000001187e+01 1.656534999999999854e+03
5.000000000000000104e-03 8.204759999999999831e-01 1.610708000000000140e-01 9.577580000000000382e+01 1.656514999999999873e+03
6.000000000000000125e-03 8.203899999999999526e-01 5.920150000000001800e-02 9.553509999999999991e+01 1.656470000000000027e+03
7.000000000000000146e-03 8.203125000000000000e-01 -4.052300000000003122e-02 9.523009999999999309e+01 1.656400000000000091e+03
8.000000000000000167e-03 8.201834999999999543e-01 -2.262450000000000294e-01 9.476644999999999186e+01 1.656299999999999955e+03
9.000000000000001055e-03 8.199715000000000753e-01 -5.470749999999998670e-01 9.405304999999999893e+01 1.656144999999999982e+03
1.000000000000000194e-02 8.196695000000000508e-01 -1.007794999999999996e+00 9.304205000000000325e+01 1.655920000000000073e+03
1.099999999999999936e-02 8.192524999999999391e-01 -1.632809999999999873e+00 9.165940000000000509e+01 1.655615000000000009e+03
1.200000000000000025e-02 8.187145000000000117e-01 -2.410884999999999945e+00 8.986945000000000050e+01 1.655215000000000146e+03
1.300000000000000114e-02 8.181130000000000901e-01 -3.235110000000000152e+00 8.777185000000000059e+01 1.654730000000000018e+03
1.400000000000000203e-02 8.175419999999999909e-01 -3.936751000000000111e+00 8.558844999999999459e+01 1.654204999999999927e+03
1.499999999999999944e-02 8.170764999999999834e-01 -4.371979500000000129e+00 8.355535000000000423e+01 1.653700000000000045e+03
1.600000000000000033e-02 8.167370000000000463e-01 -4.481314499999999867e+00 8.182059999999999889e+01 1.653235000000000127e+03
1.700000000000000122e-02 8.164929999999999133e-01 -4.295220000000000482e+00 8.040430000000000632e+01 1.652835000000000036e+03
1.800000000000000211e-02 8.162860000000000671e-01 -3.903040000000000287e+00 7.921854999999999336e+01 1.652474999999999909e+03
1.900000000000000300e-02 8.160549999999999748e-01 -3.409530000000000172e+00 7.812055000000000859e+01 1.652135000000000218e+03
2.000000000000000042e-02 8.157615000000000283e-01 -2.896131500000000081e+00 7.697364999999999213e+01 1.651789999999999964e+03
2.100000000000000130e-02 8.153954999999999398e-01 -2.398270000000000124e+00 7.569570000000000221e+01 1.651414999999999964e+03
2.200000000000000219e-02 8.149775000000000214e-01 -1.904894999999999783e+00 7.427764999999999418e+01 1.651014999999999873e+03
2.299999999999999961e-02 8.145394999999999719e-01 -1.378255000000000008e+00 7.276945000000000618e+01 1.650594999999999800e+03
2.400000000000000050e-02 8.141125000000000167e-01 -7.828450000000000131e-01 7.124295000000000755e+01 1.650164999999999964e+03
2.500000000000000139e-02 8.137084999999999457e-01 -1.099049999999999194e-01 6.975124999999999886e+01 1.649740000000000009e+03
2.600000000000000228e-02 8.133169999999999566e-01 6.110100000000002751e-01 6.830029999999999291e+01 1.649325000000000045e+03
2.700000000000000316e-02 8.129100000000000215e-01 1.315019999999999856e+00 6.684069999999999823e+01 1.648905000000000200e+03
2.800000000000000058e-02 8.124465000000000714e-01 1.916090000000000071e+00 6.527799999999999159e+01 1.648465000000000146e+03
2.900000000000000147e-02 8.118895000000000417e-01 2.327669999999999462e+00 6.349840000000000373e+01 1.647974999999999909e+03
3.000000000000000236e-02 8.112114999999999743e-01 2.484135000000000648e+00 6.140144999999999698e+01 1.647430000000000064e+03
3.099999999999999978e-02 8.104085000000000871e-01 2.357595000000000329e+00 5.893124999999999858e+01 1.646795000000000073e+03
3.200000000000000067e-02 8.094995000000000385e-01 1.964960000000000040e+00 5.609725000000000250e+01 1.646085000000000036e+03
3.300000000000000155e-02 8.085240000000000204e-01 1.363545000000000229e+00 5.297799999999999443e+01 1.645305000000000064e+03
3.400000000000000244e-02 8.075339999999999741e-01 6.373100000000002652e-01 4.970834999999999582e+01 1.644485000000000127e+03
3.500000000000000333e-02 8.065835000000000088e-01 -1.209500000000005571e-01 4.645479999999999876e+01 1.643659999999999854e+03
3.600000000000000422e-02 8.057199999999999918e-01 -8.256700000000001261e-01 4.338864999999999839e+01 1.642869999999999891e+03
3.700000000000000511e-02 8.049800000000000288e-01 -1.409129999999999772e+00 4.066240000000000521e+01 1.642144999999999982e+03
3.799999999999999906e-02 8.043865000000000043e-01 -1.825959999999999805e+00 3.839419999999999789e+01 1.641525000000000091e+03
3.899999999999999994e-02 8.039505000000000123e-01 -2.052065000000000250e+00 3.666154999999999831e+01 1.641014999999999873e+03
4.000000000000000083e-02 8.036719999999999420e-01 -2.079854500000000161e+00 3.550240000000000151e+01 1.640650000000000091e+03
4.100000000000000172e-02 8.035484999999999989e-01 -1.911801000000000084e+00 3.492229999999999990e+01 1.640420000000000073e+03
4.200000000000000261e-02 8.035704999999999654e-01 -1.554219999999999935e+00 3.490479999999999450e+01 1.640340000000000146e+03
4.300000000000000350e-02 8.037309999999999732e-01 -1.012808000000000153e+00 3.542130000000000223e+01 1.640389999999999873e+03
4.400000000000000439e-02 8.040225000000000843e-01 -2.907750000000000057e-01 3.643885000000000218e+01 1.640575000000000045e+03
4.499999999999999833e-02 8.044385000000000563e-01 6.104300000000000281e-01 3.792430000000000234e+01 1.640880000000000109e+03
4.599999999999999922e-02 8.049724999999999797e-01 1.688509999999999733e+00 3.984440000000000026e+01 1.641304999999999836e+03
4.700000000000000011e-02 8.056164999999999576e-01 2.937150000000000372e+00 4.216365000000000407e+01 1.641835000000000036e+03
4.800000000000000100e-02 8.063584999999999781e-01 4.343340000000000423e+00 4.484134999999999849e+01 1.642465000000000146e+03
4.900000000000000189e-02 8.071835000000000537e-01 5.886099999999999888e+00 4.782890000000000441e+01 1.643180000000000064e+03
5.000000000000000278e-02 8.080735000000000001e-01 7.536826999999999721e+00 5.106909999999999883e+01 1.643970000000000027e+03
5.100000000000000366e-02 8.090100000000000069e-01 9.261250999999999678e+00 5.449775000000000347e+01 1.644819999999999936e+03
5.200000000000000455e-02 8.099714999999999554e-01 1.102208500000000058e+01 5.804625000000000057e+01 1.645710000000000036e+03
5.300000000000000544e-02 8.109399999999999942e-01 1.278223000000000020e+01 6.164624999999999488e+01 1.646619999999999891e+03
5.399999999999999939e-02 8.118975000000000497e-01 1.450784500000000143e+01 6.523439999999999372e+01 1.647550000000000182e+03
5.500000000000000028e-02 8.128314999999999291e-01 1.617042999999999964e+01 6.875605000000000189e+01 1.648465000000000146e+03
5.600000000000000117e-02 8.137319999999998998e-01 1.774849999999999994e+01 7.216910000000000025e+01 1.649369999999999891e+03
5.700000000000000205e-02 8.145944999999999991e-01 1.922785000000000011e+01 7.544509999999999650e+01 1.650239999999999782e+03
5.800000000000000294e-02 8.154175000000000173e-01 2.060144999999999982e+01 7.856999999999999318e+01 1.651090000000000146e+03
5.900000000000000383e-02 8.162034999999999707e-01 2.186840000000000117e+01 8.154295000000000471e+01 1.651900000000000091e+03
6.000000000000000472e-02 8.169564999999999744e-01 2.303280000000000172e+01 8.437430000000000518e+01 1.652679999999999836e+03
6.099999999999999867e-02 8.176835000000000075e-01 2.410260000000000247e+01 8.708320000000000505e+01 1.653434999999999945e+03
6.199999999999999956e-02 8.183905000000000207e-01 2.508814999999999884e+01 8.969470000000001164e+01 1.654160000000000082e+03
6.300000000000000044e-02 8.190865000000000506e-01 2.600104999999999933e+01 9.223689999999999145e+01 1.654869999999999891e+03
6.400000000000000133e-02 8.197780000000000067e-01 2.685304999999999964e+01 9.473799999999999955e+01 1.655565000000000055e+03
6.500000000000000222e-02 8.204715000000000202e-01 2.765509999999999735e+01 9.722364999999999213e+01 1.656259999999999991e+03
6.600000000000000311e-02 8.211710000000000953e-01 2.841644999999999754e+01 9.971600000000000819e+01 1.656944999999999936e+03
6.700000000000000400e-02 8.218805000000000138e-01 2.914374999999999716e+01 1.022289999999999992e+02 1.657640000000000100e+03
6.800000000000000488e-02 8.225999999999999979e-01 2.984065000000000012e+01 1.047698000000000036e+02 1.658335000000000036e+03
6.900000000000000577e-02 8.233269999999999200e-01 3.050769999999999982e+01 1.073379999999999939e+02 1.659039999999999964e+03
7.000000000000000666e-02 8.240585000000000271e-01 3.114220000000000255e+01 1.099224999999999994e+02 1.659744999999999891e+03
7.100000000000000755e-02 8.247884999999999245e-01 3.173845000000000027e+01 1.125074999999999932e+02 1.660454999999999927e+03
7.200000000000000844e-02 8.255095000000000072e-01 3.228889999999999816e+01 1.150685000000000002e+02 1.661154999999999973e+03
7.300000000000000933e-02 8.262134999999999341e-01 3.278409999999999513e+01 1.175784999999999911e+02 1.661849999999999909e+03
7.399999999999999634e-02 8.268925000000000303e-01 3.321439999999999770e+01 1.200070000000000050e+02 1.662519999999999982e+03
7.499999999999999722e-02 8.275375000000000369e-01 3.357000000000000028e+01 1.223245000000000005e+02 1.663164999999999964e+03
7.599999999999999811e-02 8.281414999999999749e-01 3.384219999999999828e+01 1.245004999999999882e+02 1.663780000000000200e+03
7.699999999999999900e-02 8.286985000000000046e-01 3.402374999999999972e+01 1.265114999999999981e+02 1.664355000000000018e+03
7.799999999999999989e-02 8.292025000000000645e-01 3.410900000000000176e+01 1.283344999999999914e+02 1.664880000000000109e+03
7.900000000000000078e-02 8.296505000000000685e-01 3.409484999999999388e+01 1.299555000000000007e+02 1.665360000000000127e+03
8.000000000000000167e-02 8.300400000000000000e-01 3.398029999999999973e+01 1.313634999999999877e+02 1.665779999999999973e+03
8.100000000000000255e-02 8.303709999999999702e-01 3.376670000000000016e+01 1.325554999999999950e+02 1.666144999999999982e+03
8.200000000000000344e-02 8.306445000000000078e-01 3.345785000000000053e+01 1.335324999999999989e+02 1.666454999999999927e+03
8.300000000000000433e-02 8.308624999999999483e-01 3.305969999999999942e+01 1.343034999999999854e+02 1.666704999999999927e+03
8.400000000000000522e-02 8.310294999999999765e-01 3.258044999999999902e+01 1.348795000000000073e+02 1.666905000000000200e+03
8.500000000000000611e-02 8.311500000000000554e-01 3.202984999999999616e+01 1.352789999999999964e+02 1.667065000000000055e+03
8.600000000000000699e-02 8.312299999999999134e-01 3.141929999999999978e+01 1.355219999999999914e+02 1.667164999999999964e+03
8.700000000000000788e-02 8.312749999999999861e-01 3.076120000000000232e+01 1.356314999999999884e+02 1.667235000000000127e+03
8.800000000000000877e-02 8.312930000000000597e-01 3.006855000000000189e+01 1.356334999999999980e+02 1.667269999999999982e+03
8.899999999999999578e-02 8.312899999999999734e-01 2.935450000000000159e+01 1.355520000000000209e+02 1.667285000000000082e+03
8.999999999999999667e-02 8.312734999999999985e-01 2.863165000000000049e+01 1.354124999999999943e+02 1.667269999999999982e+03
9.099999999999999756e-02 8.312479999999999869e-01 2.791179999999999950e+01 1.352389999999999759e+02 1.667244999999999891e+03
9.199999999999999845e-02 8.312200000000000699e-01 2.720509999999999806e+01 1.350514999999999759e+02 1.667210000000000036e+03
9.299999999999999933e-02 8.311935000000000295e-01 2.652009999999999934e+01 1.348684999999999832e+02 1.667174999999999955e+03
9.400000000000000022e-02 8.311709999999999932e-01 2.586274999999999835e+01 1.347029999999999745e+02 1.667134999999999991e+03
9.500000000000000111e-02 8.311550000000000882e-01 2.523709999999999809e+01 1.345640000000000214e+02 1.667105000000000018e+03
9.600000000000000200e-02 8.311459999999999404e-01 2.464450000000000074e+01 1.344555000000000007e+02 1.667074999999999818e+03
9.700000000000000289e-02 8.311429999999999652e-01 2.408404999999999774e+01 1.343779999999999859e+02 1.667055000000000064e+03
9.800000000000000377e-02 8.311444999999999528e-01 2.355310000000000059e+01 1.343274999999999864e+02 1.667034999999999854e+03
9.900000000000000466e-02 8.311494999999999855e-01 2.304674999999999940e+01 1.342959999999999923e+02 1.667019999999999982e+03
1.000000000000000056e-01 8.311524999999999608e-01 2.255920000000000059e+01 1.342725000000000080e+02 1.667005000000000109e+03
1.010000000000000064e-01 8.311515000000000430e-01 2.208339999999999748e+01 1.342454999999999927e+02 1.667000000000000000e+03
1.020000000000000073e-01 8.311425000000000063e-01 2.161200000000000188e+01 1.342010000000000218e+02 1.666985000000000127e+03
1.030000000000000082e-01 8.311219999999999164e-01 2.113749999999999929e+01 1.341250000000000000e+02 1.666960000000000036e+03
1.040000000000000091e-01 8.310874999999999790e-01 2.065274999999999750e+01 1.340055000000000121e+02 1.666929999999999836e+03
1.050000000000000100e-01 8.310345000000000093e-01 2.015155000000000030e+01 1.338304999999999723e+02 1.666884999999999991e+03
1.059999999999999970e-01 8.309630000000000072e-01 1.962870000000000203e+01 1.335905000000000200e+02 1.666825000000000045e+03
1.069999999999999979e-01 8.308699999999999974e-01 1.908040000000000092e+01 1.332805000000000177e+02 1.666750000000000000e+03
1.079999999999999988e-01 8.307560000000000500e-01 1.850450000000000017e+01 1.328960000000000150e+02 1.666654999999999973e+03
1.089999999999999997e-01 8.306215000000000126e-01 1.790060000000000073e+01 1.324375000000000000e+02 1.666539999999999964e+03
1.100000000000000006e-01 8.304685000000000539e-01 1.727024999999999721e+01 1.319089999999999918e+02 1.666409999999999854e+03
1.110000000000000014e-01 8.302985000000000504e-01 1.661669999999999803e+01 1.313180000000000121e+02 1.666259999999999991e+03
1.120000000000000023e-01 8.301159999999999650e-01 1.594485000000000063e+01 1.306754999999999995e+02 1.666099999999999909e+03
1.130000000000000032e-01 8.299244999999999539e-01 1.526115000000000066e+01 1.299939999999999998e+02 1.665924999999999955e+03
1.140000000000000041e-01 8.297289999999999388e-01 1.457324999999999804e+01 1.292895000000000039e+02 1.665744999999999891e+03
1.150000000000000050e-01 8.295334999999999237e-01 1.388962000000000074e+01 1.285794999999999959e+02 1.665559999999999945e+03
1.160000000000000059e-01 8.293435000000000112e-01 1.321912999999999982e+01 1.278824999999999932e+02 1.665380000000000109e+03
1.170000000000000068e-01 8.291645000000000820e-01 1.257071999999999967e+01 1.272150000000000034e+02 1.665199999999999818e+03
1.180000000000000077e-01 8.290005000000000290e-01 1.195309999999999917e+01 1.265960000000000036e+02 1.665029999999999973e+03
1.190000000000000085e-01 8.288554999999999673e-01 1.137406999999999968e+01 1.260395000000000039e+02 1.664875000000000000e+03
1.200000000000000094e-01 8.287329999999999419e-01 1.084048499999999926e+01 1.255600000000000023e+02 1.664740000000000009e+03
1.209999999999999964e-01 8.286360000000000392e-01 1.035775999999999897e+01 1.251679999999999922e+02 1.664625000000000000e+03
1.219999999999999973e-01 8.285649999999999959e-01 9.929690000000000794e+00 1.248700000000000045e+02 1.664529999999999973e+03
1.229999999999999982e-01 8.285215000000000218e-01 9.558519999999999683e+00 1.246709999999999923e+02 1.664460000000000036e+03
1.239999999999999991e-01 8.285044999999999771e-01 9.244625000000000981e+00 1.245705000000000098e+02 1.664414999999999964e+03
1.250000000000000000e-01 8.285130000000000550e-01 8.986739999999999284e+00 1.245645000000000095e+02 1.664400000000000091e+03
1.260000000000000009e-01 8.285449999999999759e-01 8.782025000000000858e+00 1.246484999999999985e+02 1.664404999999999973e+03
1.270000000000000018e-01 8.285974999999999868e-01 8.626364999999999839e+00 1.248130000000000024e+02 1.664430000000000064e+03
1.280000000000000027e-01 8.286675000000000013e-01 8.514510000000001355e+00 1.250465000000000089e+02 1.664474999999999909e+03
1.290000000000000036e-01 8.287520000000000442e-01 8.440400000000000347e+00 1.253369999999999891e+02 1.664534999999999854e+03
1.300000000000000044e-01 8.288465000000000416e-01 8.397484999999999644e+00 1.256700000000000017e+02 1.664610000000000127e+03
1.310000000000000053e-01 8.289469999999999894e-01 8.378979999999998540e+00 1.260335000000000036e+02 1.664690000000000055e+03
1.320000000000000062e-01 8.290509999999999824e-01 8.378150000000001540e+00 1.264134999999999991e+02 1.664784999999999854e+03
1.330000000000000071e-01 8.291539999999999466e-01 8.388545000000000584e+00 1.267969999999999970e+02 1.664880000000000109e+03
1.340000000000000080e-01 8.292550000000000754e-01 8.404189999999999827e+00 1.271735000000000042e+02 1.664970000000000027e+03
1.350000000000000089e-01 8.293500000000000316e-01 8.419755000000000322e+00 1.275335000000000036e+02 1.665065000000000055e+03
1.360000000000000098e-01 8.294380000000000086e-01 8.430654999999999788e+00 1.278689999999999998e+02 1.665150000000000091e+03
1.370000000000000107e-01 8.295175000000000187e-01 8.433130000000000237e+00 1.281744999999999948e+02 1.665230000000000018e+03
1.380000000000000115e-01 8.295870000000000744e-01 8.424255000000000493e+00 1.284449999999999932e+02 1.665305000000000064e+03
1.390000000000000124e-01 8.296470000000000233e-01 8.401984999999999815e+00 1.286789999999999736e+02 1.665375000000000000e+03
1.400000000000000133e-01 8.296974999999999767e-01 8.365095000000000169e+00 1.288750000000000000e+02 1.665430000000000064e+03
1.410000000000000142e-01 8.297379999999999756e-01 8.313159999999999883e+00 1.290355000000000132e+02 1.665480000000000018e+03
1.420000000000000151e-01 8.297700000000000076e-01 8.246444999999999581e+00 1.291605000000000132e+02 1.665514999999999873e+03
1.430000000000000160e-01 8.297940000000000316e-01 8.165865000000000151e+00 1.292549999999999955e+02 1.665550000000000182e+03
1.440000000000000169e-01 8.298110000000000763e-01 8.072865000000000180e+00 1.293215000000000146e+02 1.665570000000000164e+03
1.450000000000000178e-01 8.298225000000000184e-01 7.969285000000000174e+00 1.293650000000000091e+02 1.665595000000000027e+03
1.459999999999999909e-01 8.298304999999999154e-01 7.857300000000000395e+00 1.293909999999999911e+02 1.665605000000000018e+03
1.469999999999999918e-01 8.298349999999999893e-01 7.739245000000000374e+00 1.294035000000000082e+02 1.665615000000000009e+03
1.479999999999999927e-01 8.298385000000000344e-01 7.617499999999999716e+00 1.294069999999999823e+02 1.665619999999999891e+03
1.489999999999999936e-01 8.298404999999999809e-01 7.494405000000000427e+00 1.294060000000000059e+02 1.665625000000000000e+03
1.499999999999999944e-01 8.298440000000000261e-01 7.372114999999999974e+00 1.294044999999999845e+02 1.665625000000000000e+03
1.509999999999999953e-01 8.298480000000000301e-01 7.252525000000000333e+00 1.294044999999999845e+02 1.665630000000000109e+03
1.519999999999999962e-01 8.298529999999999518e-01 7.137195000000000178e+00 1.294094999999999800e+02 1.665630000000000109e+03
1.529999999999999971e-01 8.298605000000000009e-01 7.027300000000000324e+00 1.294199999999999875e+02 1.665634999999999991e+03
1.539999999999999980e-01 8.298695000000000377e-01 6.923600000000000421e+00 1.294359999999999786e+02 1.665639999999999873e+03
1.549999999999999989e-01 8.298794999999999922e-01 6.826449999999999463e+00 1.294590000000000032e+02 1.665644999999999982e+03
1.559999999999999998e-01 8.298915000000000042e-01 6.735850000000000115e+00 1.294850000000000136e+02 1.665654999999999973e+03
1.570000000000000007e-01 8.299035000000000162e-01 6.651460000000000150e+00 1.295149999999999864e+02 1.665664999999999964e+03
1.580000000000000016e-01 8.299144999999999994e-01 6.572694999999999510e+00 1.295450000000000159e+02 1.665670000000000073e+03
1.590000000000000024e-01 8.299254999999999827e-01 6.498789999999999623e+00 1.295740000000000123e+02 1.665674999999999955e+03
