# t [s], A [cm^2], U [cm/s], P [cPa], c [cm/s]
1.000000000000000021e-03 1.777289999999999981e-01 3.772822699999999752e-01 9.166115000000000634e+01 2.324244999999999891e+03
2.000000000000000042e-03 1.776734999999999842e-01 1.878210999999999853e+00 8.784229999999999450e+01 2.323744999999999891e+03
3.000000000000000062e-03 1.775454999999999950e-01 3.721653499999999948e+00 8.262160000000000082e+01 2.322619999999999891e+03
4.000000000000000083e-03 1.773834999999999995e-01 5.819155499999999925e+00 7.735765000000000668e+01 2.321220000000000255e+03
5.000000000000000104e-03 1.772225000000000050e-01 8.044624999999999915e+00 7.304704999999999870e+01 2.319840000000000146e+03
6.000000000000000125e-03 1.770729999999999804e-01 1.010197000000000145e+01 6.958854999999999791e+01 2.318574999999999818e+03
7.000000000000000146e-03 1.769339999999999802e-01 1.179373000000000005e+01 6.647175000000000011e+01 2.317434999999999945e+03
8.000000000000000167e-03 1.768124999999999836e-01 1.316239500000000007e+01 6.372010000000000218e+01 2.316444999999999709e+03
9.000000000000001055e-03 1.767115000000000213e-01 1.426610000000000156e+01 6.150245000000000317e+01 2.315635000000000218e+03
1.000000000000000194e-02 1.766304999999999958e-01 1.512124999999999986e+01 5.978764999999999930e+01 2.314994999999999891e+03
1.099999999999999936e-02 1.765670000000000017e-01 1.574050000000000082e+01 5.847159999999999513e+01 2.314505000000000109e+03
1.200000000000000025e-02 1.765165000000000206e-01 1.611890000000000001e+01 5.737345000000000539e+01 2.314119999999999891e+03
1.300000000000000114e-02 1.764735000000000054e-01 1.628719999999999857e+01 5.634364999999999668e+01 2.313795000000000073e+03
1.400000000000000203e-02 1.764394999999999991e-01 1.639825000000000088e+01 5.558360000000000412e+01 2.313545000000000073e+03
1.499999999999999944e-02 1.764275000000000149e-01 1.669284999999999997e+01 5.569819999999999993e+01 2.313460000000000036e+03
1.600000000000000033e-02 1.764499999999999957e-01 1.734479999999999933e+01 5.727464999999999407e+01 2.313644999999999982e+03
1.700000000000000122e-02 1.765124999999999889e-01 1.833044999999999902e+01 6.036270000000000380e+01 2.314140000000000327e+03
1.800000000000000211e-02 1.766050000000000120e-01 1.942630000000000123e+01 6.430190000000000339e+01 2.314880000000000109e+03
1.900000000000000300e-02 1.767050000000000010e-01 2.032249999999999801e+01 6.799514999999999532e+01 2.315689999999999600e+03
2.000000000000000042e-02 1.767869999999999997e-01 2.076955000000000240e+01 7.041229999999998768e+01 2.316380000000000109e+03
2.100000000000000130e-02 1.768334999999999768e-01 2.067905000000000015e+01 7.102410000000000423e+01 2.316784999999999854e+03
2.200000000000000219e-02 1.768395000000000106e-01 2.013785000000000025e+01 6.996250000000000568e+01 2.316869999999999891e+03
2.299999999999999961e-02 1.768124999999999836e-01 1.934205000000000041e+01 6.786635000000001128e+01 2.316675000000000182e+03
2.400000000000000050e-02 1.767675000000000218e-01 1.849425000000000097e+01 6.552800000000000580e+01 2.316324999999999818e+03
2.500000000000000139e-02 1.767199999999999882e-01 1.771855000000000047e+01 6.353685000000000116e+01 2.315934999999999945e+03
2.600000000000000228e-02 1.766780000000000017e-01 1.702779999999999916e+01 6.208089999999999975e+01 2.315595000000000255e+03
2.700000000000000316e-02 1.766419999999999935e-01 1.634689999999999799e+01 6.096330000000000382e+01 2.315300000000000182e+03
2.800000000000000058e-02 1.766059999999999852e-01 1.557230000000000203e+01 5.978454999999999586e+01 2.315005000000000109e+03
2.900000000000000147e-02 1.765625000000000111e-01 1.463680000000000092e+01 5.818840000000000146e+01 2.314654999999999745e+03
3.000000000000000236e-02 1.765070000000000250e-01 1.355540000000000056e+01 5.606530000000000058e+01 2.314215000000000146e+03
3.099999999999999978e-02 1.764419999999999877e-01 1.243411000000000044e+01 5.363714999999999833e+01 2.313694999999999709e+03
3.200000000000000067e-02 1.763764999999999916e-01 1.143995999999999924e+01 5.139570000000000505e+01 2.313159999999999854e+03
3.300000000000000155e-02 1.763239999999999807e-01 1.074408500000000011e+01 4.992334999999999923e+01 2.312724999999999909e+03
3.400000000000000244e-02 1.762960000000000083e-01 1.046285999999999916e+01 4.967539999999999623e+01 2.312484999999999673e+03
3.500000000000000333e-02 1.763014999999999999e-01 1.061814999999999998e+01 5.081050000000000466e+01 2.312500000000000000e+03
3.600000000000000422e-02 1.763394999999999824e-01 1.113034999999999997e+01 5.312910000000000110e+01 2.312789999999999964e+03
3.700000000000000511e-02 1.764034999999999909e-01 1.184084999999999965e+01 5.612855000000000416e+01 2.313284999999999854e+03
3.799999999999999906e-02 1.764779999999999960e-01 1.255349999999999966e+01 5.914090000000000202e+01 2.313880000000000109e+03
3.899999999999999994e-02 1.765474999999999961e-01 1.307904999999999873e+01 6.149954999999999927e+01 2.314440000000000055e+03
4.000000000000000083e-02 1.765970000000000040e-01 1.327050000000000018e+01 6.268165000000000475e+01 2.314849999999999909e+03
4.100000000000000172e-02 1.766145000000000076e-01 1.304299999999999926e+01 6.239459999999999695e+01 2.315010000000000218e+03
4.200000000000000261e-02 1.765944999999999876e-01 1.237644999999999840e+01 6.059385000000000332e+01 2.314864999999999782e+03
4.300000000000000350e-02 1.765364999999999851e-01 1.130407499999999921e+01 5.744330000000000069e+01 2.314414999999999964e+03
4.400000000000000439e-02 1.764450000000000185e-01 9.894289999999999807e+00 5.323959999999999582e+01 2.313685000000000400e+03
4.499999999999999833e-02 1.763259999999999827e-01 8.231784999999998576e+00 4.833100000000000307e+01 2.312739999999999782e+03
4.599999999999999922e-02 1.761889999999999845e-01 6.403109999999999857e+00 4.305095000000000027e+01 2.311630000000000109e+03
4.700000000000000011e-02 1.760404999999999887e-01 4.488785899999999884e+00 3.768104999999999905e+01 2.310434999999999945e+03
4.800000000000000100e-02 1.758889999999999898e-01 2.562080000000000357e+00 3.244319999999999737e+01 2.309204999999999927e+03
4.900000000000000189e-02 1.757394999999999929e-01 6.910799999999999166e-01 2.751184999999999903e+01 2.307989999999999782e+03
5.000000000000000278e-02 1.755975000000000175e-01 -1.057830000000000048e+00 2.303494999999999848e+01 2.306835000000000036e+03
5.100000000000000366e-02 1.754680000000000129e-01 -2.617859000000000158e+00 1.915315000000000012e+01 2.305775000000000091e+03
5.200000000000000455e-02 1.753549999999999831e-01 -3.922245000000000203e+00 1.600900999999999996e+01 2.304849999999999909e+03
5.300000000000000544e-02 1.752644999999999897e-01 -4.907445000000000057e+00 1.374466999999999928e+01 2.304095000000000255e+03
5.399999999999999939e-02 1.751989999999999936e-01 -5.518245000000000289e+00 1.248924999999999841e+01 2.303545000000000073e+03
5.500000000000000028e-02 1.751630000000000131e-01 -5.713459999999999539e+00 1.234174999999999933e+01 2.303235000000000127e+03
5.600000000000000117e-02 1.751590000000000091e-01 -5.470800000000000551e+00 1.335384999999999955e+01 2.303170000000000073e+03
5.700000000000000205e-02 1.751874999999999960e-01 -4.789819999999999744e+00 1.551825000000000188e+01 2.303380000000000109e+03
5.800000000000000294e-02 1.752495000000000025e-01 -3.692395000000000316e+00 1.876514999999999844e+01 2.303850000000000364e+03
5.900000000000000383e-02 1.753414999999999835e-01 -2.220926999999999651e+00 2.296654999999999802e+01 2.304570000000000164e+03
6.000000000000000472e-02 1.754605000000000192e-01 -4.346399999999999153e-01 2.794774999999999920e+01 2.305514999999999873e+03
6.099999999999999867e-02 1.756014999999999937e-01 1.595110000000000028e+00 3.350254999999999939e+01 2.306640000000000327e+03
6.199999999999999956e-02 1.757589999999999986e-01 3.790137500000000159e+00 3.941040000000000276e+01 2.307905000000000200e+03
6.300000000000000044e-02 1.759270000000000000e-01 6.070694999999999730e+00 4.545270000000000010e+01 2.309260000000000218e+03
6.400000000000000133e-02 1.760994999999999922e-01 8.360475000000000989e+00 5.142815000000000225e+01 2.310659999999999854e+03
6.500000000000000222e-02 1.762714999999999976e-01 1.059151500000000112e+01 5.716559999999999775e+01 2.312059999999999945e+03
6.600000000000000311e-02 1.764380000000000115e-01 1.270776000000000039e+01 6.253419999999999845e+01 2.313414999999999964e+03
6.700000000000000400e-02 1.765950000000000020e-01 1.466830000000000034e+01 6.745074999999999932e+01 2.314715000000000146e+03
6.800000000000000488e-02 1.767405000000000226e-01 1.644894999999999996e+01 7.188195000000000334e+01 2.315914999999999964e+03
6.900000000000000577e-02 1.768744999999999901e-01 1.804225000000000279e+01 7.584284999999999854e+01 2.317025000000000091e+03
7.000000000000000666e-02 1.769965000000000011e-01 1.945589999999999975e+01 7.939019999999999300e+01 2.318034999999999854e+03
7.100000000000000755e-02 1.771075000000000010e-01 2.071020000000000039e+01 8.261189999999999145e+01 2.318965000000000146e+03
7.200000000000000844e-02 1.772110000000000074e-01 2.183405000000000129e+01 8.561439999999998918e+01 2.319824999999999818e+03
7.300000000000000933e-02 1.773089999999999944e-01 2.286090000000000089e+01 8.850854999999999961e+01 2.320639999999999873e+03
7.399999999999999634e-02 1.774040000000000061e-01 2.382455000000000211e+01 9.139735000000000298e+01 2.321434999999999945e+03
7.499999999999999722e-02 1.774985000000000035e-01 2.475574999999999903e+01 9.436570000000000391e+01 2.322224999999999909e+03
7.599999999999999811e-02 1.775955000000000172e-01 2.567954999999999899e+01 9.747315000000000396e+01 2.323029999999999745e+03
7.699999999999999900e-02 1.776964999999999795e-01 2.661305000000000121e+01 1.007514500000000055e+02 2.323864999999999782e+03
7.799999999999999989e-02 1.778009999999999868e-01 2.756514999999999915e+01 1.042025000000000006e+02 2.324729999999999563e+03
7.900000000000000078e-02 1.779094999999999982e-01 2.853600000000000136e+01 1.078019999999999925e+02 2.325625000000000000e+03
8.000000000000000167e-02 1.780214999999999992e-01 2.951769999999999783e+01 1.115024999999999977e+02 2.326555000000000291e+03
8.100000000000000255e-02 1.781355000000000022e-01 3.049575000000000102e+01 1.152415000000000020e+02 2.327494999999999891e+03
8.200000000000000344e-02 1.782499999999999918e-01 3.145015000000000072e+01 1.189424999999999955e+02 2.328445000000000164e+03
8.300000000000000433e-02 1.783624999999999794e-01 3.235739999999999839e+01 1.225234999999999985e+02 2.329375000000000000e+03
8.400000000000000522e-02 1.784709999999999908e-01 3.319235000000000468e+01 1.259039999999999964e+02 2.330279999999999745e+03
8.500000000000000611e-02 1.785740000000000105e-01 3.392980000000000018e+01 1.290065000000000168e+02 2.331130000000000109e+03
8.600000000000000699e-02 1.786679999999999935e-01 3.454654999999999632e+01 1.317635000000000218e+02 2.331914999999999964e+03
8.700000000000000788e-02 1.787519999999999942e-01 3.502289999999999992e+01 1.341214999999999975e+02 2.332619999999999891e+03
8.800000000000000877e-02 1.788244999999999973e-01 3.534395000000000664e+01 1.360420000000000016e+02 2.333224999999999909e+03
8.899999999999999578e-02 1.788839999999999875e-01 3.550090000000000146e+01 1.375055000000000121e+02 2.333734999999999673e+03
8.999999999999999667e-02 1.789310000000000067e-01 3.549145000000000039e+01 1.385120000000000005e+02 2.334130000000000109e+03
9.099999999999999756e-02 1.789640000000000120e-01 3.532005000000000194e+01 1.390799999999999841e+02 2.334420000000000073e+03
9.199999999999999845e-02 1.789850000000000052e-01 3.499774999999999636e+01 1.392454999999999927e+02 2.334605000000000018e+03
9.299999999999999933e-02 1.789939999999999864e-01 3.454115000000000180e+01 1.390590000000000259e+02 2.334695000000000164e+03
9.400000000000000022e-02 1.789934999999999998e-01 3.397159999999999513e+01 1.385835000000000150e+02 2.334695000000000164e+03
9.500000000000000111e-02 1.789840000000000042e-01 3.331369999999999720e+01 1.378870000000000005e+02 2.334625000000000000e+03
9.600000000000000200e-02 1.789685000000000026e-01 3.259390000000000498e+01 1.370419999999999732e+02 2.334505000000000109e+03
9.700000000000000289e-02 1.789474999999999816e-01 3.183905000000000030e+01 1.361185000000000116e+02 2.334340000000000146e+03
9.800000000000000377e-02 1.789250000000000007e-01 3.107485000000000142e+01 1.351820000000000164e+02 2.334154999999999745e+03
9.900000000000000466e-02 1.789010000000000045e-01 3.032469999999999999e+01 1.342895000000000039e+02 2.333960000000000036e+03
1.000000000000000056e-01 1.788774999999999948e-01 2.960840000000000316e+01 1.334875000000000114e+02 2.333769999999999982e+03
1.010000000000000064e-01 1.788565000000000016e-01 2.894150000000000134e+01 1.328095000000000141e+02 2.333590000000000146e+03
1.020000000000000073e-01 1.788385000000000113e-01 2.833444999999999681e+01 1.322744999999999891e+02 2.333440000000000055e+03
1.030000000000000082e-01 1.788234999999999963e-01 2.779234999999999900e+01 1.318884999999999934e+02 2.333314999999999600e+03
1.040000000000000091e-01 1.788129999999999997e-01 2.731484999999999985e+01 1.316415000000000077e+02 2.333220000000000255e+03
1.050000000000000100e-01 1.788049999999999917e-01 2.689634999999999820e+01 1.315115000000000123e+02 2.333154999999999745e+03
1.059999999999999970e-01 1.788005000000000011e-01 2.652669999999999817e+01 1.314644999999999868e+02 2.333109999999999673e+03
1.069999999999999979e-01 1.787980000000000125e-01 2.619194999999999851e+01 1.314585000000000150e+02 2.333085000000000036e+03
1.079999999999999988e-01 1.787954999999999961e-01 2.587545000000000073e+01 1.314440000000000168e+02 2.333059999999999945e+03
1.089999999999999997e-01 1.787934999999999941e-01 2.555915000000000248e+01 1.313714999999999975e+02 2.333039999999999964e+03
1.100000000000000006e-01 1.787890000000000035e-01 2.522489999999999810e+01 1.311920000000000073e+02 2.333000000000000000e+03
1.110000000000000014e-01 1.787809999999999955e-01 2.485569999999999879e+01 1.308605000000000018e+02 2.332934999999999945e+03
1.120000000000000023e-01 1.787690000000000112e-01 2.443710000000000093e+01 1.303414999999999964e+02 2.332840000000000146e+03
1.130000000000000032e-01 1.787519999999999942e-01 2.395810000000000173e+01 1.296105000000000018e+02 2.332694999999999709e+03
1.140000000000000041e-01 1.787285000000000124e-01 2.341199999999999903e+01 1.286560000000000059e+02 2.332500000000000000e+03
1.150000000000000050e-01 1.786989999999999967e-01 2.279695000000000249e+01 1.274789999999999850e+02 2.332265000000000327e+03
1.160000000000000059e-01 1.786629999999999885e-01 2.211605000000000132e+01 1.260955000000000013e+02 2.331970000000000255e+03
1.170000000000000068e-01 1.786214999999999886e-01 2.137729999999999819e+01 1.245339999999999918e+02 2.331630000000000109e+03
1.180000000000000077e-01 1.785754999999999981e-01 2.059280000000000044e+01 1.228354999999999961e+02 2.331250000000000000e+03
1.190000000000000085e-01 1.785255000000000036e-01 1.977844999999999942e+01 1.210469999999999970e+02 2.330840000000000146e+03
1.200000000000000094e-01 1.784725000000000061e-01 1.895230000000000103e+01 1.192235000000000014e+02 2.330405000000000200e+03
1.209999999999999964e-01 1.784189999999999943e-01 1.813380000000000081e+01 1.174200000000000017e+02 2.329965000000000146e+03
1.219999999999999973e-01 1.783664999999999834e-01 1.734254999999999924e+01 1.156910000000000025e+02 2.329529999999999745e+03
1.229999999999999982e-01 1.783160000000000023e-01 1.659704999999999941e+01 1.140859999999999985e+02 2.329110000000000127e+03
1.239999999999999991e-01 1.782690000000000108e-01 1.591349999999999909e+01 1.126475000000000080e+02 2.328715000000000146e+03
1.250000000000000000e-01 1.782259999999999955e-01 1.530535000000000068e+01 1.114074999999999989e+02 2.328360000000000127e+03
1.260000000000000009e-01 1.781889999999999863e-01 1.478250000000000064e+01 1.103890000000000100e+02 2.328055000000000291e+03
1.270000000000000018e-01 1.781579999999999830e-01 1.435089999999999932e+01 1.096024999999999920e+02 2.327795000000000073e+03
1.280000000000000027e-01 1.781339999999999868e-01 1.401265000000000072e+01 1.090494999999999948e+02 2.327585000000000036e+03
1.290000000000000036e-01 1.781154999999999822e-01 1.376595000000000013e+01 1.087189999999999941e+02 2.327430000000000291e+03
1.300000000000000044e-01 1.781044999999999989e-01 1.360580000000000034e+01 1.085939999999999941e+02 2.327324999999999818e+03
1.310000000000000053e-01 1.780990000000000073e-01 1.352404999999999902e+01 1.086495000000000033e+02 2.327274999999999636e+03
1.320000000000000062e-01 1.780984999999999929e-01 1.351045000000000051e+01 1.088555000000000064e+02 2.327265000000000327e+03
1.330000000000000071e-01 1.781019999999999825e-01 1.355300000000000082e+01 1.091794999999999902e+02 2.327289999999999964e+03
1.340000000000000080e-01 1.781094999999999762e-01 1.363879999999999981e+01 1.095875000000000057e+02 2.327349999999999909e+03
1.350000000000000089e-01 1.781194999999999862e-01 1.375445000000000029e+01 1.100459999999999923e+02 2.327425000000000182e+03
1.360000000000000098e-01 1.781304999999999972e-01 1.388704999999999856e+01 1.105225000000000080e+02 2.327515000000000327e+03
1.370000000000000107e-01 1.781429999999999958e-01 1.402435000000000009e+01 1.109894999999999925e+02 2.327614999999999782e+03
1.380000000000000115e-01 1.781550000000000078e-01 1.415554999999999986e+01 1.114209999999999923e+02 2.327715000000000146e+03
1.390000000000000124e-01 1.781665000000000054e-01 1.427145000000000152e+01 1.117984999999999900e+02 2.327809999999999945e+03
1.400000000000000133e-01 1.781765000000000154e-01 1.436480000000000068e+01 1.121075000000000017e+02 2.327889999999999873e+03
1.410000000000000142e-01 1.781849999999999823e-01 1.443060000000000009e+01 1.123395000000000010e+02 2.327960000000000036e+03
1.420000000000000151e-01 1.781909999999999883e-01 1.446604999999999919e+01 1.124909999999999997e+02 2.328010000000000218e+03
1.430000000000000160e-01 1.781955000000000067e-01 1.447060000000000102e+01 1.125655000000000001e+02 2.328050000000000182e+03
1.440000000000000169e-01 1.781980000000000230e-01 1.444569999999999865e+01 1.125699999999999932e+02 2.328069999999999709e+03
1.450000000000000178e-01 1.781984999999999819e-01 1.439460000000000051e+01 1.125159999999999911e+02 2.328074999999999818e+03
1.459999999999999909e-01 1.781975000000000087e-01 1.432210000000000072e+01 1.124180000000000064e+02 2.328069999999999709e+03
1.469999999999999918e-01 1.781949999999999923e-01 1.423365000000000080e+01 1.122924999999999898e+02 2.328055000000000291e+03
1.479999999999999927e-01 1.781919999999999893e-01 1.413565000000000005e+01 1.121570000000000107e+02 2.328029999999999745e+03
1.489999999999999936e-01 1.781889999999999863e-01 1.403420000000000023e+01 1.120275000000000034e+02 2.328005000000000109e+03
1.499999999999999944e-01 1.781860000000000110e-01 1.393515000000000015e+01 1.119184999999999945e+02 2.327984999999999673e+03
1.509999999999999953e-01 1.781830000000000080e-01 1.384355000000000047e+01 1.118410000000000082e+02 2.327960000000000036e+03
1.519999999999999962e-01 1.781820000000000070e-01 1.376340000000000074e+01 1.118040000000000020e+02 2.327949999999999818e+03
1.529999999999999971e-01 1.781814999999999927e-01 1.369740000000000002e+01 1.118114999999999952e+02 2.327944999999999709e+03
1.539999999999999980e-01 1.781814999999999927e-01 1.364705000000000013e+01 1.118640000000000043e+02 2.327949999999999818e+03
1.549999999999999989e-01 1.781834999999999947e-01 1.361244999999999905e+01 1.119590000000000032e+02 2.327965000000000146e+03
1.559999999999999998e-01 1.781865000000000254e-01 1.359270000000000067e+01 1.120914999999999964e+02 2.327985000000000127e+03
1.570000000000000007e-01 1.781905000000000017e-01 1.358585000000000065e+01 1.122539999999999907e+02 2.328015000000000327e+03
1.580000000000000016e-01 1.781949999999999923e-01 1.358939999999999948e+01 1.124360000000000070e+02 2.328050000000000182e+03
1.590000000000000024e-01 1.781999999999999973e-01 1.360034999999999883e+01 1.126299999999999955e+02 2.328099999999999909e+03
