# t [s], A [cm^2], U [cm/s], P [cPa], c [cm/s]
1.000000000000000021e-03 2.068975000000000120e-01 2.879070000000000240e-01 8.824869999999999948e+01 2.007690000000000055e+03
2.000000000000000042e-03 2.068470000000000031e-01 1.696114999999999817e+00 8.529370000000000118e+01 2.007335000000000036e+03
3.000000000000000062e-03 2.067054999999999865e-01 3.427163500000000251e+00 8.121845000000000425e+01 2.006365000000000009e+03
4.000000000000000083e-03 2.065095000000000125e-01 5.367506000000000554e+00 7.678050000000000352e+01 2.005045000000000073e+03
5.000000000000000104e-03 2.062984999999999958e-01 7.456364999999999910e+00 7.281430000000000291e+01 2.003639999999999873e+03
6.000000000000000125e-03 2.060954999999999870e-01 9.532029999999998893e+00 6.960839999999998895e+01 2.002299999999999955e+03
7.000000000000000146e-03 2.059060000000000057e-01 1.138564500000000024e+01 6.692844999999999800e+01 2.001070000000000164e+03
8.000000000000000167e-03 2.057319999999999982e-01 1.292858499999999999e+01 6.452785000000000082e+01 1.999970000000000027e+03
9.000000000000001055e-03 2.055799999999999850e-01 1.419784999999999897e+01 6.244384999999999764e+01 1.999009999999999991e+03
1.000000000000000194e-02 2.054515000000000091e-01 1.523239999999999839e+01 6.076030000000000086e+01 1.998215000000000146e+03
1.099999999999999936e-02 2.053470000000000018e-01 1.604824999999999946e+01 5.946075000000000443e+01 1.997579999999999927e+03
1.200000000000000025e-02 2.052660000000000040e-01 1.666094999999999970e+01 5.848975000000000080e+01 1.997090000000000146e+03
1.300000000000000114e-02 2.052025000000000099e-01 1.707850000000000179e+01 5.776514999999999844e+01 1.996720000000000027e+03
1.400000000000000203e-02 2.051530000000000020e-01 1.730624999999999858e+01 5.717510000000000048e+01 1.996429999999999836e+03
1.499999999999999944e-02 2.051135000000000042e-01 1.738980000000000103e+01 5.667969999999999686e+01 1.996210000000000036e+03
1.600000000000000033e-02 2.050859999999999905e-01 1.744270000000000209e+01 5.643165000000000475e+01 1.996065000000000055e+03
1.700000000000000122e-02 2.050819999999999865e-01 1.761370000000000147e+01 5.675164999999999793e+01 1.996049999999999955e+03
1.800000000000000211e-02 2.051099999999999868e-01 1.801140000000000185e+01 5.794065000000000509e+01 1.996235000000000127e+03
1.900000000000000300e-02 2.051764999999999839e-01 1.864294999999999902e+01 6.006765000000000043e+01 1.996650000000000091e+03
2.000000000000000042e-02 2.052765000000000006e-01 1.940390000000000015e+01 6.287420000000000186e+01 1.997269999999999982e+03
2.100000000000000130e-02 2.053940000000000210e-01 2.011999999999999744e+01 6.584380000000000166e+01 1.998009999999999991e+03
2.200000000000000219e-02 2.055095000000000116e-01 2.061380000000000123e+01 6.838335000000000719e+01 1.998750000000000000e+03
2.299999999999999961e-02 2.056040000000000090e-01 2.076590000000000202e+01 7.002615000000000123e+01 1.999355000000000018e+03
2.400000000000000050e-02 2.056634999999999991e-01 2.054809999999999803e+01 7.057265000000001010e+01 1.999755000000000109e+03
2.500000000000000139e-02 2.056859999999999800e-01 2.002114999999999867e+01 7.012470000000000425e+01 1.999924999999999955e+03
2.600000000000000228e-02 2.056755000000000111e-01 1.930109999999999815e+01 6.901134999999999309e+01 1.999880000000000109e+03
2.700000000000000316e-02 2.056445000000000078e-01 1.851299999999999812e+01 6.764809999999999945e+01 1.999699999999999818e+03
2.800000000000000058e-02 2.056060000000000110e-01 1.774915000000000020e+01 6.638949999999999818e+01 1.999465000000000146e+03
2.900000000000000147e-02 2.055690000000000017e-01 1.704694999999999894e+01 6.542829999999999302e+01 1.999235000000000127e+03
3.000000000000000236e-02 2.055385000000000129e-01 1.638974999999999937e+01 6.476810000000000400e+01 1.999034999999999854e+03
3.099999999999999978e-02 2.055119999999999725e-01 1.572605000000000075e+01 6.426454999999999984e+01 1.998869999999999891e+03
3.200000000000000067e-02 2.054865000000000164e-01 1.499859999999999971e+01 6.371000000000000085e+01 1.998704999999999927e+03
3.300000000000000155e-02 2.054539999999999977e-01 1.417170000000000130e+01 6.292879999999999541e+01 1.998515000000000100e+03
3.400000000000000244e-02 2.054120000000000112e-01 1.325039999999999907e+01 6.185255000000000081e+01 1.998255000000000109e+03
3.500000000000000333e-02 2.053615000000000024e-01 1.228545000000000087e+01 6.055589999999999407e+01 1.997944999999999936e+03
3.600000000000000422e-02 2.053059999999999885e-01 1.136308000000000007e+01 5.924230000000000018e+01 1.997599999999999909e+03
3.700000000000000511e-02 2.052550000000000208e-01 1.058315499999999965e+01 5.818824999999999648e+01 1.997279999999999973e+03
3.799999999999999906e-02 2.052189999999999848e-01 1.003276999999999930e+01 5.766284999999999883e+01 1.997045000000000073e+03
3.899999999999999994e-02 2.052059999999999995e-01 9.763449999999998852e+00 5.785004999999999598e+01 1.996945000000000164e+03
4.000000000000000083e-02 2.052209999999999868e-01 9.777590000000000003e+00 5.879545000000000243e+01 1.997029999999999973e+03
4.100000000000000172e-02 2.052650000000000030e-01 1.002781500000000037e+01 6.039059999999999917e+01 1.997279999999999973e+03
4.200000000000000261e-02 2.053309999999999858e-01 1.042700999999999922e+01 6.239580000000000126e+01 1.997679999999999836e+03
4.300000000000000350e-02 2.054104999999999959e-01 1.086554500000000090e+01 6.449025000000000318e+01 1.998164999999999964e+03
4.400000000000000439e-02 2.054900000000000060e-01 1.123094999999999999e+01 6.633410000000000650e+01 1.998664999999999964e+03
4.499999999999999833e-02 2.055585000000000051e-01 1.142494999999999905e+01 6.762774999999999181e+01 1.999090000000000146e+03
4.599999999999999922e-02 2.056034999999999946e-01 1.137610000000000099e+01 6.815559999999999263e+01 1.999384999999999991e+03
4.700000000000000011e-02 2.056179999999999952e-01 1.104490000000000016e+01 6.780850000000000932e+01 1.999485000000000127e+03
4.800000000000000100e-02 2.055985000000000174e-01 1.042381500000000116e+01 6.658369999999999322e+01 1.999380000000000109e+03
4.900000000000000189e-02 2.055440000000000045e-01 9.531839999999998980e+00 6.456775000000000375e+01 1.999049999999999955e+03
5.000000000000000278e-02 2.054580000000000017e-01 8.406895000000000451e+00 6.190784999999999627e+01 1.998519999999999982e+03
5.100000000000000366e-02 2.053449999999999998e-01 7.097789999999999822e+00 5.878130000000000166e+01 1.997825000000000045e+03
5.200000000000000455e-02 2.052120000000000055e-01 5.657950000000000479e+00 5.536939999999999884e+01 1.997000000000000000e+03
5.300000000000000544e-02 2.050659999999999983e-01 4.140789999999999971e+00 5.183924999999999983e+01 1.996085000000000036e+03
5.399999999999999939e-02 2.049124999999999974e-01 2.597970000000000113e+00 4.833599999999999852e+01 1.995125000000000000e+03
5.500000000000000028e-02 2.047589999999999966e-01 1.079210000000000003e+00 4.498245000000000005e+01 1.994160000000000082e+03
5.600000000000000117e-02 2.046094999999999997e-01 -3.669900000000001494e-01 4.188434999999999775e+01 1.993220000000000027e+03
5.700000000000000205e-02 2.044699999999999851e-01 -1.692454999999999821e+00 3.913714999999999833e+01 1.992345000000000027e+03
5.800000000000000294e-02 2.043449999999999989e-01 -2.849168999999999841e+00 3.683135000000000048e+01 1.991554999999999836e+03
5.900000000000000383e-02 2.042390000000000039e-01 -3.789979999999999905e+00 3.505525000000000091e+01 1.990880000000000109e+03
6.000000000000000472e-02 2.041570000000000051e-01 -4.470309999999999562e+00 3.389350000000000307e+01 1.990344999999999800e+03
6.099999999999999867e-02 2.041014999999999913e-01 -4.850645000000000095e+00 3.342240000000000322e+01 1.989985000000000127e+03
6.199999999999999956e-02 2.040770000000000084e-01 -4.899264999999999759e+00 3.370405000000000229e+01 1.989809999999999945e+03
6.300000000000000044e-02 2.040855000000000030e-01 -4.594809999999999839e+00 3.477875000000000227e+01 1.989845000000000027e+03
6.400000000000000133e-02 2.041294999999999915e-01 -3.928249999999999797e+00 3.665990000000000038e+01 1.990094999999999800e+03
6.500000000000000222e-02 2.042094999999999883e-01 -2.903842499999999660e+00 3.933015000000000327e+01 1.990570000000000164e+03
6.600000000000000311e-02 2.043240000000000056e-01 -1.539120000000000044e+00 4.274125000000000085e+01 1.991269999999999982e+03
6.700000000000000400e-02 2.044725000000000015e-01 1.361749999999999350e-01 4.681645000000000323e+01 1.992174999999999955e+03
6.800000000000000488e-02 2.046499999999999986e-01 2.081909999999999705e+00 5.145550000000000068e+01 1.993269999999999982e+03
6.900000000000000577e-02 2.048539999999999806e-01 4.249924000000000035e+00 5.654115000000000180e+01 1.994529999999999973e+03
7.000000000000000666e-02 2.050779999999999825e-01 6.586689999999999934e+00 6.194669999999999987e+01 1.995925000000000182e+03
7.100000000000000755e-02 2.053174999999999861e-01 9.035989999999999966e+00 6.754309999999999548e+01 1.997430000000000064e+03
7.200000000000000844e-02 2.055675000000000141e-01 1.154163499999999942e+01 7.320589999999999975e+01 1.998994999999999891e+03
7.300000000000000933e-02 2.058225000000000193e-01 1.404988999999999955e+01 7.882130000000000791e+01 2.000599999999999909e+03
7.399999999999999634e-02 2.060774999999999968e-01 1.651174999999999926e+01 8.429140000000001010e+01 2.002210000000000036e+03
7.499999999999999722e-02 2.063274999999999970e-01 1.888490000000000180e+01 8.953794999999999504e+01 2.003799999999999955e+03
7.599999999999999811e-02 2.065694999999999892e-01 2.113514999999999944e+01 9.450525000000000375e+01 2.005345000000000027e+03
7.699999999999999900e-02 2.068014999999999992e-01 2.323760000000000048e+01 9.916094999999999970e+01 2.006825000000000045e+03
7.799999999999999989e-02 2.070214999999999972e-01 2.517680000000000007e+01 1.034972999999999956e+02 2.008240000000000009e+03
7.900000000000000078e-02 2.072285000000000099e-01 2.694669999999999987e+01 1.075271999999999935e+02 2.009570000000000164e+03
8.000000000000000167e-02 2.074234999999999829e-01 2.854964999999999975e+01 1.112814999999999941e+02 2.010829999999999927e+03
8.100000000000000255e-02 2.076069999999999860e-01 2.999510000000000076e+01 1.148054999999999950e+02 2.012019999999999982e+03
8.200000000000000344e-02 2.077819999999999945e-01 3.129765000000000086e+01 1.181525000000000034e+02 2.013154999999999973e+03
8.300000000000000433e-02 2.079489999999999950e-01 3.247525000000000261e+01 1.213780000000000001e+02 2.014240000000000009e+03
8.400000000000000522e-02 2.081104999999999761e-01 3.354695000000000249e+01 1.245349999999999966e+02 2.015284999999999854e+03
8.500000000000000611e-02 2.082689999999999819e-01 3.453154999999999575e+01 1.276684999999999945e+02 2.016320000000000164e+03
8.600000000000000699e-02 2.084260000000000002e-01 3.544530000000000314e+01 1.308125000000000000e+02 2.017340000000000146e+03
8.700000000000000788e-02 2.085825000000000040e-01 3.630119999999999436e+01 1.339895000000000209e+02 2.018355000000000018e+03
8.800000000000000877e-02 2.087399999999999811e-01 3.710835000000000150e+01 1.372055000000000007e+02 2.019380000000000109e+03
8.899999999999999578e-02 2.088984999999999870e-01 3.787109999999999843e+01 1.404544999999999959e+02 2.020404999999999973e+03
8.999999999999999667e-02 2.090575000000000072e-01 3.858929999999999438e+01 1.437175000000000011e+02 2.021440000000000055e+03
9.099999999999999756e-02 2.092164999999999997e-01 3.925894999999999868e+01 1.469644999999999868e+02 2.022474999999999909e+03
9.199999999999999845e-02 2.093740000000000046e-01 3.987225000000000108e+01 1.501585000000000036e+02 2.023494999999999891e+03
9.299999999999999933e-02 2.095285000000000064e-01 4.041880000000000450e+01 1.532570000000000050e+02 2.024500000000000000e+03
9.400000000000000022e-02 2.096780000000000033e-01 4.088644999999999641e+01 1.562144999999999868e+02 2.025474999999999909e+03
9.500000000000000111e-02 2.098214999999999941e-01 4.126215000000000543e+01 1.589884999999999877e+02 2.026405000000000200e+03
9.600000000000000200e-02 2.099560000000000037e-01 4.153284999999999627e+01 1.615349999999999966e+02 2.027285000000000082e+03
9.700000000000000289e-02 2.100799999999999890e-01 4.168639999999999901e+01 1.638189999999999884e+02 2.028099999999999909e+03
9.800000000000000377e-02 2.101925000000000043e-01 4.171250000000000568e+01 1.658104999999999905e+02 2.028840000000000146e+03
9.900000000000000466e-02 2.102915000000000201e-01 4.160300000000000153e+01 1.674850000000000136e+02 2.029490000000000009e+03
1.000000000000000056e-01 2.103765000000000218e-01 4.135275000000000034e+01 1.688294999999999959e+02 2.030050000000000182e+03
1.010000000000000064e-01 2.104460000000000219e-01 4.095995000000000630e+01 1.698385000000000105e+02 2.030514999999999873e+03
1.020000000000000073e-01 2.105015000000000081e-01 4.042629999999999768e+01 1.705160000000000196e+02 2.030884999999999991e+03
1.030000000000000082e-01 2.105405000000000193e-01 3.975719999999999743e+01 1.708739999999999952e+02 2.031154999999999973e+03
1.040000000000000091e-01 2.105659999999999754e-01 3.896139999999999759e+01 1.709334999999999809e+02 2.031325000000000045e+03
1.050000000000000100e-01 2.105775000000000008e-01 3.805100000000000193e+01 1.707224999999999966e+02 2.031409999999999854e+03
1.059999999999999970e-01 2.105764999999999998e-01 3.704070000000000107e+01 1.702744999999999891e+02 2.031414999999999964e+03
1.069999999999999979e-01 2.105640000000000012e-01 3.594764999999999588e+01 1.696270000000000095e+02 2.031345000000000027e+03
1.079999999999999988e-01 2.105424999999999935e-01 3.479040000000000532e+01 1.688220000000000027e+02 2.031215000000000146e+03
1.089999999999999997e-01 2.105130000000000057e-01 3.358834999999999837e+01 1.679014999999999986e+02 2.031029999999999973e+03
1.100000000000000006e-01 2.104770000000000252e-01 3.236104999999999876e+01 1.669044999999999845e+02 2.030805000000000064e+03
1.110000000000000014e-01 2.104374999999999996e-01 3.112734999999999985e+01 1.658714999999999975e+02 2.030555000000000064e+03
1.120000000000000023e-01 2.103955000000000131e-01 2.990480000000000160e+01 1.648369999999999891e+02 2.030279999999999973e+03
1.130000000000000032e-01 2.103519999999999834e-01 2.870915000000000106e+01 1.638305000000000007e+02 2.030000000000000000e+03
1.140000000000000041e-01 2.103095000000000103e-01 2.755364999999999753e+01 1.628765000000000214e+02 2.029724999999999909e+03
1.150000000000000050e-01 2.102684999999999971e-01 2.644885000000000019e+01 1.619925000000000068e+02 2.029454999999999927e+03
1.160000000000000059e-01 2.102295000000000136e-01 2.540229999999999677e+01 1.611890000000000214e+02 2.029204999999999927e+03
1.170000000000000068e-01 2.101935000000000053e-01 2.441830000000000211e+01 1.604704999999999870e+02 2.028964999999999918e+03
1.180000000000000077e-01 2.101605000000000001e-01 2.349799999999999756e+01 1.598324999999999818e+02 2.028744999999999891e+03
1.190000000000000085e-01 2.101304999999999978e-01 2.263949999999999818e+01 1.592665000000000077e+02 2.028545000000000073e+03
1.200000000000000094e-01 2.101029999999999842e-01 2.183820000000000050e+01 1.587574999999999932e+02 2.028360000000000127e+03
1.209999999999999964e-01 2.100775000000000003e-01 2.108680000000000021e+01 1.582849999999999966e+02 2.028190000000000055e+03
1.219999999999999973e-01 2.100535000000000041e-01 2.037639999999999674e+01 1.578269999999999982e+02 2.028029999999999973e+03
1.229999999999999982e-01 2.100305000000000089e-01 1.969630000000000081e+01 1.573569999999999993e+02 2.027875000000000000e+03
1.239999999999999991e-01 2.100059999999999982e-01 1.903524999999999778e+01 1.568489999999999895e+02 2.027714999999999918e+03
1.250000000000000000e-01 2.099794999999999856e-01 1.838159999999999883e+01 1.562779999999999916e+02 2.027539999999999964e+03
1.260000000000000009e-01 2.099509999999999987e-01 1.772435000000000116e+01 1.556200000000000045e+02 2.027349999999999909e+03
1.270000000000000018e-01 2.099185000000000079e-01 1.705324999999999847e+01 1.548539999999999850e+02 2.027134999999999991e+03
1.280000000000000027e-01 2.098804999999999976e-01 1.635975000000000179e+01 1.539660000000000082e+02 2.026890000000000100e+03
1.290000000000000036e-01 2.098379999999999967e-01 1.563729999999999976e+01 1.529435000000000002e+02 2.026609999999999900e+03
1.300000000000000044e-01 2.097895000000000176e-01 1.488175000000000026e+01 1.517830000000000155e+02 2.026295000000000073e+03
1.310000000000000053e-01 2.097344999999999904e-01 1.409154999999999980e+01 1.504870000000000232e+02 2.025945000000000164e+03
1.320000000000000062e-01 2.096739999999999993e-01 1.326774999999999949e+01 1.490625000000000000e+02 2.025554999999999836e+03
1.330000000000000071e-01 2.096075000000000021e-01 1.241424999999999912e+01 1.475244999999999891e+02 2.025125000000000000e+03
1.340000000000000080e-01 2.095365000000000144e-01 1.153740499999999969e+01 1.458924999999999841e+02 2.024670000000000073e+03
1.350000000000000089e-01 2.094614999999999949e-01 1.064564500000000002e+01 1.441915000000000191e+02 2.024179999999999836e+03
1.360000000000000098e-01 2.093824999999999992e-01 9.749230000000000729e+00 1.424490000000000123e+02 2.023679999999999836e+03
1.370000000000000107e-01 2.093019999999999881e-01 8.859635000000000815e+00 1.406955000000000098e+02 2.023159999999999854e+03
1.380000000000000115e-01 2.092209999999999903e-01 7.989024999999999821e+00 1.389604999999999961e+02 2.022634999999999991e+03
1.390000000000000124e-01 2.091410000000000213e-01 7.149599999999999511e+00 1.372744999999999891e+02 2.022119999999999891e+03
1.400000000000000133e-01 2.090625000000000122e-01 6.353014999999999191e+00 1.356645000000000039e+02 2.021610000000000127e+03
1.410000000000000142e-01 2.089869999999999783e-01 5.609860000000000291e+00 1.341544999999999845e+02 2.021119999999999891e+03
1.420000000000000151e-01 2.089159999999999906e-01 4.929190000000000182e+00 1.327644999999999982e+02 2.020660000000000082e+03
1.430000000000000160e-01 2.088499999999999801e-01 4.318130000000000024e+00 1.315084999999999980e+02 2.020230000000000018e+03
1.440000000000000169e-01 2.087895000000000167e-01 3.781640000000000335e+00 1.303960000000000150e+02 2.019835000000000036e+03
1.450000000000000178e-01 2.087355000000000183e-01 3.322365000000000013e+00 1.294300000000000068e+02 2.019480000000000018e+03
1.459999999999999909e-01 2.086874999999999980e-01 2.940610000000000390e+00 1.286084999999999923e+02 2.019164999999999964e+03
1.469999999999999918e-01 2.086459999999999981e-01 2.634469999999999867e+00 1.279249999999999972e+02 2.018889999999999873e+03
1.479999999999999927e-01 2.086100000000000176e-01 2.399989999999999846e+00 1.273675000000000068e+02 2.018655000000000200e+03
1.489999999999999936e-01 2.085799999999999876e-01 2.231434999999999835e+00 1.269215000000000089e+02 2.018460000000000036e+03
1.499999999999999944e-01 2.085555000000000048e-01 2.121665000000000134e+00 1.265695000000000050e+02 2.018289999999999964e+03
1.509999999999999953e-01 2.085349999999999981e-01 2.062440000000000051e+00 1.262930000000000064e+02 2.018150000000000091e+03
1.519999999999999962e-01 2.085179999999999811e-01 2.044845000000000024e+00 1.260720000000000027e+02 2.018034999999999854e+03
1.529999999999999971e-01 2.085035000000000083e-01 2.059625000000000039e+00 1.258870000000000005e+02 2.017940000000000055e+03
1.539999999999999980e-01 2.084909999999999819e-01 2.097534999999999705e+00 1.257195000000000107e+02 2.017855000000000018e+03
1.549999999999999989e-01 2.084795000000000120e-01 2.149659999999999904e+00 1.255519999999999925e+02 2.017779999999999973e+03
1.559999999999999998e-01 2.084685000000000010e-01 2.207670000000000243e+00 1.253695000000000022e+02 2.017704999999999927e+03
1.570000000000000007e-01 2.084575000000000178e-01 2.264040000000000052e+00 1.251589999999999918e+02 2.017625000000000000e+03
1.580000000000000016e-01 2.084444999999999770e-01 2.312210000000000321e+00 1.249095000000000084e+02 2.017545000000000073e+03
1.590000000000000024e-01 2.084310000000000052e-01 2.346705000000000041e+00 1.246140000000000043e+02 2.017460000000000036e+03
