# t [s], A [cm^2], U [cm/s], P [cPa], c [cm/s]
1.000000000000000021e-03 1.686054999999999915e-01 3.456217999999999790e-01 1.048629999999999995e+02 2.328855000000000018e+03
2.000000000000000042e-03 1.685530000000000084e-01 1.961545499999999720e+00 1.009008499999999913e+02 2.328250000000000000e+03
3.000000000000000062e-03 1.684249999999999914e-01 3.978924500000000197e+00 9.534344999999999004e+01 2.326840000000000146e+03
4.000000000000000083e-03 1.682584999999999775e-01 6.274652999999999814e+00 8.948329999999999984e+01 2.325019999999999982e+03
5.000000000000000104e-03 1.680875000000000008e-01 8.730105000000000004e+00 8.443845000000000312e+01 2.323175000000000182e+03
6.000000000000000125e-03 1.679265000000000063e-01 1.106822499999999998e+01 8.033589999999999520e+01 2.321474999999999909e+03
7.000000000000000146e-03 1.677774999999999961e-01 1.304761000000000060e+01 7.671290000000000475e+01 2.319930000000000291e+03
8.000000000000000167e-03 1.676445000000000018e-01 1.466274999999999906e+01 7.348069999999999879e+01 2.318574999999999818e+03
9.000000000000001055e-03 1.675325000000000009e-01 1.597664999999999935e+01 7.081034999999999968e+01 2.317445000000000164e+03
1.000000000000000194e-02 1.674415000000000209e-01 1.701715000000000089e+01 6.872414999999999452e+01 2.316545000000000073e+03
1.099999999999999936e-02 1.673709999999999920e-01 1.780465000000000231e+01 6.714664999999999395e+01 2.315850000000000364e+03
1.200000000000000025e-02 1.673155000000000059e-01 1.833849999999999980e+01 6.591705000000000325e+01 2.315319999999999709e+03
1.300000000000000114e-02 1.672700000000000020e-01 1.862480000000000047e+01 6.482710000000000150e+01 2.314889999999999873e+03
1.400000000000000203e-02 1.672329999999999928e-01 1.876565000000000083e+01 6.390160000000000196e+01 2.314545000000000073e+03
1.499999999999999944e-02 1.672109999999999985e-01 1.897449999999999903e+01 6.358010000000000161e+01 2.314355000000000018e+03
1.600000000000000033e-02 1.672184999999999921e-01 1.946110000000000184e+01 6.447034999999999627e+01 2.314430000000000291e+03
1.700000000000000122e-02 1.672615000000000074e-01 2.028930000000000078e+01 6.686099999999999000e+01 2.314864999999999782e+03
1.800000000000000211e-02 1.673370000000000135e-01 2.132649999999999935e+01 7.041644999999999754e+01 2.315619999999999891e+03
1.900000000000000300e-02 1.674299999999999955e-01 2.231109999999999971e+01 7.426789999999999736e+01 2.316555000000000291e+03
2.000000000000000042e-02 1.675169999999999992e-01 2.298044999999999760e+01 7.740235000000001264e+01 2.317465000000000146e+03
2.100000000000000130e-02 1.675810000000000077e-01 2.318395000000000294e+01 7.909680000000000177e+01 2.318139999999999873e+03
2.200000000000000219e-02 1.676104999999999956e-01 2.292980000000000018e+01 7.917645000000000266e+01 2.318484999999999673e+03
2.299999999999999961e-02 1.676090000000000080e-01 2.235580000000000211e+01 7.800360000000000582e+01 2.318500000000000000e+03
2.400000000000000050e-02 1.675850000000000117e-01 2.165005000000000024e+01 7.624094999999999800e+01 2.318279999999999745e+03
2.500000000000000139e-02 1.675530000000000075e-01 2.096484999999999843e+01 7.452979999999999450e+01 2.317965000000000146e+03
2.600000000000000228e-02 1.675230000000000052e-01 2.036325000000000074e+01 7.323759999999998627e+01 2.317659999999999854e+03
2.700000000000000316e-02 1.674979999999999802e-01 1.981275000000000119e+01 7.236690000000000111e+01 2.317394999999999982e+03
2.800000000000000058e-02 1.674760000000000137e-01 1.922149999999999892e+01 7.163390000000001123e+01 2.317170000000000073e+03
2.900000000000000147e-02 1.674499999999999877e-01 1.849445000000000050e+01 7.065395000000000891e+01 2.316909999999999854e+03
3.000000000000000236e-02 1.674134999999999929e-01 1.758745000000000047e+01 6.915125000000000455e+01 2.316555000000000291e+03
3.099999999999999978e-02 1.673649999999999860e-01 1.653824999999999790e+01 6.710984999999999445e+01 2.316065000000000055e+03
3.200000000000000067e-02 1.673080000000000123e-01 1.546460000000000079e+01 6.481234999999999502e+01 2.315494999999999891e+03
3.300000000000000155e-02 1.672514999999999974e-01 1.452870000000000061e+01 6.275405000000000655e+01 2.314914999999999964e+03
3.400000000000000244e-02 1.672069999999999945e-01 1.388465000000000060e+01 6.147035000000000338e+01 2.314460000000000036e+03
3.500000000000000333e-02 1.671865000000000157e-01 1.362814999999999976e+01 6.134850000000000136e+01 2.314225000000000364e+03
3.600000000000000422e-02 1.671944999999999959e-01 1.376779999999999937e+01 6.249609999999999843e+01 2.314284999999999854e+03
3.700000000000000511e-02 1.672314999999999774e-01 1.422424999999999962e+01 6.470654999999999291e+01 2.314630000000000109e+03
3.799999999999999906e-02 1.672895000000000076e-01 1.485365000000000002e+01 6.752074999999999250e+01 2.315194999999999709e+03
3.899999999999999994e-02 1.673564999999999914e-01 1.548479999999999990e+01 7.035150000000000148e+01 2.315869999999999891e+03
4.000000000000000083e-02 1.674194999999999989e-01 1.595669999999999966e+01 7.262505000000000166e+01 2.316505000000000109e+03
4.100000000000000172e-02 1.674660000000000037e-01 1.614710000000000178e+01 7.389875000000000682e+01 2.316984999999999673e+03
4.200000000000000261e-02 1.674864999999999826e-01 1.598774999999999835e+01 7.392949999999999022e+01 2.317210000000000036e+03
4.300000000000000350e-02 1.674769999999999870e-01 1.546484999999999843e+01 7.268455000000000155e+01 2.317140000000000327e+03
4.400000000000000439e-02 1.674375000000000169e-01 1.460800000000000054e+01 7.030450000000000443e+01 2.316760000000000218e+03
4.499999999999999833e-02 1.673715000000000064e-01 1.347394999999999854e+01 6.703759999999999764e+01 2.316105000000000018e+03
4.599999999999999922e-02 1.672839999999999883e-01 1.213053500000000007e+01 6.316995000000000005e+01 2.315230000000000018e+03
4.700000000000000011e-02 1.671814999999999829e-01 1.064461000000000013e+01 5.897015000000000384e+01 2.314195000000000164e+03
4.800000000000000100e-02 1.670699999999999963e-01 9.076640000000001152e+00 5.465919999999999845e+01 2.313065000000000055e+03
4.900000000000000189e-02 1.669545000000000057e-01 7.480380000000000251e+00 5.040605000000000047e+01 2.311894999999999982e+03
5.000000000000000278e-02 1.668385000000000007e-01 5.906044999999999767e+00 4.634095000000000653e+01 2.310724999999999909e+03
5.100000000000000366e-02 1.667279999999999873e-01 4.404605499999999729e+00 4.257620000000000005e+01 2.309595000000000255e+03
5.200000000000000455e-02 1.666249999999999953e-01 3.030362999999999918e+00 3.922560000000000002e+01 2.308539999999999964e+03
5.300000000000000544e-02 1.665329999999999866e-01 1.841271499999999950e+00 3.641434999999999889e+01 2.307599999999999909e+03
5.399999999999999939e-02 1.664565000000000072e-01 8.963899999999999091e-01 3.427824999999999989e+01 2.306809999999999945e+03
5.500000000000000028e-02 1.663994999999999780e-01 2.512450000000000516e-01 3.295265000000000555e+01 2.306210000000000036e+03
5.600000000000000117e-02 1.663649999999999851e-01 -4.773499999999997190e-02 3.255579999999999785e+01 2.305840000000000146e+03
5.700000000000000205e-02 1.663565000000000182e-01 3.154740000000000322e-02 3.317150000000000176e+01 2.305724999999999909e+03
5.800000000000000294e-02 1.663749999999999951e-01 5.031670000000000309e-01 3.483459999999999468e+01 2.305885000000000218e+03
5.900000000000000383e-02 1.664219999999999866e-01 1.361519499999999994e+00 3.752455000000000496e+01 2.306335000000000036e+03
6.000000000000000472e-02 1.664970000000000061e-01 2.581876999999999978e+00 4.116495000000000459e+01 2.307059999999999945e+03
6.099999999999999867e-02 1.665969999999999951e-01 4.122764999999999347e+00 4.563119999999999976e+01 2.308050000000000182e+03
6.199999999999999956e-02 1.667190000000000061e-01 5.929645000000000721e+00 5.076229999999999620e+01 2.309264999999999873e+03
6.300000000000000044e-02 1.668589999999999796e-01 7.939389999999999503e+00 5.637524999999999409e+01 2.310664999999999964e+03
6.400000000000000133e-02 1.670114999999999794e-01 1.008500000000000085e+01 6.228085000000000093e+01 2.312210000000000036e+03
6.500000000000000222e-02 1.671725000000000017e-01 1.230020999999999987e+01 6.829779999999999518e+01 2.313845000000000255e+03
6.600000000000000311e-02 1.673375000000000001e-01 1.452405000000000079e+01 7.426595000000000368e+01 2.315525000000000091e+03
6.700000000000000400e-02 1.675014999999999976e-01 1.670420000000000016e+01 8.005660000000000309e+01 2.317204999999999927e+03
6.800000000000000488e-02 1.676620000000000055e-01 1.880004999999999882e+01 8.557965000000000089e+01 2.318850000000000364e+03
6.900000000000000577e-02 1.678169999999999940e-01 2.078395000000000081e+01 9.078645000000000209e+01 2.320449999999999818e+03
7.000000000000000666e-02 1.679645000000000166e-01 2.264170000000000016e+01 9.566890000000000782e+01 2.321975000000000364e+03
7.100000000000000755e-02 1.681050000000000044e-01 2.437129999999999797e+01 1.002541499999999957e+02 2.323434999999999945e+03
7.200000000000000844e-02 1.682385000000000130e-01 2.598080000000000211e+01 1.045959000000000003e+02 2.324824999999999818e+03
7.300000000000000933e-02 1.683665000000000023e-01 2.748530000000000229e+01 1.087625000000000028e+02 2.326154999999999745e+03
7.399999999999999634e-02 1.684904999999999875e-01 2.890354999999999919e+01 1.128285000000000053e+02 2.327449999999999818e+03
7.499999999999999722e-02 1.686124999999999985e-01 3.025525000000000020e+01 1.168609999999999900e+02 2.328720000000000255e+03
7.599999999999999811e-02 1.687334999999999807e-01 3.155785000000000196e+01 1.209145000000000039e+02 2.329985000000000127e+03
7.699999999999999900e-02 1.688545000000000185e-01 3.282500000000000284e+01 1.250234999999999985e+02 2.331255000000000109e+03
7.799999999999999989e-02 1.689775000000000027e-01 3.406494999999999607e+01 1.292009999999999934e+02 2.332534999999999854e+03
7.900000000000000078e-02 1.691015000000000157e-01 3.528045000000000186e+01 1.334389999999999930e+02 2.333829999999999927e+03
8.000000000000000167e-02 1.692265000000000019e-01 3.646835000000000093e+01 1.377115000000000009e+02 2.335135000000000218e+03
8.100000000000000255e-02 1.693520000000000025e-01 3.762075000000000102e+01 1.419749999999999943e+02 2.336440000000000055e+03
8.200000000000000344e-02 1.694760000000000155e-01 3.872509999999999764e+01 1.461754999999999995e+02 2.337744999999999891e+03
8.300000000000000433e-02 1.695980000000000265e-01 3.976604999999999990e+01 1.502529999999999859e+02 2.339019999999999982e+03
8.400000000000000522e-02 1.697159999999999780e-01 4.072610000000000241e+01 1.541444999999999936e+02 2.340260000000000218e+03
8.500000000000000611e-02 1.698284999999999934e-01 4.158679999999999666e+01 1.577870000000000061e+02 2.341445000000000164e+03
8.600000000000000699e-02 1.699339999999999740e-01 4.233034999999999570e+01 1.611214999999999975e+02 2.342550000000000182e+03
8.700000000000000788e-02 1.700300000000000145e-01 4.294039999999999679e+01 1.640989999999999895e+02 2.343569999999999709e+03
8.800000000000000877e-02 1.701165000000000038e-01 4.340309999999999491e+01 1.666769999999999925e+02 2.344489999999999782e+03
8.899999999999999578e-02 1.701920000000000099e-01 4.370844999999999914e+01 1.688265000000000100e+02 2.345284999999999854e+03
8.999999999999999667e-02 1.702555000000000041e-01 4.385080000000000666e+01 1.705319999999999823e+02 2.345965000000000146e+03
9.099999999999999756e-02 1.703060000000000129e-01 4.382965000000000089e+01 1.717939999999999827e+02 2.346514999999999873e+03
9.199999999999999845e-02 1.703449999999999964e-01 4.364974999999999739e+01 1.726264999999999930e+02 2.346940000000000055e+03
9.299999999999999933e-02 1.703719999999999957e-01 4.332099999999999795e+01 1.730579999999999927e+02 2.347235000000000127e+03
9.400000000000000022e-02 1.703884999999999983e-01 4.285790000000000077e+01 1.731310000000000002e+02 2.347420000000000073e+03
9.500000000000000111e-02 1.703945000000000043e-01 4.227899999999999636e+01 1.728960000000000150e+02 2.347494999999999891e+03
9.600000000000000200e-02 1.703919999999999879e-01 4.160549999999999926e+01 1.724114999999999895e+02 2.347484999999999673e+03
9.700000000000000289e-02 1.703824999999999923e-01 4.086019999999999897e+01 1.717384999999999877e+02 2.347399999999999636e+03
9.800000000000000377e-02 1.703684999999999783e-01 4.006640000000000157e+01 1.709379999999999882e+02 2.347255000000000109e+03
9.900000000000000466e-02 1.703494999999999870e-01 3.924629999999999797e+01 1.700659999999999741e+02 2.347065000000000055e+03
1.000000000000000056e-01 1.703290000000000082e-01 3.842054999999999865e+01 1.691744999999999948e+02 2.346849999999999909e+03
1.010000000000000064e-01 1.703064999999999996e-01 3.760694999999999766e+01 1.683034999999999854e+02 2.346625000000000000e+03
1.020000000000000073e-01 1.702850000000000197e-01 3.681985000000000241e+01 1.674864999999999782e+02 2.346395000000000437e+03
1.030000000000000082e-01 1.702644999999999853e-01 3.606969999999999743e+01 1.667439999999999998e+02 2.346180000000000291e+03
1.040000000000000091e-01 1.702449999999999797e-01 3.536265000000000214e+01 1.660850000000000080e+02 2.345970000000000255e+03
1.050000000000000100e-01 1.702275000000000038e-01 3.470054999999999978e+01 1.655070000000000050e+02 2.345784999999999854e+03
1.059999999999999970e-01 1.702110000000000012e-01 3.408115000000000094e+01 1.649984999999999786e+02 2.345610000000000127e+03
1.069999999999999979e-01 1.701965000000000006e-01 3.349824999999999875e+01 1.645374999999999943e+02 2.345454999999999927e+03
1.079999999999999988e-01 1.701830000000000009e-01 3.294265000000000043e+01 1.640935000000000059e+02 2.345309999999999945e+03
1.089999999999999997e-01 1.701689999999999869e-01 3.240265000000000128e+01 1.636329999999999814e+02 2.345154999999999745e+03
1.100000000000000006e-01 1.701544999999999863e-01 3.186500000000000199e+01 1.631179999999999950e+02 2.345000000000000000e+03
1.110000000000000014e-01 1.701380000000000114e-01 3.131605000000000061e+01 1.625109999999999957e+02 2.344829999999999927e+03
1.120000000000000023e-01 1.701194999999999791e-01 3.074264999999999759e+01 1.617769999999999868e+02 2.344630000000000109e+03
1.130000000000000032e-01 1.700969999999999982e-01 3.013309999999999889e+01 1.608870000000000005e+02 2.344394999999999982e+03
1.140000000000000041e-01 1.700699999999999990e-01 2.947830000000000084e+01 1.598190000000000168e+02 2.344110000000000127e+03
1.150000000000000050e-01 1.700375000000000081e-01 2.877214999999999989e+01 1.585620000000000118e+02 2.343779999999999745e+03
1.160000000000000059e-01 1.700010000000000132e-01 2.801229999999999976e+01 1.571145000000000209e+02 2.343400000000000091e+03
1.170000000000000068e-01 1.699589999999999990e-01 2.720025000000000048e+01 1.554859999999999900e+02 2.342965000000000146e+03
1.180000000000000077e-01 1.699120000000000075e-01 2.634149999999999991e+01 1.536970000000000027e+02 2.342474999999999909e+03
1.190000000000000085e-01 1.698614999999999986e-01 2.544519999999999982e+01 1.517794999999999845e+02 2.341949999999999818e+03
1.200000000000000094e-01 1.698075000000000001e-01 2.452369999999999806e+01 1.497715000000000032e+02 2.341385000000000218e+03
1.209999999999999964e-01 1.697505000000000264e-01 2.359179999999999922e+01 1.477185000000000059e+02 2.340800000000000182e+03
1.219999999999999973e-01 1.696934999999999971e-01 2.266574999999999918e+01 1.456670000000000016e+02 2.340199999999999818e+03
1.229999999999999982e-01 1.696360000000000090e-01 2.176245000000000118e+01 1.436664999999999850e+02 2.339599999999999909e+03
1.239999999999999991e-01 1.695800000000000085e-01 2.089829999999999899e+01 1.417624999999999886e+02 2.339014999999999873e+03
1.250000000000000000e-01 1.695264999999999966e-01 2.008834999999999837e+01 1.399954999999999927e+02 2.338460000000000036e+03
1.260000000000000009e-01 1.694769999999999888e-01 1.934555000000000291e+01 1.383985000000000127e+02 2.337934999999999945e+03
1.270000000000000018e-01 1.694319999999999993e-01 1.867994999999999806e+01 1.369979999999999905e+02 2.337460000000000036e+03
1.280000000000000027e-01 1.693919999999999870e-01 1.809854999999999947e+01 1.358075000000000045e+02 2.337039999999999964e+03
1.290000000000000036e-01 1.693574999999999942e-01 1.760500000000000043e+01 1.348340000000000032e+02 2.336670000000000073e+03
1.300000000000000044e-01 1.693290000000000073e-01 1.719964999999999833e+01 1.340749999999999886e+02 2.336364999999999782e+03
1.310000000000000053e-01 1.693064999999999987e-01 1.687999999999999901e+01 1.335200000000000102e+02 2.336119999999999891e+03
1.320000000000000062e-01 1.692889999999999950e-01 1.664069999999999894e+01 1.331514999999999986e+02 2.335929999999999836e+03
1.330000000000000071e-01 1.692764999999999964e-01 1.647444999999999737e+01 1.329470000000000027e+02 2.335800000000000182e+03
1.340000000000000080e-01 1.692684999999999884e-01 1.637225000000000108e+01 1.328830000000000098e+02 2.335710000000000036e+03
1.350000000000000089e-01 1.692644999999999844e-01 1.632414999999999949e+01 1.329320000000000164e+02 2.335659999999999854e+03
1.360000000000000098e-01 1.692644999999999844e-01 1.631944999999999979e+01 1.330660000000000025e+02 2.335644999999999982e+03
1.370000000000000107e-01 1.692659999999999998e-01 1.634759999999999991e+01 1.332605000000000075e+02 2.335659999999999854e+03
1.380000000000000115e-01 1.692690000000000028e-01 1.639840000000000231e+01 1.334904999999999973e+02 2.335689999999999600e+03
1.390000000000000124e-01 1.692739999999999800e-01 1.646215000000000117e+01 1.337350000000000136e+02 2.335734999999999673e+03
1.400000000000000133e-01 1.692794999999999994e-01 1.653049999999999997e+01 1.339739999999999895e+02 2.335789999999999964e+03
1.410000000000000142e-01 1.692845000000000044e-01 1.659615000000000151e+01 1.341940000000000168e+02 2.335840000000000146e+03
1.420000000000000151e-01 1.692894999999999817e-01 1.665334999999999965e+01 1.343840000000000146e+02 2.335894999999999982e+03
1.430000000000000160e-01 1.692940000000000000e-01 1.669794999999999874e+01 1.345369999999999777e+02 2.335940000000000055e+03
1.440000000000000169e-01 1.692974999999999897e-01 1.672719999999999985e+01 1.346490000000000009e+02 2.335980000000000018e+03
1.450000000000000178e-01 1.693000000000000060e-01 1.674030000000000129e+01 1.347214999999999918e+02 2.336005000000000109e+03
1.459999999999999909e-01 1.693020000000000080e-01 1.673750000000000071e+01 1.347584999999999980e+02 2.336024999999999636e+03
1.469999999999999918e-01 1.693029999999999813e-01 1.672044999999999959e+01 1.347665000000000077e+02 2.336034999999999854e+03
1.479999999999999927e-01 1.693034999999999957e-01 1.669190000000000040e+01 1.347549999999999955e+02 2.336039999999999964e+03
1.489999999999999936e-01 1.693029999999999813e-01 1.665514999999999901e+01 1.347334999999999923e+02 2.336045000000000073e+03
1.499999999999999944e-01 1.693029999999999813e-01 1.661380000000000123e+01 1.347124999999999773e+02 2.336039999999999964e+03
1.509999999999999953e-01 1.693029999999999813e-01 1.657175000000000153e+01 1.347019999999999982e+02 2.336039999999999964e+03
1.519999999999999962e-01 1.693029999999999813e-01 1.653225000000000122e+01 1.347099999999999795e+02 2.336045000000000073e+03
1.529999999999999971e-01 1.693040000000000100e-01 1.649814999999999898e+01 1.347439999999999998e+02 2.336055000000000291e+03
1.539999999999999980e-01 1.693054999999999977e-01 1.647149999999999892e+01 1.348059999999999832e+02 2.336065000000000055e+03
1.549999999999999989e-01 1.693069999999999853e-01 1.645345000000000013e+01 1.348985000000000127e+02 2.336090000000000146e+03
1.559999999999999998e-01 1.693100000000000160e-01 1.644419999999999860e+01 1.350185000000000173e+02 2.336114999999999782e+03
1.570000000000000007e-01 1.693135000000000057e-01 1.644324999999999903e+01 1.351634999999999991e+02 2.336149999999999636e+03
1.580000000000000016e-01 1.693180000000000240e-01 1.644924999999999926e+01 1.353269999999999982e+02 2.336194999999999709e+03
1.590000000000000024e-01 1.693224999999999869e-01 1.646034999999999826e+01 1.355014999999999930e+02 2.336244999999999891e+03
