# t [s], A [cm^2], U [cm/s], P [cPa], c [cm/s]
1.000000000000000021e-03 6.347789999999999822e-01 7.634000000000001895e-03 1.096204999999999927e+02 1.849865000000000009e+03
2.000000000000000042e-03 6.347715000000000440e-01 4.596599999999999298e-03 1.095879999999999939e+02 1.849855000000000018e+03
3.000000000000000062e-03 6.348374999999999435e-01 1.422660000000000036e-01 1.097634999999999934e+02 1.849894999999999982e+03
4.000000000000000083e-03 6.348650000000000126e-01 2.217194999999999860e-01 1.098654999999999973e+02 1.849920000000000073e+03
5.000000000000000104e-03 6.348030000000000062e-01 1.281430000000000069e-01 1.096510000000000105e+02 1.849869999999999891e+03
6.000000000000000125e-03 6.347359999999999669e-01 1.498849999999996019e-02 1.092984999999999900e+02 1.849795000000000073e+03
7.000000000000000146e-03 6.346585000000000143e-01 -1.347199999999999509e-01 1.088249999999999886e+02 1.849690000000000055e+03
8.000000000000000167e-03 6.345134999999999525e-01 -4.433299999999998908e-01 1.080494999999999948e+02 1.849519999999999982e+03
9.000000000000001055e-03 6.342969999999999997e-01 -9.213550000000000351e-01 1.068975000000000080e+02 1.849264999999999873e+03
1.000000000000000194e-02 6.339859999999999385e-01 -1.602540000000000298e+00 1.052605000000000075e+02 1.848900000000000091e+03
1.099999999999999936e-02 6.335640000000000160e-01 -2.496115000000000084e+00 1.030479500000000002e+02 1.848394999999999982e+03
1.200000000000000025e-02 6.330869999999999553e-01 -3.457034999999999414e+00 1.004045500000000004e+02 1.847784999999999854e+03
1.300000000000000114e-02 6.326530000000000209e-01 -4.234722500000000167e+00 9.769630000000000791e+01 1.847130000000000109e+03
1.400000000000000203e-02 6.323300000000000587e-01 -4.633897499999999781e+00 9.528755000000001019e+01 1.846515000000000100e+03
1.499999999999999944e-02 6.321205000000000851e-01 -4.610100000000000087e+00 9.334704999999999586e+01 1.845980000000000018e+03
1.600000000000000033e-02 6.319719999999999782e-01 -4.255900000000000460e+00 9.180965000000000487e+01 1.845515000000000100e+03
1.700000000000000122e-02 6.318170000000000730e-01 -3.727269999999999861e+00 9.045740000000000691e+01 1.845099999999999909e+03
1.800000000000000211e-02 6.316040000000000543e-01 -3.162964500000000179e+00 8.904595000000000482e+01 1.844664999999999964e+03
1.900000000000000300e-02 6.313154999999999184e-01 -2.630061500000000052e+00 8.741640000000001010e+01 1.844195000000000164e+03
2.000000000000000042e-02 6.309715000000000185e-01 -2.112890000000000157e+00 8.554954999999999643e+01 1.843679999999999836e+03
2.100000000000000130e-02 6.306114999999999915e-01 -1.544610000000000039e+00 8.354400000000001114e+01 1.843125000000000000e+03
2.200000000000000219e-02 6.302704999999999558e-01 -8.603099999999999081e-01 8.154089999999999350e+01 1.842565000000000055e+03
2.299999999999999961e-02 6.299609999999999932e-01 -4.255500000000012051e-02 7.963980000000000814e+01 1.842019999999999982e+03
2.400000000000000050e-02 6.296709999999999807e-01 8.589300000000001933e-01 7.784364999999999668e+01 1.841500000000000000e+03
2.500000000000000139e-02 6.293630000000000058e-01 1.735854999999999926e+00 7.604769999999999186e+01 1.840974999999999909e+03
2.600000000000000228e-02 6.289925000000000654e-01 2.450825000000000031e+00 7.407054999999999723e+01 1.840414999999999964e+03
2.700000000000000316e-02 6.285209999999999964e-01 2.877415000000000056e+00 7.171299999999999386e+01 1.839784999999999854e+03
2.800000000000000058e-02 6.279295000000000293e-01 2.938670000000000559e+00 6.882900000000000773e+01 1.839039999999999964e+03
2.900000000000000147e-02 6.272280000000000078e-01 2.631060000000000176e+00 6.538200000000000500e+01 1.838174999999999955e+03
3.000000000000000236e-02 6.264530000000000376e-01 2.024120000000000363e+00 6.146659999999999968e+01 1.837200000000000045e+03
3.099999999999999978e-02 6.256574999999999775e-01 1.237784999999999691e+00 5.728860000000000241e+01 1.836154999999999973e+03
3.200000000000000067e-02 6.248974999999999946e-01 4.080400000000006244e-01 5.311459999999999582e+01 1.835095000000000027e+03
3.300000000000000155e-02 6.242190000000000794e-01 -3.438150000000002038e-01 4.921519999999999584e+01 1.834085000000000036e+03
3.400000000000000244e-02 6.236550000000000704e-01 -9.296999999999999709e-01 4.581875000000000142e+01 1.833174999999999955e+03
3.500000000000000333e-02 6.232199999999999962e-01 -1.300159999999999982e+00 4.308490000000000464e+01 1.832414999999999964e+03
3.600000000000000422e-02 6.229185000000000416e-01 -1.438840000000000119e+00 4.109870000000000090e+01 1.831824999999999818e+03
3.700000000000000511e-02 6.227450000000001040e-01 -1.350899999999999990e+00 3.988054999999999950e+01 1.831414999999999964e+03
3.799999999999999906e-02 6.226905000000000356e-01 -1.049900000000000055e+00 3.940639999999999787e+01 1.831204999999999927e+03
3.899999999999999994e-02 6.227460000000000218e-01 -5.470450000000000035e-01 3.963049999999999784e+01 1.831164999999999964e+03
4.000000000000000083e-02 6.229059999999999597e-01 1.543200000000000127e-01 4.050369999999999493e+01 1.831304999999999836e+03
4.100000000000000172e-02 6.231664999999999566e-01 1.058104999999999851e+00 4.198319999999999652e+01 1.831605000000000018e+03
4.200000000000000261e-02 6.235245000000000370e-01 2.170135000000000147e+00 4.403265000000000384e+01 1.832054999999999836e+03
4.300000000000000350e-02 6.239755000000000162e-01 3.490914999999999768e+00 4.661504999999999654e+01 1.832650000000000091e+03
4.400000000000000439e-02 6.245110000000000383e-01 5.009485000000000632e+00 4.968415000000000248e+01 1.833375000000000000e+03
4.499999999999999833e-02 6.251180000000000625e-01 6.700620500000000312e+00 5.317719999999999914e+01 1.834210000000000036e+03
4.599999999999999922e-02 6.257794999999999330e-01 8.525537500000000435e+00 5.701319999999999766e+01 1.835155000000000200e+03
4.700000000000000011e-02 6.264769999999999506e-01 1.043575499999999856e+01 6.109579999999999700e+01 1.836164999999999964e+03
4.800000000000000100e-02 6.271904999999999841e-01 1.237904999999999944e+01 6.532085000000000719e+01 1.837230000000000018e+03
4.900000000000000189e-02 6.279025000000000301e-01 1.430514999999999937e+01 6.958590000000000941e+01 1.838325000000000045e+03
5.000000000000000278e-02 6.285984999999999490e-01 1.617088499999999840e+01 7.379999999999999716e+01 1.839420000000000073e+03
5.100000000000000366e-02 6.292685000000000084e-01 1.794359999999999999e+01 7.789119999999999777e+01 1.840500000000000000e+03
5.200000000000000455e-02 6.299080000000000235e-01 1.960219999999999985e+01 8.181104999999999450e+01 1.841545000000000073e+03
5.300000000000000544e-02 6.305140000000000189e-01 2.113680000000000092e+01 8.553594999999999970e+01 1.842555000000000064e+03
5.399999999999999939e-02 6.310915000000000274e-01 2.254720000000000013e+01 8.906499999999999773e+01 1.843519999999999982e+03
5.500000000000000028e-02 6.316424999999999956e-01 2.384019999999999939e+01 9.241575000000000273e+01 1.844445000000000164e+03
5.600000000000000117e-02 6.321749999999999314e-01 2.502734999999999843e+01 9.561945000000000050e+01 1.845335000000000036e+03
5.700000000000000205e-02 6.326964999999999950e-01 2.612315000000000254e+01 9.871520000000001005e+01 1.846194999999999936e+03
5.800000000000000294e-02 6.332124999999999559e-01 2.714249999999999829e+01 1.017447999999999979e+02 1.847035000000000082e+03
5.900000000000000383e-02 6.337295000000000567e-01 2.809939999999999927e+01 1.047472999999999956e+02 1.847865000000000009e+03
6.000000000000000472e-02 6.342514999999999681e-01 2.900540000000000163e+01 1.077554999999999978e+02 1.848700000000000045e+03
6.099999999999999867e-02 6.347814999999999985e-01 2.986840000000000117e+01 1.107909999999999968e+02 1.849530000000000200e+03
6.199999999999999956e-02 6.353189999999999671e-01 3.069174999999999898e+01 1.138629999999999995e+02 1.850375000000000000e+03
6.300000000000000044e-02 6.358630000000000670e-01 3.147415000000000163e+01 1.169664999999999964e+02 1.851220000000000027e+03
6.400000000000000133e-02 6.364079999999999737e-01 3.221000000000000085e+01 1.200835000000000008e+02 1.852075000000000045e+03
6.500000000000000222e-02 6.369479999999999587e-01 3.288989999999999725e+01 1.231854999999999905e+02 1.852920000000000073e+03
6.600000000000000311e-02 6.374770000000000714e-01 3.350220000000000198e+01 1.262339999999999947e+02 1.853764999999999873e+03
6.700000000000000400e-02 6.379865000000000119e-01 3.403430000000000177e+01 1.291864999999999952e+02 1.854579999999999927e+03
6.800000000000000488e-02 6.384695000000000231e-01 3.447379999999999711e+01 1.320004999999999882e+02 1.855365000000000009e+03
6.900000000000000577e-02 6.389195000000000846e-01 3.480975000000000108e+01 1.346349999999999909e+02 1.856105000000000018e+03
7.000000000000000666e-02 6.393314999999999415e-01 3.503345000000000198e+01 1.370534999999999854e+02 1.856789999999999964e+03
7.100000000000000755e-02 6.397005000000000052e-01 3.513875000000000171e+01 1.392289999999999850e+02 1.857414999999999964e+03
7.200000000000000844e-02 6.400244999999999962e-01 3.512265000000000015e+01 1.411394999999999982e+02 1.857980000000000018e+03
7.300000000000000933e-02 6.403014999999999679e-01 3.498525000000000063e+01 1.427760000000000105e+02 1.858469999999999800e+03
7.399999999999999634e-02 6.405330000000000190e-01 3.472979999999999734e+01 1.441349999999999909e+02 1.858889999999999873e+03
7.499999999999999722e-02 6.407190000000000385e-01 3.436254999999999882e+01 1.452225000000000250e+02 1.859235000000000127e+03
7.599999999999999811e-02 6.408629999999999605e-01 3.389270000000000493e+01 1.460540000000000020e+02 1.859509999999999991e+03
7.699999999999999900e-02 6.409690000000000110e-01 3.333204999999999529e+01 1.466494999999999891e+02 1.859724999999999909e+03
7.799999999999999989e-02 6.410409999999999719e-01 3.269474999999999909e+01 1.470355000000000132e+02 1.859875000000000000e+03
7.900000000000000078e-02 6.410854999999999748e-01 3.199669999999999703e+01 1.472445000000000164e+02 1.859974999999999909e+03
8.000000000000000167e-02 6.411070000000000935e-01 3.125469999999999970e+01 1.473095000000000141e+02 1.860029999999999973e+03
8.100000000000000255e-02 6.411130000000000440e-01 3.048605000000000231e+01 1.472669999999999959e+02 1.860054999999999836e+03
8.200000000000000344e-02 6.411080000000000112e-01 2.970720000000000027e+01 1.471500000000000057e+02 1.860049999999999955e+03
8.300000000000000433e-02 6.410970000000000280e-01 2.893339999999999890e+01 1.469915000000000020e+02 1.860034999999999854e+03
8.400000000000000522e-02 6.410850000000000160e-01 2.817735000000000056e+01 1.468179999999999836e+02 1.860005000000000109e+03
8.500000000000000611e-02 6.410744999999999916e-01 2.744890000000000185e+01 1.466525000000000034e+02 1.859970000000000027e+03
8.600000000000000699e-02 6.410674999999999013e-01 2.675455000000000183e+01 1.465085000000000264e+02 1.859940000000000055e+03
8.700000000000000788e-02 6.410644999999999261e-01 2.609724999999999895e+01 1.463935000000000173e+02 1.859904999999999973e+03
8.800000000000000877e-02 6.410649999999999959e-01 2.547654999999999959e+01 1.463079999999999927e+02 1.859880000000000109e+03
8.899999999999999578e-02 6.410675000000000123e-01 2.488889999999999958e+01 1.462459999999999809e+02 1.859865000000000009e+03
8.999999999999999667e-02 6.410690000000000000e-01 2.432829999999999870e+01 1.461935000000000002e+02 1.859845000000000027e+03
9.099999999999999756e-02 6.410675000000000123e-01 2.378659999999999997e+01 1.461349999999999909e+02 1.859824999999999818e+03
9.199999999999999845e-02 6.410580000000000167e-01 2.325459999999999994e+01 1.460520000000000209e+02 1.859799999999999955e+03
9.299999999999999933e-02 6.410385000000000666e-01 2.272254999999999825e+01 1.459219999999999970e+02 1.859764999999999873e+03
9.400000000000000022e-02 6.410050000000000470e-01 2.218064999999999998e+01 1.457259999999999991e+02 1.859715000000000146e+03
9.500000000000000111e-02 6.409549999999999415e-01 2.162010000000000076e+01 1.454449999999999932e+02 1.859639999999999873e+03
9.600000000000000200e-02 6.408864999999999146e-01 2.103354999999999819e+01 1.450645000000000095e+02 1.859549999999999955e+03
9.700000000000000289e-02 6.407970000000000610e-01 2.041535000000000011e+01 1.445729999999999791e+02 1.859424999999999955e+03
9.800000000000000377e-02 6.406870000000000065e-01 1.976255000000000095e+01 1.439644999999999868e+02 1.859275000000000091e+03
9.900000000000000466e-02 6.405575000000000019e-01 1.907485000000000142e+01 1.432400000000000091e+02 1.859094999999999800e+03
1.000000000000000056e-01 6.404090000000000060e-01 1.835454999999999970e+01 1.424064999999999941e+02 1.858884999999999991e+03
1.010000000000000064e-01 6.402449999999999530e-01 1.760699999999999932e+01 1.414750000000000227e+02 1.858650000000000091e+03
1.020000000000000073e-01 6.400689999999999991e-01 1.683995000000000175e+01 1.404654999999999916e+02 1.858389999999999873e+03
1.030000000000000082e-01 6.398850000000000371e-01 1.606344999999999956e+01 1.393990000000000009e+02 1.858119999999999891e+03
1.040000000000000091e-01 6.396975000000000300e-01 1.528904999999999959e+01 1.383034999999999854e+02 1.857835000000000036e+03
1.050000000000000100e-01 6.395124999999999282e-01 1.452927500000000194e+01 1.372069999999999936e+02 1.857545000000000073e+03
1.059999999999999970e-01 6.393340000000000689e-01 1.379688000000000159e+01 1.361374999999999886e+02 1.857259999999999991e+03
1.069999999999999979e-01 6.391670000000000407e-01 1.310422499999999957e+01 1.351245000000000118e+02 1.856990000000000009e+03
1.079999999999999988e-01 6.390160000000000284e-01 1.246240000000000059e+01 1.341924999999999955e+02 1.856730000000000018e+03
1.089999999999999997e-01 6.388830000000000897e-01 1.188095500000000015e+01 1.333629999999999995e+02 1.856500000000000000e+03
1.100000000000000006e-01 6.387715000000000476e-01 1.136698999999999948e+01 1.326529999999999916e+02 1.856289999999999964e+03
1.110000000000000014e-01 6.386830000000000007e-01 1.092519500000000043e+01 1.320729999999999791e+02 1.856119999999999891e+03
1.120000000000000023e-01 6.386169999999999902e-01 1.055757000000000012e+01 1.316274999999999977e+02 1.855980000000000018e+03
1.130000000000000032e-01 6.385730000000000572e-01 1.026339499999999916e+01 1.313154999999999859e+02 1.855875000000000000e+03
1.140000000000000041e-01 6.385499999999999510e-01 1.003947499999999948e+01 1.311304999999999836e+02 1.855799999999999955e+03
1.150000000000000050e-01 6.385445000000000704e-01 9.880615000000000592e+00 1.310595000000000141e+02 1.855759999999999991e+03
1.160000000000000059e-01 6.385549999999999837e-01 9.779730000000000700e+00 1.310889999999999986e+02 1.855740000000000009e+03
1.170000000000000068e-01 6.385775000000000201e-01 9.728674999999999073e+00 1.312005000000000052e+02 1.855755000000000109e+03
1.180000000000000077e-01 6.386089999999999822e-01 9.718585000000000917e+00 1.313750000000000000e+02 1.855775000000000091e+03
1.190000000000000085e-01 6.386465000000000058e-01 9.740449999999999164e+00 1.315925000000000011e+02 1.855820000000000164e+03
1.200000000000000094e-01 6.386864999999999348e-01 9.785450000000000870e+00 1.318354999999999961e+02 1.855869999999999891e+03
1.209999999999999964e-01 6.387270000000000447e-01 9.845304999999999751e+00 1.320879999999999939e+02 1.855925000000000182e+03
1.219999999999999973e-01 6.387655000000000971e-01 9.912770000000000081e+00 1.323360000000000127e+02 1.855980000000000018e+03
1.229999999999999982e-01 6.388009999999999522e-01 9.981474999999999653e+00 1.325674999999999955e+02 1.856039999999999964e+03
1.239999999999999991e-01 6.388320000000000665e-01 1.004626000000000019e+01 1.327755000000000223e+02 1.856090000000000146e+03
1.250000000000000000e-01 6.388580000000000370e-01 1.010323999999999955e+01 1.329540000000000077e+02 1.856139999999999873e+03
1.260000000000000009e-01 6.388785000000000158e-01 1.014961999999999875e+01 1.331005000000000109e+02 1.856174999999999955e+03
1.270000000000000018e-01 6.388940000000000730e-01 1.018373000000000062e+01 1.332144999999999868e+02 1.856210000000000036e+03
1.280000000000000027e-01 6.389044999999999863e-01 1.020502000000000109e+01 1.332990000000000066e+02 1.856235000000000127e+03
1.290000000000000036e-01 6.389110000000000067e-01 1.021385500000000057e+01 1.333575000000000159e+02 1.856255000000000109e+03
1.300000000000000044e-01 6.389145000000000518e-01 1.021130000000000138e+01 1.333944999999999936e+02 1.856269999999999982e+03
1.310000000000000053e-01 6.389164999999999983e-01 1.019918000000000013e+01 1.334164999999999850e+02 1.856279999999999973e+03
1.320000000000000062e-01 6.389175000000000271e-01 1.017974500000000049e+01 1.334304999999999950e+02 1.856280000000000200e+03
1.330000000000000071e-01 6.389184999999999448e-01 1.015554000000000023e+01 1.334420000000000073e+02 1.856289999999999964e+03
1.340000000000000080e-01 6.389215000000000311e-01 1.012911000000000072e+01 1.334574999999999818e+02 1.856300000000000182e+03
1.350000000000000089e-01 6.389264999999999528e-01 1.010286999999999935e+01 1.334819999999999993e+02 1.856305000000000064e+03
1.360000000000000098e-01 6.389344999999999608e-01 1.007901000000000025e+01 1.335200000000000102e+02 1.856320000000000164e+03
1.370000000000000107e-01 6.389449999999999852e-01 1.005909000000000120e+01 1.335754999999999768e+02 1.856329999999999927e+03
1.380000000000000115e-01 6.389590000000000547e-01 1.004429499999999997e+01 1.336490000000000009e+02 1.856349999999999909e+03
1.390000000000000124e-01 6.389765000000000583e-01 1.003513500000000036e+01 1.337395000000000209e+02 1.856375000000000000e+03
1.400000000000000133e-01 6.389970000000000372e-01 1.003141000000000105e+01 1.338469999999999800e+02 1.856404999999999973e+03
1.410000000000000142e-01 6.390190000000000037e-01 1.003254500000000071e+01 1.339685000000000059e+02 1.856434999999999945e+03
1.420000000000000151e-01 6.390430000000000277e-01 1.003744999999999976e+01 1.340994999999999777e+02 1.856465000000000146e+03
1.430000000000000160e-01 6.390670000000000517e-01 1.004474499999999892e+01 1.342359999999999900e+02 1.856505000000000109e+03
1.440000000000000169e-01 6.390909999999999647e-01 1.005306000000000033e+01 1.343725000000000023e+02 1.856539999999999964e+03
1.450000000000000178e-01 6.391139999999999599e-01 1.006092999999999904e+01 1.345060000000000002e+02 1.856574999999999818e+03
1.459999999999999909e-01 6.391354999999999675e-01 1.006719000000000008e+01 1.346310000000000002e+02 1.856605000000000018e+03
1.469999999999999918e-01 6.391549999999999176e-01 1.007095500000000143e+01 1.347450000000000045e+02 1.856634999999999991e+03
1.479999999999999927e-01 6.391715000000000035e-01 1.007177000000000078e+01 1.348469999999999800e+02 1.856664999999999964e+03
1.489999999999999936e-01 6.391864999999999908e-01 1.006966999999999857e+01 1.349359999999999786e+02 1.856695000000000164e+03
1.499999999999999944e-01 6.391995000000000315e-01 1.006498999999999988e+01 1.350124999999999886e+02 1.856720000000000027e+03
1.509999999999999953e-01 6.392105000000000148e-01 1.005863499999999888e+01 1.350790000000000077e+02 1.856735000000000127e+03
1.519999999999999962e-01 6.392210000000000392e-01 1.005171999999999954e+01 1.351374999999999886e+02 1.856750000000000000e+03
1.529999999999999971e-01 6.392309999999999937e-01 1.004568499999999887e+01 1.351929999999999836e+02 1.856769999999999982e+03
1.539999999999999980e-01 6.392409999999999481e-01 1.004220000000000113e+01 1.352500000000000000e+02 1.856780000000000200e+03
1.549999999999999989e-01 6.392525000000000013e-01 1.004291500000000070e+01 1.353125000000000000e+02 1.856805000000000064e+03
1.559999999999999998e-01 6.392660000000000009e-01 1.004954000000000036e+01 1.353855000000000075e+02 1.856820000000000164e+03
1.570000000000000007e-01 6.392830000000000457e-01 1.006374500000000083e+01 1.354735000000000014e+02 1.856840000000000146e+03
1.580000000000000016e-01 6.393029999999999546e-01 1.008702500000000057e+01 1.355824999999999818e+02 1.856869999999999891e+03
1.590000000000000024e-01 6.393275000000000485e-01 1.012080500000000072e+01 1.357144999999999868e+02 1.856900000000000091e+03
