# t [s], A [cm^2], U [cm/s], P [cPa], c [cm/s]
1.000000000000000021e-03 1.699029999999999985e-01 4.485842550000000428e-01 9.092529999999999291e+01 2.122750000000000000e+03
2.000000000000000042e-03 1.698430000000000217e-01 2.097175500000000081e+00 8.710630000000000450e+01 2.122195000000000164e+03
3.000000000000000062e-03 1.697019999999999917e-01 4.076835999999999238e+00 8.198994999999999322e+01 2.120935000000000400e+03
4.000000000000000083e-03 1.695234999999999936e-01 6.297079999999999345e+00 7.689764999999999873e+01 2.119355000000000018e+03
5.000000000000000104e-03 1.693445000000000089e-01 8.633924999999999628e+00 7.278199999999999648e+01 2.117789999999999964e+03
6.000000000000000125e-03 1.691794999999999827e-01 1.079950000000000010e+01 6.956359999999999388e+01 2.116364999999999782e+03
7.000000000000000146e-03 1.690280000000000116e-01 1.258266500000000043e+01 6.672520000000000095e+01 2.115085000000000036e+03
8.000000000000000167e-03 1.688939999999999886e-01 1.401485999999999876e+01 6.421649999999999636e+01 2.113974999999999909e+03
9.000000000000001055e-03 1.687830000000000163e-01 1.516595000000000049e+01 6.220354999999999990e+01 2.113060000000000400e+03
1.000000000000000194e-02 1.686934999999999962e-01 1.605624999999999858e+01 6.066505000000000081e+01 2.112340000000000146e+03
1.099999999999999936e-02 1.686245000000000105e-01 1.671300000000000097e+01 5.952944999999999709e+01 2.111789999999999964e+03
1.200000000000000025e-02 1.685730000000000006e-01 1.715305000000000035e+01 5.870479999999999876e+01 2.111385000000000218e+03
1.300000000000000114e-02 1.685320000000000151e-01 1.738139999999999930e+01 5.803154999999999575e+01 2.111085000000000036e+03
1.400000000000000203e-02 1.685004999999999975e-01 1.747465000000000046e+01 5.748935000000000173e+01 2.110850000000000364e+03
1.499999999999999944e-02 1.684835000000000083e-01 1.762465000000000259e+01 5.742494999999999550e+01 2.110730000000000018e+03
1.600000000000000033e-02 1.684944999999999915e-01 1.804809999999999803e+01 5.841029999999999944e+01 2.110829999999999927e+03
1.700000000000000122e-02 1.685450000000000004e-01 1.883684999999999832e+01 6.079424999999999812e+01 2.111244999999999891e+03
1.800000000000000211e-02 1.686340000000000061e-01 1.987725000000000009e+01 6.434315000000000850e+01 2.111970000000000255e+03
1.900000000000000300e-02 1.687454999999999927e-01 2.089334999999999809e+01 6.824264999999999759e+01 2.112890000000000327e+03
2.000000000000000042e-02 1.688540000000000041e-01 2.157219999999999871e+01 7.143205000000000382e+01 2.113800000000000182e+03
2.100000000000000130e-02 1.689335000000000142e-01 2.169774999999999920e+01 7.305549999999999500e+01 2.114489999999999782e+03
2.200000000000000219e-02 1.689680000000000071e-01 2.123154999999999859e+01 7.279955000000001064e+01 2.114805000000000291e+03
2.299999999999999961e-02 1.689550000000000218e-01 2.030920000000000059e+01 7.097350000000000136e+01 2.114735000000000127e+03
2.400000000000000050e-02 1.689070000000000016e-01 1.916624999999999801e+01 6.832054999999999723e+01 2.114364999999999782e+03
2.500000000000000139e-02 1.688430000000000208e-01 1.803314999999999912e+01 6.567440000000000566e+01 2.113849999999999909e+03
2.600000000000000228e-02 1.687815000000000010e-01 1.705255000000000010e+01 6.363309999999999889e+01 2.113335000000000036e+03
2.700000000000000316e-02 1.687330000000000219e-01 1.624725000000000108e+01 6.238609999999999900e+01 2.112929999999999836e+03
2.800000000000000058e-02 1.686989999999999879e-01 1.554240000000000066e+01 6.173414999999999964e+01 2.112640000000000327e+03
2.900000000000000147e-02 1.686735000000000040e-01 1.482070000000000043e+01 6.125450000000000017e+01 2.112425000000000182e+03
3.000000000000000236e-02 1.686469999999999914e-01 1.398590000000000089e+01 6.052320000000000277e+01 2.112199999999999818e+03
3.099999999999999978e-02 1.686110000000000109e-01 1.301050000000000040e+01 5.930704999999999671e+01 2.111909999999999854e+03
3.200000000000000067e-02 1.685634999999999772e-01 1.195485500000000023e+01 5.766559999999999775e+01 2.111530000000000200e+03
3.300000000000000155e-02 1.685105000000000075e-01 1.095145499999999927e+01 5.593554999999999922e+01 2.111090000000000146e+03
3.400000000000000244e-02 1.684620000000000006e-01 1.016180500000000109e+01 5.460840000000000316e+01 2.110684999999999945e+03
3.500000000000000333e-02 1.684309999999999974e-01 9.722145000000001147e+00 5.415255000000000507e+01 2.110420000000000073e+03
3.600000000000000422e-02 1.684284999999999810e-01 9.697715000000000529e+00 5.484519999999999840e+01 2.110375000000000000e+03
3.700000000000000511e-02 1.684585000000000110e-01 1.006043999999999983e+01 5.667235000000000156e+01 2.110605000000000018e+03
3.799999999999999906e-02 1.685180000000000011e-01 1.069430499999999995e+01 5.932305000000000206e+01 2.111069999999999709e+03
3.899999999999999994e-02 1.685965000000000102e-01 1.142310000000000159e+01 6.226760000000000161e+01 2.111704999999999927e+03
4.000000000000000083e-02 1.686779999999999946e-01 1.204929999999999879e+01 6.488630000000000564e+01 2.112369999999999891e+03
4.100000000000000172e-02 1.687464999999999937e-01 1.239304999999999879e+01 6.660474999999999568e+01 2.112939999999999600e+03
4.200000000000000261e-02 1.687859999999999916e-01 1.232094999999999985e+01 6.700225000000000364e+01 2.113279999999999745e+03
4.300000000000000350e-02 1.687855000000000050e-01 1.176140000000000008e+01 6.587094999999999345e+01 2.113295000000000073e+03
4.400000000000000439e-02 1.687405000000000155e-01 1.070629999999999882e+01 6.322240000000000748e+01 2.112940000000000055e+03
4.499999999999999833e-02 1.686519999999999964e-01 9.200579999999998648e+00 5.925029999999999575e+01 2.112225000000000364e+03
4.599999999999999922e-02 1.685240000000000071e-01 7.326179999999999914e+00 5.426685000000000514e+01 2.111190000000000055e+03
4.700000000000000011e-02 1.683665000000000023e-01 5.184759500000000187e+00 4.863419999999999987e+01 2.109894999999999982e+03
4.800000000000000100e-02 1.681874999999999898e-01 2.883610000000000007e+00 4.270725000000000193e+01 2.108430000000000291e+03
4.900000000000000189e-02 1.679990000000000094e-01 5.264750000000000263e-01 3.679829999999999757e+01 2.106875000000000000e+03
5.000000000000000278e-02 1.678084999999999993e-01 -1.790340000000000042e+00 3.116424999999999912e+01 2.105300000000000182e+03
5.100000000000000366e-02 1.676249999999999962e-01 -3.978209000000000106e+00 2.601115000000000066e+01 2.103779999999999745e+03
5.200000000000000455e-02 1.674549999999999927e-01 -5.954940000000000566e+00 2.150755000000000194e+01 2.102364999999999782e+03
5.300000000000000544e-02 1.673049999999999815e-01 -7.643755000000000521e+00 1.779840000000000089e+01 2.101114999999999782e+03
5.399999999999999939e-02 1.671799999999999953e-01 -8.973930000000001073e+00 1.501326999999999856e+01 2.100059999999999945e+03
5.500000000000000028e-02 1.670844999999999969e-01 -9.883379999999998944e+00 1.326661499999999982e+01 2.099260000000000218e+03
5.600000000000000117e-02 1.670225000000000182e-01 -1.032291000000000025e+01 1.264993499999999926e+01 2.098724999999999909e+03
5.700000000000000205e-02 1.669984999999999942e-01 -1.026082999999999856e+01 1.321934999999999860e+01 2.098489999999999782e+03
5.800000000000000294e-02 1.670125000000000082e-01 -9.687145000000001005e+00 1.498315000000000019e+01 2.098574999999999818e+03
5.900000000000000383e-02 1.670655000000000057e-01 -8.615840000000000387e+00 1.789339999999999975e+01 2.098980000000000018e+03
6.000000000000000472e-02 1.671555000000000124e-01 -7.084680000000000533e+00 2.184384999999999977e+01 2.099690000000000055e+03
6.099999999999999867e-02 1.672799999999999843e-01 -5.152515000000000178e+00 2.667614999999999981e+01 2.100684999999999945e+03
6.199999999999999956e-02 1.674329999999999985e-01 -2.894480000000000164e+00 3.219304999999999950e+01 2.101925000000000182e+03
6.300000000000000044e-02 1.676090000000000080e-01 -3.963749999999999218e-01 3.817459999999999809e+01 2.103355000000000018e+03
6.400000000000000133e-02 1.678005000000000191e-01 2.251384999999999970e+00 4.439610000000000412e+01 2.104925000000000182e+03
6.500000000000000222e-02 1.680019999999999847e-01 4.959171500000000066e+00 5.064345000000000141e+01 2.106585000000000036e+03
6.600000000000000311e-02 1.682055000000000078e-01 7.642635000000000289e+00 5.672520000000000095e+01 2.108269999999999982e+03
6.700000000000000400e-02 1.684054999999999858e-01 1.022612499999999969e+01 6.248054999999999382e+01 2.109929999999999836e+03
6.800000000000000488e-02 1.685975000000000112e-01 1.264547499999999935e+01 6.778419999999999845e+01 2.111529999999999745e+03
6.900000000000000577e-02 1.687759999999999816e-01 1.485030000000000072e+01 7.254945000000000732e+01 2.113029999999999745e+03
7.000000000000000666e-02 1.689384999999999915e-01 1.680564999999999998e+01 7.672915000000000418e+01 2.114404999999999745e+03
7.100000000000000755e-02 1.690840000000000121e-01 1.849289999999999878e+01 8.031645000000000323e+01 2.115635000000000218e+03
7.200000000000000844e-02 1.692115000000000147e-01 1.991035000000000110e+01 8.334319999999999595e+01 2.116720000000000255e+03
7.300000000000000933e-02 1.693220000000000003e-01 2.107249999999999801e+01 8.587719999999998777e+01 2.117664999999999964e+03
7.399999999999999634e-02 1.694174999999999986e-01 2.200825000000000031e+01 8.801630000000000109e+01 2.118489999999999782e+03
7.499999999999999722e-02 1.695010000000000128e-01 2.275800000000000267e+01 8.988054999999999950e+01 2.119210000000000036e+03
7.599999999999999811e-02 1.695754999999999901e-01 2.336990000000000123e+01 9.160204999999999131e+01 2.119855000000000018e+03
7.699999999999999900e-02 1.696460000000000190e-01 2.389574999999999960e+01 9.331385000000000218e+01 2.120465000000000146e+03
7.799999999999999989e-02 1.697164999999999924e-01 2.438635000000000019e+01 9.513890000000000668e+01 2.121065000000000055e+03
7.900000000000000078e-02 1.697889999999999955e-01 2.488759999999999906e+01 9.718000000000000682e+01 2.121694999999999709e+03
8.000000000000000167e-02 1.698685000000000056e-01 2.543674999999999997e+01 9.951185000000000969e+01 2.122364999999999782e+03
8.100000000000000255e-02 1.699569999999999970e-01 2.606005000000000038e+01 1.021754999999999995e+02 2.123114999999999782e+03
8.200000000000000344e-02 1.700544999999999973e-01 2.677109999999999701e+01 1.051769999999999925e+02 2.123940000000000055e+03
8.300000000000000433e-02 1.701619999999999799e-01 2.757045000000000101e+01 1.084874999999999972e+02 2.124845000000000255e+03
8.400000000000000522e-02 1.702784999999999993e-01 2.844614999999999938e+01 1.120464999999999947e+02 2.125824999999999818e+03
8.500000000000000611e-02 1.704025000000000123e-01 2.937555000000000049e+01 1.157710000000000008e+02 2.126864999999999782e+03
8.600000000000000699e-02 1.705309999999999881e-01 3.032744999999999891e+01 1.195569999999999879e+02 2.127949999999999818e+03
8.700000000000000788e-02 1.706604999999999928e-01 3.126460000000000150e+01 1.232920000000000016e+02 2.129045000000000073e+03
8.800000000000000877e-02 1.707874999999999810e-01 3.214695000000000391e+01 1.268629999999999995e+02 2.130125000000000000e+03
8.899999999999999578e-02 1.709100000000000064e-01 3.293434999999999491e+01 1.301614999999999895e+02 2.131159999999999854e+03
8.999999999999999667e-02 1.710230000000000083e-01 3.358915000000000362e+01 1.330930000000000177e+02 2.132119999999999891e+03
9.099999999999999756e-02 1.711239999999999983e-01 3.407880000000000109e+01 1.355785000000000196e+02 2.132989999999999782e+03
9.199999999999999845e-02 1.712104999999999877e-01 3.437734999999999985e+01 1.375610000000000070e+02 2.133734999999999673e+03
9.299999999999999933e-02 1.712815000000000032e-01 3.446715000000000373e+01 1.390074999999999932e+02 2.134345000000000255e+03
9.400000000000000022e-02 1.713350000000000151e-01 3.433939999999999770e+01 1.399080000000000155e+02 2.134809999999999945e+03
9.500000000000000111e-02 1.713704999999999812e-01 3.399455000000000382e+01 1.402754999999999939e+02 2.135130000000000109e+03
9.600000000000000200e-02 1.713884999999999992e-01 3.344174999999999898e+01 1.401444999999999936e+02 2.135300000000000182e+03
9.700000000000000289e-02 1.713910000000000156e-01 3.269830000000000325e+01 1.395664999999999907e+02 2.135335000000000036e+03
9.800000000000000377e-02 1.713780000000000026e-01 3.178829999999999956e+01 1.386074999999999875e+02 2.135244999999999891e+03
9.900000000000000466e-02 1.713530000000000053e-01 3.074125000000000085e+01 1.373439999999999941e+02 2.135039999999999964e+03
1.000000000000000056e-01 1.713169999999999971e-01 2.959049999999999869e+01 1.358580000000000041e+02 2.134744999999999891e+03
1.010000000000000064e-01 1.712734999999999952e-01 2.837140000000000128e+01 1.342325000000000159e+02 2.134385000000000218e+03
1.020000000000000073e-01 1.712245000000000017e-01 2.711970000000000169e+01 1.325494999999999948e+02 2.133980000000000018e+03
1.030000000000000082e-01 1.711730000000000196e-01 2.586994999999999933e+01 1.308855000000000075e+02 2.133550000000000182e+03
1.040000000000000091e-01 1.711214999999999820e-01 2.465399999999999991e+01 1.293069999999999879e+02 2.133110000000000127e+03
1.050000000000000100e-01 1.710720000000000018e-01 2.349969999999999715e+01 1.278709999999999951e+02 2.132694999999999709e+03
1.059999999999999970e-01 1.710260000000000113e-01 2.242965000000000231e+01 1.266204999999999927e+02 2.132305000000000291e+03
1.069999999999999979e-01 1.709849999999999981e-01 2.146074999999999733e+01 1.255844999999999914e+02 2.131954999999999927e+03
1.079999999999999988e-01 1.709505000000000052e-01 2.060329999999999728e+01 1.247764999999999986e+02 2.131654999999999745e+03
1.089999999999999997e-01 1.709229999999999916e-01 1.986090000000000089e+01 1.241940000000000026e+02 2.131414999999999964e+03
1.100000000000000006e-01 1.709019999999999984e-01 1.923064999999999714e+01 1.238209999999999980e+02 2.131230000000000018e+03
1.110000000000000014e-01 1.708874999999999977e-01 1.870349999999999824e+01 1.236270000000000095e+02 2.131099999999999909e+03
1.120000000000000023e-01 1.708784999999999887e-01 1.826504999999999868e+01 1.235720000000000027e+02 2.131014999999999873e+03
1.130000000000000032e-01 1.708735000000000115e-01 1.789654999999999774e+01 1.236039999999999992e+02 2.130960000000000036e+03
1.140000000000000041e-01 1.708715000000000095e-01 1.757605000000000217e+01 1.236684999999999945e+02 2.130934999999999945e+03
1.150000000000000050e-01 1.708695000000000075e-01 1.728014999999999901e+01 1.237079999999999984e+02 2.130914999999999964e+03
1.160000000000000059e-01 1.708675000000000055e-01 1.698479999999999990e+01 1.236659999999999968e+02 2.130894999999999982e+03
1.170000000000000068e-01 1.708629999999999871e-01 1.666724999999999923e+01 1.234909999999999997e+02 2.130849999999999909e+03
1.180000000000000077e-01 1.708540000000000059e-01 1.630715000000000003e+01 1.231390000000000100e+02 2.130769999999999982e+03
1.190000000000000085e-01 1.708394999999999775e-01 1.588795000000000002e+01 1.225769999999999982e+02 2.130644999999999982e+03
1.200000000000000094e-01 1.708179999999999976e-01 1.539760000000000062e+01 1.217845000000000084e+02 2.130470000000000255e+03
1.209999999999999964e-01 1.707894999999999830e-01 1.482949999999999946e+01 1.207535000000000025e+02 2.130230000000000018e+03
1.219999999999999973e-01 1.707540000000000169e-01 1.418275000000000041e+01 1.194929999999999950e+02 2.129930000000000291e+03
1.229999999999999982e-01 1.707110000000000016e-01 1.346215000000000117e+01 1.180234999999999985e+02 2.129574999999999818e+03
1.239999999999999991e-01 1.706614999999999938e-01 1.267800000000000082e+01 1.163795000000000073e+02 2.129154999999999745e+03
1.250000000000000000e-01 1.706059999999999799e-01 1.184511000000000003e+01 1.146045000000000016e+02 2.128694999999999709e+03
1.260000000000000009e-01 1.705470000000000041e-01 1.098220000000000063e+01 1.127514999999999930e+02 2.128199999999999818e+03
1.270000000000000018e-01 1.704849999999999977e-01 1.011070499999999939e+01 1.108770000000000095e+02 2.127675000000000182e+03
1.280000000000000027e-01 1.704225000000000045e-01 9.253409999999998803e+00 1.090395000000000039e+02 2.127150000000000091e+03
1.290000000000000036e-01 1.703609999999999847e-01 8.433130000000000237e+00 1.072955000000000041e+02 2.126630000000000109e+03
1.300000000000000044e-01 1.703025000000000233e-01 7.671789999999999665e+00 1.056970000000000027e+02 2.126135000000000218e+03
1.310000000000000053e-01 1.702485000000000248e-01 6.988845000000000418e+00 1.042895000000000039e+02 2.125680000000000291e+03
1.320000000000000062e-01 1.702004999999999768e-01 6.400669999999999860e+00 1.031075000000000017e+02 2.125269999999999982e+03
1.330000000000000071e-01 1.701599999999999779e-01 5.919660000000000366e+00 1.021765000000000043e+02 2.124914999999999964e+03
1.340000000000000080e-01 1.701265000000000138e-01 5.553815000000000168e+00 1.015098500000000001e+02 2.124630000000000109e+03
1.350000000000000089e-01 1.701024999999999898e-01 5.306454999999999700e+00 1.011102999999999952e+02 2.124420000000000073e+03
1.360000000000000098e-01 1.700865000000000016e-01 5.176264999999999894e+00 1.009675000000000011e+02 2.124275000000000091e+03
1.370000000000000107e-01 1.700790000000000080e-01 5.157510000000000261e+00 1.010639999999999930e+02 2.124204999999999927e+03
1.380000000000000115e-01 1.700789999999999802e-01 5.240520000000000067e+00 1.013714999999999975e+02 2.124194999999999709e+03
1.390000000000000124e-01 1.700860000000000150e-01 5.412250000000000227e+00 1.018555000000000064e+02 2.124250000000000000e+03
1.400000000000000133e-01 1.700990000000000002e-01 5.657049999999999912e+00 1.024770000000000039e+02 2.124350000000000364e+03
1.410000000000000142e-01 1.701165000000000038e-01 5.957435000000000258e+00 1.031945000000000050e+02 2.124489999999999782e+03
1.420000000000000151e-01 1.701380000000000114e-01 6.294934999999999725e+00 1.039639999999999986e+02 2.124664999999999964e+03
1.430000000000000160e-01 1.701610000000000067e-01 6.650909999999999656e+00 1.047445000000000022e+02 2.124854999999999563e+03
1.440000000000000169e-01 1.701845000000000163e-01 7.007334999999999425e+00 1.054960000000000093e+02 2.125050000000000182e+03
1.450000000000000178e-01 1.702075000000000116e-01 7.347509999999999764e+00 1.061839999999999975e+02 2.125244999999999891e+03
1.459999999999999909e-01 1.702289999999999914e-01 7.656684999999999519e+00 1.067785000000000082e+02 2.125425000000000182e+03
1.469999999999999918e-01 1.702480000000000104e-01 7.922544999999999504e+00 1.072574999999999932e+02 2.125585000000000036e+03
1.479999999999999927e-01 1.702635000000000121e-01 8.135625000000000995e+00 1.076039999999999992e+02 2.125715000000000146e+03
1.489999999999999936e-01 1.702744999999999953e-01 8.289509999999999934e+00 1.078084999999999951e+02 2.125809999999999945e+03
1.499999999999999944e-01 1.702815000000000023e-01 8.380950000000000344e+00 1.078704999999999927e+02 2.125875000000000000e+03
1.509999999999999953e-01 1.702839999999999909e-01 8.409779999999999589e+00 1.077934999999999945e+02 2.125899999999999636e+03
1.519999999999999962e-01 1.702819999999999889e-01 8.378740000000000521e+00 1.075900000000000034e+02 2.125889999999999873e+03
1.529999999999999971e-01 1.702770000000000117e-01 8.293110000000000426e+00 1.072764999999999986e+02 2.125845000000000255e+03
1.539999999999999980e-01 1.702670000000000017e-01 8.160310000000000841e+00 1.068719999999999999e+02 2.125769999999999982e+03
1.549999999999999989e-01 1.702549999999999897e-01 7.989319999999999311e+00 1.064004999999999939e+02 2.125675000000000182e+03
1.559999999999999998e-01 1.702405000000000168e-01 7.790160000000000196e+00 1.058859999999999957e+02 2.125550000000000182e+03
1.570000000000000007e-01 1.702245000000000008e-01 7.573264999999999247e+00 1.053530000000000086e+02 2.125420000000000073e+03
1.580000000000000016e-01 1.702075000000000116e-01 7.348934999999999995e+00 1.048234999999999957e+02 2.125279999999999745e+03
1.590000000000000024e-01 1.701909999999999812e-01 7.126789999999999736e+00 1.043185000000000002e+02 2.125140000000000327e+03
