# t [s], A [cm^2], U [cm/s], P [cPa], c [cm/s]
1.000000000000000021e-03 1.874010000000000120e-01 4.123674700000000137e-01 9.507714999999998895e+01 2.199159999999999854e+03
2.000000000000000042e-03 1.873305000000000109e-01 2.089675499999999797e+00 9.111119999999999663e+01 2.198585000000000036e+03
3.000000000000000062e-03 1.871680000000000010e-01 4.141353999999999758e+00 8.563790000000000191e+01 2.197324999999999818e+03
4.000000000000000083e-03 1.869655000000000067e-01 6.463684999999999903e+00 8.010724999999999341e+01 2.195775000000000091e+03
5.000000000000000104e-03 1.867650000000000143e-01 8.915939999999999088e+00 7.559370000000001255e+01 2.194250000000000000e+03
6.000000000000000125e-03 1.865815000000000112e-01 1.117351000000000028e+01 7.202994999999999948e+01 2.192875000000000000e+03
7.000000000000000146e-03 1.864135000000000097e-01 1.300418499999999966e+01 6.886610000000000298e+01 2.191659999999999854e+03
8.000000000000000167e-03 1.862685000000000035e-01 1.445349999999999824e+01 6.609910000000000707e+01 2.190619999999999891e+03
9.000000000000001055e-03 1.861499999999999821e-01 1.559485000000000099e+01 6.391285000000000593e+01 2.189779999999999745e+03
1.000000000000000194e-02 1.860565000000000135e-01 1.645434999999999803e+01 6.227555000000000263e+01 2.189130000000000109e+03
1.099999999999999936e-02 1.859875000000000000e-01 1.707155000000000200e+01 6.112340000000000373e+01 2.188659999999999854e+03
1.200000000000000025e-02 1.859379999999999922e-01 1.746180000000000021e+01 6.033715000000000117e+01 2.188324999999999818e+03
1.300000000000000114e-02 1.859004999999999963e-01 1.763034999999999997e+01 5.971134999999999593e+01 2.188085000000000036e+03
1.400000000000000203e-02 1.858730000000000104e-01 1.768520000000000181e+01 5.926650000000000063e+01 2.187914999999999964e+03
1.499999999999999944e-02 1.858660000000000034e-01 1.786554999999999893e+01 5.948274999999999579e+01 2.187885000000000218e+03
1.600000000000000033e-02 1.858960000000000057e-01 1.840269999999999939e+01 6.101919999999999789e+01 2.188104999999999563e+03
1.700000000000000122e-02 1.859744999999999870e-01 1.934315000000000140e+01 6.413634999999999309e+01 2.188654999999999745e+03
1.800000000000000211e-02 1.860924999999999940e-01 2.048839999999999861e+01 6.834544999999999959e+01 2.189489999999999782e+03
1.900000000000000300e-02 1.862254999999999883e-01 2.148509999999999920e+01 7.254264999999999475e+01 2.190449999999999818e+03
2.000000000000000042e-02 1.863390000000000046e-01 2.199320000000000164e+01 7.550169999999999959e+01 2.191289999999999964e+03
2.100000000000000130e-02 1.864060000000000161e-01 2.183659999999999712e+01 7.642159999999999798e+01 2.191805000000000291e+03
2.200000000000000219e-02 1.864135000000000097e-01 2.106745000000000090e+01 7.525024999999999409e+01 2.191899999999999636e+03
2.299999999999999961e-02 1.863714999999999955e-01 1.992004999999999981e+01 7.264465000000001282e+01 2.191625000000000000e+03
2.400000000000000050e-02 1.862999999999999934e-01 1.869024999999999892e+01 6.961875000000000568e+01 2.191135000000000218e+03
2.500000000000000139e-02 1.862260000000000026e-01 1.760624999999999929e+01 6.707974999999999000e+01 2.190605000000000018e+03
2.600000000000000228e-02 1.861674999999999858e-01 1.675195000000000078e+01 6.548600000000000421e+01 2.190164999999999964e+03
2.700000000000000316e-02 1.861289999999999889e-01 1.606569999999999965e+01 6.475345000000000084e+01 2.189875000000000000e+03
2.800000000000000058e-02 1.861039999999999917e-01 1.539939999999999998e+01 6.440149999999999864e+01 2.189690000000000055e+03
2.900000000000000147e-02 1.860795000000000088e-01 1.460290000000000177e+01 6.383485000000000298e+01 2.189515000000000327e+03
3.000000000000000236e-02 1.860430000000000139e-01 1.360115000000000052e+01 6.263354999999999961e+01 2.189255000000000109e+03
3.099999999999999978e-02 1.859879999999999867e-01 1.243534999999999968e+01 6.074890000000000612e+01 2.188875000000000000e+03
3.200000000000000067e-02 1.859210000000000029e-01 1.125772999999999868e+01 5.853929999999999723e+01 2.188400000000000091e+03
3.300000000000000155e-02 1.858549999999999924e-01 1.027990499999999940e+01 5.663939999999999486e+01 2.187925000000000182e+03
3.400000000000000244e-02 1.858095000000000163e-01 9.697494999999999976e+00 5.571875000000000000e+01 2.187585000000000036e+03
3.500000000000000333e-02 1.857999999999999929e-01 9.620884999999999465e+00 5.622915000000000418e+01 2.187494999999999891e+03
3.600000000000000422e-02 1.858345000000000136e-01 1.003743000000000052e+01 5.823825000000000074e+01 2.187710000000000036e+03
3.700000000000000511e-02 1.859095000000000053e-01 1.081397499999999923e+01 6.139925000000000210e+01 2.188220000000000255e+03
3.799999999999999906e-02 1.860104999999999953e-01 1.173345000000000127e+01 6.505015000000000214e+01 2.188930000000000291e+03
3.899999999999999994e-02 1.861170000000000047e-01 1.254875000000000007e+01 6.839079999999999870e+01 2.189690000000000055e+03
4.000000000000000083e-02 1.862059999999999826e-01 1.303545000000000087e+01 7.067535000000000878e+01 2.190340000000000146e+03
4.100000000000000172e-02 1.862580000000000069e-01 1.303164999999999907e+01 7.136410000000000764e+01 2.190730000000000018e+03
4.200000000000000261e-02 1.862594999999999945e-01 1.245759999999999934e+01 7.020560000000000400e+01 2.190760000000000218e+03
4.300000000000000350e-02 1.862044999999999950e-01 1.131485999999999947e+01 6.724115000000000464e+01 2.190390000000000327e+03
4.400000000000000439e-02 1.860955000000000248e-01 9.670304999999999040e+00 6.274620000000000175e+01 2.189635000000000218e+03
4.499999999999999833e-02 1.859419999999999962e-01 7.631915000000000227e+00 5.713669999999999760e+01 2.188545000000000073e+03
4.599999999999999922e-02 1.857550000000000034e-01 5.325031000000000070e+00 5.087120000000000175e+01 2.187215000000000146e+03
4.700000000000000011e-02 1.855479999999999907e-01 2.874044999999999739e+00 4.437505000000000166e+01 2.185730000000000018e+03
4.800000000000000100e-02 1.853329999999999977e-01 3.928799999999998960e-01 3.799980000000000047e+01 2.184195000000000164e+03
4.900000000000000189e-02 1.851205000000000211e-01 -2.016960000000000086e+00 3.201594999999999658e+01 2.182664999999999964e+03
5.000000000000000278e-02 1.849200000000000010e-01 -4.263714000000000226e+00 2.662954999999999828e+01 2.181220000000000255e+03
5.100000000000000366e-02 1.847389999999999866e-01 -6.261460000000000470e+00 2.200825000000000031e+01 2.179900000000000091e+03
5.200000000000000455e-02 1.845824999999999827e-01 -7.927925000000000111e+00 1.830294999999999916e+01 2.178760000000000218e+03
5.300000000000000544e-02 1.844574999999999965e-01 -9.185275000000000745e+00 1.565851999999999933e+01 2.177844999999999800e+03
5.399999999999999939e-02 1.843695000000000195e-01 -9.964579999999999771e+00 1.420949500000000043e+01 2.177184999999999945e+03
5.500000000000000028e-02 1.843225000000000002e-01 -1.021229999999999905e+01 1.406500000000000128e+01 2.176820000000000164e+03
5.600000000000000117e-02 1.843199999999999839e-01 -9.897199999999999775e+00 1.528805000000000014e+01 2.176769999999999982e+03
5.700000000000000205e-02 1.843640000000000001e-01 -9.015304999999999680e+00 1.787794999999999845e+01 2.177055000000000291e+03
5.800000000000000294e-02 1.844540000000000068e-01 -7.591965000000000074e+00 2.175985000000000014e+01 2.177659999999999854e+03
5.900000000000000383e-02 1.845870000000000011e-01 -5.680320000000000036e+00 2.678679999999999950e+01 2.178579999999999927e+03
6.000000000000000472e-02 1.847574999999999912e-01 -3.356319999999999748e+00 3.275240000000000151e+01 2.179784999999999854e+03
6.099999999999999867e-02 1.849594999999999989e-01 -7.120049999999999990e-01 3.941040000000000276e+01 2.181204999999999927e+03
6.199999999999999956e-02 1.851835000000000009e-01 2.151860000000000106e+00 4.649769999999999470e+01 2.182800000000000182e+03
6.300000000000000044e-02 1.854224999999999901e-01 5.132431999999999661e+00 5.375489999999999924e+01 2.184514999999999873e+03
6.400000000000000133e-02 1.856685000000000141e-01 8.130245000000000388e+00 6.094229999999999592e+01 2.186279999999999745e+03
6.500000000000000222e-02 1.859124999999999805e-01 1.105374499999999927e+01 6.785094999999999743e+01 2.188045000000000073e+03
6.600000000000000311e-02 1.861474999999999935e-01 1.382258000000000031e+01 7.430979999999999563e+01 2.189755000000000109e+03
6.700000000000000400e-02 1.863695000000000213e-01 1.637085000000000079e+01 8.019044999999999845e+01 2.191369999999999891e+03
6.800000000000000488e-02 1.865729999999999889e-01 1.864995000000000047e+01 8.541134999999999877e+01 2.192869999999999891e+03
6.900000000000000577e-02 1.867560000000000053e-01 2.063080000000000069e+01 8.994104999999998995e+01 2.194215000000000146e+03
7.000000000000000666e-02 1.869175000000000142e-01 2.230509999999999948e+01 9.379885000000000161e+01 2.195409999999999854e+03
7.100000000000000755e-02 1.870570000000000010e-01 2.368520000000000181e+01 9.705289999999999395e+01 2.196454999999999927e+03
7.200000000000000844e-02 1.871789999999999843e-01 2.480189999999999984e+01 9.981465000000000032e+01 2.197360000000000127e+03
7.300000000000000933e-02 1.872854999999999936e-01 2.570080000000000098e+01 1.022253000000000043e+02 2.198159999999999854e+03
7.399999999999999634e-02 1.873815000000000064e-01 2.643769999999999953e+01 1.044455000000000098e+02 2.198880000000000109e+03
7.499999999999999722e-02 1.874715000000000131e-01 2.707249999999999801e+01 1.066364999999999981e+02 2.199555000000000291e+03
7.599999999999999811e-02 1.875620000000000065e-01 2.766329999999999956e+01 1.089459999999999980e+02 2.200225000000000364e+03
7.699999999999999900e-02 1.876555000000000029e-01 2.826174999999999926e+01 1.114934999999999974e+02 2.200925000000000182e+03
7.799999999999999989e-02 1.877570000000000072e-01 2.890820000000000078e+01 1.143619999999999948e+02 2.201675000000000182e+03
7.900000000000000078e-02 1.878684999999999938e-01 2.962910000000000110e+01 1.175895000000000010e+02 2.202489999999999782e+03
8.000000000000000167e-02 1.879905000000000048e-01 3.043585000000000207e+01 1.211724999999999994e+02 2.203385000000000218e+03
8.100000000000000255e-02 1.881234999999999991e-01 3.132459999999999667e+01 1.250644999999999953e+02 2.204360000000000127e+03
8.200000000000000344e-02 1.882655000000000023e-01 3.227754999999999797e+01 1.291834999999999809e+02 2.205394999999999982e+03
8.300000000000000433e-02 1.884135000000000115e-01 3.326550000000000296e+01 1.334219999999999970e+02 2.206484999999999673e+03
8.400000000000000522e-02 1.885640000000000094e-01 3.425050000000000239e+01 1.376554999999999893e+02 2.207590000000000146e+03
8.500000000000000611e-02 1.887135000000000062e-01 3.518965000000000032e+01 1.417515000000000214e+02 2.208684999999999945e+03
8.600000000000000699e-02 1.888569999999999971e-01 3.603815000000000168e+01 1.455819999999999936e+02 2.209744999999999891e+03
8.700000000000000788e-02 1.889905000000000057e-01 3.675279999999999347e+01 1.490294999999999845e+02 2.210735000000000127e+03
8.800000000000000877e-02 1.891109999999999736e-01 3.729514999999999958e+01 1.519950000000000045e+02 2.211630000000000109e+03
8.899999999999999578e-02 1.892149999999999943e-01 3.763354999999999961e+01 1.544039999999999964e+02 2.212404999999999745e+03
8.999999999999999667e-02 1.892999999999999960e-01 3.774564999999999770e+01 1.562074999999999818e+02 2.213045000000000073e+03
9.099999999999999756e-02 1.893650000000000055e-01 3.761910000000000309e+01 1.573865000000000123e+02 2.213534999999999854e+03
9.199999999999999845e-02 1.894084999999999797e-01 3.725229999999999819e+01 1.579504999999999768e+02 2.213869999999999891e+03
9.299999999999999933e-02 1.894310000000000160e-01 3.665415000000000134e+01 1.579340000000000259e+02 2.214054999999999836e+03
9.400000000000000022e-02 1.894345000000000057e-01 3.584304999999999808e+01 1.573940000000000055e+02 2.214099999999999909e+03
9.500000000000000111e-02 1.894200000000000050e-01 3.484555000000000291e+01 1.564069999999999823e+02 2.214010000000000218e+03
9.600000000000000200e-02 1.893914999999999904e-01 3.369460000000000122e+01 1.550600000000000023e+02 2.213809999999999945e+03
9.700000000000000289e-02 1.893500000000000183e-01 3.242754999999999654e+01 1.534480000000000075e+02 2.213515000000000327e+03
9.800000000000000377e-02 1.892989999999999950e-01 3.108395000000000152e+01 1.516680000000000064e+02 2.213154999999999745e+03
9.900000000000000466e-02 1.892424999999999802e-01 2.970389999999999731e+01 1.498139999999999930e+02 2.212739999999999782e+03
1.000000000000000056e-01 1.891829999999999901e-01 2.832584999999999908e+01 1.479730000000000132e+02 2.212309999999999945e+03
1.010000000000000064e-01 1.891234999999999999e-01 2.698519999999999897e+01 1.462230000000000132e+02 2.211875000000000000e+03
1.020000000000000073e-01 1.890665000000000262e-01 2.571265000000000001e+01 1.446279999999999859e+02 2.211454999999999927e+03
1.030000000000000082e-01 1.890145000000000020e-01 2.453314999999999912e+01 1.432375000000000114e+02 2.211065000000000055e+03
1.040000000000000091e-01 1.889684999999999837e-01 2.346490000000000009e+01 1.420840000000000032e+02 2.210719999999999800e+03
1.050000000000000100e-01 1.889295000000000002e-01 2.251870000000000260e+01 1.411829999999999927e+02 2.210429999999999836e+03
1.059999999999999970e-01 1.888985000000000247e-01 2.169764999999999944e+01 1.405314999999999941e+02 2.210195000000000164e+03
1.069999999999999979e-01 1.888755000000000017e-01 2.099739999999999895e+01 1.401084999999999923e+02 2.210019999999999982e+03
1.079999999999999988e-01 1.888595000000000135e-01 2.040644999999999953e+01 1.398779999999999859e+02 2.209890000000000327e+03
1.089999999999999997e-01 1.888495000000000035e-01 1.990724999999999767e+01 1.397905000000000086e+02 2.209805000000000291e+03
1.100000000000000006e-01 1.888440000000000119e-01 1.947744999999999749e+01 1.397860000000000014e+02 2.209755000000000109e+03
1.110000000000000014e-01 1.888400000000000079e-01 1.909134999999999849e+01 1.397975000000000136e+02 2.209725000000000364e+03
1.120000000000000023e-01 1.888364999999999905e-01 1.872175000000000011e+01 1.397579999999999814e+02 2.209689999999999600e+03
1.130000000000000032e-01 1.888309999999999989e-01 1.834159999999999968e+01 1.396014999999999873e+02 2.209644999999999982e+03
1.140000000000000041e-01 1.888210000000000166e-01 1.792575000000000074e+01 1.392694999999999936e+02 2.209574999999999818e+03
1.150000000000000050e-01 1.888055000000000150e-01 1.745285000000000153e+01 1.387164999999999964e+02 2.209460000000000036e+03
1.160000000000000059e-01 1.887829999999999786e-01 1.690634999999999977e+01 1.379085000000000036e+02 2.209295000000000073e+03
1.170000000000000068e-01 1.887515000000000165e-01 1.627590000000000003e+01 1.368280000000000030e+02 2.209065000000000055e+03
1.180000000000000077e-01 1.887114999999999765e-01 1.555780000000000030e+01 1.354774999999999920e+02 2.208769999999999982e+03
1.190000000000000085e-01 1.886619999999999964e-01 1.475500000000000078e+01 1.338745000000000118e+02 2.208414999999999964e+03
1.200000000000000094e-01 1.886045000000000083e-01 1.387749999999999950e+01 1.320545000000000186e+02 2.208000000000000000e+03
1.209999999999999964e-01 1.885410000000000141e-01 1.294095000000000084e+01 1.300665000000000191e+02 2.207529999999999745e+03
1.219999999999999973e-01 1.884715000000000140e-01 1.196591000000000093e+01 1.279699999999999989e+02 2.207025000000000091e+03
1.229999999999999982e-01 1.883984999999999965e-01 1.097647999999999868e+01 1.258324999999999960e+02 2.206494999999999891e+03
1.239999999999999991e-01 1.883250000000000202e-01 9.998764999999998793e+00 1.237224999999999966e+02 2.205954999999999927e+03
1.250000000000000000e-01 1.882520000000000027e-01 9.059155000000000513e+00 1.217085000000000008e+02 2.205425000000000182e+03
1.260000000000000009e-01 1.881829999999999892e-01 8.182835000000000747e+00 1.198520000000000039e+02 2.204914999999999964e+03
1.270000000000000018e-01 1.881190000000000084e-01 7.392409999999999926e+00 1.182090000000000032e+02 2.204444999999999709e+03
1.280000000000000027e-01 1.880624999999999936e-01 6.706699999999999662e+00 1.168215000000000003e+02 2.204019999999999982e+03
1.290000000000000036e-01 1.880140000000000144e-01 6.139800000000000146e+00 1.157185000000000059e+02 2.203659999999999854e+03
1.300000000000000044e-01 1.879760000000000042e-01 5.700544999999999973e+00 1.149155000000000086e+02 2.203369999999999891e+03
1.310000000000000053e-01 1.879470000000000030e-01 5.392244999999999955e+00 1.144155000000000086e+02 2.203149999999999636e+03
1.320000000000000062e-01 1.879284999999999983e-01 5.212754999999999583e+00 1.142055000000000007e+02 2.203005000000000109e+03
1.330000000000000071e-01 1.879194999999999893e-01 5.154835000000000278e+00 1.142630000000000052e+02 2.202930000000000291e+03
1.340000000000000080e-01 1.879190000000000027e-01 5.206749999999999545e+00 1.145525000000000091e+02 2.202914999999999964e+03
1.350000000000000089e-01 1.879270000000000107e-01 5.353044999999999831e+00 1.150349999999999966e+02 2.202965000000000146e+03
1.360000000000000098e-01 1.879405000000000103e-01 5.575454999999999828e+00 1.156620000000000061e+02 2.203059999999999945e+03
1.370000000000000107e-01 1.879600000000000160e-01 5.853875000000000384e+00 1.163849999999999909e+02 2.203195000000000164e+03
1.380000000000000115e-01 1.879824999999999968e-01 6.167370000000000019e+00 1.171544999999999987e+02 2.203355000000000018e+03
1.390000000000000124e-01 1.880060000000000064e-01 6.495090000000000252e+00 1.179219999999999970e+02 2.203524999999999636e+03
1.400000000000000133e-01 1.880304999999999893e-01 6.817199999999999704e+00 1.186434999999999889e+02 2.203699999999999818e+03
1.410000000000000142e-01 1.880530000000000257e-01 7.115619999999999834e+00 1.192810000000000059e+02 2.203864999999999782e+03
1.420000000000000151e-01 1.880729999999999902e-01 7.374729999999999563e+00 1.198009999999999877e+02 2.204010000000000218e+03
1.430000000000000160e-01 1.880890000000000062e-01 7.581879999999999953e+00 1.201809999999999974e+02 2.204130000000000109e+03
1.440000000000000169e-01 1.881015000000000048e-01 7.727789999999999715e+00 1.204039999999999964e+02 2.204220000000000255e+03
1.450000000000000178e-01 1.881079999999999974e-01 7.806789999999999452e+00 1.204629999999999939e+02 2.204275000000000091e+03
1.459999999999999909e-01 1.881094999999999851e-01 7.816834999999999312e+00 1.203590000000000089e+02 2.204289999999999964e+03
1.469999999999999918e-01 1.881059999999999954e-01 7.759440000000000559e+00 1.201014999999999873e+02 2.204264999999999873e+03
1.479999999999999927e-01 1.880964999999999998e-01 7.639355000000000118e+00 1.197055000000000007e+02 2.204210000000000036e+03
1.489999999999999936e-01 1.880835000000000146e-01 7.464150000000000063e+00 1.191935000000000002e+02 2.204109999999999673e+03
1.499999999999999944e-01 1.880664999999999976e-01 7.243585000000000385e+00 1.185919999999999987e+02 2.203994999999999891e+03
1.509999999999999953e-01 1.880465000000000053e-01 6.988974999999999937e+00 1.179290000000000020e+02 2.203850000000000364e+03
1.519999999999999962e-01 1.880244999999999833e-01 6.712415000000000020e+00 1.172349999999999994e+02 2.203690000000000055e+03
1.529999999999999971e-01 1.880014999999999881e-01 6.426045000000000229e+00 1.165379999999999967e+02 2.203524999999999636e+03
1.539999999999999980e-01 1.879780000000000062e-01 6.141370000000000218e+00 1.158635000000000019e+02 2.203355000000000018e+03
1.549999999999999989e-01 1.879560000000000120e-01 5.868615000000000137e+00 1.152330000000000041e+02 2.203195000000000164e+03
1.559999999999999998e-01 1.879345000000000043e-01 5.616279999999999717e+00 1.146634999999999991e+02 2.203034999999999854e+03
1.570000000000000007e-01 1.879155000000000131e-01 5.390805000000000291e+00 1.141659999999999968e+02 2.202894999999999982e+03
1.580000000000000016e-01 1.878984999999999961e-01 5.196410000000000196e+00 1.137464999999999975e+02 2.202769999999999982e+03
1.590000000000000024e-01 1.878834999999999811e-01 5.035090000000000288e+00 1.134035000000000082e+02 2.202654999999999745e+03
