# t [s], A [cm^2], U [cm/s], P [cPa], c [cm/s]
1.000000000000000021e-03 7.128285000000000871e-01 5.045499999999994434e-03 9.103549999999999898e+01 1.660684999999999945e+03
2.000000000000000042e-03 7.128185000000000215e-01 2.520450000000000468e-03 9.100414999999999566e+01 1.660679999999999836e+03
3.000000000000000062e-03 7.128980000000000317e-01 1.392625499999999850e-01 9.115094999999999459e+01 1.660704999999999927e+03
4.000000000000000083e-03 7.129380000000000717e-01 2.285115000000000063e-01 9.125059999999999150e+01 1.660724999999999909e+03
5.000000000000000104e-03 7.128674999999999873e-01 1.466649999999999898e-01 9.107894999999999186e+01 1.660695000000000164e+03
6.000000000000000125e-03 7.127734999999999488e-01 1.532699999999997953e-02 9.074325000000000330e+01 1.660630000000000109e+03
7.000000000000000146e-03 7.126759999999999762e-01 -1.359150000000000080e-01 9.030989999999999895e+01 1.660550000000000182e+03
8.000000000000000167e-03 7.124980000000000757e-01 -4.381950000000000012e-01 8.961629999999999541e+01 1.660409999999999854e+03
9.000000000000001055e-03 7.122334999999999638e-01 -9.053499999999998771e-01 8.859290000000000020e+01 1.660210000000000036e+03
1.000000000000000194e-02 7.118759999999999533e-01 -1.532615000000000061e+00 8.719839999999999236e+01 1.659934999999999945e+03
1.099999999999999936e-02 7.113949999999999996e-01 -2.351609999999999978e+00 8.534335000000000093e+01 1.659559999999999945e+03
1.200000000000000025e-02 7.108045000000000613e-01 -3.315620000000000456e+00 8.303064999999999429e+01 1.659085000000000036e+03
1.300000000000000114e-02 7.101915000000000866e-01 -4.241785000000000139e+00 8.047124999999999773e+01 1.658550000000000182e+03
1.400000000000000203e-02 7.096689999999999943e-01 -4.900373499999999716e+00 7.800549999999999784e+01 1.658000000000000000e+03
1.499999999999999944e-02 7.093019999999999881e-01 -5.141945500000000280e+00 7.592374999999999829e+01 1.657514999999999873e+03
1.600000000000000033e-02 7.090810000000000723e-01 -4.954939999999999678e+00 7.434165000000000134e+01 1.657110000000000127e+03
1.700000000000000122e-02 7.089434999999999487e-01 -4.445710000000000051e+00 7.318165000000000475e+01 1.656775000000000091e+03
1.800000000000000211e-02 7.088030000000000719e-01 -3.778000000000000025e+00 7.223329999999999984e+01 1.656494999999999891e+03
1.900000000000000300e-02 7.085909999999999709e-01 -3.103644999999999765e+00 7.125305000000000177e+01 1.656210000000000036e+03
2.000000000000000042e-02 7.082775000000000043e-01 -2.507909499999999792e+00 7.006250000000000000e+01 1.655894999999999982e+03
2.100000000000000130e-02 7.078789999999999250e-01 -1.990134999999999987e+00 6.860824999999999818e+01 1.655529999999999973e+03
2.200000000000000219e-02 7.074409999999999865e-01 -1.487544999999999895e+00 6.695629999999999882e+01 1.655130000000000109e+03
2.299999999999999961e-02 7.070110000000000561e-01 -9.260099999999999998e-01 6.523279999999999745e+01 1.654710000000000036e+03
2.400000000000000050e-02 7.066154999999999520e-01 -2.686549999999998661e-01 6.354690000000000083e+01 1.654295000000000073e+03
2.500000000000000139e-02 7.062464999999999993e-01 4.582550000000003010e-01 6.193290000000000362e+01 1.653884999999999991e+03
2.600000000000000228e-02 7.058679999999999399e-01 1.166440000000000143e+00 6.032854999999999990e+01 1.653474999999999909e+03
2.700000000000000316e-02 7.054264999999999564e-01 1.727794999999999970e+00 5.858905000000000030e+01 1.653045000000000073e+03
2.800000000000000058e-02 7.048655000000000337e-01 2.008775000000000421e+00 5.652880000000000393e+01 1.652555000000000064e+03
2.900000000000000147e-02 7.041479999999999961e-01 1.907690000000000552e+00 5.397870000000000346e+01 1.651974999999999909e+03
3.000000000000000236e-02 7.032644999999999591e-01 1.384825000000000195e+00 5.084244999999999948e+01 1.651279999999999973e+03
3.099999999999999978e-02 7.022410000000000041e-01 4.754750000000003141e-01 4.713495000000000346e+01 1.650465000000000146e+03
3.200000000000000067e-02 7.011339999999999240e-01 -7.184999999999996945e-01 4.298839999999999861e+01 1.649559999999999945e+03
3.300000000000000155e-02 7.000144999999999840e-01 -2.054734999999999978e+00 3.862709999999999866e+01 1.648599999999999909e+03
3.400000000000000244e-02 6.989549999999999930e-01 -3.381634999999999724e+00 3.432224999999999682e+01 1.647634999999999991e+03
3.500000000000000333e-02 6.980189999999999451e-01 -4.565574999999999939e+00 3.034369999999999834e+01 1.646719999999999800e+03
3.600000000000000422e-02 6.972494999999999665e-01 -5.507354999999999556e+00 2.692070000000000007e+01 1.645900000000000091e+03
3.700000000000000511e-02 6.966714999999999991e-01 -6.147190175000000423e+00 2.421809999999999974e+01 1.645224999999999909e+03
3.799999999999999906e-02 6.962930000000000508e-01 -6.460980000000000167e+00 2.232845000000000013e+01 1.644715000000000146e+03
3.899999999999999994e-02 6.961085000000000189e-01 -6.450725000000000264e+00 2.127810000000000201e+01 1.644384999999999991e+03
4.000000000000000083e-02 6.961049999999999738e-01 -6.133144999999999847e+00 2.104234999999999900e+01 1.644230000000000018e+03
4.100000000000000172e-02 6.962665000000000104e-01 -5.529309999999999725e+00 2.156500000000000128e+01 1.644250000000000000e+03
4.200000000000000261e-02 6.965790000000000592e-01 -4.657971500000000376e+00 2.277599999999999980e+01 1.644434999999999945e+03
4.300000000000000350e-02 6.970279999999999809e-01 -3.533739999999999881e+00 2.460389999999999944e+01 1.644764999999999873e+03
4.400000000000000439e-02 6.976020000000000554e-01 -2.169530000000000403e+00 2.698064999999999714e+01 1.645224999999999909e+03
4.499999999999999833e-02 6.982869999999999910e-01 -5.815400000000003899e-01 2.983984999999999843e+01 1.645809999999999945e+03
4.599999999999999922e-02 6.990674999999999528e-01 1.205810000000000493e+00 3.311195000000000022e+01 1.646490000000000009e+03
4.700000000000000011e-02 6.999245000000000605e-01 3.156934999999999825e+00 3.671950000000000358e+01 1.647265000000000100e+03
4.800000000000000100e-02 7.008345000000000269e-01 5.225059999999999150e+00 4.057435000000000258e+01 1.648105000000000018e+03
4.900000000000000189e-02 7.017724999999999103e-01 7.354969999999999786e+00 4.457925000000000182e+01 1.648985000000000127e+03
5.000000000000000278e-02 7.027120000000000033e-01 9.487785500000001093e+00 4.863255000000000194e+01 1.649894999999999982e+03
5.100000000000000366e-02 7.036295000000000188e-01 1.156640999999999941e+01 5.263504999999999967e+01 1.650809999999999945e+03
5.200000000000000455e-02 7.045055000000000067e-01 1.354066500000000062e+01 5.649794999999999590e+01 1.651704999999999927e+03
5.300000000000000544e-02 7.053260000000000085e-01 1.537073000000000000e+01 6.014934999999999832e+01 1.652565000000000055e+03
5.399999999999999939e-02 7.060809999999999587e-01 1.702955000000000041e+01 6.353909999999999769e+01 1.653380000000000109e+03
5.500000000000000028e-02 7.067685000000000217e-01 1.850269999999999726e+01 6.664070000000000960e+01 1.654139999999999873e+03
5.600000000000000117e-02 7.073920000000000208e-01 1.978760000000000119e+01 6.945040000000000191e+01 1.654840000000000146e+03
5.700000000000000205e-02 7.079569999999999474e-01 2.089144999999999897e+01 7.198494999999999777e+01 1.655480000000000018e+03
5.800000000000000294e-02 7.084730000000000194e-01 2.182900000000000063e+01 7.427740000000000009e+01 1.656069999999999936e+03
5.900000000000000383e-02 7.089520000000000266e-01 2.262079999999999913e+01 7.637284999999999968e+01 1.656610000000000127e+03
6.000000000000000472e-02 7.094065000000000509e-01 2.329115000000000180e+01 7.832399999999999807e+01 1.657119999999999891e+03
6.099999999999999867e-02 7.098489999999999522e-01 2.386694999999999922e+01 8.018774999999999409e+01 1.657599999999999909e+03
6.199999999999999956e-02 7.102935000000000221e-01 2.437590000000000146e+01 8.202119999999999322e+01 1.658070000000000164e+03
6.300000000000000044e-02 7.107505000000000628e-01 2.484539999999999793e+01 8.387829999999999586e+01 1.658539999999999964e+03
6.400000000000000133e-02 7.112315000000000165e-01 2.530060000000000286e+01 8.580665000000000475e+01 1.659019999999999982e+03
6.500000000000000222e-02 7.117434999999999734e-01 2.576265000000000072e+01 8.784375000000000000e+01 1.659519999999999982e+03
6.600000000000000311e-02 7.122899999999999787e-01 2.624690000000000012e+01 9.001429999999999154e+01 1.660045000000000073e+03
6.700000000000000400e-02 7.128725000000000200e-01 2.676174999999999926e+01 9.232789999999999964e+01 1.660595000000000027e+03
6.800000000000000488e-02 7.134869999999999823e-01 2.730805000000000149e+01 9.477779999999999916e+01 1.661174999999999955e+03
6.900000000000000577e-02 7.141264999999999974e-01 2.787884999999999991e+01 9.734125000000000227e+01 1.661789999999999964e+03
7.000000000000000666e-02 7.147799999999999709e-01 2.846079999999999899e+01 9.998080000000000211e+01 1.662409999999999854e+03
7.100000000000000755e-02 7.154355000000000020e-01 2.903525000000000134e+01 1.026487999999999943e+02 1.663045000000000073e+03
7.200000000000000844e-02 7.160779999999999923e-01 2.958034999999999926e+01 1.052890000000000015e+02 1.663679999999999836e+03
7.300000000000000933e-02 7.166945000000000121e-01 3.007274999999999920e+01 1.078425000000000011e+02 1.664295000000000073e+03
7.399999999999999634e-02 7.172715000000000618e-01 3.048979999999999890e+01 1.102524999999999977e+02 1.664880000000000109e+03
7.499999999999999722e-02 7.177964999999999485e-01 3.081080000000000041e+01 1.124645000000000010e+02 1.665430000000000064e+03
7.599999999999999811e-02 7.182604999999999684e-01 3.101849999999999952e+01 1.144339999999999975e+02 1.665924999999999955e+03
7.699999999999999900e-02 7.186565000000000314e-01 3.109994999999999976e+01 1.161274999999999977e+02 1.666365000000000009e+03
7.799999999999999989e-02 7.189805000000000224e-01 3.104710000000000036e+01 1.175215000000000032e+02 1.666735000000000127e+03
7.900000000000000078e-02 7.192304999999999948e-01 3.085699999999999932e+01 1.186045000000000016e+02 1.667034999999999854e+03
8.000000000000000167e-02 7.194085000000000063e-01 3.053184999999999860e+01 1.193795000000000073e+02 1.667275000000000091e+03
8.100000000000000255e-02 7.195190000000000197e-01 3.007885000000000275e+01 1.198594999999999970e+02 1.667434999999999945e+03
8.200000000000000344e-02 7.195670000000000677e-01 2.950954999999999728e+01 1.200670000000000073e+02 1.667529999999999973e+03
8.300000000000000433e-02 7.195620000000000349e-01 2.883944999999999936e+01 1.200345000000000084e+02 1.667569999999999936e+03
8.400000000000000522e-02 7.195120000000000404e-01 2.808725000000000094e+01 1.197999999999999972e+02 1.667559999999999945e+03
8.500000000000000611e-02 7.194285000000000263e-01 2.727344999999999686e+01 1.194070000000000107e+02 1.667505000000000109e+03
8.600000000000000699e-02 7.193214999999999471e-01 2.641995000000000005e+01 1.189000000000000057e+02 1.667420000000000073e+03
8.700000000000000788e-02 7.192009999999999792e-01 2.554870000000000019e+01 1.183255000000000052e+02 1.667309999999999945e+03
8.800000000000000877e-02 7.190775000000000361e-01 2.468055000000000021e+01 1.177249999999999943e+02 1.667190000000000055e+03
8.899999999999999578e-02 7.189594999999999736e-01 2.383455000000000013e+01 1.171384999999999934e+02 1.667065000000000055e+03
8.999999999999999667e-02 7.188535000000000341e-01 2.302684999999999960e+01 1.165979999999999990e+02 1.666944999999999936e+03
9.099999999999999756e-02 7.187654999999999461e-01 2.227009999999999934e+01 1.161304999999999978e+02 1.666840000000000146e+03
9.199999999999999845e-02 7.186989999999999768e-01 2.157335000000000136e+01 1.157524999999999977e+02 1.666744999999999891e+03
9.299999999999999933e-02 7.186550000000000438e-01 2.094134999999999991e+01 1.154749999999999943e+02 1.666670000000000073e+03
9.400000000000000022e-02 7.186325000000000074e-01 2.037480000000000047e+01 1.152984999999999900e+02 1.666615000000000009e+03
9.500000000000000111e-02 7.186310000000000198e-01 1.987059999999999960e+01 1.152159999999999940e+02 1.666585000000000036e+03
9.600000000000000200e-02 7.186455000000000481e-01 1.942235000000000156e+01 1.152145000000000010e+02 1.666569999999999936e+03
9.700000000000000289e-02 7.186710000000000598e-01 1.902045000000000030e+01 1.152759999999999962e+02 1.666575000000000045e+03
9.800000000000000377e-02 7.187019999999999520e-01 1.865319999999999823e+01 1.153754999999999882e+02 1.666585000000000036e+03
9.900000000000000466e-02 7.187324999999999964e-01 1.830730000000000146e+01 1.154879999999999995e+02 1.666594999999999800e+03
1.000000000000000056e-01 7.187555000000001026e-01 1.796855000000000047e+01 1.155835000000000008e+02 1.666615000000000009e+03
1.010000000000000064e-01 7.187649999999999872e-01 1.762284999999999968e+01 1.156364999999999981e+02 1.666619999999999891e+03
1.020000000000000073e-01 7.187550000000000328e-01 1.725690000000000168e+01 1.156200000000000045e+02 1.666615000000000009e+03
1.030000000000000082e-01 7.187200000000000255e-01 1.685885000000000034e+01 1.155120000000000005e+02 1.666595000000000027e+03
1.040000000000000091e-01 7.186574999999999491e-01 1.641914999999999836e+01 1.152934999999999945e+02 1.666550000000000182e+03
1.050000000000000100e-01 7.185645000000000504e-01 1.593104999999999905e+01 1.149524999999999864e+02 1.666474999999999909e+03
1.059999999999999970e-01 7.184405000000000374e-01 1.539100000000000179e+01 1.144834999999999923e+02 1.666380000000000109e+03
1.069999999999999979e-01 7.182865000000000499e-01 1.479895000000000138e+01 1.138859999999999957e+02 1.666250000000000000e+03
1.079999999999999988e-01 7.181049999999999933e-01 1.415820000000000078e+01 1.131689999999999969e+02 1.666095000000000027e+03
1.089999999999999997e-01 7.178999999999999826e-01 1.347559500000000021e+01 1.123454999999999870e+02 1.665914999999999964e+03
1.100000000000000006e-01 7.176770000000000094e-01 1.276071500000000114e+01 1.114370000000000118e+02 1.665715000000000146e+03
1.110000000000000014e-01 7.174420000000000242e-01 1.202576000000000178e+01 1.104669999999999987e+02 1.665494999999999891e+03
1.120000000000000023e-01 7.172024999999999650e-01 1.128467999999999982e+01 1.094650000000000034e+02 1.665275000000000091e+03
1.130000000000000032e-01 7.169649999999999634e-01 1.055245000000000033e+01 1.084600000000000080e+02 1.665039999999999964e+03
1.140000000000000041e-01 7.167384999999999451e-01 9.844524999999999082e+00 1.074844999999999970e+02 1.664815000000000055e+03
1.150000000000000050e-01 7.165280000000000538e-01 9.175744999999999152e+00 1.065680000000000121e+02 1.664595000000000027e+03
1.160000000000000059e-01 7.163410000000000055e-01 8.559665000000000745e+00 1.057369999999999948e+02 1.664394999999999982e+03
1.170000000000000068e-01 7.161809999999999565e-01 8.008079999999999643e+00 1.050155000000000030e+02 1.664214999999999918e+03
1.180000000000000077e-01 7.160530000000000506e-01 7.530235000000000234e+00 1.044214999999999947e+02 1.664059999999999945e+03
1.190000000000000085e-01 7.159590000000000121e-01 7.132564999999999600e+00 1.039664999999999964e+02 1.663934999999999945e+03
1.200000000000000094e-01 7.158999999999999808e-01 6.818399999999999572e+00 1.036585000000000036e+02 1.663840000000000146e+03
1.209999999999999964e-01 7.158744999999999692e-01 6.588010000000000588e+00 1.034959999999999951e+02 1.663784999999999854e+03
1.219999999999999973e-01 7.158809999999999896e-01 6.438645000000000174e+00 1.034729999999999990e+02 1.663755000000000109e+03
1.229999999999999982e-01 7.159170000000000256e-01 6.364850000000000563e+00 1.035790000000000077e+02 1.663759999999999991e+03
1.239999999999999991e-01 7.159769999999999746e-01 6.358844999999999636e+00 1.037975000000000136e+02 1.663789999999999964e+03
1.250000000000000000e-01 7.160564999999999847e-01 6.410989999999999966e+00 1.041090000000000089e+02 1.663840000000000146e+03
1.260000000000000009e-01 7.161509999999999820e-01 6.510320000000000107e+00 1.044920000000000044e+02 1.663909999999999854e+03
1.270000000000000018e-01 7.162545000000000162e-01 6.645089999999999719e+00 1.049240000000000066e+02 1.664000000000000000e+03
1.280000000000000027e-01 7.163619999999999433e-01 6.803300000000000125e+00 1.053820000000000050e+02 1.664095000000000027e+03
1.290000000000000036e-01 7.164675000000000349e-01 6.973184999999999967e+00 1.058435000000000059e+02 1.664190000000000055e+03
1.300000000000000044e-01 7.165680000000000938e-01 7.143684999999999619e+00 1.062895000000000039e+02 1.664284999999999854e+03
1.310000000000000053e-01 7.166589999999999350e-01 7.304795000000000371e+00 1.067025000000000006e+02 1.664384999999999991e+03
1.320000000000000062e-01 7.167379999999999862e-01 7.447879999999999612e+00 1.070670000000000073e+02 1.664464999999999918e+03
1.330000000000000071e-01 7.168019999999999392e-01 7.565905000000000769e+00 1.073735000000000070e+02 1.664539999999999964e+03
1.340000000000000080e-01 7.168499999999999872e-01 7.653590000000000337e+00 1.076129999999999995e+02 1.664599999999999909e+03
1.350000000000000089e-01 7.168814999999999493e-01 7.707480000000000331e+00 1.077835000000000036e+02 1.664650000000000091e+03
1.360000000000000098e-01 7.168969999999998954e-01 7.725925000000000153e+00 1.078834999999999980e+02 1.664679999999999836e+03
1.370000000000000107e-01 7.168974999999999653e-01 7.709049999999999514e+00 1.079164999999999992e+02 1.664695000000000164e+03
1.380000000000000115e-01 7.168835000000000068e-01 7.658599999999999852e+00 1.078880000000000052e+02 1.664700000000000045e+03
1.390000000000000124e-01 7.168590000000000240e-01 7.577739999999999476e+00 1.078054999999999950e+02 1.664690000000000055e+03
1.400000000000000133e-01 7.168250000000000455e-01 7.470855000000000246e+00 1.076790000000000020e+02 1.664664999999999964e+03
1.410000000000000142e-01 7.167854999999999643e-01 7.343230000000000146e+00 1.075204999999999984e+02 1.664640000000000100e+03
1.420000000000000151e-01 7.167419999999999902e-01 7.200770000000000337e+00 1.073414999999999964e+02 1.664605000000000018e+03
1.430000000000000160e-01 7.166980000000000572e-01 7.049694999999999823e+00 1.071535000000000082e+02 1.664565000000000055e+03
1.440000000000000169e-01 7.166559999999999597e-01 6.896149999999999558e+00 1.069680000000000035e+02 1.664525000000000091e+03
1.450000000000000178e-01 7.166185000000000471e-01 6.745964999999999989e+00 1.067950000000000017e+02 1.664490000000000009e+03
1.459999999999999909e-01 7.165870000000000850e-01 6.604334999999999845e+00 1.066440000000000055e+02 1.664454999999999927e+03
1.469999999999999918e-01 7.165630000000000610e-01 6.475585000000000591e+00 1.065215000000000032e+02 1.664430000000000064e+03
1.479999999999999927e-01 7.165475000000000039e-01 6.363010000000000055e+00 1.064320000000000022e+02 1.664405000000000200e+03
1.489999999999999936e-01 7.165399999999999547e-01 6.268745000000000012e+00 1.063780000000000001e+02 1.664389999999999873e+03
1.499999999999999944e-01 7.165410000000000945e-01 6.193749999999999645e+00 1.063594999999999970e+02 1.664380000000000109e+03
1.509999999999999953e-01 7.165500000000000203e-01 6.137839999999999741e+00 1.063744999999999976e+02 1.664384999999999991e+03
1.519999999999999962e-01 7.165650000000000075e-01 6.099795000000000300e+00 1.064175000000000040e+02 1.664389999999999873e+03
1.529999999999999971e-01 7.165844999999999576e-01 6.077515000000000001e+00 1.064834999999999923e+02 1.664400000000000091e+03
1.539999999999999980e-01 7.166069999999999940e-01 6.068220000000000169e+00 1.065660000000000025e+02 1.664414999999999964e+03
1.549999999999999989e-01 7.166304999999999481e-01 6.068674999999999820e+00 1.066564999999999941e+02 1.664434999999999945e+03
1.559999999999999998e-01 7.166535000000000544e-01 6.075419999999999376e+00 1.067479999999999905e+02 1.664454999999999927e+03
1.570000000000000007e-01 7.166734999999999634e-01 6.084984999999999644e+00 1.068329999999999984e+02 1.664474999999999909e+03
1.580000000000000016e-01 7.166905000000000081e-01 6.094084999999999752e+00 1.069044999999999987e+02 1.664485000000000127e+03
1.590000000000000024e-01 7.167010000000000325e-01 6.099800000000000111e+00 1.069565000000000055e+02 1.664500000000000000e+03
