# t [s], A [cm^2], U [cm/s], P [cPa], c [cm/s]
1.000000000000000021e-03 1.419664999999999955e-01 3.789535000000000542e-01 9.817459999999999809e+01 1.783664999999999964e+03
2.000000000000000042e-03 1.419354999999999922e-01 2.051167500000000032e+00 9.499224999999999852e+01 1.783320000000000164e+03
3.000000000000000062e-03 1.418280000000000096e-01 4.067913499999999516e+00 9.084409999999999741e+01 1.782194999999999936e+03
4.000000000000000083e-03 1.416709999999999914e-01 6.290448000000000484e+00 8.632554999999999268e+01 1.780585000000000036e+03
5.000000000000000104e-03 1.414924999999999933e-01 8.661194999999999311e+00 8.218635000000000446e+01 1.778760000000000218e+03
6.000000000000000125e-03 1.413125000000000075e-01 1.105239000000000082e+01 7.874985000000000923e+01 1.776949999999999818e+03
7.000000000000000146e-03 1.411405000000000021e-01 1.328825000000000145e+01 7.590385000000000559e+01 1.775240000000000009e+03
8.000000000000000167e-03 1.409794999999999798e-01 1.525239499999999992e+01 7.340430000000000632e+01 1.773654999999999973e+03
9.000000000000001055e-03 1.408314999999999984e-01 1.693905000000000172e+01 7.117175000000000296e+01 1.772224999999999909e+03
1.000000000000000194e-02 1.407005000000000061e-01 1.838524999999999920e+01 6.925674999999999670e+01 1.770974999999999909e+03
1.099999999999999936e-02 1.405875000000000041e-01 1.961135000000000161e+01 6.767525000000000546e+01 1.769905000000000200e+03
1.200000000000000025e-02 1.404920000000000058e-01 2.062919999999999732e+01 6.638984999999999559e+01 1.769005000000000109e+03
1.300000000000000114e-02 1.404120000000000090e-01 2.145340000000000202e+01 6.535609999999999786e+01 1.768275000000000091e+03
1.400000000000000203e-02 1.403475000000000139e-01 2.209490000000000265e+01 6.452174999999999727e+01 1.767675000000000182e+03
1.499999999999999944e-02 1.402930000000000010e-01 2.256370000000000076e+01 6.382224999999999682e+01 1.767190000000000055e+03
1.600000000000000033e-02 1.402484999999999982e-01 2.289294999999999902e+01 6.323069999999999879e+01 1.766800000000000182e+03
1.700000000000000122e-02 1.402130000000000043e-01 2.315650000000000119e+01 6.282349999999999568e+01 1.766494999999999891e+03
1.800000000000000211e-02 1.401915000000000244e-01 2.345649999999999835e+01 6.278209999999999980e+01 1.766315000000000055e+03
1.900000000000000300e-02 1.401884999999999937e-01 2.388374999999999915e+01 6.331015000000000725e+01 1.766305000000000064e+03
2.000000000000000042e-02 1.402085000000000137e-01 2.447599999999999909e+01 6.451484999999999559e+01 1.766505000000000109e+03
2.100000000000000130e-02 1.402519999999999878e-01 2.519910000000000139e+01 6.632635000000000502e+01 1.766925000000000182e+03
2.200000000000000219e-02 1.403149999999999953e-01 2.595729999999999649e+01 6.849389999999999645e+01 1.767519999999999982e+03
2.299999999999999961e-02 1.403869999999999840e-01 2.662545000000000073e+01 7.065559999999999263e+01 1.768215000000000146e+03
2.400000000000000050e-02 1.404584999999999861e-01 2.708840000000000003e+01 7.244450000000000500e+01 1.768909999999999854e+03
2.500000000000000139e-02 1.405190000000000050e-01 2.727320000000000277e+01 7.359110000000001151e+01 1.769500000000000000e+03
2.600000000000000228e-02 1.405609999999999915e-01 2.716489999999999938e+01 7.398734999999999218e+01 1.769920000000000073e+03
2.700000000000000316e-02 1.405814999999999981e-01 2.680400000000000205e+01 7.369785000000000252e+01 1.770144999999999982e+03
2.800000000000000058e-02 1.405830000000000135e-01 2.626825000000000188e+01 7.292085000000000150e+01 1.770179999999999836e+03
2.900000000000000147e-02 1.405699999999999728e-01 2.564675000000000082e+01 7.191570000000000107e+01 1.770079999999999927e+03
3.000000000000000236e-02 1.405489999999999795e-01 2.501545000000000130e+01 7.092510000000000048e+01 1.769900000000000091e+03
3.099999999999999978e-02 1.405270000000000130e-01 2.442049999999999699e+01 7.011520000000000152e+01 1.769695000000000164e+03
3.200000000000000067e-02 1.405069999999999930e-01 2.387355000000000160e+01 6.954720000000000368e+01 1.769505000000000109e+03
3.300000000000000155e-02 1.404914999999999914e-01 2.335770000000000124e+01 6.918424999999999159e+01 1.769355000000000018e+03
3.400000000000000244e-02 1.404785000000000061e-01 2.283990000000000009e+01 6.892359999999999332e+01 1.769235000000000127e+03
3.500000000000000333e-02 1.404670000000000085e-01 2.228665000000000163e+01 6.864199999999999591e+01 1.769125000000000000e+03
3.600000000000000422e-02 1.404529999999999945e-01 2.167735000000000056e+01 6.824020000000000152e+01 1.768994999999999891e+03
3.700000000000000511e-02 1.404350000000000043e-01 2.101335000000000264e+01 6.767589999999999861e+01 1.768835000000000036e+03
3.799999999999999906e-02 1.404130000000000100e-01 2.032045000000000101e+01 6.697854999999999848e+01 1.768625000000000000e+03
3.899999999999999994e-02 1.403874999999999984e-01 1.964450000000000074e+01 6.624394999999999811e+01 1.768394999999999982e+03
4.000000000000000083e-02 1.403629999999999878e-01 1.904189999999999827e+01 6.561090000000000089e+01 1.768154999999999973e+03
4.100000000000000172e-02 1.403429999999999955e-01 1.856700000000000017e+01 6.522724999999999795e+01 1.767964999999999918e+03
4.200000000000000261e-02 1.403314999999999979e-01 1.826024999999999920e+01 6.521330000000000382e+01 1.767849999999999909e+03
4.300000000000000350e-02 1.403320000000000123e-01 1.813879999999999981e+01 6.563275000000000148e+01 1.767845000000000027e+03
4.400000000000000439e-02 1.403464999999999852e-01 1.819239999999999924e+01 6.647599999999999909e+01 1.767970000000000027e+03
4.499999999999999833e-02 1.403739999999999988e-01 1.838465000000000060e+01 6.765950000000000841e+01 1.768224999999999909e+03
4.599999999999999922e-02 1.404130000000000100e-01 1.865889999999999915e+01 6.903940000000000055e+01 1.768579999999999927e+03
4.700000000000000011e-02 1.404579999999999995e-01 1.894639999999999702e+01 7.043534999999999968e+01 1.769000000000000000e+03
4.800000000000000100e-02 1.405040000000000178e-01 1.917645000000000266e+01 7.165840000000000032e+01 1.769429999999999836e+03
4.900000000000000189e-02 1.405449999999999755e-01 1.928519999999999968e+01 7.253775000000000261e+01 1.769815000000000055e+03
5.000000000000000278e-02 1.405744999999999911e-01 1.922214999999999918e+01 7.294200000000000728e+01 1.770105000000000018e+03
5.100000000000000366e-02 1.405899999999999928e-01 1.895465000000000089e+01 7.279130000000000678e+01 1.770255000000000109e+03
5.200000000000000455e-02 1.405865000000000031e-01 1.846880000000000166e+01 7.206155000000001110e+01 1.770230000000000018e+03
5.300000000000000544e-02 1.405639999999999945e-01 1.776820000000000022e+01 7.077940000000000964e+01 1.770029999999999973e+03
5.399999999999999939e-02 1.405219999999999803e-01 1.687110000000000198e+01 6.901240000000001373e+01 1.769639999999999873e+03
5.500000000000000028e-02 1.404634999999999911e-01 1.580654999999999966e+01 6.685545000000000471e+01 1.769090000000000146e+03
5.600000000000000117e-02 1.403889999999999860e-01 1.461035000000000039e+01 6.441769999999999641e+01 1.768394999999999982e+03
5.700000000000000205e-02 1.403039999999999843e-01 1.332212999999999958e+01 6.181150000000000233e+01 1.767590000000000146e+03
5.800000000000000294e-02 1.402100000000000013e-01 1.198266999999999882e+01 5.914414999999999623e+01 1.766704999999999927e+03
5.900000000000000383e-02 1.401120000000000143e-01 1.063267000000000095e+01 5.651375000000000171e+01 1.765775000000000091e+03
6.000000000000000472e-02 1.400125000000000119e-01 9.311969999999998748e+00 5.400820000000000221e+01 1.764840000000000146e+03
6.099999999999999867e-02 1.399164999999999992e-01 8.059300000000000352e+00 5.170600000000000307e+01 1.763920000000000073e+03
6.199999999999999956e-02 1.398254999999999915e-01 6.912440000000000140e+00 4.967839999999999634e+01 1.763059999999999945e+03
6.300000000000000044e-02 1.397434999999999927e-01 5.907869999999999955e+00 4.799089999999999634e+01 1.762269999999999982e+03
6.400000000000000133e-02 1.396720000000000184e-01 5.080364999999999576e+00 4.670459999999999923e+01 1.761590000000000146e+03
6.500000000000000222e-02 1.396149999999999891e-01 4.462265000000000370e+00 4.587565000000000026e+01 1.761039999999999964e+03
6.600000000000000311e-02 1.395744999999999902e-01 4.082295000000000229e+00 4.555389999999999873e+01 1.760644999999999982e+03
6.700000000000000400e-02 1.395529999999999826e-01 3.964194999999999691e+00 4.578014999999999901e+01 1.760420000000000073e+03
6.800000000000000488e-02 1.395509999999999806e-01 4.125404999999999767e+00 4.658355000000000246e+01 1.760384999999999991e+03
6.900000000000000577e-02 1.395710000000000006e-01 4.575884999999999536e+00 4.797844999999999516e+01 1.760559999999999945e+03
7.000000000000000666e-02 1.396135000000000015e-01 5.317289999999999850e+00 4.996229999999999905e+01 1.760940000000000055e+03
7.100000000000000755e-02 1.396784999999999832e-01 6.342670000000000030e+00 5.251465000000000316e+01 1.761535000000000082e+03
7.200000000000000844e-02 1.397660000000000013e-01 7.636689999999999756e+00 5.559754999999999825e+01 1.762344999999999800e+03
7.300000000000000933e-02 1.398745000000000127e-01 9.176325000000000287e+00 5.915715000000000146e+01 1.763349999999999909e+03
7.399999999999999634e-02 1.400020000000000153e-01 1.093220499999999973e+01 6.312655000000000172e+01 1.764545000000000073e+03
7.499999999999999722e-02 1.401465000000000072e-01 1.286980499999999950e+01 6.742959999999999354e+01 1.765904999999999973e+03
7.599999999999999811e-02 1.403054999999999997e-01 1.495145000000000124e+01 7.198465000000000202e+01 1.767409999999999854e+03
7.699999999999999900e-02 1.404765000000000041e-01 1.713775000000000048e+01 7.670914999999999395e+01 1.769025000000000091e+03
7.799999999999999989e-02 1.406564999999999899e-01 1.938929999999999865e+01 8.152294999999999447e+01 1.770735000000000127e+03
7.900000000000000078e-02 1.408420000000000227e-01 2.166799999999999926e+01 8.635179999999999723e+01 1.772505000000000109e+03
8.000000000000000167e-02 1.410305000000000031e-01 2.393854999999999933e+01 9.112990000000000634e+01 1.774315000000000055e+03
8.100000000000000255e-02 1.412189999999999834e-01 2.616935000000000144e+01 9.580204999999999416e+01 1.776125000000000000e+03
8.200000000000000344e-02 1.414060000000000039e-01 2.833344999999999914e+01 1.003242999999999938e+02 1.777929999999999836e+03
8.300000000000000433e-02 1.415899999999999936e-01 3.040910000000000224e+01 1.046662000000000035e+02 1.779710000000000036e+03
8.400000000000000522e-02 1.417680000000000051e-01 3.238025000000000375e+01 1.088089999999999975e+02 1.781440000000000055e+03
8.500000000000000611e-02 1.419400000000000106e-01 3.423649999999999949e+01 1.127464999999999975e+02 1.783119999999999891e+03
8.600000000000000699e-02 1.421060000000000101e-01 3.597319999999999851e+01 1.164855000000000018e+02 1.784740000000000009e+03
8.700000000000000788e-02 1.422650000000000026e-01 3.759074999999999989e+01 1.200405000000000086e+02 1.786299999999999955e+03
8.800000000000000877e-02 1.424179999999999890e-01 3.909434999999999860e+01 1.234350000000000023e+02 1.787800000000000182e+03
8.899999999999999578e-02 1.425644999999999829e-01 4.049269999999999925e+01 1.266980000000000075e+02 1.789250000000000000e+03
8.999999999999999667e-02 1.427070000000000005e-01 4.179715000000000202e+01 1.298625000000000114e+02 1.790654999999999973e+03
9.099999999999999756e-02 1.428444999999999854e-01 4.302055000000000007e+01 1.329610000000000127e+02 1.792019999999999982e+03
9.199999999999999845e-02 1.429799999999999960e-01 4.417620000000000147e+01 1.360229999999999961e+02 1.793355000000000018e+03
9.299999999999999933e-02 1.431135000000000046e-01 4.527665000000000362e+01 1.390760000000000218e+02 1.794679999999999836e+03
9.400000000000000022e-02 1.432454999999999978e-01 4.633275000000000432e+01 1.421394999999999982e+02 1.795994999999999891e+03
9.500000000000000111e-02 1.433774999999999911e-01 4.735299999999999443e+01 1.452249999999999943e+02 1.797305000000000064e+03
9.600000000000000200e-02 1.435095000000000121e-01 4.834300000000000352e+01 1.483380000000000223e+02 1.798619999999999891e+03
9.700000000000000289e-02 1.436425000000000063e-01 4.930480000000000018e+01 1.514724999999999966e+02 1.799940000000000055e+03
9.800000000000000377e-02 1.437749999999999861e-01 5.023745000000000260e+01 1.546160000000000139e+02 1.801255000000000109e+03
9.900000000000000466e-02 1.439079999999999804e-01 5.113660000000000139e+01 1.577485000000000070e+02 1.802579999999999927e+03
1.000000000000000056e-01 1.440400000000000014e-01 5.199530000000000030e+01 1.608435000000000059e+02 1.803889999999999873e+03
1.010000000000000064e-01 1.441705000000000070e-01 5.280405000000000371e+01 1.638704999999999927e+02 1.805195000000000164e+03
1.020000000000000073e-01 1.442979999999999818e-01 5.355185000000000173e+01 1.667969999999999970e+02 1.806470000000000027e+03
1.030000000000000082e-01 1.444219999999999948e-01 5.422660000000000480e+01 1.695875000000000057e+02 1.807710000000000036e+03
1.040000000000000091e-01 1.445409999999999751e-01 5.481589999999999918e+01 1.722099999999999795e+02 1.808900000000000091e+03
1.050000000000000100e-01 1.446534999999999904e-01 5.530780000000000030e+01 1.746320000000000050e+02 1.810034999999999854e+03
1.059999999999999970e-01 1.447579999999999978e-01 5.569115000000000038e+01 1.768269999999999982e+02 1.811090000000000146e+03
1.069999999999999979e-01 1.448550000000000115e-01 5.595640000000000214e+01 1.787710000000000150e+02 1.812059999999999945e+03
1.079999999999999988e-01 1.449419999999999875e-01 5.609579999999999700e+01 1.804470000000000027e+02 1.812944999999999936e+03
1.089999999999999997e-01 1.450190000000000090e-01 5.610405000000000086e+01 1.818430000000000177e+02 1.813724999999999909e+03
1.100000000000000006e-01 1.450855000000000061e-01 5.597834999999999894e+01 1.829535000000000196e+02 1.814404999999999973e+03
1.110000000000000014e-01 1.451409999999999922e-01 5.571844999999999715e+01 1.837785000000000082e+02 1.814969999999999800e+03
1.120000000000000023e-01 1.451850000000000085e-01 5.532689999999999486e+01 1.843234999999999957e+02 1.815430000000000064e+03
1.130000000000000032e-01 1.452180000000000137e-01 5.480895000000000294e+01 1.846009999999999991e+02 1.815775000000000091e+03
1.140000000000000041e-01 1.452410000000000090e-01 5.417220000000000368e+01 1.846279999999999859e+02 1.816014999999999873e+03
1.150000000000000050e-01 1.452529999999999932e-01 5.342665000000000219e+01 1.844250000000000114e+02 1.816155000000000200e+03
1.160000000000000059e-01 1.452565000000000106e-01 5.258414999999999395e+01 1.840180000000000007e+02 1.816194999999999936e+03
1.170000000000000068e-01 1.452505000000000046e-01 5.165825000000000244e+01 1.834329999999999927e+02 1.816150000000000091e+03
1.180000000000000077e-01 1.452374999999999916e-01 5.066349999999999909e+01 1.827009999999999934e+02 1.816029999999999973e+03
1.190000000000000085e-01 1.452174999999999994e-01 4.961514999999999986e+01 1.818514999999999873e+02 1.815840000000000146e+03
1.200000000000000094e-01 1.451925000000000021e-01 4.852870000000000061e+01 1.809144999999999754e+02 1.815590000000000146e+03
1.209999999999999964e-01 1.451624999999999999e-01 4.741929999999999978e+01 1.799194999999999993e+02 1.815299999999999955e+03
1.219999999999999973e-01 1.451294999999999946e-01 4.630154999999999887e+01 1.788930000000000007e+02 1.814970000000000027e+03
1.229999999999999982e-01 1.450940000000000007e-01 4.518860000000000099e+01 1.778600000000000136e+02 1.814625000000000000e+03
1.239999999999999991e-01 1.450575000000000059e-01 4.409244999999999948e+01 1.768404999999999916e+02 1.814255000000000109e+03
1.250000000000000000e-01 1.450200000000000100e-01 4.302309999999999945e+01 1.758524999999999920e+02 1.813884999999999991e+03
1.260000000000000009e-01 1.449830000000000008e-01 4.198864999999999981e+01 1.749085000000000036e+02 1.813510000000000218e+03
1.270000000000000018e-01 1.449469999999999925e-01 4.099495000000000289e+01 1.740169999999999959e+02 1.813150000000000091e+03
1.280000000000000027e-01 1.449115000000000264e-01 4.004579999999999984e+01 1.731820000000000164e+02 1.812795000000000073e+03
1.290000000000000036e-01 1.448785000000000212e-01 3.914269999999999783e+01 1.724030000000000200e+02 1.812460000000000036e+03
1.300000000000000044e-01 1.448464999999999892e-01 3.828504999999999825e+01 1.716770000000000209e+02 1.812139999999999873e+03
1.310000000000000053e-01 1.448160000000000003e-01 3.747039999999999793e+01 1.709950000000000045e+02 1.811829999999999927e+03
1.320000000000000062e-01 1.447869999999999990e-01 3.669454999999999956e+01 1.703460000000000036e+02 1.811535000000000082e+03
1.330000000000000071e-01 1.447589999999999988e-01 3.595189999999999486e+01 1.697180000000000177e+02 1.811244999999999891e+03
1.340000000000000080e-01 1.447319999999999995e-01 3.523570000000000135e+01 1.690960000000000036e+02 1.810970000000000027e+03
1.350000000000000089e-01 1.447050000000000003e-01 3.453849999999999909e+01 1.684624999999999773e+02 1.810694999999999936e+03
1.360000000000000098e-01 1.446775000000000144e-01 3.385240000000000293e+01 1.678034999999999854e+02 1.810420000000000073e+03
1.370000000000000107e-01 1.446489999999999998e-01 3.316944999999999766e+01 1.671030000000000086e+02 1.810134999999999991e+03
1.380000000000000115e-01 1.446195000000000119e-01 3.248199999999999932e+01 1.663449999999999989e+02 1.809835000000000036e+03
1.390000000000000124e-01 1.445879999999999943e-01 3.178300000000000125e+01 1.655185000000000173e+02 1.809514999999999873e+03
1.400000000000000133e-01 1.445535000000000014e-01 3.106634999999999991e+01 1.646119999999999948e+02 1.809170000000000073e+03
1.410000000000000142e-01 1.445170000000000066e-01 3.032715000000000316e+01 1.636195000000000164e+02 1.808804999999999836e+03
1.420000000000000151e-01 1.444769999999999943e-01 2.956174999999999642e+01 1.625349999999999966e+02 1.808400000000000091e+03
1.430000000000000160e-01 1.444334999999999924e-01 2.876805000000000234e+01 1.613584999999999923e+02 1.807970000000000027e+03
1.440000000000000169e-01 1.443865000000000010e-01 2.794565000000000055e+01 1.600910000000000082e+02 1.807505000000000109e+03
1.450000000000000178e-01 1.443365000000000065e-01 2.709570000000000078e+01 1.587394999999999925e+02 1.807009999999999991e+03
1.459999999999999909e-01 1.442829999999999946e-01 2.622100000000000009e+01 1.573120000000000118e+02 1.806474999999999909e+03
1.469999999999999918e-01 1.442264999999999797e-01 2.532580000000000098e+01 1.558205000000000098e+02 1.805914999999999964e+03
1.479999999999999927e-01 1.441680000000000184e-01 2.441570000000000107e+01 1.542795000000000130e+02 1.805329999999999927e+03
1.489999999999999936e-01 1.441064999999999985e-01 2.349759999999999849e+01 1.527049999999999841e+02 1.804724999999999909e+03
1.499999999999999944e-01 1.440434999999999910e-01 2.257894999999999897e+01 1.511154999999999973e+02 1.804105000000000018e+03
1.509999999999999953e-01 1.439799999999999969e-01 2.166825000000000045e+01 1.495294999999999845e+02 1.803474999999999909e+03
1.519999999999999962e-01 1.439165000000000028e-01 2.077400000000000091e+01 1.479655000000000200e+02 1.802845000000000027e+03
1.529999999999999971e-01 1.438530000000000086e-01 1.990474999999999994e+01 1.464429999999999836e+02 1.802215000000000146e+03
1.539999999999999980e-01 1.437910000000000021e-01 1.906895000000000095e+01 1.449775000000000205e+02 1.801594999999999800e+03
1.549999999999999989e-01 1.437309999999999977e-01 1.827414999999999878e+01 1.435865000000000009e+02 1.801000000000000000e+03
1.559999999999999998e-01 1.436729999999999952e-01 1.752730000000000032e+01 1.422830000000000155e+02 1.800425000000000182e+03
1.570000000000000007e-01 1.436180000000000234e-01 1.683435000000000059e+01 1.410780000000000030e+02 1.799880000000000109e+03
1.580000000000000016e-01 1.435664999999999858e-01 1.619974999999999810e+01 1.399800000000000182e+02 1.799365000000000009e+03
1.590000000000000024e-01 1.435190000000000077e-01 1.562700000000000067e+01 1.389945000000000164e+02 1.798889999999999873e+03
