# t [s], A [cm^2], U [cm/s], P [cPa], c [cm/s]
1.000000000000000021e-03 2.047709999999999808e-01 4.946610499999999910e-01 9.245879999999999654e+01 1.977079999999999927e+03
2.000000000000000042e-03 2.046930000000000138e-01 2.284498500000000210e+00 8.862669999999999959e+01 1.976519999999999982e+03
3.000000000000000062e-03 2.045029999999999903e-01 4.414514999999999745e+00 8.352510000000000900e+01 1.975230000000000018e+03
4.000000000000000083e-03 2.042589999999999961e-01 6.786920000000000286e+00 7.841239999999999100e+01 1.973590000000000146e+03
5.000000000000000104e-03 2.040099999999999969e-01 9.284655000000000769e+00 7.423449999999999704e+01 1.971930000000000064e+03
6.000000000000000125e-03 2.037789999999999879e-01 1.163201500000000088e+01 7.097674999999999557e+01 1.970409999999999854e+03
7.000000000000000146e-03 2.035665000000000113e-01 1.360245499999999907e+01 6.814969999999999573e+01 1.969045000000000073e+03
8.000000000000000167e-03 2.033770000000000022e-01 1.520129999999999981e+01 6.562550000000000239e+01 1.967849999999999909e+03
9.000000000000001055e-03 2.032169999999999810e-01 1.650509999999999877e+01 6.355595000000000283e+01 1.966849999999999909e+03
1.000000000000000194e-02 2.030865000000000031e-01 1.753894999999999982e+01 6.194549999999999557e+01 1.966039999999999964e+03
1.099999999999999936e-02 2.029839999999999978e-01 1.833010000000000161e+01 6.072619999999999862e+01 1.965414999999999964e+03
1.200000000000000025e-02 2.029055000000000164e-01 1.891225000000000023e+01 5.985219999999999629e+01 1.964944999999999936e+03
1.300000000000000114e-02 2.028469999999999995e-01 1.929364999999999952e+01 5.921479999999999677e+01 1.964599999999999909e+03
1.400000000000000203e-02 2.028014999999999957e-01 1.950305000000000177e+01 5.870485000000000042e+01 1.964345000000000027e+03
1.499999999999999944e-02 2.027700000000000058e-01 1.966450000000000031e+01 5.844589999999999463e+01 1.964175000000000182e+03
1.600000000000000033e-02 2.027650000000000008e-01 1.998000000000000043e+01 5.885779999999999745e+01 1.964160000000000082e+03
1.700000000000000122e-02 2.028015000000000234e-01 2.061104999999999876e+01 6.038984999999999559e+01 1.964394999999999982e+03
1.800000000000000211e-02 2.028880000000000128e-01 2.156224999999999881e+01 6.314155000000000229e+01 1.964934999999999945e+03
1.900000000000000300e-02 2.030164999999999886e-01 2.265424999999999756e+01 6.667640000000000100e+01 1.965740000000000009e+03
2.000000000000000042e-02 2.031625000000000236e-01 2.359555000000000291e+01 7.014424999999999955e+01 1.966654999999999973e+03
2.100000000000000130e-02 2.032920000000000005e-01 2.410415000000000063e+01 7.261750000000000682e+01 1.967494999999999891e+03
2.200000000000000219e-02 2.033760000000000012e-01 2.401709999999999923e+01 7.345589999999999975e+01 1.968045000000000073e+03
2.299999999999999961e-02 2.033979999999999955e-01 2.334479999999999933e+01 7.253874999999999318e+01 1.968220000000000027e+03
2.400000000000000050e-02 2.033594999999999986e-01 2.225234999999999985e+01 7.027479999999999905e+01 1.968014999999999873e+03
2.500000000000000139e-02 2.032789999999999875e-01 2.098385000000000034e+01 6.740430000000000632e+01 1.967534999999999854e+03
2.600000000000000228e-02 2.031824999999999881e-01 1.976749999999999829e+01 6.469804999999999495e+01 1.966934999999999945e+03
2.700000000000000316e-02 2.030929999999999958e-01 1.874350000000000094e+01 6.269015000000000271e+01 1.966369999999999891e+03
2.800000000000000058e-02 2.030250000000000110e-01 1.793815000000000026e+01 6.154475000000000051e+01 1.965930000000000064e+03
2.900000000000000147e-02 2.029810000000000225e-01 1.728410000000000224e+01 6.108055000000000234e+01 1.965644999999999982e+03
3.000000000000000236e-02 2.029539999999999955e-01 1.666864999999999952e+01 6.091125000000000256e+01 1.965469999999999800e+03
3.099999999999999978e-02 2.029314999999999869e-01 1.598970000000000091e+01 6.063015000000000043e+01 1.965325000000000045e+03
3.200000000000000067e-02 2.029030000000000000e-01 1.519930000000000092e+01 5.997265000000000157e+01 1.965144999999999982e+03
3.300000000000000155e-02 2.028610000000000135e-01 1.432454999999999856e+01 5.891009999999999991e+01 1.964889999999999873e+03
3.400000000000000244e-02 2.028105000000000047e-01 1.346044999999999980e+01 5.765324999999999989e+01 1.964579999999999927e+03
3.500000000000000333e-02 2.027594999999999814e-01 1.273880000000000123e+01 5.657214999999999350e+01 1.964255000000000109e+03
3.600000000000000422e-02 2.027224999999999999e-01 1.228464999999999918e+01 5.606385000000000218e+01 1.964009999999999991e+03
3.700000000000000511e-02 2.027130000000000043e-01 1.217544999999999966e+01 5.641460000000000008e+01 1.963940000000000055e+03
3.799999999999999906e-02 2.027375000000000149e-01 1.241509999999999891e+01 5.770154999999999745e+01 1.964070000000000164e+03
3.899999999999999994e-02 2.027970000000000050e-01 1.292924999999999969e+01 5.976125000000000398e+01 1.964429999999999836e+03
4.000000000000000083e-02 2.028824999999999934e-01 1.358115000000000094e+01 6.222509999999999764e+01 1.964954999999999927e+03
4.100000000000000172e-02 2.029795000000000071e-01 1.419969999999999999e+01 6.460389999999999588e+01 1.965550000000000182e+03
4.200000000000000261e-02 2.030684999999999851e-01 1.461230000000000118e+01 6.639199999999999591e+01 1.966110000000000127e+03
4.300000000000000350e-02 2.031300000000000050e-01 1.467279999999999873e+01 6.716270000000000095e+01 1.966500000000000000e+03
4.400000000000000439e-02 2.031490000000000240e-01 1.428184999999999860e+01 6.663535000000000252e+01 1.966639999999999873e+03
4.499999999999999833e-02 2.031149999999999900e-01 1.339475000000000016e+01 6.470519999999999072e+01 1.966440000000000055e+03
4.599999999999999922e-02 2.030239999999999823e-01 1.202059999999999995e+01 6.143694999999999595e+01 1.965884999999999991e+03
4.700000000000000011e-02 2.028780000000000028e-01 1.021320500000000031e+01 5.703069999999999595e+01 1.964985000000000127e+03
4.800000000000000100e-02 2.026844999999999897e-01 8.057864999999999611e+00 5.177365000000000350e+01 1.963784999999999854e+03
4.900000000000000189e-02 2.024549999999999961e-01 5.658263499999999446e+00 4.599070000000000391e+01 1.962355000000000018e+03
5.000000000000000278e-02 2.022005000000000052e-01 3.125185000000000102e+00 4.000390000000000157e+01 1.960765000000000100e+03
5.100000000000000366e-02 2.019350000000000034e-01 5.687299999999999578e-01 3.410689999999999600e+01 1.959099999999999909e+03
5.200000000000000455e-02 2.016709999999999892e-01 -1.905724999999999891e+00 2.855404999999999660e+01 1.957445000000000164e+03
5.300000000000000544e-02 2.014185000000000003e-01 -4.199312500000000448e+00 2.356115000000000137e+01 1.955859999999999900e+03
5.399999999999999939e-02 2.011890000000000067e-01 -6.220050000000000523e+00 1.931165000000000020e+01 1.954410000000000082e+03
5.500000000000000028e-02 2.009905000000000164e-01 -7.883520000000000749e+00 1.596389500000000083e+01 1.953150000000000091e+03
5.600000000000000117e-02 2.008310000000000095e-01 -9.114135000000000986e+00 1.365471499999999949e+01 1.952134999999999991e+03
5.700000000000000205e-02 2.007174999999999931e-01 -9.848259999999999792e+00 1.249767499999999920e+01 1.951400000000000091e+03
5.800000000000000294e-02 2.006554999999999866e-01 -1.003783500000000117e+01 1.257634999999999970e+01 1.950985000000000127e+03
5.900000000000000383e-02 2.006495000000000084e-01 -9.655090000000001282e+00 1.393410000000000082e+01 1.950914999999999964e+03
6.000000000000000472e-02 2.007009999999999905e-01 -8.695875000000000909e+00 1.656374999999999886e+01 1.951200000000000045e+03
6.099999999999999867e-02 2.008099999999999885e-01 -7.182224999999999859e+00 2.040044999999999931e+01 1.951845000000000027e+03
6.199999999999999956e-02 2.009739999999999860e-01 -5.161854999999999194e+00 2.532010000000000005e+01 1.952840000000000146e+03
6.300000000000000044e-02 2.011870000000000047e-01 -2.705580000000000318e+00 3.114529999999999887e+01 1.954139999999999873e+03
6.400000000000000133e-02 2.014414999999999956e-01 9.782499999999982876e-02 3.765789999999999793e+01 1.955715000000000146e+03
6.500000000000000222e-02 2.017295000000000060e-01 3.148125000000000284e+00 4.461639999999999873e+01 1.957494999999999891e+03
6.600000000000000311e-02 2.020389999999999964e-01 6.340675599999999967e+00 5.177514999999999645e+01 1.959430000000000064e+03
6.700000000000000400e-02 2.023610000000000131e-01 9.573035000000000849e+00 5.890224999999999511e+01 1.961450000000000045e+03
6.800000000000000488e-02 2.026840000000000031e-01 1.275018999999999991e+01 6.579345000000000709e+01 1.963485000000000127e+03
6.900000000000000577e-02 2.030005000000000004e-01 1.578855000000000075e+01 7.228105000000000757e+01 1.965490000000000009e+03
7.000000000000000666e-02 2.033024999999999971e-01 1.861844999999999928e+01 7.823834999999999695e+01 1.967409999999999854e+03
7.100000000000000755e-02 2.035835000000000006e-01 2.118544999999999945e+01 8.357994999999999663e+01 1.969204999999999927e+03
7.200000000000000844e-02 2.038399999999999934e-01 2.345129999999999981e+01 8.825964999999999350e+01 1.970849999999999909e+03
7.300000000000000933e-02 2.040690000000000004e-01 2.539440000000000097e+01 9.226850000000000307e+01 1.972329999999999927e+03
7.399999999999999634e-02 2.042700000000000071e-01 2.700965000000000060e+01 9.563134999999999764e+01 1.973630000000000109e+03
7.499999999999999722e-02 2.044424999999999992e-01 2.830794999999999817e+01 9.840524999999999523e+01 1.974759999999999991e+03
7.599999999999999811e-02 2.045899999999999941e-01 2.931555000000000177e+01 1.006741499999999974e+02 1.975724999999999909e+03
7.699999999999999900e-02 2.047154999999999947e-01 3.007220000000000226e+01 1.025476000000000028e+02 1.976550000000000182e+03
7.799999999999999989e-02 2.048230000000000051e-01 3.062845000000000084e+01 1.041514999999999986e+02 1.977259999999999991e+03
7.900000000000000078e-02 2.049185000000000034e-01 3.104240000000000066e+01 1.056239999999999952e+02 1.977894999999999982e+03
8.000000000000000167e-02 2.050069999999999948e-01 3.137615000000000265e+01 1.071045000000000016e+02 1.978485000000000127e+03
8.100000000000000255e-02 2.050954999999999862e-01 3.169100000000000250e+01 1.087265000000000015e+02 1.979065000000000055e+03
8.200000000000000344e-02 2.051894999999999969e-01 3.204375000000000284e+01 1.106059999999999945e+02 1.979675000000000182e+03
8.300000000000000433e-02 2.052935000000000176e-01 3.248259999999999792e+01 1.128354999999999961e+02 1.980349999999999909e+03
8.400000000000000522e-02 2.054110000000000102e-01 3.304394999999999527e+01 1.154765000000000015e+02 1.981110000000000127e+03
8.500000000000000611e-02 2.055460000000000065e-01 3.375025000000000119e+01 1.185540000000000020e+02 1.981974999999999909e+03
8.600000000000000699e-02 2.056985000000000063e-01 3.460855000000000103e+01 1.220585000000000093e+02 1.982954999999999927e+03
8.700000000000000788e-02 2.058690000000000242e-01 3.561069999999999425e+01 1.259420000000000073e+02 1.984050000000000182e+03
8.800000000000000877e-02 2.060555000000000025e-01 3.673445000000000249e+01 1.301264999999999930e+02 1.985240000000000009e+03
8.899999999999999578e-02 2.062539999999999929e-01 3.794514999999999816e+01 1.345079999999999814e+02 1.986514999999999873e+03
8.999999999999999667e-02 2.064604999999999912e-01 3.919915000000000305e+01 1.389644999999999868e+02 1.987840000000000146e+03
9.099999999999999756e-02 2.066700000000000204e-01 4.044644999999999868e+01 1.433650000000000091e+02 1.989190000000000055e+03
9.199999999999999845e-02 2.068769999999999776e-01 4.163454999999999728e+01 1.475784999999999911e+02 1.990529999999999973e+03
9.299999999999999933e-02 2.070760000000000101e-01 4.271150000000000091e+01 1.514809999999999945e+02 1.991820000000000164e+03
9.400000000000000022e-02 2.072610000000000008e-01 4.362919999999999732e+01 1.549619999999999891e+02 1.993019999999999982e+03
9.500000000000000111e-02 2.074280000000000013e-01 4.434570000000000078e+01 1.579329999999999927e+02 1.994110000000000127e+03
9.600000000000000200e-02 2.075724999999999931e-01 4.482755000000000223e+01 1.603249999999999886e+02 1.995059999999999945e+03
9.700000000000000289e-02 2.076915000000000011e-01 4.505069999999999908e+01 1.620980000000000132e+02 1.995844999999999800e+03
9.800000000000000377e-02 2.077835000000000099e-01 4.500195000000000078e+01 1.632345000000000255e+02 1.996454999999999927e+03
9.900000000000000466e-02 2.078464999999999896e-01 4.467884999999999707e+01 1.637429999999999950e+02 1.996884999999999991e+03
1.000000000000000056e-01 2.078814999999999968e-01 4.408950000000000102e+01 1.636564999999999941e+02 1.997130000000000109e+03
1.010000000000000064e-01 2.078900000000000192e-01 4.325189999999999912e+01 1.630249999999999773e+02 1.997204999999999927e+03
1.020000000000000073e-01 2.078725000000000156e-01 4.219254999999999711e+01 1.619175000000000182e+02 1.997115000000000009e+03
1.030000000000000082e-01 2.078339999999999910e-01 4.094504999999999484e+01 1.604149999999999920e+02 1.996880000000000109e+03
1.040000000000000091e-01 2.077760000000000162e-01 3.954860000000000042e+01 1.586080000000000041e+02 1.996519999999999982e+03
1.050000000000000100e-01 2.077034999999999854e-01 3.804579999999999984e+01 1.565904999999999916e+02 1.996059999999999945e+03
1.059999999999999970e-01 2.076200000000000268e-01 3.648059999999999548e+01 1.544585000000000150e+02 1.995535000000000082e+03
1.069999999999999979e-01 2.075305000000000066e-01 3.489705000000000013e+01 1.523029999999999973e+02 1.994954999999999927e+03
1.079999999999999988e-01 2.074380000000000113e-01 3.333670000000000044e+01 1.502099999999999795e+02 1.994360000000000127e+03
1.089999999999999997e-01 2.073459999999999748e-01 3.183749999999999858e+01 1.482540000000000191e+02 1.993769999999999982e+03
1.100000000000000006e-01 2.072599999999999998e-01 3.043215000000000003e+01 1.464970000000000141e+02 1.993204999999999927e+03
1.110000000000000014e-01 2.071804999999999897e-01 2.914685000000000059e+01 1.449875000000000114e+02 1.992695000000000164e+03
1.120000000000000023e-01 2.071109999999999896e-01 2.800090000000000146e+01 1.437565000000000168e+02 1.992235000000000127e+03
1.130000000000000032e-01 2.070525000000000004e-01 2.700554999999999950e+01 1.428190000000000168e+02 1.991849999999999909e+03
1.140000000000000041e-01 2.070065000000000099e-01 2.616425000000000267e+01 1.421725000000000136e+02 1.991539999999999964e+03
1.150000000000000050e-01 2.069729999999999903e-01 2.547289999999999921e+01 1.418000000000000114e+02 1.991315000000000055e+03
1.160000000000000059e-01 2.069504999999999817e-01 2.492025000000000290e+01 1.416680000000000064e+02 1.991160000000000082e+03
1.170000000000000068e-01 2.069389999999999841e-01 2.448874999999999957e+01 1.417309999999999945e+02 1.991070000000000164e+03
1.180000000000000077e-01 2.069354999999999944e-01 2.415585000000000093e+01 1.419345000000000141e+02 1.991039999999999964e+03
1.190000000000000085e-01 2.069385000000000252e-01 2.389515000000000100e+01 1.422169999999999845e+02 1.991050000000000182e+03
1.200000000000000094e-01 2.069449999999999901e-01 2.367795000000000272e+01 1.425144999999999982e+02 1.991085000000000036e+03
1.209999999999999964e-01 2.069524999999999837e-01 2.347484999999999999e+01 1.427624999999999886e+02 1.991125000000000000e+03
1.219999999999999973e-01 2.069590000000000041e-01 2.325704999999999956e+01 1.428994999999999891e+02 1.991154999999999973e+03
1.229999999999999982e-01 2.069599999999999773e-01 2.299784999999999968e+01 1.428704999999999927e+02 1.991159999999999854e+03
1.239999999999999991e-01 2.069544999999999857e-01 2.267399999999999949e+01 1.426315000000000168e+02 1.991125000000000000e+03
1.250000000000000000e-01 2.069400000000000128e-01 2.226675000000000182e+01 1.421469999999999914e+02 1.991034999999999854e+03
1.260000000000000009e-01 2.069150000000000156e-01 2.176269999999999882e+01 1.413965000000000032e+02 1.990869999999999891e+03
1.270000000000000018e-01 2.068780000000000063e-01 2.115449999999999875e+01 1.403720000000000141e+02 1.990644999999999982e+03
1.280000000000000027e-01 2.068305000000000005e-01 2.044075000000000131e+01 1.390809999999999889e+02 1.990335000000000036e+03
1.290000000000000036e-01 2.067700000000000093e-01 1.962664999999999793e+01 1.375440000000000111e+02 1.989950000000000045e+03
1.300000000000000044e-01 2.066989999999999938e-01 1.872289999999999921e+01 1.357925000000000182e+02 1.989500000000000000e+03
1.310000000000000053e-01 2.066189999999999971e-01 1.774575000000000102e+01 1.338704999999999927e+02 1.988985000000000127e+03
1.320000000000000062e-01 2.065310000000000201e-01 1.671545000000000059e+01 1.318305000000000007e+02 1.988425000000000182e+03
1.330000000000000071e-01 2.064374999999999960e-01 1.565585000000000093e+01 1.297295000000000016e+02 1.987825000000000045e+03
1.340000000000000080e-01 2.063409999999999966e-01 1.459254999999999924e+01 1.276280000000000001e+02 1.987199999999999818e+03
1.350000000000000089e-01 2.062439999999999829e-01 1.355209999999999937e+01 1.255865000000000009e+02 1.986579999999999927e+03
1.360000000000000098e-01 2.061489999999999989e-01 1.256050499999999914e+01 1.236630000000000109e+02 1.985970000000000027e+03
1.370000000000000107e-01 2.060595000000000065e-01 1.164214000000000127e+01 1.219099999999999966e+02 1.985384999999999991e+03
1.380000000000000115e-01 2.059765000000000068e-01 1.081841499999999989e+01 1.203719999999999999e+02 1.984855000000000018e+03
1.390000000000000124e-01 2.059030000000000027e-01 1.010707500000000003e+01 1.190834999999999866e+02 1.984375000000000000e+03
1.400000000000000133e-01 2.058404999999999818e-01 9.521335000000000548e+00 1.180705000000000098e+02 1.983965000000000146e+03
1.410000000000000142e-01 2.057900000000000007e-01 9.069419999999999149e+00 1.173439999999999941e+02 1.983625000000000000e+03
1.420000000000000151e-01 2.057514999999999761e-01 8.754360000000000142e+00 1.169060000000000059e+02 1.983375000000000000e+03
1.430000000000000160e-01 2.057260000000000200e-01 8.573954999999999771e+00 1.167464999999999975e+02 1.983204999999999927e+03
1.440000000000000169e-01 2.057129999999999792e-01 8.521029999999999660e+00 1.168429999999999893e+02 1.983110000000000127e+03
1.450000000000000178e-01 2.057120000000000060e-01 8.583949999999999747e+00 1.171665000000000134e+02 1.983095000000000027e+03
1.459999999999999909e-01 2.057215000000000016e-01 8.747260000000000701e+00 1.176779999999999973e+02 1.983139999999999873e+03
1.469999999999999918e-01 2.057390000000000052e-01 8.992529999999998580e+00 1.183349999999999937e+02 1.983244999999999891e+03
1.479999999999999927e-01 2.057640000000000025e-01 9.299224999999999852e+00 1.190910000000000082e+02 1.983400000000000091e+03
1.489999999999999936e-01 2.057939999999999769e-01 9.645680000000000476e+00 1.198979999999999961e+02 1.983585000000000036e+03
1.499999999999999944e-01 2.058270000000000099e-01 1.001004499999999986e+01 1.207094999999999914e+02 1.983789999999999964e+03
1.509999999999999953e-01 2.058599999999999874e-01 1.037115000000000009e+01 1.214809999999999945e+02 1.984005000000000109e+03
1.519999999999999962e-01 2.058929999999999927e-01 1.070949999999999847e+01 1.221740000000000066e+02 1.984210000000000036e+03
1.529999999999999971e-01 2.059225000000000083e-01 1.100764999999999993e+01 1.227545000000000073e+02 1.984400000000000091e+03
1.539999999999999980e-01 2.059479999999999922e-01 1.125110000000000099e+01 1.231965000000000003e+02 1.984565000000000055e+03
1.549999999999999989e-01 2.059674999999999978e-01 1.142854999999999954e+01 1.234805000000000064e+02 1.984694999999999936e+03
1.559999999999999998e-01 2.059805000000000108e-01 1.153214999999999968e+01 1.235965000000000060e+02 1.984780000000000200e+03
1.570000000000000007e-01 2.059860000000000024e-01 1.155790000000000006e+01 1.235399999999999920e+02 1.984825000000000045e+03
1.580000000000000016e-01 2.059845000000000148e-01 1.150509999999999877e+01 1.233155000000000001e+02 1.984815000000000055e+03
1.590000000000000024e-01 2.059759999999999924e-01 1.137674999999999947e+01 1.229350000000000023e+02 1.984764999999999873e+03
