# t [s], A [cm^2], U [cm/s], P [cPa], c [cm/s]
1.000000000000000021e-03 7.709040000000000337e-01 3.394500000000001683e-03 9.749835000000000207e+01 1.570420000000000073e+03
2.000000000000000042e-03 7.708975000000000133e-01 9.123100000000002041e-03 9.747424999999999784e+01 1.570414999999999964e+03
3.000000000000000062e-03 7.709969999999999324e-01 1.582479499999999983e-01 9.762584999999999980e+01 1.570449999999999818e+03
4.000000000000000083e-03 7.710339999999999971e-01 2.340924999999999812e-01 9.770439999999999259e+01 1.570470000000000027e+03
5.000000000000000104e-03 7.709455000000000613e-01 1.361065000000000191e-01 9.751095000000000823e+01 1.570424999999999955e+03
6.000000000000000125e-03 7.708310000000000439e-01 -1.211100000000003840e-02 9.714759999999999707e+01 1.570345000000000027e+03
7.000000000000000146e-03 7.706950000000000189e-01 -2.058250000000000357e-01 9.664619999999999322e+01 1.570230000000000018e+03
8.000000000000000167e-03 7.704530000000000545e-01 -5.711850000000000538e-01 9.584690000000000509e+01 1.570049999999999955e+03
9.000000000000001055e-03 7.701014999999999944e-01 -1.109955000000000025e+00 9.468729999999999336e+01 1.569779999999999973e+03
1.000000000000000194e-02 7.696380000000000443e-01 -1.806590000000000140e+00 9.313660000000000139e+01 1.569420000000000073e+03
1.099999999999999936e-02 7.690265000000000573e-01 -2.688485000000000014e+00 9.111439999999998918e+01 1.568934999999999945e+03
1.200000000000000025e-02 7.682725000000000248e-01 -3.714975000000000360e+00 8.861504999999999654e+01 1.568324999999999818e+03
1.300000000000000114e-02 7.674775000000000347e-01 -4.702144999999999797e+00 8.583785000000000309e+01 1.567634999999999991e+03
1.400000000000000203e-02 7.667819999999999636e-01 -5.398401499999999409e+00 8.313859999999999673e+01 1.566924999999999955e+03
1.499999999999999944e-02 7.662820000000000187e-01 -5.621290000000000120e+00 8.085335000000000605e+01 1.566285000000000082e+03
1.600000000000000033e-02 7.659875000000000433e-01 -5.334600000000000009e+00 7.915090000000000714e+01 1.565764999999999873e+03
1.700000000000000122e-02 7.658295000000000519e-01 -4.642945000000000100e+00 7.798695000000000732e+01 1.565355000000000018e+03
1.800000000000000211e-02 7.657005000000000061e-01 -3.734474999999999767e+00 7.714660000000000650e+01 1.565029999999999973e+03
1.900000000000000300e-02 7.654980000000000118e-01 -2.805146500000000209e+00 7.634109999999999729e+01 1.564715000000000146e+03
2.000000000000000042e-02 7.651605000000000212e-01 -1.989584499999999867e+00 7.532065000000000055e+01 1.564369999999999891e+03
2.100000000000000130e-02 7.646850000000000591e-01 -1.324680000000000080e+00 7.395889999999999986e+01 1.563960000000000036e+03
2.200000000000000219e-02 7.641160000000000174e-01 -7.619000000000000217e-01 7.227384999999999593e+01 1.563474999999999909e+03
2.299999999999999961e-02 7.635155000000000136e-01 -2.172649999999998194e-01 7.038134999999999764e+01 1.562940000000000055e+03
2.400000000000000050e-02 7.629285000000000094e-01 3.719199999999998063e-01 6.841630000000000678e+01 1.562380000000000109e+03
2.500000000000000139e-02 7.623674999999999757e-01 1.010024999999999729e+00 6.646244999999998981e+01 1.561815000000000055e+03
2.600000000000000228e-02 7.618080000000000407e-01 1.634579999999999700e+00 6.451394999999999413e+01 1.561235000000000127e+03
2.700000000000000316e-02 7.611970000000000125e-01 2.132035000000000569e+00 6.247440000000000282e+01 1.560639999999999873e+03
2.800000000000000058e-02 7.604724999999999957e-01 2.368815000000000115e+00 6.018599999999999284e+01 1.559990000000000009e+03
2.900000000000000147e-02 7.595825000000000493e-01 2.228305000000000202e+00 5.747884999999999422e+01 1.559250000000000000e+03
3.000000000000000236e-02 7.585014999999999397e-01 1.644270000000000564e+00 5.422724999999999795e+01 1.558385000000000218e+03
3.099999999999999978e-02 7.572395000000000653e-01 6.219999999999998863e-01 5.039555000000000007e+01 1.557384999999999991e+03
3.200000000000000067e-02 7.558439999999999603e-01 -7.602999999999999758e-01 4.606099999999999994e+01 1.556259999999999991e+03
3.300000000000000155e-02 7.543914999999999926e-01 -2.367899999999999672e+00 4.140644999999999953e+01 1.555045000000000073e+03
3.400000000000000244e-02 7.529684999999999295e-01 -4.037595000000000489e+00 3.668874999999999886e+01 1.553800000000000182e+03
3.500000000000000333e-02 7.516625000000000112e-01 -5.606350000000000833e+00 3.219574999999999676e+01 1.552590000000000146e+03
3.600000000000000422e-02 7.505459999999999354e-01 -6.933804999999999552e+00 2.820350000000000179e+01 1.551480000000000018e+03
3.700000000000000511e-02 7.496724999999999639e-01 -7.915359500000000104e+00 2.494290000000000163e+01 1.550529999999999973e+03
3.799999999999999906e-02 7.490740000000000176e-01 -8.485759999999999081e+00 2.257920000000000016e+01 1.549789999999999964e+03
3.899999999999999994e-02 7.487619999999999276e-01 -8.615535000000001276e+00 2.120524999999999949e+01 1.549289999999999964e+03
4.000000000000000083e-02 7.487334999999999408e-01 -8.303290000000000504e+00 2.084625000000000128e+01 1.549049999999999955e+03
4.100000000000000172e-02 7.489734999999999587e-01 -7.566289999999999516e+00 2.147240000000000038e+01 1.549069999999999936e+03
4.200000000000000261e-02 7.494589999999999863e-01 -6.432142999999999944e+00 2.301514999999999844e+01 1.549329999999999927e+03
4.300000000000000350e-02 7.501649999999999707e-01 -4.933514999999999873e+00 2.538295000000000101e+01 1.549829999999999927e+03
4.400000000000000439e-02 7.510639999999999539e-01 -3.106114999999999959e+00 2.847204999999999941e+01 1.550534999999999854e+03
4.499999999999999833e-02 7.521279999999999077e-01 -9.899649999999997618e-01 3.217304999999999637e+01 1.551414999999999964e+03
4.599999999999999922e-02 7.533259999999999401e-01 1.368149999999999977e+00 3.637184999999999491e+01 1.552449999999999818e+03
4.700000000000000011e-02 7.546245000000000314e-01 3.912615000000000620e+00 4.094935000000000258e+01 1.553610000000000127e+03
4.800000000000000100e-02 7.559864999999998947e-01 6.578345000000000553e+00 4.578049999999999642e+01 1.554855000000000018e+03
4.900000000000000189e-02 7.573745000000000616e-01 9.293299999999998562e+00 5.073579999999999757e+01 1.556155000000000200e+03
5.000000000000000278e-02 7.587504999999999944e-01 1.198192600000000141e+01 5.568524999999999636e+01 1.557474999999999909e+03
5.100000000000000366e-02 7.600774999999999615e-01 1.457090500000000155e+01 6.050440000000000396e+01 1.558784999999999854e+03
5.200000000000000455e-02 7.613274999999999348e-01 1.699423999999999779e+01 6.508214999999999861e+01 1.560054999999999836e+03
5.300000000000000544e-02 7.624765000000000015e-01 1.919819999999999993e+01 6.932750000000000057e+01 1.561255000000000109e+03
5.399999999999999939e-02 7.635100000000000220e-01 2.114470000000000027e+01 7.317584999999999695e+01 1.562369999999999891e+03
5.500000000000000028e-02 7.644225000000000048e-01 2.281240000000000023e+01 7.659220000000000539e+01 1.563380000000000109e+03
5.600000000000000117e-02 7.652170000000000361e-01 2.419660000000000011e+01 7.957155000000000200e+01 1.564289999999999964e+03
5.700000000000000205e-02 7.659035000000000704e-01 2.530765000000000242e+01 8.213665000000000305e+01 1.565090000000000146e+03
5.800000000000000294e-02 7.664979999999999016e-01 2.616769999999999996e+01 8.433344999999999914e+01 1.565795000000000073e+03
5.900000000000000383e-02 7.670194999999999652e-01 2.680814999999999770e+01 8.622575000000000500e+01 1.566409999999999854e+03
6.000000000000000472e-02 7.674894999999999357e-01 2.726664999999999850e+01 8.788855000000000928e+01 1.566969999999999800e+03
6.099999999999999867e-02 7.679305000000000714e-01 2.758445000000000036e+01 8.940290000000000248e+01 1.567470000000000027e+03
6.199999999999999956e-02 7.683640000000000470e-01 2.780470000000000041e+01 9.085065000000000168e+01 1.567944999999999936e+03
6.300000000000000044e-02 7.688114999999999810e-01 2.797059999999999746e+01 9.231085000000000207e+01 1.568414999999999964e+03
6.400000000000000133e-02 7.692919999999999758e-01 2.812399999999999878e+01 9.385634999999999195e+01 1.568894999999999982e+03
6.500000000000000222e-02 7.698225000000000762e-01 2.830365000000000109e+01 9.555074999999999363e+01 1.569404999999999973e+03
6.600000000000000311e-02 7.704155000000000308e-01 2.854319999999999879e+01 9.744579999999999131e+01 1.569954999999999927e+03
6.700000000000000400e-02 7.710805000000000575e-01 2.886939999999999884e+01 9.957864999999999611e+01 1.570565000000000055e+03
6.800000000000000488e-02 7.718220000000000081e-01 2.929995000000000260e+01 1.019685999999999950e+02 1.571230000000000018e+03
6.900000000000000577e-02 7.726359999999999895e-01 2.984199999999999875e+01 1.046159999999999997e+02 1.571970000000000027e+03
7.000000000000000666e-02 7.735170000000000101e-01 3.049145000000000039e+01 1.075020000000000095e+02 1.572764999999999873e+03
7.100000000000000755e-02 7.744489999999999430e-01 3.123320000000000007e+01 1.105859999999999985e+02 1.573609999999999900e+03
7.200000000000000844e-02 7.754145000000000065e-01 3.204224999999999568e+01 1.138100000000000023e+02 1.574505000000000109e+03
7.300000000000000933e-02 7.763919999999999710e-01 3.288530000000000086e+01 1.171024999999999920e+02 1.575420000000000073e+03
7.399999999999999634e-02 7.773559999999999359e-01 3.372379999999999711e+01 1.203799999999999955e+02 1.576340000000000146e+03
7.499999999999999722e-02 7.782810000000000006e-01 3.451624999999999943e+01 1.235575000000000045e+02 1.577240000000000009e+03
7.599999999999999811e-02 7.791440000000000587e-01 3.522160000000000224e+01 1.265474999999999852e+02 1.578099999999999909e+03
7.699999999999999900e-02 7.799230000000000329e-01 3.580134999999999934e+01 1.292704999999999984e+02 1.578900000000000091e+03
7.799999999999999989e-02 7.805990000000000428e-01 3.622220000000000084e+01 1.316574999999999989e+02 1.579615000000000009e+03
7.900000000000000078e-02 7.811595000000000066e-01 3.645785000000000053e+01 1.336539999999999964e+02 1.580240000000000009e+03
8.000000000000000167e-02 7.815954999999999986e-01 3.648995000000000033e+01 1.352230000000000132e+02 1.580744999999999891e+03
8.100000000000000255e-02 7.819034999999999735e-01 3.630910000000000082e+01 1.363455000000000155e+02 1.581144999999999982e+03
8.200000000000000344e-02 7.820854999999999890e-01 3.591464999999999463e+01 1.370219999999999914e+02 1.581414999999999964e+03
8.300000000000000433e-02 7.821479999999999544e-01 3.531459999999999866e+01 1.372700000000000102e+02 1.581569999999999936e+03
8.400000000000000522e-02 7.821015000000000050e-01 3.452479999999999905e+01 1.371234999999999786e+02 1.581615000000000009e+03
8.500000000000000611e-02 7.819609999999999062e-01 3.356799999999999784e+01 1.366299999999999955e+02 1.581555000000000064e+03
8.600000000000000699e-02 7.817430000000000767e-01 3.247230000000000416e+01 1.358470000000000084e+02 1.581414999999999964e+03
8.700000000000000788e-02 7.814665000000000639e-01 3.127015000000000100e+01 1.348394999999999868e+02 1.581200000000000045e+03
8.800000000000000877e-02 7.811509999999999287e-01 2.999629999999999797e+01 1.336775000000000091e+02 1.580930000000000064e+03
8.899999999999999578e-02 7.808165000000000244e-01 2.868679999999999808e+01 1.324309999999999832e+02 1.580634999999999991e+03
8.999999999999999667e-02 7.804809999999999803e-01 2.737689999999999912e+01 1.311674999999999898e+02 1.580309999999999945e+03
9.099999999999999756e-02 7.801620000000000221e-01 2.609984999999999644e+01 1.299490000000000123e+02 1.579990000000000009e+03
9.199999999999999845e-02 7.798739999999999561e-01 2.488520000000000110e+01 1.288309999999999889e+02 1.579690000000000055e+03
9.299999999999999933e-02 7.796294999999999753e-01 2.375795000000000101e+01 1.278580000000000041e+02 1.579414999999999964e+03
9.400000000000000022e-02 7.794349999999999890e-01 2.273734999999999928e+01 1.270629999999999882e+02 1.579175000000000182e+03
9.500000000000000111e-02 7.792980000000000462e-01 2.183634999999999948e+01 1.264679999999999893e+02 1.578990000000000009e+03
9.600000000000000200e-02 7.792185000000000361e-01 2.106119999999999948e+01 1.260805000000000007e+02 1.578855000000000018e+03
9.700000000000000289e-02 7.791939999999999422e-01 2.041165000000000163e+01 1.258990000000000009e+02 1.578769999999999982e+03
9.800000000000000377e-02 7.792200000000000237e-01 1.988114999999999810e+01 1.259059999999999917e+02 1.578735000000000127e+03
9.900000000000000466e-02 7.792885000000000506e-01 1.945749999999999957e+01 1.260775000000000006e+02 1.578744999999999891e+03
1.000000000000000056e-01 7.793885000000000396e-01 1.912395000000000067e+01 1.263795000000000073e+02 1.578799999999999955e+03
1.010000000000000064e-01 7.795094999999999663e-01 1.885994999999999777e+01 1.267725000000000080e+02 1.578880000000000109e+03
1.020000000000000073e-01 7.796385000000000121e-01 1.864240000000000208e+01 1.272125000000000057e+02 1.578970000000000027e+03
1.030000000000000082e-01 7.797624999999999140e-01 1.844705000000000084e+01 1.276544999999999987e+02 1.579075000000000045e+03
1.040000000000000091e-01 7.798689999999999234e-01 1.824974999999999881e+01 1.280529999999999973e+02 1.579170000000000073e+03
1.050000000000000100e-01 7.799469999999999459e-01 1.802749999999999986e+01 1.283679999999999950e+02 1.579255000000000109e+03
1.059999999999999970e-01 7.799865000000000270e-01 1.775965000000000060e+01 1.285625000000000000e+02 1.579309999999999945e+03
1.069999999999999979e-01 7.799814999999999943e-01 1.742905000000000015e+01 1.286069999999999993e+02 1.579325000000000045e+03
1.079999999999999988e-01 7.799249999999999794e-01 1.702254999999999896e+01 1.284799999999999898e+02 1.579304999999999836e+03
1.089999999999999997e-01 7.798154999999999948e-01 1.653154999999999930e+01 1.281700000000000159e+02 1.579235000000000127e+03
1.100000000000000006e-01 7.796525000000000816e-01 1.595275000000000176e+01 1.276730000000000018e+02 1.579119999999999891e+03
1.110000000000000014e-01 7.794400000000000217e-01 1.528770000000000095e+01 1.269960000000000093e+02 1.578954999999999927e+03
1.120000000000000023e-01 7.791829999999999590e-01 1.454311999999999827e+01 1.261550000000000011e+02 1.578750000000000000e+03
1.130000000000000032e-01 7.788884999999999836e-01 1.373006499999999974e+01 1.251734999999999900e+02 1.578500000000000000e+03
1.140000000000000041e-01 7.785670000000000091e-01 1.286378999999999984e+01 1.240819999999999936e+02 1.578220000000000027e+03
1.150000000000000050e-01 7.782275000000000720e-01 1.196274000000000015e+01 1.229159999999999968e+02 1.577914999999999964e+03
1.160000000000000059e-01 7.778829999999999911e-01 1.104759500000000116e+01 1.217154999999999916e+02 1.577590000000000146e+03
1.170000000000000068e-01 7.775449999999999307e-01 1.014042000000000066e+01 1.205225000000000080e+02 1.577269999999999982e+03
1.180000000000000077e-01 7.772244999999999848e-01 9.263449999999998852e+00 1.193774999999999977e+02 1.576954999999999927e+03
1.190000000000000085e-01 7.769329999999999847e-01 8.438195000000000334e+00 1.183199999999999932e+02 1.576655000000000200e+03
1.200000000000000094e-01 7.766794999999999671e-01 7.684040000000000425e+00 1.173830000000000098e+02 1.576384999999999991e+03
1.209999999999999964e-01 7.764714999999999812e-01 7.017759999999999110e+00 1.165970000000000084e+02 1.576150000000000091e+03
1.219999999999999973e-01 7.763145000000000184e-01 6.452444999999999986e+00 1.159834999999999923e+02 1.575954999999999927e+03
1.229999999999999982e-01 7.762120000000000131e-01 5.997104999999999464e+00 1.155570000000000022e+02 1.575804999999999836e+03
1.239999999999999991e-01 7.761644999999999239e-01 5.656324999999999825e+00 1.153234999999999957e+02 1.575715000000000146e+03
1.250000000000000000e-01 7.761700000000000266e-01 5.430175000000000196e+00 1.152805000000000035e+02 1.575660000000000082e+03
1.260000000000000009e-01 7.762255000000000127e-01 5.314370000000000260e+00 1.154170000000000016e+02 1.575670000000000073e+03
1.270000000000000018e-01 7.763249999999999318e-01 5.300595000000000390e+00 1.157164999999999964e+02 1.575720000000000027e+03
1.280000000000000027e-01 7.764614999999999156e-01 5.377055000000000362e+00 1.161539999999999964e+02 1.575804999999999836e+03
1.290000000000000036e-01 7.766254999999999686e-01 5.529125000000000512e+00 1.167025000000000006e+02 1.575924999999999955e+03
1.300000000000000044e-01 7.768085000000000129e-01 5.740070000000000228e+00 1.173305000000000007e+02 1.576075000000000045e+03
1.310000000000000053e-01 7.770015000000000116e-01 5.991915000000000546e+00 1.180040000000000049e+02 1.576240000000000009e+03
1.320000000000000062e-01 7.771945000000000103e-01 6.266160000000000174e+00 1.186910000000000025e+02 1.576409999999999854e+03
1.330000000000000071e-01 7.773790000000000422e-01 6.544660000000000366e+00 1.193580000000000041e+02 1.576585000000000036e+03
1.340000000000000080e-01 7.775464999999999183e-01 6.810280000000000555e+00 1.199770000000000039e+02 1.576750000000000000e+03
1.350000000000000089e-01 7.776914999999999800e-01 7.047559999999999825e+00 1.205225000000000080e+02 1.576900000000000091e+03
1.360000000000000098e-01 7.778074999999999850e-01 7.243274999999999686e+00 1.209729999999999990e+02 1.577029999999999973e+03
1.370000000000000107e-01 7.778905000000000403e-01 7.386770000000000280e+00 1.213119999999999976e+02 1.577130000000000109e+03
1.380000000000000115e-01 7.779390000000000471e-01 7.470309999999999562e+00 1.215314999999999941e+02 1.577210000000000036e+03
1.390000000000000124e-01 7.779525000000000468e-01 7.489164999999999850e+00 1.216244999999999976e+02 1.577250000000000000e+03
1.400000000000000133e-01 7.779305000000000803e-01 7.441659999999999719e+00 1.215935000000000059e+02 1.577259999999999991e+03
1.410000000000000142e-01 7.778760000000000119e-01 7.329029999999999490e+00 1.214424999999999955e+02 1.577240000000000009e+03
1.420000000000000151e-01 7.777924999999999978e-01 7.155244999999999855e+00 1.211829999999999927e+02 1.577184999999999945e+03
1.430000000000000160e-01 7.776834999999999720e-01 6.926634999999999209e+00 1.208284999999999911e+02 1.577105000000000018e+03
1.440000000000000169e-01 7.775544999999999263e-01 6.651550000000000296e+00 1.203960000000000008e+02 1.577005000000000109e+03
1.450000000000000178e-01 7.774119999999999919e-01 6.339870000000000339e+00 1.199044999999999987e+02 1.576884999999999991e+03
1.459999999999999909e-01 7.772594999999999921e-01 6.002515000000000711e+00 1.193739999999999952e+02 1.576759999999999991e+03
1.469999999999999918e-01 7.771049999999999347e-01 5.650920000000000165e+00 1.188245000000000005e+02 1.576615000000000009e+03
1.479999999999999927e-01 7.769524999999999348e-01 5.296499999999999986e+00 1.182760000000000105e+02 1.576474999999999909e+03
1.489999999999999936e-01 7.768074999999999841e-01 4.950190000000000090e+00 1.177460000000000093e+02 1.576329999999999927e+03
1.499999999999999944e-01 7.766735000000000166e-01 4.621914999999999552e+00 1.172510000000000048e+02 1.576195000000000164e+03
1.509999999999999953e-01 7.765545000000000364e-01 4.320274999999999643e+00 1.168029999999999973e+02 1.576065000000000055e+03
1.519999999999999962e-01 7.764524999999999899e-01 4.052154999999999951e+00 1.164124999999999943e+02 1.575950000000000045e+03
1.529999999999999971e-01 7.763689999999999758e-01 3.822560000000000180e+00 1.160854999999999961e+02 1.575855000000000018e+03
1.539999999999999980e-01 7.763044999999999529e-01 3.634454999999999991e+00 1.158234999999999957e+02 1.575775000000000091e+03
1.549999999999999989e-01 7.762569999999999748e-01 3.488770000000000149e+00 1.156260000000000048e+02 1.575710000000000036e+03
1.559999999999999998e-01 7.762264999999999304e-01 3.384475000000000122e+00 1.154890000000000043e+02 1.575654999999999973e+03
1.570000000000000007e-01 7.762094999999999967e-01 3.318735000000000213e+00 1.154050000000000011e+02 1.575619999999999891e+03
1.580000000000000016e-01 7.762035000000000462e-01 3.287150000000000016e+00 1.153640000000000043e+02 1.575595000000000027e+03
1.590000000000000024e-01 7.762044999999999639e-01 3.284049999999999692e+00 1.153539999999999992e+02 1.575585000000000036e+03
