# t [s], A [cm^2], U [cm/s], P [cPa], c [cm/s]
1.000000000000000021e-03 6.007234999999999658e-01 2.099850000000000327e-03 9.828499999999999659e+01 1.385744999999999891e+03
2.000000000000000042e-03 6.007160000000000277e-01 1.052755000000000054e-03 9.827084999999999582e+01 1.385744999999999891e+03
3.000000000000000062e-03 6.007575000000000554e-01 6.572044999999999970e-02 9.832574999999999932e+01 1.385759999999999991e+03
4.000000000000000083e-03 6.008120000000000127e-01 1.495244499999999754e-01 9.842050000000000409e+01 1.385789999999999964e+03
5.000000000000000104e-03 6.008160000000000167e-01 1.572385000000000033e-01 9.843250000000000455e+01 1.385805000000000064e+03
6.000000000000000125e-03 6.007774999999999643e-01 9.727950000000000486e-02 9.833410000000000650e+01 1.385779999999999973e+03
7.000000000000000146e-03 6.007325000000000026e-01 2.254600000000001048e-02 9.816720000000000823e+01 1.385739999999999782e+03
8.000000000000000167e-03 6.006780000000000452e-01 -7.076100000000001833e-02 9.793465000000000487e+01 1.385684999999999945e+03
9.000000000000001055e-03 6.005850000000000355e-01 -2.323245000000000449e-01 9.758129999999999882e+01 1.385594999999999800e+03
1.000000000000000194e-02 6.004369999999999985e-01 -4.848949999999999649e-01 9.706114999999999782e+01 1.385460000000000036e+03
1.099999999999999936e-02 6.002319999999999878e-01 -8.299799999999999400e-01 9.634560000000000457e+01 1.385275000000000091e+03
1.200000000000000025e-02 5.999575000000000324e-01 -1.273715000000000153e+00 9.540289999999998827e+01 1.385019999999999982e+03
1.300000000000000114e-02 5.996074999999999600e-01 -1.813939999999999886e+00 9.420924999999999727e+01 1.384690000000000055e+03
1.400000000000000203e-02 5.991930000000000867e-01 -2.414050000000000029e+00 9.278050000000000352e+01 1.384285000000000082e+03
1.499999999999999944e-02 5.987495000000000456e-01 -2.999225000000000030e+00 9.118690000000000850e+01 1.383820000000000164e+03
1.600000000000000033e-02 5.983165000000000289e-01 -3.479495000000000005e+00 8.953690000000000282e+01 1.383324999999999818e+03
1.700000000000000122e-02 5.979295000000000027e-01 -3.780540000000000234e+00 8.794145000000000323e+01 1.382824999999999818e+03
1.800000000000000211e-02 5.976025000000000365e-01 -3.864132999999999818e+00 8.648300000000000409e+01 1.382339999999999918e+03
1.900000000000000300e-02 5.973319999999999741e-01 -3.732568000000000108e+00 8.519809999999999661e+01 1.381889999999999873e+03
2.000000000000000042e-02 5.970989999999999354e-01 -3.420596499999999818e+00 8.407724999999999227e+01 1.381470000000000027e+03
2.100000000000000130e-02 5.968789999999999374e-01 -2.980818000000000190e+00 8.307599999999999341e+01 1.381085000000000036e+03
2.200000000000000219e-02 5.966489999999999849e-01 -2.467805499999999874e+00 8.213304999999999723e+01 1.380710000000000036e+03
2.299999999999999961e-02 5.963924999999999921e-01 -1.924920000000000186e+00 8.118905000000000882e+01 1.380335000000000036e+03
2.400000000000000050e-02 5.961030000000000495e-01 -1.376835000000000031e+00 8.020154999999999745e+01 1.379954999999999927e+03
2.500000000000000139e-02 5.957844999999999391e-01 -8.291399999999999881e-01 7.915219999999999345e+01 1.379555000000000064e+03
2.600000000000000228e-02 5.954454999999999609e-01 -2.743450000000002831e-01 7.804499999999998749e+01 1.379144999999999982e+03
2.700000000000000316e-02 5.950969999999999871e-01 2.987699999999997580e-01 7.689785000000000537e+01 1.378724999999999909e+03
2.800000000000000058e-02 5.947465000000000668e-01 8.958550000000000679e-01 7.573120000000000118e+01 1.378295000000000073e+03
2.900000000000000147e-02 5.943964999999999943e-01 1.510739999999999972e+00 7.455725000000001046e+01 1.377865000000000009e+03
3.000000000000000236e-02 5.940410000000000412e-01 2.123375000000000234e+00 7.337385000000000446e+01 1.377430000000000064e+03
3.099999999999999978e-02 5.936704999999999899e-01 2.701830000000000176e+00 7.216255000000001019e+01 1.376980000000000018e+03
3.200000000000000067e-02 5.932714999999999517e-01 3.207434999999999814e+00 7.089189999999999259e+01 1.376519999999999982e+03
3.300000000000000155e-02 5.928309999999999969e-01 3.601554999999999840e+00 6.952414999999999168e+01 1.376034999999999854e+03
3.400000000000000244e-02 5.923384999999999900e-01 3.852584999999999926e+00 6.802384999999999593e+01 1.375514999999999873e+03
3.500000000000000333e-02 5.917904999999999971e-01 3.941899999999999515e+00 6.636674999999999613e+01 1.374954999999999927e+03
3.600000000000000422e-02 5.911899999999999933e-01 3.867664999999999687e+00 6.454730000000000700e+01 1.374349999999999909e+03
3.700000000000000511e-02 5.905484999999999207e-01 3.645295000000000396e+00 6.258279999999999887e+01 1.373710000000000036e+03
3.799999999999999906e-02 5.898814999999999475e-01 3.305759999999999810e+00 6.051354999999999507e+01 1.373029999999999973e+03
3.899999999999999994e-02 5.892134999999999456e-01 2.891169999999999796e+00 5.839959999999999951e+01 1.372339999999999918e+03
4.000000000000000083e-02 5.885675000000000212e-01 2.449339999999999851e+00 5.631489999999999441e+01 1.371659999999999854e+03
4.100000000000000172e-02 5.879674999999999763e-01 2.028380000000000294e+00 5.433955000000000268e+01 1.371000000000000000e+03
4.200000000000000261e-02 5.874354999999999993e-01 1.672419999999999796e+00 5.255254999999999654e+01 1.370384999999999991e+03
4.300000000000000350e-02 5.869895000000000529e-01 1.418255000000000265e+00 5.102539999999999765e+01 1.369849999999999909e+03
4.400000000000000439e-02 5.866424999999999557e-01 1.294200000000000017e+00 4.981765000000000043e+01 1.369394999999999982e+03
4.499999999999999833e-02 5.864044999999999952e-01 1.319885000000000197e+00 4.897419999999999618e+01 1.369049999999999955e+03
4.599999999999999922e-02 5.862810000000000521e-01 1.507274499999999851e+00 4.852474999999999739e+01 1.368820000000000164e+03
4.700000000000000011e-02 5.862729999999999331e-01 1.862225000000000019e+00 4.848484999999999445e+01 1.368714999999999918e+03
4.800000000000000100e-02 5.863804999999999712e-01 2.386134999999999895e+00 4.885750000000000171e+01 1.368739999999999782e+03
4.900000000000000189e-02 5.866009999999999280e-01 3.077417500000000139e+00 4.963615000000000066e+01 1.368894999999999982e+03
5.000000000000000278e-02 5.869305000000000216e-01 3.932387499999999925e+00 5.080644999999999811e+01 1.369179999999999836e+03
5.100000000000000366e-02 5.873629999999999685e-01 4.945662650000000049e+00 5.234864999999999924e+01 1.369585000000000036e+03
5.200000000000000455e-02 5.878924999999999290e-01 6.110005000000000130e+00 5.423860000000000525e+01 1.370110000000000127e+03
5.300000000000000544e-02 5.885124999999999940e-01 7.415944999999999787e+00 5.644840000000000657e+01 1.370750000000000000e+03
5.399999999999999939e-02 5.892135000000000566e-01 8.851155000000000328e+00 5.894700000000000273e+01 1.371485000000000127e+03
5.500000000000000028e-02 5.899864999999999693e-01 1.040027500000000060e+01 6.169984999999999786e+01 1.372315000000000055e+03
5.600000000000000117e-02 5.908195000000000530e-01 1.204464499999999916e+01 6.466935000000000855e+01 1.373230000000000018e+03
5.700000000000000205e-02 5.917014999999999914e-01 1.376281999999999961e+01 6.781499999999999773e+01 1.374210000000000036e+03
5.800000000000000294e-02 5.926200000000000356e-01 1.553115999999999985e+01 7.109440000000000737e+01 1.375244999999999891e+03
5.900000000000000383e-02 5.935624999999999929e-01 1.732464999999999833e+01 7.446430000000000859e+01 1.376320000000000164e+03
6.000000000000000472e-02 5.945165000000000033e-01 1.911827999999999861e+01 7.788155000000000427e+01 1.377429999999999836e+03
6.099999999999999867e-02 5.954709999999999726e-01 2.088789999999999836e+01 8.130525000000000091e+01 1.378555000000000064e+03
6.199999999999999956e-02 5.964150000000000285e-01 2.261124999999999829e+01 8.469764999999999588e+01 1.379684999999999945e+03
6.300000000000000044e-02 5.973405000000000520e-01 2.426905000000000001e+01 8.802590000000000714e+01 1.380805000000000064e+03
6.400000000000000133e-02 5.982404999999999529e-01 2.584525000000000006e+01 9.126210000000000377e+01 1.381904999999999973e+03
6.500000000000000222e-02 5.991094999999999615e-01 2.732760000000000034e+01 9.438644999999999641e+01 1.382985000000000127e+03
6.600000000000000311e-02 5.999460000000000903e-01 2.870774999999999721e+01 9.738364999999998872e+01 1.384029999999999973e+03
6.700000000000000400e-02 6.007470000000000310e-01 2.998084999999999667e+01 1.002463500000000067e+02 1.385045000000000073e+03
6.800000000000000488e-02 6.015135000000000343e-01 3.114559999999999818e+01 1.029736000000000047e+02 1.386019999999999982e+03
6.900000000000000577e-02 6.022469999999999768e-01 3.220345000000000368e+01 1.055689999999999884e+02 1.386960000000000036e+03
7.000000000000000666e-02 6.029504999999999448e-01 3.315834999999999866e+01 1.080409999999999968e+02 1.387860000000000127e+03
7.100000000000000755e-02 6.036265000000000658e-01 3.401610000000000156e+01 1.104010000000000105e+02 1.388724999999999909e+03
7.200000000000000844e-02 6.042799999999999283e-01 3.478390000000000271e+01 1.126629999999999967e+02 1.389559999999999945e+03
7.300000000000000933e-02 6.049150000000000915e-01 3.546954999999999814e+01 1.148435000000000059e+02 1.390365000000000009e+03
7.399999999999999634e-02 6.055349999999999344e-01 3.608135000000000048e+01 1.169560000000000031e+02 1.391150000000000091e+03
7.499999999999999722e-02 6.061429999999999874e-01 3.662720000000000198e+01 1.190159999999999911e+02 1.391914999999999964e+03
7.599999999999999811e-02 6.067424999999999624e-01 3.711459999999999582e+01 1.210354999999999990e+02 1.392660000000000082e+03
7.699999999999999900e-02 6.073355000000000281e-01 3.754975000000000307e+01 1.230234999999999985e+02 1.393394999999999982e+03
7.799999999999999989e-02 6.079240000000000199e-01 3.793784999999999741e+01 1.249885000000000019e+02 1.394119999999999891e+03
7.900000000000000078e-02 6.085069999999999091e-01 3.828244999999999720e+01 1.269319999999999879e+02 1.394835000000000036e+03
8.000000000000000167e-02 6.090845000000000287e-01 3.858575000000000443e+01 1.288545000000000016e+02 1.395539999999999964e+03
8.100000000000000255e-02 6.096555000000000168e-01 3.884815000000000396e+01 1.307515000000000214e+02 1.396235000000000127e+03
8.200000000000000344e-02 6.102165000000000505e-01 3.906869999999999976e+01 1.326154999999999973e+02 1.396920000000000073e+03
8.300000000000000433e-02 6.107635000000000147e-01 3.924514999999999532e+01 1.344359999999999786e+02 1.397595000000000027e+03
8.400000000000000522e-02 6.112944999999999629e-01 3.937420000000000186e+01 1.362009999999999934e+02 1.398244999999999891e+03
8.500000000000000611e-02 6.118040000000000145e-01 3.945194999999999652e+01 1.378954999999999984e+02 1.398875000000000000e+03
8.600000000000000699e-02 6.122885000000000133e-01 3.947400000000000375e+01 1.395054999999999836e+02 1.399474999999999909e+03
8.700000000000000788e-02 6.127430000000000376e-01 3.943604999999999450e+01 1.410144999999999982e+02 1.400045000000000073e+03
8.800000000000000877e-02 6.131640000000000423e-01 3.933405000000000484e+01 1.424095000000000084e+02 1.400579999999999927e+03
8.899999999999999578e-02 6.135475000000000234e-01 3.916450000000000387e+01 1.436769999999999925e+02 1.401069999999999936e+03
8.999999999999999667e-02 6.138909999999999645e-01 3.892484999999999928e+01 1.448054999999999950e+02 1.401519999999999982e+03
9.099999999999999756e-02 6.141915000000000013e-01 3.861345000000000027e+01 1.457875000000000227e+02 1.401909999999999854e+03
9.199999999999999845e-02 6.144484999999999530e-01 3.822995000000000232e+01 1.466159999999999854e+02 1.402259999999999991e+03
9.299999999999999933e-02 6.146610000000000129e-01 3.777524999999999977e+01 1.472889999999999873e+02 1.402554999999999836e+03
9.400000000000000022e-02 6.148290000000000699e-01 3.725139999999999674e+01 1.478064999999999998e+02 1.402795000000000073e+03
9.500000000000000111e-02 6.149544999999999595e-01 3.666195000000000448e+01 1.481720000000000255e+02 1.402985000000000127e+03
9.600000000000000200e-02 6.150375000000000147e-01 3.601130000000000564e+01 1.483910000000000196e+02 1.403119999999999891e+03
9.700000000000000289e-02 6.150820000000000176e-01 3.530514999999999759e+01 1.484724999999999966e+02 1.403204999999999927e+03
9.800000000000000377e-02 6.150910000000000544e-01 3.455015000000000214e+01 1.484270000000000209e+02 1.403250000000000000e+03
9.900000000000000466e-02 6.150670000000000304e-01 3.375354999999999706e+01 1.482674999999999841e+02 1.403250000000000000e+03
1.000000000000000056e-01 6.150145000000000195e-01 3.292329999999999757e+01 1.480079999999999814e+02 1.403210000000000036e+03
1.010000000000000064e-01 6.149379999999999846e-01 3.206759999999999877e+01 1.476634999999999991e+02 1.403134999999999991e+03
1.020000000000000073e-01 6.148415000000000408e-01 3.119494999999999862e+01 1.472500000000000000e+02 1.403030000000000200e+03
1.030000000000000082e-01 6.147294999999999288e-01 3.031354999999999933e+01 1.467835000000000036e+02 1.402909999999999854e+03
1.040000000000000091e-01 6.146059999999999857e-01 2.943149999999999977e+01 1.462795000000000130e+02 1.402764999999999873e+03
1.050000000000000100e-01 6.144754999999999523e-01 2.855614999999999881e+01 1.457524999999999977e+02 1.402605000000000018e+03
1.059999999999999970e-01 6.143410000000000259e-01 2.769429999999999836e+01 1.452164999999999964e+02 1.402440000000000055e+03
1.069999999999999979e-01 6.142064999999999886e-01 2.685170000000000101e+01 1.446834999999999809e+02 1.402269999999999982e+03
1.079999999999999988e-01 6.140745000000000786e-01 2.603300000000000125e+01 1.441630000000000109e+02 1.402094999999999800e+03
1.089999999999999997e-01 6.139474999999999794e-01 2.524170000000000158e+01 1.436645000000000039e+02 1.401929999999999836e+03
1.100000000000000006e-01 6.138265000000000526e-01 2.447990000000000066e+01 1.431940000000000168e+02 1.401759999999999991e+03
1.110000000000000014e-01 6.137124999999999941e-01 2.374844999999999828e+01 1.427545000000000073e+02 1.401605000000000018e+03
1.120000000000000023e-01 6.136055000000000259e-01 2.304680000000000106e+01 1.423474999999999966e+02 1.401454999999999927e+03
1.130000000000000032e-01 6.135064999999999547e-01 2.237324999999999875e+01 1.419730000000000132e+02 1.401319999999999936e+03
1.140000000000000041e-01 6.134135000000000559e-01 2.172494999999999976e+01 1.416270000000000095e+02 1.401184999999999945e+03
1.150000000000000050e-01 6.133245000000000502e-01 2.109805000000000064e+01 1.413059999999999832e+02 1.401065000000000055e+03
1.160000000000000059e-01 6.132394999999999374e-01 2.048810000000000286e+01 1.410035000000000025e+02 1.400945000000000164e+03
1.170000000000000068e-01 6.131550000000000056e-01 1.988984999999999914e+01 1.407115000000000009e+02 1.400829999999999927e+03
1.180000000000000077e-01 6.130705000000000737e-01 1.929809999999999803e+01 1.404239999999999782e+02 1.400719999999999800e+03
1.190000000000000085e-01 6.129820000000000269e-01 1.870734999999999815e+01 1.401305000000000121e+02 1.400610000000000127e+03
1.200000000000000094e-01 6.128890000000000171e-01 1.811230000000000118e+01 1.398245000000000005e+02 1.400500000000000000e+03
1.209999999999999964e-01 6.127884999999999582e-01 1.750825000000000031e+01 1.394990000000000236e+02 1.400380000000000109e+03
1.219999999999999973e-01 6.126789999999999736e-01 1.689075000000000060e+01 1.391460000000000150e+02 1.400255000000000109e+03
1.229999999999999982e-01 6.125599999999999934e-01 1.625645000000000095e+01 1.387605000000000075e+02 1.400119999999999891e+03
1.239999999999999991e-01 6.124304999999999888e-01 1.560265000000000057e+01 1.383379999999999939e+02 1.399980000000000018e+03
1.250000000000000000e-01 6.122889999999999722e-01 1.492774999999999963e+01 1.378770000000000095e+02 1.399824999999999818e+03
1.260000000000000009e-01 6.121369999999999312e-01 1.423114999999999952e+01 1.373760000000000048e+02 1.399654999999999973e+03
1.270000000000000018e-01 6.119734999999999481e-01 1.351322499999999849e+01 1.368360000000000127e+02 1.399474999999999909e+03
1.280000000000000027e-01 6.118010000000000392e-01 1.277540499999999923e+01 1.362595000000000027e+02 1.399284999999999854e+03
1.290000000000000036e-01 6.116190000000000238e-01 1.202017500000000005e+01 1.356505000000000223e+02 1.399079999999999927e+03
1.300000000000000044e-01 6.114310000000000578e-01 1.125067999999999913e+01 1.350144999999999982e+02 1.398875000000000000e+03
1.310000000000000053e-01 6.112379999999999480e-01 1.047108500000000042e+01 1.343580000000000041e+02 1.398654999999999973e+03
1.320000000000000062e-01 6.110424999999999329e-01 9.686004999999999754e+00 1.336879999999999882e+02 1.398430000000000064e+03
1.330000000000000071e-01 6.108469999999999178e-01 8.900465000000000515e+00 1.330134999999999934e+02 1.398204999999999927e+03
1.340000000000000080e-01 6.106534999999999602e-01 8.120015000000000427e+00 1.323430000000000177e+02 1.397980000000000018e+03
1.350000000000000089e-01 6.104644999999999655e-01 7.350134999999999863e+00 1.316845000000000141e+02 1.397755000000000109e+03
1.360000000000000098e-01 6.102829999999999089e-01 6.596280000000000143e+00 1.310469999999999970e+02 1.397534999999999854e+03
1.370000000000000107e-01 6.101110000000000699e-01 5.863820000000000476e+00 1.304379999999999882e+02 1.397320000000000164e+03
1.380000000000000115e-01 6.099494999999999223e-01 5.157645000000000479e+00 1.298640000000000043e+02 1.397115000000000009e+03
1.390000000000000124e-01 6.098004999999999676e-01 4.482184999999999420e+00 1.293329999999999984e+02 1.396929999999999836e+03
1.400000000000000133e-01 6.096665000000000001e-01 3.841239999999999988e+00 1.288485000000000014e+02 1.396755000000000109e+03
1.410000000000000142e-01 6.095464999999999911e-01 3.237900000000000222e+00 1.284145000000000039e+02 1.396590000000000146e+03
1.420000000000000151e-01 6.094424999999999981e-01 2.674458999999999698e+00 1.280339999999999918e+02 1.396445000000000164e+03
1.430000000000000160e-01 6.093539999999999512e-01 2.152404999999999902e+00 1.277069999999999936e+02 1.396320000000000164e+03
1.440000000000000169e-01 6.092809999999999615e-01 1.672377500000000072e+00 1.274339999999999975e+02 1.396210000000000036e+03
1.450000000000000178e-01 6.092219999999999303e-01 1.234196499999999919e+00 1.272129999999999939e+02 1.396115000000000009e+03
1.459999999999999909e-01 6.091770000000000795e-01 8.369235500000000716e-01 1.270395000000000039e+02 1.396034999999999854e+03
1.469999999999999918e-01 6.091440000000000188e-01 4.788916999999999757e-01 1.269114999999999895e+02 1.395970000000000027e+03
1.479999999999999927e-01 6.091219999999999413e-01 1.578140000000000098e-01 1.268220000000000027e+02 1.395920000000000073e+03
1.489999999999999936e-01 6.091090000000000115e-01 -1.291219000000000117e-01 1.267659999999999911e+02 1.395884999999999991e+03
1.499999999999999944e-01 6.091024999999999912e-01 -3.851495000000000335e-01 1.267369999999999948e+02 1.395860000000000127e+03
1.509999999999999953e-01 6.091020000000000323e-01 -6.138055000000000039e-01 1.267284999999999968e+02 1.395839999999999918e+03
1.519999999999999962e-01 6.091044999999999376e-01 -8.188130000000000130e-01 1.267330000000000041e+02 1.395829999999999927e+03
1.529999999999999971e-01 6.091079999999999828e-01 -1.003975499999999910e+00 1.267444999999999879e+02 1.395820000000000164e+03
1.539999999999999980e-01 6.091115000000000279e-01 -1.173062000000000049e+00 1.267549999999999955e+02 1.395804999999999836e+03
1.549999999999999989e-01 6.091130000000000155e-01 -1.329714999999999980e+00 1.267595000000000027e+02 1.395799999999999955e+03
1.559999999999999998e-01 6.091100000000000403e-01 -1.477355000000000196e+00 1.267530000000000001e+02 1.395795000000000073e+03
1.570000000000000007e-01 6.091029999999999500e-01 -1.619134999999999991e+00 1.267295000000000016e+02 1.395775000000000091e+03
1.580000000000000016e-01 6.090895000000000614e-01 -1.757835000000000036e+00 1.266860000000000070e+02 1.395759999999999991e+03
1.590000000000000024e-01 6.090689999999999715e-01 -1.895869999999999944e+00 1.266184999999999974e+02 1.395735000000000127e+03
