# t [s], A [cm^2], U [cm/s], P [cPa], c [cm/s]
1.000000000000000021e-03 4.908804999999999974e-01 3.341099999999999626e-03 9.633079999999999643e+01 1.418784999999999854e+03
2.000000000000000042e-03 4.908730000000000038e-01 -1.327983499999999982e-03 9.631260000000000332e+01 1.418779999999999973e+03
3.000000000000000062e-03 4.909049999999999803e-01 6.100554999999999867e-02 9.636664999999999281e+01 1.418795000000000073e+03
4.000000000000000083e-03 4.909510000000000263e-01 1.530223500000000014e-01 9.646970000000000312e+01 1.418819999999999936e+03
5.000000000000000104e-03 4.909540000000000015e-01 1.681825000000000125e-01 9.648460000000000036e+01 1.418829999999999927e+03
6.000000000000000125e-03 4.909149999999999903e-01 1.003079999999999944e-01 9.636879999999999313e+01 1.418804999999999836e+03
7.000000000000000146e-03 4.908704999999999874e-01 1.700299999999999034e-02 9.618035000000000423e+01 1.418759999999999991e+03
8.000000000000000167e-03 4.908230000000000093e-01 -7.889199999999996216e-02 9.593340000000000600e+01 1.418704999999999927e+03
9.000000000000001055e-03 4.907430000000000403e-01 -2.471299999999999608e-01 9.556479999999999109e+01 1.418619999999999891e+03
1.000000000000000194e-02 4.906200000000000006e-01 -5.105250000000000066e-01 9.502735000000001264e+01 1.418494999999999891e+03
1.099999999999999936e-02 4.904514999999999847e-01 -8.669249999999999456e-01 9.429619999999999891e+01 1.418320000000000164e+03
1.200000000000000025e-02 4.902279999999999971e-01 -1.325610000000000177e+00 9.333520000000000039e+01 1.418085000000000036e+03
1.300000000000000114e-02 4.899409999999999599e-01 -1.889320000000000110e+00 9.211260000000000048e+01 1.417779999999999973e+03
1.400000000000000203e-02 4.896019999999999817e-01 -2.518450000000000077e+00 9.064420000000001210e+01 1.417409999999999854e+03
1.499999999999999944e-02 4.892425000000000246e-01 -3.125640000000000196e+00 8.901324999999999932e+01 1.416985000000000127e+03
1.600000000000000033e-02 4.889020000000000032e-01 -3.606365000000000265e+00 8.734649999999999181e+01 1.416534999999999854e+03
1.700000000000000122e-02 4.886099999999999888e-01 -3.878452500000000303e+00 8.576800000000000068e+01 1.416085000000000036e+03
1.800000000000000211e-02 4.883754999999999624e-01 -3.906071000000000293e+00 8.436039999999999850e+01 1.415664999999999964e+03
1.900000000000000300e-02 4.881894999999999984e-01 -3.702332300000000131e+00 8.314775000000000205e+01 1.415275000000000091e+03
2.000000000000000042e-02 4.880295000000000050e-01 -3.316710499999999673e+00 8.209944999999999027e+01 1.414924999999999955e+03
2.100000000000000130e-02 4.878700000000000259e-01 -2.815482499999999888e+00 8.114849999999999852e+01 1.414590000000000146e+03
2.200000000000000219e-02 4.876894999999999980e-01 -2.261698500000000056e+00 8.021590000000000487e+01 1.414265000000000100e+03
2.299999999999999961e-02 4.874740000000000184e-01 -1.699425000000000185e+00 7.923480000000000700e+01 1.413929999999999836e+03
2.400000000000000050e-02 4.872239999999999904e-01 -1.146199999999999886e+00 7.816785000000000139e+01 1.413574999999999818e+03
2.500000000000000139e-02 4.869470000000000187e-01 -5.952949999999999076e-01 7.701234999999999786e+01 1.413200000000000045e+03
2.600000000000000228e-02 4.866570000000000062e-01 -2.638000000000007006e-02 7.579310000000000969e+01 1.412809999999999945e+03
2.700000000000000316e-02 4.863669999999999938e-01 5.804800000000001070e-01 7.454714999999998781e+01 1.412409999999999854e+03
2.800000000000000058e-02 4.860845000000000304e-01 1.232534999999999936e+00 7.330660000000000309e+01 1.412009999999999991e+03
2.900000000000000147e-02 4.858084999999999765e-01 1.917439999999999811e+00 7.208510000000001128e+01 1.411615000000000009e+03
3.000000000000000236e-02 4.855300000000000171e-01 2.602679999999999882e+00 7.087115000000000009e+01 1.411214999999999918e+03
3.099999999999999978e-02 4.852360000000000007e-01 3.240375000000000227e+00 6.962905000000000655e+01 1.410809999999999945e+03
3.200000000000000067e-02 4.849100000000000077e-01 3.775850000000000151e+00 6.830610000000000070e+01 1.410389999999999873e+03
3.300000000000000155e-02 4.845359999999999667e-01 4.157840000000000202e+00 6.684405000000000996e+01 1.409940000000000055e+03
3.400000000000000244e-02 4.841054999999999664e-01 4.348419999999999952e+00 6.519294999999999618e+01 1.409440000000000055e+03
3.500000000000000333e-02 4.836155000000000315e-01 4.330460000000000420e+00 6.332394999999999641e+01 1.408894999999999982e+03
3.600000000000000422e-02 4.830735000000000445e-01 4.111385000000000289e+00 6.123794999999999789e+01 1.408295000000000073e+03
3.700000000000000511e-02 4.824939999999999785e-01 3.721719999999999917e+00 5.896930000000000405e+01 1.407650000000000091e+03
3.799999999999999906e-02 4.818979999999999930e-01 3.210269999999999513e+00 5.658244999999999436e+01 1.406974999999999909e+03
3.899999999999999994e-02 4.813100000000000156e-01 2.635835000000000150e+00 5.416394999999999982e+01 1.406280000000000200e+03
4.000000000000000083e-02 4.807524999999999715e-01 2.059189999999999632e+00 5.181180000000000518e+01 1.405599999999999909e+03
4.100000000000000172e-02 4.802494999999999958e-01 1.535924999999999763e+00 4.962409999999999854e+01 1.404950000000000045e+03
4.200000000000000261e-02 4.798164999999999791e-01 1.111565000000000136e+00 4.768954999999999700e+01 1.404365000000000009e+03
4.300000000000000350e-02 4.794654999999999889e-01 8.195949999999996294e-01 4.608050000000000068e+01 1.403855000000000018e+03
4.400000000000000439e-02 4.792054999999999509e-01 6.812949999999999839e-01 4.484969999999999857e+01 1.403440000000000055e+03
4.499999999999999833e-02 4.790379999999999638e-01 7.076249999999999485e-01 4.402924999999999756e+01 1.403134999999999991e+03
4.599999999999999922e-02 4.789645000000000152e-01 9.018614999999999826e-01 4.363315000000000055e+01 1.402944999999999936e+03
4.700000000000000011e-02 4.789820000000000189e-01 1.262566999999999995e+00 4.366024999999999778e+01 1.402869999999999891e+03
4.800000000000000100e-02 4.790874999999999995e-01 1.786112000000000144e+00 4.409869999999999379e+01 1.402914999999999964e+03
4.900000000000000189e-02 4.792769999999999531e-01 2.468367000000000200e+00 4.492990000000000350e+01 1.403074999999999818e+03
5.000000000000000278e-02 4.795454999999999579e-01 3.305361500000000063e+00 4.613170000000000215e+01 1.403345000000000027e+03
5.100000000000000366e-02 4.798900000000000388e-01 4.292942499999999661e+00 4.767974999999999852e+01 1.403719999999999800e+03
5.200000000000000455e-02 4.803045000000000231e-01 5.425801500000000388e+00 4.954869999999999663e+01 1.404190000000000055e+03
5.300000000000000544e-02 4.807839999999999892e-01 6.696149000000000129e+00 5.171115000000000350e+01 1.404750000000000000e+03
5.399999999999999939e-02 4.813214999999999577e-01 8.092672999999999561e+00 5.413724999999999454e+01 1.405400000000000091e+03
5.500000000000000028e-02 4.819109999999999783e-01 9.599845000000000184e+00 5.679385000000000616e+01 1.406115000000000009e+03
5.600000000000000117e-02 4.825415000000000121e-01 1.119791999999999987e+01 5.964395000000000380e+01 1.406905000000000200e+03
5.700000000000000205e-02 4.832039999999999669e-01 1.286368000000000045e+01 6.264724999999999966e+01 1.407735000000000127e+03
5.800000000000000294e-02 4.838890000000000136e-01 1.457134499999999910e+01 6.576104999999999734e+01 1.408615000000000009e+03
5.900000000000000383e-02 4.845865000000000311e-01 1.629419000000000040e+01 6.894159999999999400e+01 1.409519999999999982e+03
6.000000000000000472e-02 4.852859999999999951e-01 1.800613500000000045e+01 7.214625000000000909e+01 1.410449999999999818e+03
6.099999999999999867e-02 4.859795000000000087e-01 1.968294999999999817e+01 7.533499999999999375e+01 1.411380000000000109e+03
6.199999999999999956e-02 4.866599999999999815e-01 2.130349999999999966e+01 7.847284999999999400e+01 1.412309999999999945e+03
6.300000000000000044e-02 4.873210000000000042e-01 2.285054999999999836e+01 8.153065000000000850e+01 1.413230000000000018e+03
6.400000000000000133e-02 4.879600000000000048e-01 2.431115000000000137e+01 8.448640000000000327e+01 1.414130000000000109e+03
6.500000000000000222e-02 4.885734999999999939e-01 2.567670000000000030e+01 8.732535000000000025e+01 1.415000000000000000e+03
6.600000000000000311e-02 4.891619999999999857e-01 2.694250000000000256e+01 9.003990000000000293e+01 1.415840000000000146e+03
6.700000000000000400e-02 4.897250000000000214e-01 2.810754999999999981e+01 9.262954999999999472e+01 1.416655000000000200e+03
6.800000000000000488e-02 4.902650000000000063e-01 2.917389999999999617e+01 9.509919999999999618e+01 1.417434999999999945e+03
6.900000000000000577e-02 4.907850000000000268e-01 3.014604999999999890e+01 9.745844999999999914e+01 1.418190000000000055e+03
7.000000000000000666e-02 4.912865000000000149e-01 3.103010000000000090e+01 9.971985000000000809e+01 1.418914999999999964e+03
7.100000000000000755e-02 4.917739999999999889e-01 3.183364999999999867e+01 1.018994000000000000e+02 1.419615000000000009e+03
7.200000000000000844e-02 4.922504999999999797e-01 3.256489999999999441e+01 1.040130499999999927e+02 1.420295000000000073e+03
7.300000000000000933e-02 4.927194999999999769e-01 3.323230000000000217e+01 1.060775000000000006e+02 1.420954999999999927e+03
7.399999999999999634e-02 4.931834999999999969e-01 3.384399999999999409e+01 1.081069999999999993e+02 1.421610000000000127e+03
7.499999999999999722e-02 4.936460000000000292e-01 3.440744999999999720e+01 1.101149999999999949e+02 1.422255000000000109e+03
7.599999999999999811e-02 4.941074999999999773e-01 3.492889999999999873e+01 1.121115000000000066e+02 1.422894999999999982e+03
7.699999999999999900e-02 4.945694999999999952e-01 3.541315000000000168e+01 1.141034999999999968e+02 1.423529999999999973e+03
7.799999999999999989e-02 4.950320000000000276e-01 3.586305000000000121e+01 1.160925000000000011e+02 1.424164999999999964e+03
7.900000000000000078e-02 4.954935000000000311e-01 3.627965000000000373e+01 1.180769999999999982e+02 1.424789999999999964e+03
8.000000000000000167e-02 4.959529999999999772e-01 3.666205000000000069e+01 1.200515000000000043e+02 1.425420000000000073e+03
8.100000000000000255e-02 4.964075000000000015e-01 3.700769999999999982e+01 1.220054999999999978e+02 1.426034999999999854e+03
8.200000000000000344e-02 4.968529999999999891e-01 3.731220000000000425e+01 1.239254999999999995e+02 1.426644999999999982e+03
8.300000000000000433e-02 4.972865000000000202e-01 3.757035000000000480e+01 1.257964999999999947e+02 1.427244999999999891e+03
8.400000000000000522e-02 4.977044999999999941e-01 3.777609999999999957e+01 1.276005000000000109e+02 1.427825000000000045e+03
8.500000000000000611e-02 4.981010000000000160e-01 3.792305000000000348e+01 1.293195000000000050e+02 1.428380000000000109e+03
8.600000000000000699e-02 4.984739999999999727e-01 3.800509999999999877e+01 1.309350000000000023e+02 1.428909999999999854e+03
8.700000000000000788e-02 4.988184999999999425e-01 3.801664999999999850e+01 1.324304999999999950e+02 1.429400000000000091e+03
8.800000000000000877e-02 4.991324999999999790e-01 3.795295000000000130e+01 1.337905000000000086e+02 1.429855000000000018e+03
8.899999999999999578e-02 4.994124999999999814e-01 3.781069999999999709e+01 1.350029999999999859e+02 1.430265000000000100e+03
8.999999999999999667e-02 4.996570000000000178e-01 3.758769999999999811e+01 1.360584999999999809e+02 1.430639999999999873e+03
9.099999999999999756e-02 4.998650000000000038e-01 3.728345000000000198e+01 1.369510000000000218e+02 1.430954999999999927e+03
9.199999999999999845e-02 5.000364999999999949e-01 3.689889999999999759e+01 1.376779999999999973e+02 1.431224999999999909e+03
9.299999999999999933e-02 5.001710000000000322e-01 3.643665000000000020e+01 1.382394999999999925e+02 1.431450000000000045e+03
9.400000000000000022e-02 5.002699999999999925e-01 3.590079999999999671e+01 1.386419999999999959e+02 1.431619999999999891e+03
9.500000000000000111e-02 5.003364999999999618e-01 3.529695000000000249e+01 1.388905000000000030e+02 1.431750000000000000e+03
9.600000000000000200e-02 5.003714999999999691e-01 3.463190000000000168e+01 1.389975000000000023e+02 1.431835000000000036e+03
9.700000000000000289e-02 5.003785000000000593e-01 3.391360000000000241e+01 1.389744999999999777e+02 1.431869999999999891e+03
9.800000000000000377e-02 5.003600000000000270e-01 3.315070000000000050e+01 1.388374999999999773e+02 1.431875000000000000e+03
9.900000000000000466e-02 5.003205000000000569e-01 3.235269999999999868e+01 1.386020000000000039e+02 1.431840000000000146e+03
1.000000000000000056e-01 5.002640000000000420e-01 3.152939999999999898e+01 1.382855000000000132e+02 1.431779999999999973e+03
1.010000000000000064e-01 5.001940000000000275e-01 3.069079999999999941e+01 1.379054999999999893e+02 1.431700000000000045e+03
1.020000000000000073e-01 5.001139999999999475e-01 2.984639999999999915e+01 1.374800000000000182e+02 1.431599999999999909e+03
1.030000000000000082e-01 5.000269999999999992e-01 2.900560000000000116e+01 1.370254999999999939e+02 1.431480000000000018e+03
1.040000000000000091e-01 4.999385000000000079e-01 2.817669999999999675e+01 1.365579999999999927e+02 1.431355000000000018e+03
1.050000000000000100e-01 4.998489999999999878e-01 2.736715000000000231e+01 1.360910000000000082e+02 1.431224999999999909e+03
1.059999999999999970e-01 4.997624999999999984e-01 2.658314999999999984e+01 1.356380000000000052e+02 1.431095000000000027e+03
1.069999999999999979e-01 4.996800000000000130e-01 2.582949999999999946e+01 1.352074999999999818e+02 1.430969999999999800e+03
1.079999999999999988e-01 4.996040000000000481e-01 2.510924999999999940e+01 1.348070000000000164e+02 1.430849999999999909e+03
1.089999999999999997e-01 4.995340000000000336e-01 2.442425000000000068e+01 1.344415000000000191e+02 1.430730000000000018e+03
1.100000000000000006e-01 4.994714999999999572e-01 2.377439999999999998e+01 1.341125000000000114e+02 1.430630000000000109e+03
1.110000000000000014e-01 4.994150000000000533e-01 2.315845000000000198e+01 1.338185000000000002e+02 1.430529999999999973e+03
1.120000000000000023e-01 4.993639999999999746e-01 2.257359999999999900e+01 1.335570000000000164e+02 1.430440000000000055e+03
1.130000000000000032e-01 4.993174999999999697e-01 2.201585000000000036e+01 1.333229999999999791e+02 1.430360000000000127e+03
1.140000000000000041e-01 4.992735000000000367e-01 2.148039999999999949e+01 1.331084999999999923e+02 1.430285000000000082e+03
1.150000000000000050e-01 4.992309999999999803e-01 2.096180000000000021e+01 1.329064999999999941e+02 1.430215000000000146e+03
1.160000000000000059e-01 4.991865000000000330e-01 2.045404999999999873e+01 1.327074999999999818e+02 1.430139999999999873e+03
1.170000000000000068e-01 4.991395000000000137e-01 1.995115000000000194e+01 1.325015000000000214e+02 1.430074999999999818e+03
1.180000000000000077e-01 4.990869999999999473e-01 1.944705000000000084e+01 1.322794999999999845e+02 1.430000000000000000e+03
1.190000000000000085e-01 4.990280000000000271e-01 1.893619999999999948e+01 1.320330000000000155e+02 1.429920000000000073e+03
1.200000000000000094e-01 4.989605000000000290e-01 1.841359999999999886e+01 1.317545000000000073e+02 1.429835000000000036e+03
1.209999999999999964e-01 4.988839999999999941e-01 1.787515000000000143e+01 1.314364999999999952e+02 1.429740000000000009e+03
1.219999999999999973e-01 4.987964999999999760e-01 1.731739999999999924e+01 1.310749999999999886e+02 1.429630000000000109e+03
1.229999999999999982e-01 4.986990000000000034e-01 1.673830000000000240e+01 1.306665000000000134e+02 1.429505000000000109e+03
1.239999999999999991e-01 4.985895000000000188e-01 1.613674999999999926e+01 1.302104999999999961e+02 1.429380000000000109e+03
1.250000000000000000e-01 4.984699999999999687e-01 1.551290000000000013e+01 1.297069999999999936e+02 1.429230000000000018e+03
1.260000000000000009e-01 4.983414999999999928e-01 1.486809999999999832e+01 1.291589999999999918e+02 1.429075000000000045e+03
1.270000000000000018e-01 4.982044999999999946e-01 1.420486500000000163e+01 1.285709999999999980e+02 1.428900000000000091e+03
1.280000000000000027e-01 4.980605000000000171e-01 1.352667500000000089e+01 1.279495000000000005e+02 1.428720000000000027e+03
1.290000000000000036e-01 4.979120000000000212e-01 1.283806500000000028e+01 1.273029999999999973e+02 1.428534999999999854e+03
1.300000000000000044e-01 4.977610000000000090e-01 1.214423999999999992e+01 1.266394999999999982e+02 1.428335000000000036e+03
1.310000000000000053e-01 4.976095000000000379e-01 1.145102499999999957e+01 1.259699999999999989e+02 1.428144999999999982e+03
1.320000000000000062e-01 4.974600000000000133e-01 1.076468500000000006e+01 1.253040000000000020e+02 1.427940000000000055e+03
1.330000000000000071e-01 4.973144999999999927e-01 1.009165499999999938e+01 1.246525000000000034e+02 1.427744999999999891e+03
1.340000000000000080e-01 4.971765000000000212e-01 9.438334999999998587e+00 1.240264999999999986e+02 1.427554999999999836e+03
1.350000000000000089e-01 4.970470000000000166e-01 8.810764999999999958e+00 1.234359999999999928e+02 1.427369999999999891e+03
1.360000000000000098e-01 4.969280000000000364e-01 8.214684999999999349e+00 1.228894999999999982e+02 1.427204999999999927e+03
1.370000000000000107e-01 4.968219999999999859e-01 7.655014999999999681e+00 1.223944999999999936e+02 1.427045000000000073e+03
1.380000000000000115e-01 4.967295000000000460e-01 7.136084999999999567e+00 1.219590000000000032e+02 1.426900000000000091e+03
1.390000000000000124e-01 4.966509999999999536e-01 6.661075000000000301e+00 1.215865000000000009e+02 1.426775000000000091e+03
1.400000000000000133e-01 4.965880000000000294e-01 6.232264999999999944e+00 1.212800000000000011e+02 1.426670000000000073e+03
1.410000000000000142e-01 4.965399999999999814e-01 5.850835000000000008e+00 1.210405000000000086e+02 1.426575000000000045e+03
1.420000000000000151e-01 4.965065000000000173e-01 5.516894999999999882e+00 1.208675000000000068e+02 1.426509999999999991e+03
1.430000000000000160e-01 4.964870000000000116e-01 5.229535000000000267e+00 1.207584999999999980e+02 1.426454999999999927e+03
1.440000000000000169e-01 4.964804999999999913e-01 4.986860000000000070e+00 1.207100000000000080e+02 1.426425000000000182e+03
1.450000000000000178e-01 4.964855000000000240e-01 4.786134999999999806e+00 1.207154999999999916e+02 1.426409999999999854e+03
1.459999999999999909e-01 4.965005000000000113e-01 4.623904999999999710e+00 1.207680000000000007e+02 1.426405000000000200e+03
1.469999999999999918e-01 4.965235000000000065e-01 4.496129999999999960e+00 1.208610000000000042e+02 1.426414999999999964e+03
1.479999999999999927e-01 4.965530000000000221e-01 4.398355000000000459e+00 1.209860000000000042e+02 1.426440000000000055e+03
1.489999999999999936e-01 4.965870000000000006e-01 4.325879999999999725e+00 1.211340000000000003e+02 1.426465000000000146e+03
1.499999999999999944e-01 4.966234999999999955e-01 4.273904999999999177e+00 1.212974999999999994e+02 1.426505000000000109e+03
1.509999999999999953e-01 4.966610000000000191e-01 4.237659999999999982e+00 1.214680000000000035e+02 1.426545000000000073e+03
1.519999999999999962e-01 4.966979999999999729e-01 4.212585000000000690e+00 1.216380000000000052e+02 1.426590000000000146e+03
1.529999999999999971e-01 4.967325000000000212e-01 4.194374999999999964e+00 1.217999999999999972e+02 1.426630000000000109e+03
1.539999999999999980e-01 4.967635000000000245e-01 4.179129999999999789e+00 1.219484999999999957e+02 1.426670000000000073e+03
1.549999999999999989e-01 4.967909999999999826e-01 4.163380000000000081e+00 1.220790000000000077e+02 1.426704999999999927e+03
1.559999999999999998e-01 4.968124999999999902e-01 4.144140000000000157e+00 1.221864999999999952e+02 1.426735000000000127e+03
1.570000000000000007e-01 4.968285000000000062e-01 4.118979999999999642e+00 1.222685000000000031e+02 1.426765000000000100e+03
1.580000000000000016e-01 4.968380000000000019e-01 4.085960000000000036e+00 1.223224999999999909e+02 1.426780000000000200e+03
1.590000000000000024e-01 4.968420000000000059e-01 4.043684999999999974e+00 1.223485000000000014e+02 1.426789999999999964e+03
