# t [s], A [cm^2], U [cm/s], P [cPa], c [cm/s]
1.000000000000000021e-03 1.478005000000000013e-01 2.773114999999999886e-01 1.003959499999999991e+02 1.978539999999999964e+03
2.000000000000000042e-03 1.477715000000000001e-01 1.757181499999999952e+00 9.734174999999999045e+01 1.978244999999999891e+03
3.000000000000000062e-03 1.476770000000000027e-01 3.587747999999999937e+00 9.323144999999999527e+01 1.977299999999999955e+03
4.000000000000000083e-03 1.475374999999999881e-01 5.630836500000000022e+00 8.864064999999999372e+01 1.975949999999999818e+03
5.000000000000000104e-03 1.473794999999999966e-01 7.827779999999999738e+00 8.434629999999999939e+01 1.974434999999999945e+03
6.000000000000000125e-03 1.472209999999999908e-01 1.005505500000000119e+01 8.072325000000000728e+01 1.972929999999999836e+03
7.000000000000000146e-03 1.470699999999999785e-01 1.213539000000000101e+01 7.768670000000000186e+01 1.971509999999999991e+03
8.000000000000000167e-03 1.469285000000000174e-01 1.395119000000000042e+01 7.500249999999999773e+01 1.970200000000000045e+03
9.000000000000001055e-03 1.467994999999999994e-01 1.549714999999999954e+01 7.261275000000000546e+01 1.969029999999999973e+03
1.000000000000000194e-02 1.466864999999999974e-01 1.680709999999999837e+01 7.058280000000000598e+01 1.968010000000000218e+03
1.099999999999999936e-02 1.465899999999999981e-01 1.790010000000000190e+01 6.893340000000000600e+01 1.967159999999999854e+03
1.200000000000000025e-02 1.465104999999999880e-01 1.878624999999999901e+01 6.762624999999999886e+01 1.966460000000000036e+03
1.300000000000000114e-02 1.464455000000000062e-01 1.947224999999999895e+01 6.659530000000000882e+01 1.965894999999999982e+03
1.400000000000000203e-02 1.463929999999999954e-01 1.996114999999999995e+01 6.575069999999999482e+01 1.965444999999999936e+03
1.499999999999999944e-02 1.463490000000000069e-01 2.027080000000000126e+01 6.501735000000000753e+01 1.965079999999999927e+03
1.600000000000000033e-02 1.463134999999999852e-01 2.046079999999999899e+01 6.441889999999999361e+01 1.964785000000000082e+03
1.700000000000000122e-02 1.462884999999999880e-01 2.063215000000000288e+01 6.411820000000000164e+01 1.964585000000000036e+03
1.800000000000000211e-02 1.462795000000000067e-01 2.089280000000000115e+01 6.435490000000000066e+01 1.964525000000000091e+03
1.900000000000000300e-02 1.462910000000000044e-01 2.130995000000000061e+01 6.531235000000000923e+01 1.964639999999999873e+03
2.000000000000000042e-02 1.463254999999999972e-01 2.188044999999999973e+01 6.700084999999999980e+01 1.964949999999999818e+03
2.100000000000000130e-02 1.463790000000000091e-01 2.253245000000000076e+01 6.922289999999999566e+01 1.965434999999999945e+03
2.200000000000000219e-02 1.464449999999999918e-01 2.315419999999999945e+01 7.162895000000000323e+01 1.966029999999999973e+03
2.299999999999999961e-02 1.465144999999999920e-01 2.363344999999999985e+01 7.382829999999999870e+01 1.966664999999999964e+03
2.400000000000000050e-02 1.465770000000000128e-01 2.389160000000000039e+01 7.550464999999999804e+01 1.967244999999999891e+03
2.500000000000000139e-02 1.466264999999999930e-01 2.390220000000000056e+01 7.649539999999998940e+01 1.967710000000000036e+03
2.600000000000000228e-02 1.466594999999999982e-01 2.368979999999999819e+01 7.681319999999999482e+01 1.968025000000000091e+03
2.700000000000000316e-02 1.466760000000000008e-01 2.331394999999999840e+01 7.661100000000000421e+01 1.968200000000000045e+03
2.800000000000000058e-02 1.466804999999999914e-01 2.284434999999999860e+01 7.611079999999999757e+01 1.968255000000000109e+03
2.900000000000000147e-02 1.466770000000000018e-01 2.233794999999999931e+01 7.552344999999999686e+01 1.968235000000000127e+03
3.000000000000000236e-02 1.466695000000000082e-01 2.182484999999999786e+01 7.498810000000000286e+01 1.968174999999999955e+03
3.099999999999999978e-02 1.466620000000000146e-01 2.130550000000000210e+01 7.454555000000000575e+01 1.968105000000000018e+03
3.200000000000000067e-02 1.466525000000000190e-01 2.075865000000000293e+01 7.414950000000000330e+01 1.968029999999999973e+03
3.300000000000000155e-02 1.466414999999999802e-01 2.015530000000000044e+01 7.370410000000001105e+01 1.967930000000000064e+03
3.400000000000000244e-02 1.466270000000000073e-01 1.947444999999999737e+01 7.311314999999999031e+01 1.967805000000000064e+03
3.500000000000000333e-02 1.466065000000000007e-01 1.871495000000000175e+01 7.232554999999999268e+01 1.967625000000000000e+03
3.600000000000000422e-02 1.465810000000000168e-01 1.790129999999999910e+01 7.136324999999999363e+01 1.967404999999999973e+03
3.700000000000000511e-02 1.465515000000000012e-01 1.708149999999999835e+01 7.032564999999999600e+01 1.967144999999999982e+03
3.799999999999999906e-02 1.465210000000000123e-01 1.631770000000000209e+01 6.936950000000000216e+01 1.966875000000000000e+03
3.899999999999999994e-02 1.464949999999999863e-01 1.567269999999999897e+01 6.867134999999998968e+01 1.966634999999999991e+03
4.000000000000000083e-02 1.464769999999999961e-01 1.519600000000000151e+01 6.838389999999999702e+01 1.966470000000000027e+03
4.100000000000000172e-02 1.464710000000000178e-01 1.491274999999999906e+01 6.859774999999999068e+01 1.966409999999999854e+03
4.200000000000000261e-02 1.464794999999999847e-01 1.481879999999999953e+01 6.931900000000000261e+01 1.966469999999999800e+03
4.300000000000000350e-02 1.465015000000000067e-01 1.488200000000000145e+01 7.046694999999999709e+01 1.966654999999999973e+03
4.400000000000000439e-02 1.465345000000000120e-01 1.504864999999999853e+01 7.188960000000000150e+01 1.966940000000000055e+03
4.499999999999999833e-02 1.465750000000000108e-01 1.525305000000000000e+01 7.339265000000000327e+01 1.967295000000000073e+03
4.599999999999999922e-02 1.466169999999999973e-01 1.542805000000000071e+01 7.477254999999999541e+01 1.967670000000000073e+03
4.700000000000000011e-02 1.466554999999999942e-01 1.551440000000000019e+01 7.584780000000000655e+01 1.968014999999999873e+03
4.800000000000000100e-02 1.466854999999999964e-01 1.546665000000000134e+01 7.648185000000000855e+01 1.968289999999999964e+03
4.900000000000000189e-02 1.467034999999999867e-01 1.525645000000000095e+01 7.659534999999999627e+01 1.968454999999999927e+03
5.000000000000000278e-02 1.467065000000000174e-01 1.487255000000000038e+01 7.616655000000000086e+01 1.968494999999999891e+03
5.100000000000000366e-02 1.466945000000000054e-01 1.431810000000000116e+01 7.522364999999999213e+01 1.968389999999999873e+03
5.200000000000000455e-02 1.466675000000000062e-01 1.360725000000000051e+01 7.383089999999999975e+01 1.968154999999999973e+03
5.300000000000000544e-02 1.466264999999999930e-01 1.276095000000000113e+01 7.207304999999999495e+01 1.967795000000000073e+03
5.399999999999999939e-02 1.465744999999999965e-01 1.180363000000000007e+01 7.004185000000001082e+01 1.967329999999999927e+03
5.500000000000000028e-02 1.465124999999999900e-01 1.076102500000000006e+01 6.782599999999999341e+01 1.966775000000000091e+03
5.600000000000000117e-02 1.464435000000000042e-01 9.659034999999999371e+00 6.550570000000000448e+01 1.966159999999999854e+03
5.700000000000000205e-02 1.463705000000000145e-01 8.523659999999999570e+00 6.315234999999999843e+01 1.965505000000000109e+03
5.800000000000000294e-02 1.462944999999999940e-01 7.381489999999999441e+00 6.083010000000000161e+01 1.964829999999999927e+03
5.900000000000000383e-02 1.462189999999999879e-01 6.260454999999999437e+00 5.859969999999999857e+01 1.964144999999999982e+03
6.000000000000000472e-02 1.461454999999999838e-01 5.190125000000000099e+00 5.652185000000000059e+01 1.963480000000000018e+03
6.099999999999999867e-02 1.460754999999999970e-01 4.201794999999999725e+00 5.465975000000000250e+01 1.962849999999999909e+03
6.199999999999999956e-02 1.460120000000000029e-01 3.327760000000000051e+00 5.307869999999999777e+01 1.962280000000000200e+03
6.300000000000000044e-02 1.459580000000000044e-01 2.600157000000000274e+00 5.184525000000000006e+01 1.961779999999999973e+03
6.400000000000000133e-02 1.459139999999999882e-01 2.049334500000000059e+00 5.102304999999999779e+01 1.961380000000000109e+03
6.500000000000000222e-02 1.458834999999999993e-01 1.702087499999999975e+00 5.066904999999999859e+01 1.961090000000000146e+03
6.600000000000000311e-02 1.458674999999999833e-01 1.579930000000000057e+00 5.082864999999999611e+01 1.960934999999999945e+03
6.700000000000000400e-02 1.458685000000000120e-01 1.697670000000000012e+00 5.153170000000000073e+01 1.960925000000000182e+03
6.800000000000000488e-02 1.458865000000000023e-01 2.062460000000000182e+00 5.279014999999999702e+01 1.961069999999999936e+03
6.900000000000000577e-02 1.459225000000000105e-01 2.673345000000000304e+00 5.459595000000000198e+01 1.961375000000000000e+03
7.000000000000000666e-02 1.459759999999999946e-01 3.521424999999999805e+00 5.692215000000000202e+01 1.961839999999999918e+03
7.100000000000000755e-02 1.460469999999999824e-01 4.590510000000000090e+00 5.972440000000000282e+01 1.962460000000000036e+03
7.200000000000000844e-02 1.461334999999999995e-01 5.858155000000000001e+00 6.294404999999999717e+01 1.963224999999999909e+03
7.300000000000000933e-02 1.462340000000000029e-01 7.297044999999999781e+00 6.651215000000000543e+01 1.964119999999999891e+03
7.399999999999999634e-02 1.463470000000000049e-01 8.876635000000000275e+00 7.035354999999999848e+01 1.965119999999999891e+03
7.499999999999999722e-02 1.464699999999999891e-01 1.056453499999999934e+01 7.439199999999999591e+01 1.966220000000000027e+03
7.599999999999999811e-02 1.466000000000000081e-01 1.232846500000000134e+01 7.855365000000000464e+01 1.967389999999999873e+03
7.699999999999999900e-02 1.467364999999999919e-01 1.413739999999999952e+01 8.277129999999999654e+01 1.968615000000000009e+03
7.799999999999999989e-02 1.468754999999999922e-01 1.596310000000000073e+01 8.698714999999999975e+01 1.969869999999999891e+03
7.900000000000000078e-02 1.470159999999999800e-01 1.778094999999999715e+01 9.115529999999999688e+01 1.971150000000000091e+03
8.000000000000000167e-02 1.471564999999999956e-01 1.957055000000000078e+01 9.524240000000000350e+01 1.972425000000000182e+03
8.100000000000000255e-02 1.472959999999999825e-01 2.131634999999999991e+01 9.922804999999999609e+01 1.973695000000000164e+03
8.200000000000000344e-02 1.474334999999999951e-01 2.300714999999999932e+01 1.031043999999999983e+02 1.974945000000000164e+03
8.300000000000000433e-02 1.475674999999999903e-01 2.463620000000000232e+01 1.068725500000000039e+02 1.976180000000000064e+03
8.400000000000000522e-02 1.476999999999999980e-01 2.620009999999999906e+01 1.105430000000000064e+02 1.977394999999999982e+03
8.500000000000000611e-02 1.478289999999999882e-01 2.769845000000000113e+01 1.141304999999999978e+02 1.978585000000000036e+03
8.600000000000000699e-02 1.479564999999999908e-01 2.913250000000000028e+01 1.176520000000000010e+02 1.979755000000000109e+03
8.700000000000000788e-02 1.480825000000000058e-01 3.050479999999999592e+01 1.211250000000000000e+02 1.980920000000000073e+03
8.800000000000000877e-02 1.482065000000000188e-01 3.181815000000000282e+01 1.245625000000000000e+02 1.982059999999999945e+03
8.899999999999999578e-02 1.483295000000000030e-01 3.307469999999999999e+01 1.279749999999999943e+02 1.983200000000000045e+03
8.999999999999999667e-02 1.484515000000000140e-01 3.427599999999999625e+01 1.313675000000000068e+02 1.984335000000000036e+03
9.099999999999999756e-02 1.485730000000000106e-01 3.542229999999999990e+01 1.347384999999999877e+02 1.985454999999999927e+03
9.199999999999999845e-02 1.486935000000000062e-01 3.651255000000000450e+01 1.380815000000000055e+02 1.986574999999999818e+03
9.299999999999999933e-02 1.488125000000000142e-01 3.754420000000000357e+01 1.413845000000000027e+02 1.987684999999999945e+03
9.400000000000000022e-02 1.489309999999999801e-01 3.851364999999999839e+01 1.446320000000000050e+02 1.988784999999999854e+03
9.500000000000000111e-02 1.490469999999999851e-01 3.941610000000000014e+01 1.478045000000000186e+02 1.989865000000000009e+03
9.600000000000000200e-02 1.491605000000000014e-01 4.024590000000000600e+01 1.508810000000000002e+02 1.990924999999999955e+03
9.700000000000000289e-02 1.492709999999999870e-01 4.099684999999999491e+01 1.538385000000000105e+02 1.991950000000000045e+03
9.800000000000000377e-02 1.493769999999999820e-01 4.166250000000000142e+01 1.566545000000000130e+02 1.992944999999999936e+03
9.900000000000000466e-02 1.494790000000000008e-01 4.223635000000000161e+01 1.593070000000000164e+02 1.993900000000000091e+03
1.000000000000000056e-01 1.495755000000000001e-01 4.271214999999999407e+01 1.617754999999999939e+02 1.994805000000000064e+03
1.010000000000000064e-01 1.496659999999999935e-01 4.308424999999999727e+01 1.640409999999999968e+02 1.995650000000000091e+03
1.020000000000000073e-01 1.497495000000000076e-01 4.334779999999999944e+01 1.660880000000000223e+02 1.996440000000000055e+03
1.030000000000000082e-01 1.498265000000000013e-01 4.349909999999999854e+01 1.679030000000000200e+02 1.997159999999999854e+03
1.040000000000000091e-01 1.498950000000000005e-01 4.353584999999999638e+01 1.694780000000000086e+02 1.997809999999999945e+03
1.050000000000000100e-01 1.499559999999999782e-01 4.345725000000000193e+01 1.708070000000000164e+02 1.998390000000000100e+03
1.059999999999999970e-01 1.500084999999999891e-01 4.326439999999999486e+01 1.718899999999999864e+02 1.998889999999999873e+03
1.069999999999999979e-01 1.500529999999999919e-01 4.296030000000000371e+01 1.727314999999999827e+02 1.999315000000000055e+03
1.079999999999999988e-01 1.500894999999999868e-01 4.254975000000000307e+01 1.733400000000000034e+02 1.999659999999999854e+03
1.089999999999999997e-01 1.501170000000000004e-01 4.203955000000000553e+01 1.737280000000000086e+02 1.999940000000000055e+03
1.100000000000000006e-01 1.501379999999999937e-01 4.143815000000000026e+01 1.739145000000000039e+02 2.000139999999999873e+03
1.110000000000000014e-01 1.501514999999999933e-01 4.075549999999999784e+01 1.739184999999999945e+02 2.000275000000000091e+03
1.120000000000000023e-01 1.501589999999999869e-01 4.000274999999999892e+01 1.737644999999999982e+02 2.000355000000000018e+03
1.130000000000000032e-01 1.501604999999999746e-01 3.919174999999999898e+01 1.734770000000000039e+02 2.000375000000000000e+03
1.140000000000000041e-01 1.501569999999999849e-01 3.833474999999999966e+01 1.730805000000000007e+02 2.000349999999999909e+03
1.150000000000000050e-01 1.501494999999999913e-01 3.744405000000000427e+01 1.726005000000000109e+02 2.000289999999999964e+03
1.160000000000000059e-01 1.501385000000000081e-01 3.653150000000000119e+01 1.720610000000000070e+02 2.000195000000000164e+03
1.170000000000000068e-01 1.501250000000000084e-01 3.560800000000000409e+01 1.714824999999999875e+02 2.000070000000000164e+03
1.180000000000000077e-01 1.501089999999999924e-01 3.468354999999999677e+01 1.708840000000000146e+02 1.999924999999999955e+03
1.190000000000000085e-01 1.500920000000000032e-01 3.376664999999999850e+01 1.702800000000000011e+02 1.999769999999999982e+03
1.200000000000000094e-01 1.500744999999999996e-01 3.286430000000000007e+01 1.696825000000000045e+02 1.999610000000000127e+03
1.209999999999999964e-01 1.500569999999999959e-01 3.198179999999999978e+01 1.690980000000000132e+02 1.999440000000000055e+03
1.219999999999999973e-01 1.500384999999999913e-01 3.112284999999999968e+01 1.685304999999999893e+02 1.999269999999999982e+03
1.229999999999999982e-01 1.500205000000000011e-01 3.028934999999999889e+01 1.679809999999999945e+02 1.999099999999999909e+03
1.239999999999999991e-01 1.500025000000000108e-01 2.948165000000000191e+01 1.674454999999999814e+02 1.998934999999999945e+03
1.250000000000000000e-01 1.499844999999999928e-01 2.869865000000000066e+01 1.669189999999999827e+02 1.998764999999999873e+03
1.260000000000000009e-01 1.499665000000000026e-01 2.793799999999999883e+01 1.663919999999999959e+02 1.998594999999999800e+03
1.270000000000000018e-01 1.499484999999999846e-01 2.719619999999999749e+01 1.658550000000000182e+02 1.998425000000000182e+03
1.280000000000000027e-01 1.499300000000000077e-01 2.646920000000000073e+01 1.652965000000000089e+02 1.998244999999999891e+03
1.290000000000000036e-01 1.499105000000000021e-01 2.575215000000000032e+01 1.647049999999999841e+02 1.998059999999999945e+03
1.300000000000000044e-01 1.498899999999999955e-01 2.504015000000000057e+01 1.640690000000000168e+02 1.997869999999999891e+03
1.310000000000000053e-01 1.498680000000000012e-01 2.432835000000000036e+01 1.633779999999999859e+02 1.997659999999999854e+03
1.320000000000000062e-01 1.498435000000000183e-01 2.361214999999999975e+01 1.626225000000000023e+02 1.997434999999999945e+03
1.330000000000000071e-01 1.498174999999999923e-01 2.288765000000000072e+01 1.617955000000000041e+02 1.997190000000000055e+03
1.340000000000000080e-01 1.497890000000000055e-01 2.215155000000000030e+01 1.608904999999999745e+02 1.996924999999999955e+03
1.350000000000000089e-01 1.497580000000000022e-01 2.140180000000000149e+01 1.599055000000000177e+02 1.996634999999999991e+03
1.360000000000000098e-01 1.497239999999999960e-01 2.063729999999999976e+01 1.588410000000000082e+02 1.996319999999999936e+03
1.370000000000000107e-01 1.496879999999999877e-01 1.985820000000000007e+01 1.577010000000000218e+02 1.995990000000000009e+03
1.380000000000000115e-01 1.496494999999999909e-01 1.906615000000000038e+01 1.564900000000000091e+02 1.995625000000000000e+03
1.390000000000000124e-01 1.496085000000000054e-01 1.826379999999999981e+01 1.552189999999999941e+02 1.995244999999999891e+03
1.400000000000000133e-01 1.495655000000000179e-01 1.745520000000000138e+01 1.538994999999999891e+02 1.994845000000000027e+03
1.410000000000000142e-01 1.495210000000000150e-01 1.664535000000000053e+01 1.525455000000000041e+02 1.994429999999999836e+03
1.420000000000000151e-01 1.494745000000000101e-01 1.584025000000000105e+01 1.511734999999999900e+02 1.994005000000000109e+03
1.430000000000000160e-01 1.494274999999999909e-01 1.504649999999999821e+01 1.498004999999999995e+02 1.993569999999999936e+03
1.440000000000000169e-01 1.493809999999999860e-01 1.427104999999999890e+01 1.484445000000000050e+02 1.993134999999999991e+03
1.450000000000000178e-01 1.493344999999999811e-01 1.352114999999999867e+01 1.471229999999999905e+02 1.992700000000000045e+03
1.459999999999999909e-01 1.492884999999999907e-01 1.280359999999999943e+01 1.458534999999999968e+02 1.992279999999999973e+03
1.469999999999999918e-01 1.492445000000000022e-01 1.212504000000000026e+01 1.446510000000000105e+02 1.991869999999999891e+03
1.479999999999999927e-01 1.492025000000000157e-01 1.149123499999999964e+01 1.435289999999999964e+02 1.991470000000000027e+03
1.489999999999999936e-01 1.491629999999999900e-01 1.090711999999999904e+01 1.424985000000000070e+02 1.991099999999999909e+03
1.499999999999999944e-01 1.491260000000000085e-01 1.037657000000000096e+01 1.415679999999999836e+02 1.990759999999999991e+03
1.509999999999999953e-01 1.490925000000000167e-01 9.902210000000000178e+00 1.407419999999999902e+02 1.990440000000000055e+03
1.519999999999999962e-01 1.490620000000000001e-01 9.485549999999999926e+00 1.400235000000000127e+02 1.990150000000000091e+03
1.529999999999999971e-01 1.490345000000000142e-01 9.126749999999999474e+00 1.394114999999999895e+02 1.989900000000000091e+03
1.539999999999999980e-01 1.490110000000000046e-01 8.824804999999999566e+00 1.389025000000000034e+02 1.989670000000000073e+03
1.549999999999999989e-01 1.489909999999999846e-01 8.577704999999999913e+00 1.384920000000000186e+02 1.989480000000000018e+03
1.559999999999999998e-01 1.489734999999999809e-01 8.382379999999999498e+00 1.381715000000000089e+02 1.989315000000000055e+03
1.570000000000000007e-01 1.489594999999999947e-01 8.234984999999999999e+00 1.379320000000000164e+02 1.989184999999999945e+03
1.580000000000000016e-01 1.489485000000000114e-01 8.131045000000000300e+00 1.377640000000000100e+02 1.989069999999999936e+03
1.590000000000000024e-01 1.489395000000000024e-01 8.065609999999999502e+00 1.376554999999999893e+02 1.988985000000000127e+03
