# t [s], A [cm^2], U [cm/s], P [cPa], c [cm/s]
1.000000000000000021e-03 1.463099999999999956e-01 2.694785000000000097e-01 9.267685000000000173e+01 1.803425000000000182e+03
2.000000000000000042e-03 1.462864999999999860e-01 1.699195000000000011e+00 8.993415000000000248e+01 1.803199999999999818e+03
3.000000000000000062e-03 1.461954999999999782e-01 3.458091000000000026e+00 8.633719999999999573e+01 1.802394999999999982e+03
4.000000000000000083e-03 1.460575000000000068e-01 5.409207649999999923e+00 8.228934999999999889e+01 1.801195000000000164e+03
5.000000000000000104e-03 1.458964999999999845e-01 7.506235000000000213e+00 7.843774999999999409e+01 1.799805000000000064e+03
6.000000000000000125e-03 1.457309999999999994e-01 9.656444999999999723e+00 7.513925000000000409e+01 1.798389999999999873e+03
7.000000000000000146e-03 1.455714999999999926e-01 1.171470000000000056e+01 7.238214999999999577e+01 1.797045000000000073e+03
8.000000000000000167e-03 1.454199999999999937e-01 1.356027999999999878e+01 6.997135000000000105e+01 1.795784999999999854e+03
9.000000000000001055e-03 1.452795000000000059e-01 1.516229500000000030e+01 6.779760000000000275e+01 1.794630000000000109e+03
1.000000000000000194e-02 1.451530000000000042e-01 1.654625000000000057e+01 6.588875000000000171e+01 1.793605000000000018e+03
1.099999999999999936e-02 1.450425000000000186e-01 1.773434999999999917e+01 6.428045000000000186e+01 1.792715000000000146e+03
1.200000000000000025e-02 1.449475000000000069e-01 1.873624999999999829e+01 6.295629999999999882e+01 1.791954999999999927e+03
1.300000000000000114e-02 1.448674999999999824e-01 1.956040000000000134e+01 6.187595000000000312e+01 1.791329999999999927e+03
1.400000000000000203e-02 1.448010000000000130e-01 2.021369999999999933e+01 6.098930000000000007e+01 1.790809999999999945e+03
1.499999999999999944e-02 1.447450000000000125e-01 2.070230000000000103e+01 6.023619999999999663e+01 1.790380000000000109e+03
1.600000000000000033e-02 1.446979999999999933e-01 2.104625000000000057e+01 5.957569999999999766e+01 1.790025000000000091e+03
1.700000000000000122e-02 1.446590000000000098e-01 2.129690000000000083e+01 5.903875000000000028e+01 1.789739999999999782e+03
1.800000000000000211e-02 1.446304999999999952e-01 2.153464999999999918e+01 5.874909999999999854e+01 1.789529999999999973e+03
1.900000000000000300e-02 1.446165000000000089e-01 2.184430000000000049e+01 5.888030000000000541e+01 1.789434999999999945e+03
2.000000000000000042e-02 1.446209999999999996e-01 2.228154999999999930e+01 5.956959999999999411e+01 1.789485000000000127e+03
2.100000000000000130e-02 1.446469999999999978e-01 2.285040000000000049e+01 6.083924999999999983e+01 1.789700000000000045e+03
2.200000000000000219e-02 1.446919999999999873e-01 2.350095000000000312e+01 6.256544999999999845e+01 1.790065000000000055e+03
2.299999999999999961e-02 1.447515000000000052e-01 2.414654999999999774e+01 6.450499999999999545e+01 1.790545000000000073e+03
2.400000000000000050e-02 1.448165000000000147e-01 2.469144999999999968e+01 6.636260000000000048e+01 1.791079999999999927e+03
2.500000000000000139e-02 1.448794999999999944e-01 2.505754999999999910e+01 6.787035000000000196e+01 1.791595000000000027e+03
2.600000000000000228e-02 1.449314999999999909e-01 2.520299999999999940e+01 6.885245000000000459e+01 1.792034999999999854e+03
2.700000000000000316e-02 1.449690000000000145e-01 2.512835000000000107e+01 6.925804999999999723e+01 1.792355000000000018e+03
2.800000000000000058e-02 1.449904999999999944e-01 2.487010000000000076e+01 6.915559999999999263e+01 1.792539999999999964e+03
2.900000000000000147e-02 1.449969999999999870e-01 2.448550000000000182e+01 6.869665000000000532e+01 1.792615000000000009e+03
3.000000000000000236e-02 1.449934999999999974e-01 2.403415000000000035e+01 6.806209999999998672e+01 1.792595000000000027e+03
3.099999999999999978e-02 1.449825000000000141e-01 2.356210000000000093e+01 6.741024999999999068e+01 1.792519999999999982e+03
3.200000000000000067e-02 1.449705000000000021e-01 2.309349999999999881e+01 6.683995000000000175e+01 1.792424999999999955e+03
3.300000000000000155e-02 1.449575000000000169e-01 2.262950000000000017e+01 6.637800000000000011e+01 1.792325000000000045e+03
3.400000000000000244e-02 1.449445000000000039e-01 2.215419999999999945e+01 6.598840000000001282e+01 1.792224999999999909e+03
3.500000000000000333e-02 1.449314999999999909e-01 2.164489999999999981e+01 6.559829999999999472e+01 1.792119999999999891e+03
3.600000000000000422e-02 1.449165000000000036e-01 2.108305000000000007e+01 6.513134999999999764e+01 1.792005000000000109e+03
3.700000000000000511e-02 1.448975000000000124e-01 2.046320000000000050e+01 6.453759999999999764e+01 1.791855000000000018e+03
3.799999999999999906e-02 1.448745000000000172e-01 1.979814999999999969e+01 6.381449999999999534e+01 1.791675000000000182e+03
3.899999999999999994e-02 1.448475000000000179e-01 1.911880000000000024e+01 6.301350000000000051e+01 1.791465000000000146e+03
4.000000000000000083e-02 1.448189999999999755e-01 1.846945000000000192e+01 6.223175000000000523e+01 1.791235000000000127e+03
4.100000000000000172e-02 1.447919999999999763e-01 1.789914999999999878e+01 6.159159999999999968e+01 1.791019999999999982e+03
4.200000000000000261e-02 1.447709999999999830e-01 1.745220000000000127e+01 6.121320000000000050e+01 1.790849999999999909e+03
4.300000000000000350e-02 1.447589999999999988e-01 1.715875000000000128e+01 6.118744999999999834e+01 1.790744999999999891e+03
4.400000000000000439e-02 1.447585000000000122e-01 1.702920000000000300e+01 6.155530000000000257e+01 1.790730000000000018e+03
4.499999999999999833e-02 1.447704999999999964e-01 1.705174999999999841e+01 6.229769999999999897e+01 1.790819999999999936e+03
4.599999999999999922e-02 1.447950000000000070e-01 1.719429999999999836e+01 6.333769999999999811e+01 1.791005000000000109e+03
4.700000000000000011e-02 1.448289999999999855e-01 1.740984999999999872e+01 6.455280000000000484e+01 1.791269999999999982e+03
4.800000000000000100e-02 1.448685000000000112e-01 1.764305000000000234e+01 6.579449999999999932e+01 1.791585000000000036e+03
4.900000000000000189e-02 1.449094999999999966e-01 1.783805000000000263e+01 6.690994999999999493e+01 1.791910000000000082e+03
5.000000000000000278e-02 1.449469999999999925e-01 1.794464999999999932e+01 6.776205000000000211e+01 1.792210000000000036e+03
5.100000000000000366e-02 1.449759999999999938e-01 1.792354999999999876e+01 6.824479999999999791e+01 1.792445000000000164e+03
5.200000000000000455e-02 1.449940000000000118e-01 1.774844999999999828e+01 6.829249999999998977e+01 1.792589999999999918e+03
5.300000000000000544e-02 1.449975000000000014e-01 1.740700000000000003e+01 6.788114999999999100e+01 1.792625000000000000e+03
5.399999999999999939e-02 1.449850000000000028e-01 1.689949999999999974e+01 6.702524999999999977e+01 1.792534999999999854e+03
5.500000000000000028e-02 1.449580000000000035e-01 1.623664999999999736e+01 6.576935000000000286e+01 1.792320000000000164e+03
5.600000000000000117e-02 1.449155000000000026e-01 1.543639999999999901e+01 6.417834999999999468e+01 1.791990000000000009e+03
5.700000000000000205e-02 1.448610000000000175e-01 1.452149999999999963e+01 6.232750000000000057e+01 1.791555000000000064e+03
5.800000000000000294e-02 1.447960000000000080e-01 1.351704999999999934e+01 6.029449999999999932e+01 1.791039999999999964e+03
5.900000000000000383e-02 1.447229999999999905e-01 1.244920499999999919e+01 5.815344999999999942e+01 1.790454999999999927e+03
6.000000000000000472e-02 1.446439999999999948e-01 1.134408999999999956e+01 5.597205000000000297e+01 1.789824999999999818e+03
6.099999999999999867e-02 1.445619999999999961e-01 1.022770500000000027e+01 5.381154999999999688e+01 1.789164999999999964e+03
6.199999999999999956e-02 1.444795000000000107e-01 9.126070000000000348e+00 5.172705000000000553e+01 1.788505000000000109e+03
6.300000000000000044e-02 1.443979999999999986e-01 8.065405000000000157e+00 4.977020000000000266e+01 1.787845000000000027e+03
6.400000000000000133e-02 1.443200000000000038e-01 7.072230000000000238e+00 4.799054999999999893e+01 1.787215000000000146e+03
6.500000000000000222e-02 1.442475000000000007e-01 6.173225000000000406e+00 4.643684999999999974e+01 1.786630000000000109e+03
6.600000000000000311e-02 1.441830000000000056e-01 5.394849999999999923e+00 4.515725000000000477e+01 1.786105000000000018e+03
6.700000000000000400e-02 1.441279999999999784e-01 4.762450000000000294e+00 4.419845000000000113e+01 1.785654999999999973e+03
6.800000000000000488e-02 1.440845000000000042e-01 4.299324999999999619e+00 4.360370000000000346e+01 1.785295000000000073e+03
6.900000000000000577e-02 1.440540000000000154e-01 4.025560000000000471e+00 4.341055000000000064e+01 1.785045000000000073e+03
7.000000000000000666e-02 1.440390000000000004e-01 3.956995000000000040e+00 4.364815000000000111e+01 1.784914999999999964e+03
7.100000000000000755e-02 1.440400000000000014e-01 4.104214999999999947e+00 4.433494999999999919e+01 1.784904999999999973e+03
7.200000000000000844e-02 1.440585000000000060e-01 4.471970000000000667e+00 4.547705000000000553e+01 1.785039999999999964e+03
7.300000000000000933e-02 1.440934999999999855e-01 5.058829999999999494e+00 4.706700000000000017e+01 1.785309999999999945e+03
7.399999999999999634e-02 1.441465000000000107e-01 5.857240000000000002e+00 4.908414999999999395e+01 1.785715000000000146e+03
7.499999999999999722e-02 1.442160000000000108e-01 6.853909999999999947e+00 5.149544999999999817e+01 1.786264999999999873e+03
7.599999999999999811e-02 1.443014999999999992e-01 8.030535000000000423e+00 5.425744999999999862e+01 1.786934999999999945e+03
7.699999999999999900e-02 1.444014999999999882e-01 9.364765000000000228e+00 5.731820000000000448e+01 1.787724999999999909e+03
7.799999999999999989e-02 1.445140000000000036e-01 1.083108999999999966e+01 6.062060000000000315e+01 1.788625000000000000e+03
7.900000000000000078e-02 1.446374999999999744e-01 1.240226999999999968e+01 6.410469999999999402e+01 1.789605000000000018e+03
8.000000000000000167e-02 1.447694999999999954e-01 1.405025000000000013e+01 6.771090000000000941e+01 1.790659999999999854e+03
8.100000000000000255e-02 1.449070000000000080e-01 1.574729999999999919e+01 7.138220000000001164e+01 1.791775000000000091e+03
8.200000000000000344e-02 1.450494999999999979e-01 1.746724999999999994e+01 7.506700000000000728e+01 1.792924999999999955e+03
8.300000000000000433e-02 1.451945000000000041e-01 1.918619999999999948e+01 7.872030000000000882e+01 1.794095000000000027e+03
8.400000000000000522e-02 1.453400000000000247e-01 2.088315000000000055e+01 8.230590000000000828e+01 1.795275000000000091e+03
8.500000000000000611e-02 1.454845000000000166e-01 2.254084999999999894e+01 8.579654999999999632e+01 1.796450000000000045e+03
8.600000000000000699e-02 1.456264999999999921e-01 2.414580000000000126e+01 8.917449999999999477e+01 1.797610000000000127e+03
8.700000000000000788e-02 1.457660000000000067e-01 2.568854999999999933e+01 9.243149999999999977e+01 1.798750000000000000e+03
8.800000000000000877e-02 1.459020000000000039e-01 2.716349999999999909e+01 9.556739999999999213e+01 1.799865000000000009e+03
8.899999999999999578e-02 1.460339999999999971e-01 2.856844999999999857e+01 9.859014999999999418e+01 1.800949999999999818e+03
8.999999999999999667e-02 1.461629999999999874e-01 2.990425000000000111e+01 1.015122999999999962e+02 1.802005000000000109e+03
9.099999999999999756e-02 1.462880000000000014e-01 3.117430000000000234e+01 1.043504000000000076e+02 1.803039999999999964e+03
9.199999999999999845e-02 1.464099999999999846e-01 3.238325000000000387e+01 1.071235000000000070e+02 1.804054999999999836e+03
9.299999999999999933e-02 1.465299999999999936e-01 3.353694999999999737e+01 1.098505000000000109e+02 1.805039999999999964e+03
9.400000000000000022e-02 1.466480000000000006e-01 3.464159999999999684e+01 1.125480000000000018e+02 1.806019999999999982e+03
9.500000000000000111e-02 1.467645000000000199e-01 3.570270000000000010e+01 1.152305000000000064e+02 1.806990000000000009e+03
9.600000000000000200e-02 1.468805000000000249e-01 3.672504999999999598e+01 1.179070000000000107e+02 1.807944999999999936e+03
9.700000000000000289e-02 1.469959999999999878e-01 3.771219999999999573e+01 1.205840000000000032e+02 1.808905000000000200e+03
9.800000000000000377e-02 1.471109999999999918e-01 3.866594999999999516e+01 1.232614999999999981e+02 1.809860000000000127e+03
9.900000000000000466e-02 1.472264999999999824e-01 3.958664999999999878e+01 1.259335000000000093e+02 1.810815000000000055e+03
1.000000000000000056e-01 1.473409999999999997e-01 4.047270000000000323e+01 1.285919999999999845e+02 1.811764999999999873e+03
1.010000000000000064e-01 1.474540000000000017e-01 4.132104999999999961e+01 1.312224999999999966e+02 1.812710000000000036e+03
1.020000000000000073e-01 1.475664999999999893e-01 4.212725000000000364e+01 1.338085000000000093e+02 1.813644999999999982e+03
1.030000000000000082e-01 1.476770000000000027e-01 4.288559999999999661e+01 1.363324999999999818e+02 1.814565000000000055e+03
1.040000000000000091e-01 1.477855000000000141e-01 4.358964999999999890e+01 1.387719999999999914e+02 1.815465000000000146e+03
1.050000000000000100e-01 1.478904999999999803e-01 4.423215000000000430e+01 1.411080000000000041e+02 1.816345000000000027e+03
1.059999999999999970e-01 1.479914999999999980e-01 4.480599999999999739e+01 1.433179999999999836e+02 1.817184999999999945e+03
1.069999999999999979e-01 1.480874999999999830e-01 4.530389999999999873e+01 1.453834999999999980e+02 1.817994999999999891e+03
1.079999999999999988e-01 1.481780000000000042e-01 4.571909999999999741e+01 1.472860000000000014e+02 1.818755000000000109e+03
1.089999999999999997e-01 1.482624999999999915e-01 4.604560000000000031e+01 1.490095000000000027e+02 1.819464999999999918e+03
1.100000000000000006e-01 1.483400000000000274e-01 4.627824999999999989e+01 1.505414999999999850e+02 1.820115000000000009e+03
1.110000000000000014e-01 1.484105000000000008e-01 4.641330000000000666e+01 1.518720000000000141e+02 1.820704999999999927e+03
1.120000000000000023e-01 1.484729999999999939e-01 4.644825000000000159e+01 1.529959999999999809e+02 1.821235000000000127e+03
1.130000000000000032e-01 1.485270000000000201e-01 4.638219999999999743e+01 1.539089999999999918e+02 1.821695000000000164e+03
1.140000000000000041e-01 1.485730000000000106e-01 4.621600000000000108e+01 1.546134999999999877e+02 1.822090000000000146e+03
1.150000000000000050e-01 1.486109999999999931e-01 4.595210000000000150e+01 1.551140000000000043e+02 1.822414999999999964e+03
1.160000000000000059e-01 1.486405000000000087e-01 4.559475000000000477e+01 1.554189999999999827e+02 1.822670000000000073e+03
1.170000000000000068e-01 1.486619999999999886e-01 4.514954999999999785e+01 1.555409999999999968e+02 1.822855000000000018e+03
1.180000000000000077e-01 1.486755000000000160e-01 4.462389999999999901e+01 1.554939999999999998e+02 1.822980000000000018e+03
1.190000000000000085e-01 1.486824999999999952e-01 4.402625000000000455e+01 1.552964999999999804e+02 1.823045000000000073e+03
1.200000000000000094e-01 1.486830000000000096e-01 4.336610000000000298e+01 1.549675000000000011e+02 1.823055000000000064e+03
1.209999999999999964e-01 1.486775000000000180e-01 4.265359999999999729e+01 1.545264999999999986e+02 1.823014999999999873e+03
1.219999999999999973e-01 1.486669999999999936e-01 4.189939999999999998e+01 1.539964999999999975e+02 1.822940000000000055e+03
1.229999999999999982e-01 1.486520000000000064e-01 4.111415000000000219e+01 1.533965000000000032e+02 1.822820000000000164e+03
1.239999999999999991e-01 1.486345000000000027e-01 4.030819999999999936e+01 1.527479999999999905e+02 1.822674999999999955e+03
1.250000000000000000e-01 1.486129999999999951e-01 3.949155000000000371e+01 1.520679999999999836e+02 1.822505000000000109e+03
1.260000000000000009e-01 1.485905000000000142e-01 3.867314999999999969e+01 1.513745000000000118e+02 1.822315000000000055e+03
1.270000000000000018e-01 1.485659999999999759e-01 3.786099999999999710e+01 1.506804999999999950e+02 1.822119999999999891e+03
1.280000000000000027e-01 1.485409999999999786e-01 3.706184999999999974e+01 1.499970000000000141e+02 1.821914999999999964e+03
1.290000000000000036e-01 1.485159999999999814e-01 3.628104999999999336e+01 1.493335000000000150e+02 1.821700000000000045e+03
1.300000000000000044e-01 1.484904999999999975e-01 3.552254999999999541e+01 1.486945000000000050e+02 1.821490000000000009e+03
1.310000000000000053e-01 1.484659999999999869e-01 3.478880000000000194e+01 1.480815000000000055e+02 1.821279999999999973e+03
1.320000000000000062e-01 1.484415000000000040e-01 3.408079999999999643e+01 1.474954999999999927e+02 1.821079999999999927e+03
1.330000000000000071e-01 1.484175000000000078e-01 3.339815000000000111e+01 1.469309999999999832e+02 1.820875000000000000e+03
1.340000000000000080e-01 1.483945000000000125e-01 3.273924999999999841e+01 1.463845000000000027e+02 1.820679999999999836e+03
1.350000000000000089e-01 1.483714999999999895e-01 3.210134999999999650e+01 1.458470000000000084e+02 1.820489999999999782e+03
1.360000000000000098e-01 1.483490000000000086e-01 3.148085000000000022e+01 1.453100000000000023e+02 1.820300000000000182e+03
1.370000000000000107e-01 1.483265000000000000e-01 3.087349999999999994e+01 1.447634999999999934e+02 1.820105000000000018e+03
1.380000000000000115e-01 1.483030000000000181e-01 3.027439999999999998e+01 1.441965000000000146e+02 1.819910000000000082e+03
1.390000000000000124e-01 1.482789999999999941e-01 2.967869999999999919e+01 1.435995000000000061e+02 1.819704999999999927e+03
1.400000000000000133e-01 1.482534999999999825e-01 2.908120000000000260e+01 1.429615000000000009e+02 1.819494999999999891e+03
1.410000000000000142e-01 1.482275000000000120e-01 2.847719999999999985e+01 1.422729999999999961e+02 1.819275000000000091e+03
1.420000000000000151e-01 1.481985000000000108e-01 2.786240000000000094e+01 1.415260000000000105e+02 1.819034999999999854e+03
1.430000000000000160e-01 1.481679999999999942e-01 2.723304999999999865e+01 1.407154999999999916e+02 1.818779999999999973e+03
1.440000000000000169e-01 1.481345000000000023e-01 2.658634999999999948e+01 1.398360000000000127e+02 1.818500000000000000e+03
1.450000000000000178e-01 1.480989999999999807e-01 2.592030000000000101e+01 1.388865000000000123e+02 1.818204999999999927e+03
1.459999999999999909e-01 1.480605000000000115e-01 2.523404999999999987e+01 1.378659999999999854e+02 1.817884999999999991e+03
1.469999999999999918e-01 1.480194999999999983e-01 2.452794999999999703e+01 1.367780000000000200e+02 1.817549999999999955e+03
1.479999999999999927e-01 1.479759999999999964e-01 2.380324999999999847e+01 1.356285000000000025e+02 1.817180000000000064e+03
1.489999999999999936e-01 1.479300000000000059e-01 2.306255000000000166e+01 1.344239999999999782e+02 1.816799999999999955e+03
1.499999999999999944e-01 1.478809999999999847e-01 2.230935000000000201e+01 1.331740000000000066e+02 1.816400000000000091e+03
1.509999999999999953e-01 1.478309999999999902e-01 2.154830000000000112e+01 1.318909999999999911e+02 1.815985000000000127e+03
1.519999999999999962e-01 1.477789999999999937e-01 2.078474999999999895e+01 1.305875000000000057e+02 1.815554999999999836e+03
1.529999999999999971e-01 1.477264999999999828e-01 2.002449999999999974e+01 1.292775000000000034e+02 1.815119999999999891e+03
1.539999999999999980e-01 1.476729999999999987e-01 1.927420000000000044e+01 1.279759999999999991e+02 1.814675000000000182e+03
1.549999999999999989e-01 1.476200000000000012e-01 1.854025000000000034e+01 1.266984999999999957e+02 1.814240000000000009e+03
1.559999999999999998e-01 1.475675000000000181e-01 1.782934999999999803e+01 1.254585000000000008e+02 1.813799999999999955e+03
1.570000000000000007e-01 1.475160000000000082e-01 1.714784999999999826e+01 1.242694999999999936e+02 1.813375000000000000e+03
1.580000000000000016e-01 1.474665000000000004e-01 1.650159999999999982e+01 1.231449999999999960e+02 1.812960000000000036e+03
1.590000000000000024e-01 1.474185000000000079e-01 1.589589999999999925e+01 1.220945000000000107e+02 1.812565000000000055e+03
