# t [s], A [cm^2], U [cm/s], P [cPa], c [cm/s]
1.000000000000000021e-03 7.967450000000000365e-01 4.829899999999998084e-03 9.971705000000000041e+01 1.607200000000000045e+03
2.000000000000000042e-03 7.967325000000000657e-01 -2.533790000000000174e-03 9.969204999999999472e+01 1.607194999999999936e+03
3.000000000000000062e-03 7.967895000000000394e-01 7.496374999999999567e-02 9.977445000000000164e+01 1.607210000000000036e+03
4.000000000000000083e-03 7.968530000000000335e-01 1.696491499999999708e-01 9.989484999999999104e+01 1.607240000000000009e+03
5.000000000000000104e-03 7.968379999999999352e-01 1.664190000000000114e-01 9.987720000000000198e+01 1.607240000000000009e+03
6.000000000000000125e-03 7.967675000000000729e-01 8.486099999999999199e-02 9.970570000000000732e+01 1.607204999999999927e+03
7.000000000000000146e-03 7.967045000000000377e-01 7.673999999999958632e-03 9.947794999999999277e+01 1.607154999999999973e+03
8.000000000000000167e-03 7.966215000000000934e-01 -1.056869999999999754e-01 9.916470000000001050e+01 1.607085000000000036e+03
9.000000000000001055e-03 7.964759999999999618e-01 -3.200050000000000949e-01 9.867764999999999986e+01 1.606985000000000127e+03
1.000000000000000194e-02 7.962595000000000089e-01 -6.484199999999998854e-01 9.796930000000000405e+01 1.606829999999999927e+03
1.099999999999999936e-02 7.959555000000000380e-01 -1.105879999999999974e+00 9.698699999999999477e+01 1.606615000000000009e+03
1.200000000000000025e-02 7.955464999999999343e-01 -1.704900000000000082e+00 9.567539999999999623e+01 1.606319999999999936e+03
1.300000000000000114e-02 7.950504999999999933e-01 -2.401879999999999793e+00 9.404875000000001251e+01 1.605954999999999927e+03
1.400000000000000203e-02 7.945279999999999010e-01 -3.086314999999999920e+00 9.222355000000000302e+01 1.605525000000000091e+03
1.499999999999999944e-02 7.940479999999999761e-01 -3.628761500000000417e+00 9.037449999999999761e+01 1.605079999999999927e+03
1.600000000000000033e-02 7.936544999999999295e-01 -3.938058999999999976e+00 8.865645000000000664e+01 1.604644999999999982e+03
1.700000000000000122e-02 7.933505000000000695e-01 -3.988218999999999959e+00 8.715100000000001046e+01 1.604240000000000009e+03
1.800000000000000211e-02 7.931074999999999653e-01 -3.812079000000000217e+00 8.585474999999999568e+01 1.603875000000000000e+03
1.900000000000000300e-02 7.928804999999999881e-01 -3.476465000000000138e+00 8.470054999999999268e+01 1.603529999999999973e+03
2.000000000000000042e-02 7.926305000000000156e-01 -3.053429500000000019e+00 8.359350000000000591e+01 1.603194999999999936e+03
2.100000000000000130e-02 7.923320000000000363e-01 -2.596836500000000214e+00 8.244819999999999993e+01 1.602849999999999909e+03
2.200000000000000219e-02 7.919815000000000049e-01 -2.129889999999999617e+00 8.121584999999998900e+01 1.602494999999999891e+03
2.299999999999999961e-02 7.915920000000000734e-01 -1.646214999999999984e+00 7.989365000000000805e+01 1.602115000000000009e+03
2.400000000000000050e-02 7.911880000000000024e-01 -1.122605000000000075e+00 7.851550000000000296e+01 1.601720000000000027e+03
2.500000000000000139e-02 7.907910000000000217e-01 -5.372349999999999071e-01 7.712930000000000064e+01 1.601329999999999927e+03
2.600000000000000228e-02 7.904100000000000570e-01 1.144449999999999079e-01 7.577174999999999727e+01 1.600934999999999945e+03
2.700000000000000316e-02 7.900395000000000056e-01 8.114299999999998736e-01 7.445054999999999268e+01 1.600550000000000182e+03
2.800000000000000058e-02 7.896615000000000162e-01 1.507880000000000109e+00 7.313669999999999050e+01 1.600160000000000082e+03
2.900000000000000147e-02 7.892479999999999496e-01 2.141404999999999781e+00 7.176994999999999436e+01 1.599769999999999982e+03
3.000000000000000236e-02 7.887699999999999712e-01 2.645964999999999456e+00 7.027315000000000111e+01 1.599345000000000027e+03
3.099999999999999978e-02 7.882070000000001020e-01 2.966164999999999718e+00 6.857210000000000605e+01 1.598884999999999991e+03
3.200000000000000067e-02 7.875495000000000134e-01 3.069480000000000430e+00 6.661610000000000298e+01 1.598369999999999891e+03
3.300000000000000155e-02 7.868059999999998944e-01 2.953200000000000269e+00 6.439369999999999550e+01 1.597795000000000073e+03
3.400000000000000244e-02 7.859979999999999745e-01 2.644590000000000440e+00 6.193894999999999840e+01 1.597174999999999955e+03
3.500000000000000333e-02 7.851599999999999691e-01 2.194135000000000169e+00 5.932810000000000628e+01 1.596509999999999991e+03
3.600000000000000422e-02 7.843314999999999593e-01 1.664835000000000509e+00 5.666675000000000040e+01 1.595829999999999927e+03
3.700000000000000511e-02 7.835495000000000099e-01 1.120814999999999451e+00 5.407330000000000325e+01 1.595159999999999854e+03
3.799999999999999906e-02 7.828450000000000131e-01 6.183950000000000280e-01 5.166259999999999764e+01 1.594525000000000091e+03
3.899999999999999994e-02 7.822424999999999518e-01 2.005799999999999805e-01 4.953320000000000078e+01 1.593949999999999818e+03
4.000000000000000083e-02 7.817549999999999777e-01 -1.042350000000000776e-01 4.775985000000000014e+01 1.593454999999999927e+03
4.100000000000000172e-02 7.813890000000000002e-01 -2.805849999999998623e-01 4.639119999999999777e+01 1.593049999999999955e+03
4.200000000000000261e-02 7.811455000000000481e-01 -3.223750000000000782e-01 4.545220000000000482e+01 1.592755000000000109e+03
4.300000000000000350e-02 7.810230000000000228e-01 -2.286299999999999999e-01 4.494870000000000232e+01 1.592559999999999945e+03
4.400000000000000439e-02 7.810170000000000723e-01 2.509999999999734666e-04 4.487435000000000684e+01 1.592484999999999900e+03
4.499999999999999833e-02 7.811244999999999994e-01 3.649160000000000181e-01 4.521580000000000155e+01 1.592505000000000109e+03
4.599999999999999922e-02 7.813409999999999522e-01 8.678299999999998793e-01 4.595714999999999861e+01 1.592639999999999873e+03
4.700000000000000011e-02 7.816665000000000418e-01 1.512395000000000156e+00 4.708190000000000452e+01 1.592865000000000009e+03
4.800000000000000100e-02 7.820949999999999847e-01 2.301079999999999792e+00 4.857229999999999848e+01 1.593194999999999936e+03
4.900000000000000189e-02 7.826230000000000686e-01 3.233084999999999543e+00 5.040819999999999368e+01 1.593619999999999891e+03
5.000000000000000278e-02 7.832419999999999938e-01 4.302439999999999820e+00 5.256414999999999793e+01 1.594125000000000000e+03
5.100000000000000366e-02 7.839424999999999866e-01 5.497054999999999580e+00 5.500849999999999795e+01 1.594710000000000036e+03
5.200000000000000455e-02 7.847115000000000062e-01 6.798497999999999486e+00 5.770190000000000197e+01 1.595369999999999891e+03
5.300000000000000544e-02 7.855339999999999545e-01 8.183142499999998876e+00 6.059829999999999472e+01 1.596085000000000036e+03
5.399999999999999939e-02 7.863940000000000374e-01 9.624024999999999608e+00 6.364665000000000816e+01 1.596849999999999909e+03
5.500000000000000028e-02 7.872759999999999758e-01 1.109269000000000105e+01 6.679359999999999786e+01 1.597650000000000091e+03
5.600000000000000117e-02 7.881639999999999757e-01 1.256153500000000101e+01 6.998675000000000068e+01 1.598464999999999918e+03
5.700000000000000205e-02 7.890464999999999840e-01 1.400541499999999928e+01 7.317754999999999654e+01 1.599295000000000073e+03
5.800000000000000294e-02 7.899110000000000298e-01 1.540343000000000018e+01 7.632425000000000637e+01 1.600125000000000000e+03
5.900000000000000383e-02 7.907520000000000104e-01 1.673918000000000106e+01 7.939359999999999218e+01 1.600934999999999945e+03
6.000000000000000472e-02 7.915634999999999755e-01 1.800140000000000029e+01 8.236195000000000732e+01 1.601740000000000009e+03
6.099999999999999867e-02 7.923439999999999372e-01 1.918345000000000056e+01 8.521524999999999750e+01 1.602514999999999873e+03
6.199999999999999956e-02 7.930935000000000068e-01 2.028279999999999816e+01 8.794849999999999568e+01 1.603259999999999991e+03
6.300000000000000044e-02 7.938144999999999785e-01 2.130030000000000001e+01 9.056405000000000882e+01 1.603985000000000127e+03
6.400000000000000133e-02 7.945100000000000495e-01 2.223914999999999864e+01 9.307079999999999131e+01 1.604684999999999945e+03
6.500000000000000222e-02 7.951840000000000019e-01 2.310425000000000040e+01 9.548075000000000045e+01 1.605360000000000127e+03
6.600000000000000311e-02 7.958399999999999919e-01 2.390135000000000076e+01 9.780965000000000487e+01 1.606014999999999873e+03
6.700000000000000400e-02 7.964830000000000521e-01 2.463620000000000232e+01 1.000722999999999985e+02 1.606650000000000091e+03
6.800000000000000488e-02 7.971159999999999357e-01 2.531410000000000338e+01 1.022830000000000013e+02 1.607269999999999982e+03
6.900000000000000577e-02 7.977410000000000334e-01 2.593939999999999912e+01 1.044530500000000046e+02 1.607884999999999991e+03
7.000000000000000666e-02 7.983590000000000408e-01 2.651500000000000057e+01 1.065900000000000034e+02 1.608480000000000018e+03
7.100000000000000755e-02 7.989709999999999868e-01 2.704220000000000113e+01 1.086970000000000027e+02 1.609074999999999818e+03
7.200000000000000844e-02 7.995744999999999658e-01 2.752070000000000149e+01 1.107729999999999961e+02 1.609654999999999973e+03
7.300000000000000933e-02 8.001670000000000726e-01 2.794865000000000066e+01 1.128104999999999905e+02 1.610230000000000018e+03
7.399999999999999634e-02 8.007454999999999989e-01 2.832294999999999874e+01 1.148010000000000019e+02 1.610789999999999964e+03
7.499999999999999722e-02 8.013055000000000039e-01 2.863964999999999961e+01 1.167300000000000040e+02 1.611335000000000036e+03
7.599999999999999811e-02 8.018425000000000136e-01 2.889434999999999931e+01 1.185825000000000102e+02 1.611860000000000127e+03
7.699999999999999900e-02 8.023510000000000364e-01 2.908265000000000100e+01 1.203410000000000082e+02 1.612364999999999782e+03
7.799999999999999989e-02 8.028264999999999985e-01 2.920049999999999812e+01 1.219894999999999925e+02 1.612840000000000146e+03
7.900000000000000078e-02 8.032660000000000355e-01 2.924465000000000003e+01 1.235130000000000052e+02 1.613279999999999973e+03
8.000000000000000167e-02 8.036649999999999627e-01 2.921274999999999977e+01 1.248969999999999914e+02 1.613690000000000055e+03
8.100000000000000255e-02 8.040209999999999857e-01 2.910354999999999848e+01 1.261310000000000002e+02 1.614065000000000055e+03
8.200000000000000344e-02 8.043320000000000469e-01 2.891700000000000159e+01 1.272075000000000102e+02 1.614389999999999873e+03
8.300000000000000433e-02 8.045970000000000066e-01 2.865429999999999922e+01 1.281204999999999927e+02 1.614674999999999955e+03
8.400000000000000522e-02 8.048170000000000046e-01 2.831779999999999831e+01 1.288685000000000116e+02 1.614914999999999964e+03
8.500000000000000611e-02 8.049904999999999422e-01 2.791120000000000090e+01 1.294530000000000030e+02 1.615119999999999891e+03
8.600000000000000699e-02 8.051204999999999057e-01 2.743925000000000125e+01 1.298789999999999907e+02 1.615269999999999982e+03
8.700000000000000788e-02 8.052084999999999937e-01 2.690789999999999793e+01 1.301539999999999964e+02 1.615384999999999991e+03
8.800000000000000877e-02 8.052580000000000293e-01 2.632399999999999807e+01 1.302874999999999943e+02 1.615460000000000036e+03
8.899999999999999578e-02 8.052719999999999878e-01 2.569555000000000078e+01 1.302924999999999898e+02 1.615494999999999891e+03
8.999999999999999667e-02 8.052555000000000129e-01 2.503099999999999881e+01 1.301829999999999927e+02 1.615500000000000000e+03
9.099999999999999756e-02 8.052120000000000388e-01 2.433950000000000102e+01 1.299759999999999991e+02 1.615474999999999909e+03
9.199999999999999845e-02 8.051475000000000160e-01 2.363034999999999997e+01 1.296875000000000000e+02 1.615425000000000182e+03
9.299999999999999933e-02 8.050654999999999895e-01 2.291294999999999860e+01 1.293350000000000080e+02 1.615349999999999909e+03
9.400000000000000022e-02 8.049710000000001031e-01 2.219615000000000293e+01 1.289370000000000118e+02 1.615259999999999991e+03
9.500000000000000111e-02 8.048695000000000155e-01 2.148829999999999885e+01 1.285090000000000146e+02 1.615164999999999964e+03
9.600000000000000200e-02 8.047634999999999650e-01 2.079645000000000010e+01 1.280660000000000025e+02 1.615059999999999945e+03
9.700000000000000289e-02 8.046579999999999844e-01 2.012659999999999982e+01 1.276219999999999857e+02 1.614945000000000164e+03
9.800000000000000377e-02 8.045535000000000325e-01 1.948304999999999865e+01 1.271875000000000000e+02 1.614829999999999927e+03
9.900000000000000466e-02 8.044535000000000435e-01 1.886860000000000070e+01 1.267704999999999984e+02 1.614720000000000027e+03
1.000000000000000056e-01 8.043584999999999763e-01 1.828440000000000154e+01 1.263764999999999930e+02 1.614610000000000127e+03
1.010000000000000064e-01 8.042679999999999829e-01 1.772984999999999900e+01 1.260070000000000050e+02 1.614509999999999991e+03
1.020000000000000073e-01 8.041825000000000223e-01 1.720304999999999751e+01 1.256624999999999943e+02 1.614410000000000082e+03
1.030000000000000082e-01 8.041009999999999547e-01 1.670074999999999932e+01 1.253385000000000105e+02 1.614315000000000055e+03
1.040000000000000091e-01 8.040210000000000967e-01 1.621865000000000023e+01 1.250320000000000107e+02 1.614224999999999909e+03
1.050000000000000100e-01 8.039410000000000167e-01 1.575184999999999924e+01 1.247359999999999900e+02 1.614140000000000100e+03
1.059999999999999970e-01 8.038589999999999902e-01 1.529499999999999993e+01 1.244415000000000049e+02 1.614054999999999836e+03
1.069999999999999979e-01 8.037725000000000009e-01 1.484249999999999936e+01 1.241430000000000007e+02 1.613965000000000146e+03
1.079999999999999988e-01 8.036809999999999787e-01 1.438910000000000089e+01 1.238309999999999889e+02 1.613880000000000109e+03
1.089999999999999997e-01 8.035805000000000309e-01 1.392974999999999852e+01 1.234989999999999952e+02 1.613785000000000082e+03
1.100000000000000006e-01 8.034715000000000051e-01 1.346030000000000015e+01 1.231405000000000030e+02 1.613684999999999945e+03
1.110000000000000014e-01 8.033520000000000660e-01 1.297715499999999977e+01 1.227524999999999977e+02 1.613579999999999927e+03
1.120000000000000023e-01 8.032224999999999504e-01 1.247789000000000037e+01 1.223300000000000125e+02 1.613470000000000027e+03
1.130000000000000032e-01 8.030819999999999625e-01 1.196112499999999912e+01 1.218735000000000070e+02 1.613345000000000027e+03
1.140000000000000041e-01 8.029325000000000490e-01 1.142670000000000030e+01 1.213834999999999980e+02 1.613214999999999918e+03
1.150000000000000050e-01 8.027744999999999465e-01 1.087560500000000019e+01 1.208635000000000019e+02 1.613079999999999927e+03
1.160000000000000059e-01 8.026100000000000456e-01 1.031006499999999981e+01 1.203185000000000002e+02 1.612934999999999945e+03
1.170000000000000068e-01 8.024419999999999886e-01 9.733370000000000744e+00 1.197554999999999978e+02 1.612789999999999964e+03
1.180000000000000077e-01 8.022724999999999440e-01 9.149689999999999657e+00 1.191839999999999975e+02 1.612634999999999991e+03
1.190000000000000085e-01 8.021050000000000679e-01 8.564090000000000202e+00 1.186129999999999995e+02 1.612490000000000009e+03
1.200000000000000094e-01 8.019425000000000026e-01 7.982210000000000250e+00 1.180545000000000044e+02 1.612335000000000036e+03
1.209999999999999964e-01 8.017885000000000151e-01 7.409984999999999822e+00 1.175180000000000007e+02 1.612190000000000055e+03
1.219999999999999973e-01 8.016459999999999697e-01 6.853455000000000297e+00 1.170169999999999959e+02 1.612059999999999945e+03
1.229999999999999982e-01 8.015179999999999527e-01 6.318629999999999747e+00 1.165614999999999952e+02 1.611930000000000064e+03
1.239999999999999991e-01 8.014080000000000092e-01 5.811049999999999827e+00 1.161605000000000132e+02 1.611819999999999936e+03
1.250000000000000000e-01 8.013170000000000570e-01 5.335655000000000037e+00 1.158239999999999981e+02 1.611719999999999800e+03
1.260000000000000009e-01 8.012475000000000014e-01 4.896570000000000533e+00 1.155584999999999951e+02 1.611639999999999873e+03
1.270000000000000018e-01 8.012004999999999821e-01 4.496970000000000134e+00 1.153679999999999950e+02 1.611574999999999818e+03
1.280000000000000027e-01 8.011759999999999993e-01 4.138944999999999652e+00 1.152560000000000002e+02 1.611535000000000082e+03
1.290000000000000036e-01 8.011745000000000116e-01 3.823440000000000172e+00 1.152224999999999966e+02 1.611509999999999991e+03
1.300000000000000044e-01 8.011945000000000316e-01 3.550284999999999691e+00 1.152665000000000077e+02 1.611509999999999991e+03
1.310000000000000053e-01 8.012345000000000717e-01 3.318195000000000228e+00 1.153824999999999932e+02 1.611525000000000091e+03
1.320000000000000062e-01 8.012934999999999919e-01 3.124934999999999796e+00 1.155649999999999977e+02 1.611559999999999945e+03
1.330000000000000071e-01 8.013675000000000104e-01 2.967405000000000292e+00 1.158069999999999879e+02 1.611610000000000127e+03
1.340000000000000080e-01 8.014559999999999462e-01 2.841825000000000045e+00 1.160989999999999895e+02 1.611675000000000182e+03
1.350000000000000089e-01 8.015535000000000299e-01 2.743940000000000268e+00 1.164314999999999998e+02 1.611750000000000000e+03
1.360000000000000098e-01 8.016589999999998994e-01 2.669179999999999886e+00 1.167934999999999945e+02 1.611840000000000146e+03
1.370000000000000107e-01 8.017695000000000238e-01 2.612845000000000084e+00 1.171750000000000114e+02 1.611929999999999836e+03
1.380000000000000115e-01 8.018814999999999138e-01 2.570300000000000029e+00 1.175665000000000049e+02 1.612029999999999973e+03
1.390000000000000124e-01 8.019924999999999971e-01 2.537090000000000067e+00 1.179579999999999984e+02 1.612125000000000000e+03
1.400000000000000133e-01 8.021005000000001051e-01 2.509065000000000101e+00 1.183404999999999916e+02 1.612224999999999909e+03
1.410000000000000142e-01 8.022029999999999994e-01 2.482485000000000053e+00 1.187069999999999936e+02 1.612324999999999818e+03
1.420000000000000151e-01 8.022994999999999433e-01 2.454075000000000006e+00 1.190504999999999995e+02 1.612414999999999964e+03
1.430000000000000160e-01 8.023875000000000313e-01 2.421065000000000023e+00 1.193665000000000020e+02 1.612505000000000109e+03
1.440000000000000169e-01 8.024670000000000414e-01 2.381224999999999703e+00 1.196514999999999986e+02 1.612579999999999927e+03
1.450000000000000178e-01 8.025370000000000559e-01 2.332844999999999835e+00 1.199020000000000010e+02 1.612650000000000091e+03
1.459999999999999909e-01 8.025964999999999350e-01 2.274745000000000239e+00 1.201159999999999997e+02 1.612714999999999918e+03
1.469999999999999918e-01 8.026465000000000405e-01 2.206214999999999815e+00 1.202940000000000111e+02 1.612769999999999982e+03
1.479999999999999927e-01 8.026865000000000805e-01 2.127019999999999911e+00 1.204360000000000070e+02 1.612815000000000055e+03
1.489999999999999936e-01 8.027174999999999727e-01 2.037314999999999987e+00 1.205420000000000016e+02 1.612849999999999909e+03
1.499999999999999944e-01 8.027385000000000215e-01 1.937619999999999898e+00 1.206150000000000091e+02 1.612869999999999891e+03
1.509999999999999953e-01 8.027519999999999101e-01 1.828755000000000130e+00 1.206564999999999941e+02 1.612889999999999873e+03
1.519999999999999962e-01 8.027579999999999716e-01 1.711764999999999981e+00 1.206690000000000111e+02 1.612904999999999973e+03
1.529999999999999971e-01 8.027564999999999840e-01 1.587854999999999794e+00 1.206550000000000011e+02 1.612904999999999973e+03
1.539999999999999980e-01 8.027484999999999760e-01 1.458359999999999879e+00 1.206175000000000068e+02 1.612904999999999973e+03
1.549999999999999989e-01 8.027355000000000462e-01 1.324635500000000077e+00 1.205585000000000093e+02 1.612894999999999982e+03
1.559999999999999998e-01 8.027174999999999727e-01 1.188025000000000109e+00 1.204809999999999945e+02 1.612875000000000000e+03
1.570000000000000007e-01 8.026949999999999363e-01 1.049802499999999972e+00 1.203870000000000005e+02 1.612860000000000127e+03
1.580000000000000016e-01 8.026685000000000070e-01 9.111270000000000202e-01 1.202780000000000058e+02 1.612829999999999927e+03
1.590000000000000024e-01 8.026379999999999626e-01 7.729999999999999094e-01 1.201550000000000011e+02 1.612805000000000064e+03
