# t [s], A [cm^2], U [cm/s], P [cPa], c [cm/s]
1.000000000000000021e-03 7.561879999999999713e-01 5.080049999999995680e-03 9.391210000000000946e+01 1.594485000000000127e+03
2.000000000000000042e-03 7.561744999999999717e-01 -4.633734999999999937e-03 9.388490000000000180e+01 1.594480000000000018e+03
3.000000000000000062e-03 7.562244999999999662e-01 6.797989999999999589e-02 9.395929999999999893e+01 1.594500000000000000e+03
4.000000000000000083e-03 7.562884999999999192e-01 1.684136499999999981e-01 9.408195000000000618e+01 1.594519999999999982e+03
5.000000000000000104e-03 7.562780000000000058e-01 1.739624999999999921e-01 9.407274999999999920e+01 1.594525000000000091e+03
6.000000000000000125e-03 7.562039999999999873e-01 8.836149999999998172e-02 9.389719999999999800e+01 1.594485000000000127e+03
7.000000000000000146e-03 7.561400000000000343e-01 9.719000000000033168e-03 9.366880000000000450e+01 1.594440000000000055e+03
8.000000000000000167e-03 7.560634999999999994e-01 -9.583500000000000352e-02 9.337049999999999272e+01 1.594380000000000109e+03
9.000000000000001055e-03 7.559274999999999745e-01 -3.021000000000000352e-01 9.290810000000000457e+01 1.594284999999999854e+03
1.000000000000000194e-02 7.557274999999999965e-01 -6.194250000000000034e-01 9.223959999999999582e+01 1.594155000000000200e+03
1.099999999999999936e-02 7.554514999999999425e-01 -1.057814999999999950e+00 9.132130000000000791e+01 1.593965000000000146e+03
1.200000000000000025e-02 7.550779999999999159e-01 -1.636980000000000102e+00 9.009290000000000020e+01 1.593710000000000036e+03
1.300000000000000114e-02 7.546165000000000234e-01 -2.326895000000000380e+00 8.855079999999999529e+01 1.593389999999999873e+03
1.400000000000000203e-02 7.541219999999999590e-01 -3.022964999999999680e+00 8.679869999999999663e+01 1.593009999999999991e+03
1.499999999999999944e-02 7.536659999999999471e-01 -3.589588000000000001e+00 8.501130000000000564e+01 1.592610000000000127e+03
1.600000000000000033e-02 7.532965000000000355e-01 -3.923855000000000537e+00 8.335284999999998945e+01 1.592219999999999800e+03
1.700000000000000122e-02 7.530215000000000103e-01 -3.990558999999999745e+00 8.191454999999999131e+01 1.591869999999999891e+03
1.800000000000000211e-02 7.528110000000000079e-01 -3.819697500000000190e+00 8.069694999999998686e+01 1.591550000000000182e+03
1.900000000000000300e-02 7.526220000000000132e-01 -3.481472499999999748e+00 7.962960000000001060e+01 1.591255000000000109e+03
2.000000000000000042e-02 7.524085000000000356e-01 -3.055046499999999998e+00 7.860890000000000555e+01 1.590965000000000146e+03
2.100000000000000130e-02 7.521415000000000184e-01 -2.601816949999999906e+00 7.753905000000000314e+01 1.590674999999999955e+03
2.200000000000000219e-02 7.518169999999999575e-01 -2.149636000000000102e+00 7.636355000000000359e+01 1.590360000000000127e+03
2.299999999999999961e-02 7.514475000000000460e-01 -1.691689999999999916e+00 7.507804999999999040e+01 1.590025000000000091e+03
2.400000000000000050e-02 7.510604999999999087e-01 -1.199230000000000018e+00 7.372180000000000177e+01 1.589670000000000073e+03
2.500000000000000139e-02 7.506820000000000714e-01 -6.418899999999998496e-01 7.235374999999999091e+01 1.589320000000000164e+03
2.600000000000000228e-02 7.503250000000000197e-01 -6.765000000000132019e-03 7.102330000000000609e+01 1.588965000000000146e+03
2.700000000000000316e-02 7.499880000000000990e-01 6.904350000000001319e-01 6.974799999999999045e+01 1.588625000000000000e+03
2.800000000000000058e-02 7.496519999999999850e-01 1.404349999999999765e+00 6.850339999999999918e+01 1.588289999999999964e+03
2.900000000000000147e-02 7.492874999999999952e-01 2.067839999999999900e+00 6.722639999999999816e+01 1.587944999999999936e+03
3.000000000000000236e-02 7.488615000000000688e-01 2.605739999999999945e+00 6.582974999999999000e+01 1.587585000000000036e+03
3.099999999999999978e-02 7.483474999999999433e-01 2.951109999999999900e+00 6.422405000000000541e+01 1.587180000000000064e+03
3.200000000000000067e-02 7.477314999999999934e-01 3.060280000000000555e+00 6.234130000000000393e+01 1.586730000000000018e+03
3.300000000000000155e-02 7.470164999999999722e-01 2.922700000000000298e+00 6.015484999999999616e+01 1.586215000000000146e+03
3.400000000000000244e-02 7.462244999999999573e-01 2.562819999999999876e+00 5.768954999999999700e+01 1.585639999999999873e+03
3.500000000000000333e-02 7.453899999999999970e-01 2.033835000000000282e+00 5.501964999999999861e+01 1.585019999999999982e+03
3.600000000000000422e-02 7.445545000000000080e-01 1.405364999999999753e+00 5.225544999999999618e+01 1.584369999999999891e+03
3.700000000000000511e-02 7.437584999999999891e-01 7.501700000000006696e-01 4.952455000000000496e+01 1.583730000000000018e+03
3.799999999999999906e-02 7.430360000000000298e-01 1.324849999999999639e-01 4.695264999999999844e+01 1.583110000000000127e+03
3.899999999999999994e-02 7.424115000000000020e-01 -3.985750000000001236e-01 4.464815000000000111e+01 1.582545000000000073e+03
4.000000000000000083e-02 7.418994999999999340e-01 -8.113450000000002049e-01 4.269280000000000541e+01 1.582050000000000182e+03
4.100000000000000172e-02 7.415059999999999985e-01 -1.089979999999999949e+00 4.113875000000000171e+01 1.581639999999999873e+03
4.200000000000000261e-02 7.412300000000000555e-01 -1.230314999999999825e+00 4.001024999999999920e+01 1.581320000000000164e+03
4.300000000000000350e-02 7.410669999999999202e-01 -1.234766500000000100e+00 3.931000000000000227e+01 1.581099999999999909e+03
4.400000000000000439e-02 7.410114999999999341e-01 -1.107483499999999843e+00 3.902644999999999698e+01 1.580980000000000018e+03
4.499999999999999833e-02 7.410585000000000644e-01 -8.508160000000000167e-01 3.914104999999999990e+01 1.580954999999999927e+03
4.599999999999999922e-02 7.412045000000000439e-01 -4.637749999999999373e-01 3.963389999999999702e+01 1.581014999999999873e+03
4.700000000000000011e-02 7.414460000000000495e-01 5.746999999999991005e-02 4.048685000000000400e+01 1.581170000000000073e+03
4.800000000000000100e-02 7.417819999999999414e-01 7.174700000000000522e-01 4.168325000000000102e+01 1.581404999999999973e+03
4.900000000000000189e-02 7.422085000000000488e-01 1.518659999999999899e+00 4.320619999999999550e+01 1.581724999999999909e+03
5.000000000000000278e-02 7.427204999999998947e-01 2.458699999999999442e+00 4.503535000000000110e+01 1.582114999999999782e+03
5.100000000000000366e-02 7.433095000000000674e-01 3.528599999999999959e+00 4.714419999999999789e+01 1.582579999999999927e+03
5.200000000000000455e-02 7.439645000000000286e-01 4.712215000000000487e+00 4.949840000000000373e+01 1.583105000000000018e+03
5.300000000000000544e-02 7.446709999999999718e-01 5.986899999999999444e+00 5.205559999999999832e+01 1.583684999999999945e+03
5.399999999999999939e-02 7.454145000000000909e-01 7.325293499999999902e+00 5.476675000000000182e+01 1.584304999999999836e+03
5.500000000000000028e-02 7.461780000000000079e-01 8.697420000000001039e+00 5.757874999999999943e+01 1.584960000000000036e+03
5.600000000000000117e-02 7.469470000000000276e-01 1.007343000000000011e+01 6.043775000000000119e+01 1.585630000000000109e+03
5.700000000000000205e-02 7.477080000000000393e-01 1.142567999999999984e+01 6.329274999999999807e+01 1.586315000000000055e+03
5.800000000000000294e-02 7.484494999999999898e-01 1.273049500000000123e+01 6.609869999999999379e+01 1.586990000000000009e+03
5.900000000000000383e-02 7.491634999999999822e-01 1.396935500000000019e+01 6.881915000000000759e+01 1.587654999999999973e+03
6.000000000000000472e-02 7.498445000000000249e-01 1.512919999999999909e+01 7.142719999999999914e+01 1.588304999999999836e+03
6.099999999999999867e-02 7.504910000000000192e-01 1.620224999999999937e+01 7.390635000000000332e+01 1.588924999999999955e+03
6.199999999999999956e-02 7.511019999999999364e-01 1.718540000000000134e+01 7.625010000000000332e+01 1.589514999999999873e+03
6.300000000000000044e-02 7.516815000000000024e-01 1.807975000000000065e+01 7.846020000000000039e+01 1.590085000000000036e+03
6.400000000000000133e-02 7.522310000000000940e-01 1.888919999999999888e+01 8.054560000000000741e+01 1.590619999999999891e+03
6.500000000000000222e-02 7.527559999999999807e-01 1.961959999999999837e+01 8.252039999999999509e+01 1.591135000000000218e+03
6.600000000000000311e-02 7.532619999999999871e-01 2.027855000000000274e+01 8.440194999999999936e+01 1.591619999999999891e+03
6.700000000000000400e-02 7.537530000000000063e-01 2.087375000000000114e+01 8.620900000000000318e+01 1.592095000000000027e+03
6.800000000000000488e-02 7.542335000000000012e-01 2.141304999999999836e+01 8.795990000000000464e+01 1.592549999999999955e+03
6.900000000000000577e-02 7.547079999999999345e-01 2.190344999999999942e+01 8.967099999999999227e+01 1.593000000000000000e+03
7.000000000000000666e-02 7.551784999999999748e-01 2.235045000000000215e+01 9.135554999999999382e+01 1.593434999999999945e+03
7.100000000000000755e-02 7.556464999999999987e-01 2.275825000000000031e+01 9.302215000000001055e+01 1.593865000000000009e+03
7.200000000000000844e-02 7.561130000000000351e-01 2.312879999999999825e+01 9.467449999999999477e+01 1.594289999999999964e+03
7.300000000000000933e-02 7.565744999999999276e-01 2.346215000000000117e+01 9.631109999999999616e+01 1.594715000000000146e+03
7.399999999999999634e-02 7.570299999999999807e-01 2.375655000000000072e+01 9.792519999999998959e+01 1.595130000000000109e+03
7.499999999999999722e-02 7.574749999999998984e-01 2.400865000000000293e+01 9.950655000000000427e+01 1.595539999999999964e+03
7.599999999999999811e-02 7.579055000000000097e-01 2.421415000000000006e+01 1.010397499999999980e+02 1.595934999999999945e+03
7.699999999999999900e-02 7.583159999999999901e-01 2.436805000000000021e+01 1.025090000000000003e+02 1.596320000000000164e+03
7.799999999999999989e-02 7.587030000000000163e-01 2.446555000000000035e+01 1.038970000000000056e+02 1.596679999999999836e+03
7.900000000000000078e-02 7.590600000000000680e-01 2.450200000000000244e+01 1.051854999999999905e+02 1.597019999999999982e+03
8.000000000000000167e-02 7.593845000000000178e-01 2.447359999999999758e+01 1.063599999999999994e+02 1.597335000000000036e+03
8.100000000000000255e-02 7.596724999999999728e-01 2.437754999999999939e+01 1.074055000000000035e+02 1.597625000000000000e+03
8.200000000000000344e-02 7.599225000000000563e-01 2.421220000000000283e+01 1.083110000000000070e+02 1.597869999999999891e+03
8.300000000000000433e-02 7.601305000000000422e-01 2.397704999999999842e+01 1.090690000000000026e+02 1.598090000000000146e+03
8.400000000000000522e-02 7.602975000000000705e-01 2.367295000000000016e+01 1.096744999999999948e+02 1.598269999999999982e+03
8.500000000000000611e-02 7.604230000000000711e-01 2.330194999999999794e+01 1.101260000000000048e+02 1.598410000000000082e+03
8.600000000000000699e-02 7.605075000000000029e-01 2.286724999999999852e+01 1.104249999999999972e+02 1.598515000000000100e+03
8.700000000000000788e-02 7.605524999999999647e-01 2.237344999999999828e+01 1.105765000000000100e+02 1.598585000000000036e+03
8.800000000000000877e-02 7.605604999999999727e-01 2.182620000000000005e+01 1.105884999999999962e+02 1.598619999999999891e+03
8.899999999999999578e-02 7.605345000000000022e-01 2.123230000000000217e+01 1.104710000000000036e+02 1.598615000000000009e+03
8.999999999999999667e-02 7.604785000000000572e-01 2.059949999999999903e+01 1.102385000000000019e+02 1.598585000000000036e+03
9.099999999999999756e-02 7.603960000000000719e-01 1.993645000000000067e+01 1.099039999999999964e+02 1.598529999999999973e+03
9.199999999999999845e-02 7.602925000000000377e-01 1.925229999999999819e+01 1.094849999999999994e+02 1.598445000000000164e+03
9.299999999999999933e-02 7.601715000000000000e-01 1.855644999999999811e+01 1.089989999999999952e+02 1.598349999999999909e+03
9.400000000000000022e-02 7.600389999999999091e-01 1.785829999999999984e+01 1.084634999999999962e+02 1.598230000000000018e+03
9.500000000000000111e-02 7.598985000000000323e-01 1.716685000000000016e+01 1.078959999999999866e+02 1.598105000000000018e+03
9.600000000000000200e-02 7.597549999999999581e-01 1.649020000000000152e+01 1.073135000000000048e+02 1.597970000000000027e+03
9.700000000000000289e-02 7.596119999999999539e-01 1.583549999999999969e+01 1.067305000000000064e+02 1.597829999999999927e+03
9.800000000000000377e-02 7.594735000000000236e-01 1.520839999999999925e+01 1.061604999999999990e+02 1.597694999999999936e+03
9.900000000000000466e-02 7.593399999999999039e-01 1.461294999999999966e+01 1.056135000000000019e+02 1.597559999999999945e+03
1.000000000000000056e-01 7.592144999999999033e-01 1.405145000000000088e+01 1.050954999999999870e+02 1.597424999999999955e+03
1.010000000000000064e-01 7.590965000000000629e-01 1.352456500000000084e+01 1.046119999999999948e+02 1.597299999999999955e+03
1.020000000000000073e-01 7.589869999999999672e-01 1.303116999999999948e+01 1.041629999999999967e+02 1.597180000000000064e+03
1.030000000000000082e-01 7.588835000000000441e-01 1.256864500000000007e+01 1.037480000000000047e+02 1.597075000000000045e+03
1.040000000000000091e-01 7.587865000000000304e-01 1.213325000000000031e+01 1.033615000000000066e+02 1.596970000000000027e+03
1.050000000000000100e-01 7.586924999999999919e-01 1.172009000000000079e+01 1.029975000000000023e+02 1.596869999999999891e+03
1.059999999999999970e-01 7.585995000000000932e-01 1.132353499999999968e+01 1.026477500000000020e+02 1.596775000000000091e+03
1.069999999999999979e-01 7.585055000000000547e-01 1.093759999999999977e+01 1.023038499999999971e+02 1.596684999999999945e+03
1.079999999999999988e-01 7.584079999999999711e-01 1.055625999999999998e+01 1.019561500000000080e+02 1.596595000000000027e+03
1.089999999999999997e-01 7.583044999999999369e-01 1.017360000000000042e+01 1.015958499999999987e+02 1.596500000000000000e+03
1.100000000000000006e-01 7.581930000000000058e-01 9.784134999999999138e+00 1.012141000000000020e+02 1.596400000000000091e+03
1.110000000000000014e-01 7.580720000000000791e-01 9.383130000000001303e+00 1.008040000000000020e+02 1.596295000000000073e+03
1.120000000000000023e-01 7.579409999999999759e-01 8.966834999999999667e+00 1.003603500000000111e+02 1.596190000000000055e+03
1.130000000000000032e-01 7.577979999999999716e-01 8.532515000000000072e+00 9.987850000000000250e+01 1.596070000000000164e+03
1.140000000000000041e-01 7.576445000000000540e-01 8.078780000000000072e+00 9.935724999999999341e+01 1.595945000000000164e+03
1.150000000000000050e-01 7.574795000000000833e-01 7.605489999999999640e+00 9.879814999999999259e+01 1.595809999999999945e+03
1.160000000000000059e-01 7.573054999999999648e-01 7.114020000000000010e+00 9.820324999999999704e+01 1.595664999999999964e+03
1.170000000000000068e-01 7.571250000000000480e-01 6.606869999999999798e+00 9.757920000000000016e+01 1.595515000000000100e+03
1.180000000000000077e-01 7.569390000000000285e-01 6.087939999999999685e+00 9.693289999999998940e+01 1.595360000000000127e+03
1.190000000000000085e-01 7.567515000000000214e-01 5.562105000000000743e+00 9.627504999999999313e+01 1.595200000000000045e+03
1.200000000000000094e-01 7.565660000000000718e-01 5.035149999999999793e+00 9.561504999999999654e+01 1.595039999999999964e+03
1.209999999999999964e-01 7.563850000000000851e-01 4.513455000000000439e+00 9.496665000000000134e+01 1.594880000000000109e+03
1.219999999999999973e-01 7.562124999999999542e-01 4.003770000000000273e+00 9.434154999999999802e+01 1.594730000000000018e+03
1.229999999999999982e-01 7.560525000000000162e-01 3.512900000000000134e+00 9.375270000000000437e+01 1.594579999999999927e+03
1.239999999999999991e-01 7.559069999999999956e-01 3.047414999999999985e+00 9.321209999999999241e+01 1.594440000000000055e+03
1.250000000000000000e-01 7.557800000000000074e-01 2.613383500000000303e+00 9.273085000000000377e+01 1.594315000000000055e+03
1.260000000000000009e-01 7.556734999999999980e-01 2.216102499999999864e+00 9.231839999999999691e+01 1.594210000000000036e+03
1.270000000000000018e-01 7.555889999999999551e-01 1.859906999999999977e+00 9.198230000000000928e+01 1.594115000000000009e+03
1.280000000000000027e-01 7.555279999999999774e-01 1.547967499999999941e+00 9.172780000000000200e+01 1.594039999999999964e+03
1.290000000000000036e-01 7.554905000000000648e-01 1.282214500000000035e+00 9.155769999999999698e+01 1.593985000000000127e+03
1.300000000000000044e-01 7.554760000000000364e-01 1.063264999999999905e+00 9.147220000000000084e+01 1.593954999999999927e+03
1.310000000000000053e-01 7.554840000000000444e-01 8.904630000000000045e-01 9.146909999999999741e+01 1.593940000000000055e+03
1.320000000000000062e-01 7.555125000000000313e-01 7.619329999999999714e-01 9.154374999999998863e+01 1.593940000000000055e+03
1.330000000000000071e-01 7.555594999999999395e-01 6.747284999999999533e-01 9.168930000000000291e+01 1.593960000000000036e+03
1.340000000000000080e-01 7.556224999999999747e-01 6.249888999999999584e-01 9.189744999999999209e+01 1.594005000000000109e+03
1.350000000000000089e-01 7.556990000000000096e-01 6.081529999999999436e-01 9.215829999999999700e+01 1.594050000000000182e+03
1.360000000000000098e-01 7.557854999999999990e-01 6.191740000000000022e-01 9.246129999999999427e+01 1.594115000000000009e+03
1.370000000000000107e-01 7.558785000000000087e-01 6.527224999999999833e-01 9.279529999999999745e+01 1.594184999999999945e+03
1.380000000000000115e-01 7.559759999999999813e-01 7.034074999999999633e-01 9.314930000000001087e+01 1.594264999999999873e+03
1.390000000000000124e-01 7.560750000000000526e-01 7.659715000000000273e-01 9.351269999999999527e+01 1.594345000000000027e+03
1.400000000000000133e-01 7.561724999999999142e-01 8.354129999999999612e-01 9.387569999999999482e+01 1.594429999999999836e+03
1.410000000000000142e-01 7.562670000000000226e-01 9.071699500000000027e-01 9.422945000000001414e+01 1.594514999999999873e+03
1.420000000000000151e-01 7.563560000000000283e-01 9.771668000000000021e-01 9.456634999999999991e+01 1.594599999999999909e+03
1.430000000000000160e-01 7.564379999999999438e-01 1.041920500000000027e+00 9.488020000000000209e+01 1.594670000000000073e+03
1.440000000000000169e-01 7.565124999999999211e-01 1.098560500000000051e+00 9.516604999999999848e+01 1.594744999999999891e+03
1.450000000000000178e-01 7.565779999999999728e-01 1.144851000000000063e+00 9.542055000000000575e+01 1.594809999999999945e+03
1.459999999999999909e-01 7.566349999999999465e-01 1.179194999999999993e+00 9.564144999999999186e+01 1.594865000000000009e+03
1.469999999999999918e-01 7.566829999999999945e-01 1.200602500000000017e+00 9.582784999999999798e+01 1.594914999999999964e+03
1.479999999999999927e-01 7.567220000000000057e-01 1.208649499999999932e+00 9.598005000000000564e+01 1.594960000000000036e+03
1.489999999999999936e-01 7.567520000000000913e-01 1.203450000000000131e+00 9.609899999999998954e+01 1.594994999999999891e+03
1.499999999999999944e-01 7.567745000000000166e-01 1.185564999999999980e+00 9.618684999999999263e+01 1.595019999999999982e+03
1.509999999999999953e-01 7.567900000000000738e-01 1.155955000000000066e+00 9.624604999999999677e+01 1.595039999999999964e+03
1.519999999999999962e-01 7.567984999999999296e-01 1.115864999999999885e+00 9.627949999999999875e+01 1.595054999999999836e+03
1.529999999999999971e-01 7.568025000000000446e-01 1.066791499999999893e+00 9.629049999999999443e+01 1.595059999999999945e+03
1.539999999999999980e-01 7.568015000000000159e-01 1.010345500000000118e+00 9.628235000000000809e+01 1.595065000000000055e+03
1.549999999999999989e-01 7.567960000000000242e-01 9.481944999999999402e-01 9.625829999999999131e+01 1.595065000000000055e+03
1.559999999999999998e-01 7.567884999999999751e-01 8.819609999999999950e-01 9.622124999999999773e+01 1.595059999999999945e+03
1.570000000000000007e-01 7.567779999999999507e-01 8.131595000000000351e-01 9.617390000000000327e+01 1.595055000000000064e+03
1.580000000000000016e-01 7.567660000000000498e-01 7.431354999999999489e-01 9.611834999999999241e+01 1.595039999999999964e+03
1.590000000000000024e-01 7.567524999999999391e-01 6.729975000000000263e-01 9.605610000000000070e+01 1.595025000000000091e+03
