# t [s], A [cm^2], U [cm/s], P [cPa], c [cm/s]
1.000000000000000021e-03 6.601780000000000426e-01 5.470900000000000762e-03 1.044909999999999997e+02 1.621644999999999982e+03
2.000000000000000042e-03 6.601675000000000182e-01 -6.354449999999998901e-04 1.044625000000000057e+02 1.621639999999999873e+03
3.000000000000000062e-03 6.602295000000000247e-01 1.050954000000000055e-01 1.045769999999999982e+02 1.621670000000000073e+03
4.000000000000000083e-03 6.602779999999999205e-01 1.997304500000000038e-01 1.046940000000000026e+02 1.621699999999999818e+03
5.000000000000000104e-03 6.602414999999999257e-01 1.607643500000000003e-01 1.046110000000000042e+02 1.621680000000000064e+03
6.000000000000000125e-03 6.601669999999999483e-01 5.236949999999995775e-02 1.043605000000000018e+02 1.621625000000000000e+03
7.000000000000000146e-03 6.600995000000000612e-01 -5.366450000000000387e-02 1.040430000000000064e+02 1.621549999999999955e+03
8.000000000000000167e-03 6.599885000000000890e-01 -2.481300000000000727e-01 1.035625000000000000e+02 1.621440000000000055e+03
9.000000000000001055e-03 6.598064999999999625e-01 -5.796750000000000513e-01 1.028280000000000030e+02 1.621269999999999982e+03
1.000000000000000194e-02 6.595535000000000148e-01 -1.045169999999999932e+00 1.017992500000000007e+02 1.621034999999999854e+03
1.099999999999999936e-02 6.592065000000000285e-01 -1.667040000000000077e+00 1.004060499999999934e+02 1.620710000000000036e+03
1.200000000000000025e-02 6.587555000000000494e-01 -2.442520000000000024e+00 9.859900000000000375e+01 1.620279999999999973e+03
1.300000000000000114e-02 6.582430000000000225e-01 -3.272175000000000278e+00 9.646139999999999759e+01 1.619755000000000109e+03
1.400000000000000203e-02 6.577469999999999706e-01 -3.982389999999999652e+00 9.421014999999999873e+01 1.619190000000000055e+03
1.499999999999999944e-02 6.573370000000000601e-01 -4.414302000000000170e+00 9.209345000000000425e+01 1.618625000000000000e+03
1.600000000000000033e-02 6.570374999999999410e-01 -4.493488999999999400e+00 9.028040000000000020e+01 1.618109999999999900e+03
1.700000000000000122e-02 6.568264999999999798e-01 -4.243743000000000265e+00 8.880689999999999884e+01 1.617664999999999964e+03
1.800000000000000211e-02 6.566530000000000422e-01 -3.758694999999999897e+00 8.758889999999999532e+01 1.617264999999999873e+03
1.900000000000000300e-02 6.564615000000000311e-01 -3.156189000000000355e+00 8.647405000000000541e+01 1.616894999999999982e+03
2.000000000000000042e-02 6.562109999999999888e-01 -2.534317499999999779e+00 8.530689999999999884e+01 1.616509999999999991e+03
2.100000000000000130e-02 6.558910000000000018e-01 -1.942135000000000167e+00 8.398550000000000182e+01 1.616105000000000018e+03
2.200000000000000219e-02 6.555145000000000000e-01 -1.374284999999999979e+00 8.248900000000000432e+01 1.615650000000000091e+03
2.299999999999999961e-02 6.551124999999999865e-01 -7.895850000000002034e-01 8.086825000000000330e+01 1.615174999999999955e+03
2.400000000000000050e-02 6.547155000000000058e-01 -1.427400000000003111e-01 7.920775000000000432e+01 1.614684999999999945e+03
2.500000000000000139e-02 6.543410000000000615e-01 5.864300000000000068e-01 7.758050000000000068e+01 1.614195000000000164e+03
2.600000000000000228e-02 6.539859999999999562e-01 1.376990000000000158e+00 7.601269999999999527e+01 1.613720000000000027e+03
2.700000000000000316e-02 6.536279999999999868e-01 2.166884999999999728e+00 7.446970000000000312e+01 1.613240000000000009e+03
2.800000000000000058e-02 6.532329999999999526e-01 2.866015000000000423e+00 7.286230000000000473e+01 1.612755000000000109e+03
2.900000000000000147e-02 6.527659999999999574e-01 3.377290000000000347e+00 7.107059999999999889e+01 1.612230000000000018e+03
3.000000000000000236e-02 6.521985000000000143e-01 3.620270000000000543e+00 6.897794999999999277e+01 1.611639999999999873e+03
3.099999999999999978e-02 6.515204999999999469e-01 3.551515000000000200e+00 6.650560000000000116e+01 1.610970000000000027e+03
3.200000000000000067e-02 6.507415000000000838e-01 3.175914999999999822e+00 6.363989999999999725e+01 1.610204999999999927e+03
3.300000000000000155e-02 6.498920000000000252e-01 2.545425000000000271e+00 6.044259999999999877e+01 1.609360000000000127e+03
3.400000000000000244e-02 6.490169999999999551e-01 1.746919999999999362e+00 5.704189999999999827e+01 1.608460000000000036e+03
3.500000000000000333e-02 6.481645000000000323e-01 8.830949999999999633e-01 5.360990000000000322e+01 1.607539999999999964e+03
3.600000000000000422e-02 6.473809999999999842e-01 5.399499999999957112e-02 5.033299999999999841e+01 1.606650000000000091e+03
3.700000000000000511e-02 6.467024999999999579e-01 -6.570949999999999847e-01 4.738530000000000086e+01 1.605825000000000045e+03
3.799999999999999906e-02 6.461544999999999650e-01 -1.190774999999999917e+00 4.490810000000000457e+01 1.605105000000000018e+03
3.899999999999999994e-02 6.457500000000000462e-01 -1.512520000000000087e+00 4.299970000000000425e+01 1.604525000000000091e+03
4.000000000000000083e-02 6.454919999999999547e-01 -1.608839999999999826e+00 4.171325000000000216e+01 1.604095000000000027e+03
4.100000000000000172e-02 6.453774999999999373e-01 -1.480815500000000062e+00 4.106244999999999834e+01 1.603829999999999927e+03
4.200000000000000261e-02 6.453984999999999861e-01 -1.136975000000000069e+00 4.103149999999999409e+01 1.603730000000000018e+03
4.300000000000000350e-02 6.455459999999999532e-01 -5.873650000000000260e-01 4.158650000000000091e+01 1.603784999999999854e+03
4.400000000000000439e-02 6.458120000000000527e-01 1.598600000000001131e-01 4.268554999999999922e+01 1.603994999999999891e+03
4.499999999999999833e-02 6.461885000000000545e-01 1.099034999999999984e+00 4.428529999999999944e+01 1.604345000000000027e+03
4.599999999999999922e-02 6.466680000000000206e-01 2.225010000000000154e+00 4.634309999999999974e+01 1.604829999999999927e+03
4.700000000000000011e-02 6.472419999999999840e-01 3.529975000000000307e+00 4.881610000000000582e+01 1.605425000000000182e+03
4.800000000000000100e-02 6.479014999999999080e-01 5.000210000000000043e+00 5.165809999999999746e+01 1.606139999999999873e+03
4.900000000000000189e-02 6.486319999999999864e-01 6.614160000000000039e+00 5.481674999999999898e+01 1.606945000000000164e+03
5.000000000000000278e-02 6.494189999999999685e-01 8.342103000000001600e+00 5.823160000000000025e+01 1.607829999999999927e+03
5.100000000000000366e-02 6.502449999999999619e-01 1.014760500000000043e+01 6.183490000000000464e+01 1.608779999999999973e+03
5.200000000000000455e-02 6.510914999999999342e-01 1.199024000000000001e+01 6.555405000000000371e+01 1.609764999999999873e+03
5.300000000000000544e-02 6.519414999999999516e-01 1.382874999999999943e+01 6.931544999999999845e+01 1.610779999999999973e+03
5.399999999999999939e-02 6.527779999999999694e-01 1.562474500000000077e+01 7.304964999999999975e+01 1.611805000000000064e+03
5.500000000000000028e-02 6.535900000000000043e-01 1.734511499999999984e+01 7.669575000000000387e+01 1.612815000000000055e+03
5.600000000000000117e-02 6.543665000000000731e-01 1.896405000000000030e+01 8.020515000000000327e+01 1.613805000000000064e+03
5.700000000000000205e-02 6.551029999999999909e-01 2.046399999999999864e+01 8.354380000000000450e+01 1.614759999999999991e+03
5.800000000000000294e-02 6.557975000000000332e-01 2.183530000000000015e+01 8.669310000000000116e+01 1.615670000000000073e+03
5.900000000000000383e-02 6.564510000000000067e-01 2.307570000000000121e+01 8.964900000000000091e+01 1.616539999999999964e+03
6.000000000000000472e-02 6.570664999999999978e-01 2.418874999999999886e+01 9.242025000000001000e+01 1.617360000000000127e+03
6.099999999999999867e-02 6.576500000000000679e-01 2.518274999999999864e+01 9.502575000000000216e+01 1.618139999999999873e+03
6.199999999999999956e-02 6.582080000000000153e-01 2.606929999999999836e+01 9.749160000000000537e+01 1.618875000000000000e+03
6.300000000000000044e-02 6.587475000000000414e-01 2.686204999999999998e+01 9.984874999999999545e+01 1.619589999999999918e+03
6.400000000000000133e-02 6.592759999999999732e-01 2.757550000000000168e+01 1.021297999999999888e+02 1.620275000000000091e+03
6.500000000000000222e-02 6.597999999999999421e-01 2.822400000000000020e+01 1.043665000000000020e+02 1.620945000000000164e+03
6.600000000000000311e-02 6.603244999999999809e-01 2.882094999999999985e+01 1.065854999999999961e+02 1.621610000000000127e+03
6.700000000000000400e-02 6.608545000000000114e-01 2.937765000000000271e+01 1.088104999999999905e+02 1.622269999999999982e+03
6.800000000000000488e-02 6.613925000000000498e-01 2.990265000000000128e+01 1.110564999999999998e+02 1.622934999999999945e+03
6.900000000000000577e-02 6.619375000000000675e-01 3.040080000000000027e+01 1.133299999999999983e+02 1.623599999999999909e+03
7.000000000000000666e-02 6.624894999999999534e-01 3.087344999999999828e+01 1.156290000000000049e+02 1.624275000000000091e+03
7.100000000000000755e-02 6.630439999999999667e-01 3.131779999999999831e+01 1.179419999999999931e+02 1.624950000000000045e+03
7.200000000000000844e-02 6.635949999999999349e-01 3.172800000000000153e+01 1.202489999999999952e+02 1.625625000000000000e+03
7.300000000000000933e-02 6.641360000000000596e-01 3.209510000000000218e+01 1.225234999999999985e+02 1.626295000000000073e+03
7.399999999999999634e-02 6.646600000000000286e-01 3.240845000000000198e+01 1.247340000000000089e+02 1.626949999999999818e+03
7.499999999999999722e-02 6.651584999999999859e-01 3.265659999999999741e+01 1.268469999999999942e+02 1.627574999999999818e+03
7.599999999999999811e-02 6.656230000000000757e-01 3.282809999999999917e+01 1.288280000000000030e+02 1.628164999999999964e+03
7.699999999999999900e-02 6.660475000000000145e-01 3.291254999999999598e+01 1.306454999999999984e+02 1.628719999999999800e+03
7.799999999999999989e-02 6.664255000000000040e-01 3.290135000000000076e+01 1.322710000000000150e+02 1.629219999999999800e+03
7.900000000000000078e-02 6.667534999999999989e-01 3.278839999999999577e+01 1.336820000000000164e+02 1.629664999999999964e+03
8.000000000000000167e-02 6.670264999999999667e-01 3.257005000000000194e+01 1.348629999999999995e+02 1.630050000000000182e+03
8.100000000000000255e-02 6.672454999999999359e-01 3.224585000000000434e+01 1.358044999999999902e+02 1.630369999999999891e+03
8.200000000000000344e-02 6.674094999999999889e-01 3.181810000000000116e+01 1.365054999999999836e+02 1.630619999999999891e+03
8.300000000000000433e-02 6.675200000000000022e-01 3.129220000000000113e+01 1.369714999999999918e+02 1.630805000000000064e+03
8.400000000000000522e-02 6.675815000000000499e-01 3.067595000000000027e+01 1.372149999999999750e+02 1.630929999999999836e+03
8.500000000000000611e-02 6.675969999999999960e-01 2.997975000000000279e+01 1.372540000000000191e+02 1.630989999999999782e+03
8.600000000000000699e-02 6.675725000000000131e-01 2.921580000000000155e+01 1.371100000000000136e+02 1.630994999999999891e+03
8.700000000000000788e-02 6.675145000000000106e-01 2.839775000000000205e+01 1.368104999999999905e+02 1.630960000000000036e+03
8.800000000000000877e-02 6.674290000000000500e-01 2.754044999999999987e+01 1.363840000000000146e+02 1.630875000000000000e+03
8.899999999999999578e-02 6.673234999999999584e-01 2.665885000000000105e+01 1.358609999999999900e+02 1.630764999999999873e+03
8.999999999999999667e-02 6.672039999999999083e-01 2.576794999999999902e+01 1.352710000000000150e+02 1.630625000000000000e+03
9.099999999999999756e-02 6.670774999999999899e-01 2.488185000000000002e+01 1.346434999999999889e+02 1.630470000000000027e+03
9.199999999999999845e-02 6.669490000000000141e-01 2.401350000000000051e+01 1.340045000000000073e+02 1.630305000000000064e+03
9.299999999999999933e-02 6.668235000000000134e-01 2.317370000000000019e+01 1.333774999999999977e+02 1.630134999999999991e+03
9.400000000000000022e-02 6.667060000000000208e-01 2.237140000000000128e+01 1.327824999999999989e+02 1.629970000000000027e+03
9.500000000000000111e-02 6.665974999999999540e-01 2.161260000000000048e+01 1.322330000000000041e+02 1.629815000000000055e+03
9.600000000000000200e-02 6.665004999999999402e-01 2.090090000000000003e+01 1.317375000000000114e+02 1.629670000000000073e+03
9.700000000000000289e-02 6.664149999999999796e-01 2.023700000000000188e+01 1.313000000000000114e+02 1.629534999999999854e+03
9.800000000000000377e-02 6.663415000000000310e-01 1.961915000000000120e+01 1.309200000000000159e+02 1.629420000000000073e+03
9.900000000000000466e-02 6.662770000000000081e-01 1.904310000000000258e+01 1.305914999999999964e+02 1.629309999999999945e+03
1.000000000000000056e-01 6.662190000000000056e-01 1.850274999999999892e+01 1.303040000000000020e+02 1.629219999999999800e+03
1.010000000000000064e-01 6.661650000000000071e-01 1.799045000000000272e+01 1.300459999999999923e+02 1.629134999999999991e+03
1.020000000000000073e-01 6.661110000000000086e-01 1.749755000000000038e+01 1.298009999999999877e+02 1.629054999999999836e+03
1.030000000000000082e-01 6.660535000000000760e-01 1.701480000000000103e+01 1.295534999999999854e+02 1.628969999999999800e+03
1.040000000000000091e-01 6.659889999999999421e-01 1.653289999999999793e+01 1.292869999999999777e+02 1.628889999999999873e+03
1.050000000000000100e-01 6.659144999999999648e-01 1.604309999999999903e+01 1.289859999999999900e+02 1.628800000000000182e+03
1.059999999999999970e-01 6.658265000000000988e-01 1.553750000000000142e+01 1.286365000000000123e+02 1.628694999999999936e+03
1.069999999999999979e-01 6.657235000000000236e-01 1.500955000000000084e+01 1.282274999999999920e+02 1.628585000000000036e+03
1.079999999999999988e-01 6.656035000000000146e-01 1.445429999999999993e+01 1.277500000000000000e+02 1.628450000000000045e+03
1.089999999999999997e-01 6.654664999999999608e-01 1.386874999999999858e+01 1.271995000000000005e+02 1.628305000000000064e+03
1.100000000000000006e-01 6.653120000000000145e-01 1.325205000000000055e+01 1.265754999999999910e+02 1.628134999999999991e+03
1.110000000000000014e-01 6.651420000000000110e-01 1.260537500000000044e+01 1.258820000000000050e+02 1.627945000000000164e+03
1.120000000000000023e-01 6.649585000000000079e-01 1.193213000000000079e+01 1.251244999999999976e+02 1.627734999999999900e+03
1.130000000000000032e-01 6.647640000000000216e-01 1.123770000000000024e+01 1.243155000000000143e+02 1.627519999999999982e+03
1.140000000000000041e-01 6.645624999999999449e-01 1.052909000000000006e+01 1.234685000000000059e+02 1.627284999999999854e+03
1.150000000000000050e-01 6.643580000000000041e-01 9.814919999999998979e+00 1.226009999999999991e+02 1.627049999999999955e+03
1.160000000000000059e-01 6.641555000000000097e-01 9.104669999999998709e+00 1.217309999999999945e+02 1.626804999999999836e+03
1.170000000000000068e-01 6.639589999999999659e-01 8.408490000000000464e+00 1.208780000000000001e+02 1.626570000000000164e+03
1.180000000000000077e-01 6.637729999999999464e-01 7.736595000000000333e+00 1.200625000000000000e+02 1.626339999999999918e+03
1.190000000000000085e-01 6.636020000000000252e-01 7.098945000000000505e+00 1.193029999999999973e+02 1.626115000000000009e+03
1.200000000000000094e-01 6.634499999999999842e-01 6.504525000000000112e+00 1.186165000000000020e+02 1.625914999999999964e+03
1.209999999999999964e-01 6.633195000000000618e-01 5.961219999999999963e+00 1.180174999999999983e+02 1.625735000000000127e+03
1.219999999999999973e-01 6.632130000000000525e-01 5.475315000000000154e+00 1.175180000000000007e+02 1.625579999999999927e+03
1.229999999999999982e-01 6.631320000000000547e-01 5.051275000000000404e+00 1.171260000000000048e+02 1.625450000000000045e+03
1.239999999999999991e-01 6.630770000000000275e-01 4.691620000000000346e+00 1.168455000000000013e+02 1.625355000000000018e+03
1.250000000000000000e-01 6.630469999999999420e-01 4.396834999999999383e+00 1.166754999999999995e+02 1.625280000000000200e+03
1.260000000000000009e-01 6.630409999999999915e-01 4.165480000000000516e+00 1.166129999999999995e+02 1.625240000000000009e+03
1.270000000000000018e-01 6.630575000000000774e-01 3.994285000000000085e+00 1.166504999999999939e+02 1.625230000000000018e+03
1.280000000000000027e-01 6.630935000000000024e-01 3.878425000000000011e+00 1.167775000000000034e+02 1.625244999999999891e+03
1.290000000000000036e-01 6.631449999999999845e-01 3.811795000000000044e+00 1.169809999999999945e+02 1.625279999999999973e+03
1.300000000000000044e-01 6.632100000000000772e-01 3.787319999999999798e+00 1.172469999999999999e+02 1.625335000000000036e+03
1.310000000000000053e-01 6.632835000000000258e-01 3.797344999999999970e+00 1.175589999999999975e+02 1.625409999999999854e+03
1.320000000000000062e-01 6.633629999999999249e-01 3.833935000000000315e+00 1.179020000000000010e+02 1.625490000000000009e+03
1.330000000000000071e-01 6.634444999999999926e-01 3.889205000000000023e+00 1.182605000000000075e+02 1.625575000000000045e+03
1.340000000000000080e-01 6.635249999999999204e-01 3.955619999999999692e+00 1.186195000000000022e+02 1.625670000000000073e+03
1.350000000000000089e-01 6.636014999999999553e-01 4.026194999999999524e+00 1.189669999999999987e+02 1.625759999999999991e+03
1.360000000000000098e-01 6.636724999999999985e-01 4.094714999999999883e+00 1.192920000000000016e+02 1.625845000000000027e+03
1.370000000000000107e-01 6.637355000000000338e-01 4.155870000000000175e+00 1.195844999999999914e+02 1.625929999999999836e+03
1.380000000000000115e-01 6.637895000000000323e-01 4.205299999999999372e+00 1.198395000000000010e+02 1.626000000000000000e+03
1.390000000000000124e-01 6.638334999999999653e-01 4.239694999999999325e+00 1.200504999999999995e+02 1.626065000000000055e+03
1.400000000000000133e-01 6.638675000000000548e-01 4.256750000000000256e+00 1.202160000000000082e+02 1.626119999999999891e+03
1.410000000000000142e-01 6.638904999999999390e-01 4.255150000000000432e+00 1.203360000000000127e+02 1.626154999999999973e+03
1.420000000000000151e-01 6.639040000000000497e-01 4.234510000000000218e+00 1.204110000000000014e+02 1.626184999999999945e+03
1.430000000000000160e-01 6.639085000000000125e-01 4.195269999999999833e+00 1.204435000000000002e+02 1.626200000000000045e+03
1.440000000000000169e-01 6.639049999999999674e-01 4.138595000000000468e+00 1.204380000000000024e+02 1.626204999999999927e+03
1.450000000000000178e-01 6.638945000000000540e-01 4.066254999999999953e+00 1.203979999999999961e+02 1.626204999999999927e+03
1.459999999999999909e-01 6.638785000000000380e-01 3.980500000000000149e+00 1.203299999999999983e+02 1.626190000000000055e+03
1.469999999999999918e-01 6.638574999999999893e-01 3.883890000000000065e+00 1.202395000000000067e+02 1.626174999999999955e+03
1.479999999999999927e-01 6.638334999999999653e-01 3.779194999999999638e+00 1.201310000000000002e+02 1.626150000000000091e+03
1.489999999999999936e-01 6.638074999999999948e-01 3.669224999999999959e+00 1.200109999999999957e+02 1.626119999999999891e+03
1.499999999999999944e-01 6.637800000000000367e-01 3.556695000000000384e+00 1.198829999999999956e+02 1.626089999999999918e+03
1.509999999999999953e-01 6.637530000000000374e-01 3.444135000000000169e+00 1.197530000000000001e+02 1.626054999999999836e+03
1.519999999999999962e-01 6.637254999999999683e-01 3.333750000000000213e+00 1.196235000000000070e+02 1.626025000000000091e+03
1.529999999999999971e-01 6.636999999999999567e-01 3.227364999999999817e+00 1.194960000000000093e+02 1.625990000000000009e+03
1.539999999999999980e-01 6.636754999999999738e-01 3.126380000000000159e+00 1.193735000000000070e+02 1.625954999999999927e+03
1.549999999999999989e-01 6.636515000000000608e-01 3.031724999999999781e+00 1.192555000000000121e+02 1.625924999999999955e+03
1.559999999999999998e-01 6.636290000000000244e-01 2.943884999999999863e+00 1.191419999999999959e+02 1.625889999999999873e+03
1.570000000000000007e-01 6.636070000000000579e-01 2.862919999999999909e+00 1.190324999999999989e+02 1.625860000000000127e+03
1.580000000000000016e-01 6.635845000000000216e-01 2.788539999999999797e+00 1.189234999999999900e+02 1.625829999999999927e+03
1.590000000000000024e-01 6.635619999999999852e-01 2.720165000000000166e+00 1.188149999999999977e+02 1.625800000000000182e+03
