# t [s], A [cm^2], U [cm/s], P [cPa], c [cm/s]
1.000000000000000021e-03 1.733615000000000017e-01 4.281225000000000169e-01 8.640489999999999782e+01 2.272380000000000109e+03
2.000000000000000042e-03 1.732994999999999952e-01 1.966352500000000170e+00 8.248605000000000587e+01 2.271829999999999927e+03
3.000000000000000062e-03 1.731650000000000134e-01 3.830544499999999797e+00 7.723194999999999766e+01 2.270670000000000073e+03
4.000000000000000083e-03 1.730005000000000015e-01 5.947465000000000224e+00 7.215090000000000714e+01 2.269269999999999982e+03
5.000000000000000104e-03 1.728419999999999956e-01 8.162910000000000110e+00 6.818139999999999645e+01 2.267920000000000073e+03
6.000000000000000125e-03 1.726959999999999884e-01 1.014132000000000033e+01 6.502674999999999272e+01 2.266720000000000255e+03
7.000000000000000146e-03 1.725635000000000085e-01 1.171450499999999906e+01 6.214890000000000470e+01 2.265644999999999982e+03
8.000000000000000167e-03 1.724495000000000056e-01 1.296445500000000095e+01 5.967180000000000462e+01 2.264734999999999673e+03
9.000000000000001055e-03 1.723569999999999824e-01 1.394444999999999979e+01 5.774164999999999992e+01 2.264005000000000109e+03
1.000000000000000194e-02 1.722839999999999927e-01 1.467269999999999897e+01 5.628775000000000261e+01 2.263444999999999709e+03
1.099999999999999936e-02 1.722299999999999942e-01 1.517450000000000010e+01 5.522235000000000582e+01 2.263024999999999636e+03
1.200000000000000025e-02 1.721870000000000067e-01 1.544815000000000005e+01 5.436910000000000309e+01 2.262710000000000036e+03
1.300000000000000114e-02 1.721524999999999861e-01 1.553630000000000067e+01 5.359359999999999502e+01 2.262454999999999927e+03
1.400000000000000203e-02 1.721285000000000176e-01 1.562859999999999872e+01 5.319160000000000110e+01 2.262284999999999854e+03
1.499999999999999944e-02 1.721314999999999928e-01 1.599739999999999895e+01 5.388379999999999370e+01 2.262319999999999709e+03
1.600000000000000033e-02 1.721745000000000081e-01 1.679950000000000188e+01 5.624810000000000088e+01 2.262659999999999854e+03
1.700000000000000122e-02 1.722609999999999975e-01 1.793594999999999828e+01 6.013009999999999877e+01 2.263335000000000036e+03
1.800000000000000211e-02 1.723729999999999984e-01 1.908330000000000126e+01 6.455029999999999291e+01 2.264230000000000018e+03
1.900000000000000300e-02 1.724809999999999954e-01 1.985665000000000191e+01 6.814144999999999186e+01 2.265109999999999673e+03
2.000000000000000042e-02 1.725559999999999872e-01 1.999344999999999928e+01 6.979769999999999186e+01 2.265734999999999673e+03
2.100000000000000130e-02 1.725800000000000112e-01 1.946164999999999878e+01 6.916104999999998881e+01 2.265960000000000036e+03
2.200000000000000219e-02 1.725524999999999975e-01 1.844804999999999851e+01 6.671370000000000289e+01 2.265779999999999745e+03
2.299999999999999961e-02 1.724924999999999931e-01 1.724644999999999939e+01 6.346805000000000518e+01 2.265319999999999709e+03
2.400000000000000050e-02 1.724209999999999909e-01 1.611524999999999963e+01 6.045539999999999736e+01 2.264755000000000109e+03
2.500000000000000139e-02 1.723580000000000112e-01 1.517810000000000059e+01 5.829274999999999807e+01 2.264239999999999782e+03
2.600000000000000228e-02 1.723100000000000187e-01 1.440525000000000055e+01 5.701520000000000010e+01 2.263845000000000255e+03
2.700000000000000316e-02 1.722744999999999971e-01 1.366645000000000110e+01 5.619490000000000407e+01 2.263555000000000291e+03
2.800000000000000058e-02 1.722410000000000052e-01 1.281824999999999903e+01 5.523879999999999768e+01 2.263289999999999964e+03
2.900000000000000147e-02 1.721985000000000043e-01 1.178669499999999992e+01 5.371285000000000309e+01 2.262949999999999818e+03
3.000000000000000236e-02 1.721425000000000038e-01 1.061422999999999917e+01 5.156539999999999679e+01 2.262510000000000218e+03
3.099999999999999978e-02 1.720765000000000211e-01 9.454480000000000217e+00 4.917224999999999824e+01 2.261989999999999782e+03
3.200000000000000067e-02 1.720145000000000146e-01 8.519054999999999822e+00 4.719324999999999903e+01 2.261489999999999782e+03
3.300000000000000155e-02 1.719725000000000004e-01 7.998590000000000089e+00 4.630839999999999890e+01 2.261139999999999873e+03
3.400000000000000244e-02 1.719640000000000057e-01 7.991469999999999629e+00 4.694565000000000055e+01 2.261045000000000073e+03
3.500000000000000333e-02 1.719950000000000090e-01 8.467420000000000613e+00 4.911070000000000135e+01 2.261265000000000327e+03
3.600000000000000422e-02 1.720605000000000051e-01 9.274470000000000880e+00 5.237145000000000294e+01 2.261769999999999982e+03
3.700000000000000511e-02 1.721475000000000088e-01 1.018101499999999859e+01 5.598250000000000171e+01 2.262449999999999818e+03
3.799999999999999906e-02 1.722354999999999858e-01 1.093374000000000024e+01 5.908879999999999910e+01 2.263149999999999636e+03
3.899999999999999994e-02 1.723044999999999993e-01 1.131264999999999965e+01 6.093354999999999677e+01 2.263710000000000036e+03
4.000000000000000083e-02 1.723365000000000036e-01 1.116890000000000072e+01 6.101144999999999641e+01 2.263974999999999909e+03
4.100000000000000172e-02 1.723215000000000163e-01 1.044106999999999985e+01 5.913814999999999600e+01 2.263880000000000109e+03
4.200000000000000261e-02 1.722555000000000058e-01 9.148855000000001070e+00 5.543349999999999511e+01 2.263375000000000000e+03
4.300000000000000350e-02 1.721425000000000038e-01 7.373730000000000118e+00 5.024230000000000018e+01 2.262489999999999782e+03
4.400000000000000439e-02 1.719920000000000060e-01 5.232696999999999932e+00 4.402720000000000056e+01 2.261300000000000182e+03
4.499999999999999833e-02 1.718139999999999945e-01 2.854909999999999837e+00 3.726765000000000327e+01 2.259889999999999873e+03
4.599999999999999922e-02 1.716209999999999958e-01 3.657249999999998558e-01 3.039104999999999990e+01 2.258354999999999563e+03
4.700000000000000011e-02 1.714239999999999930e-01 -2.120460000000000012e+00 2.374259999999999948e+01 2.256775000000000091e+03
4.800000000000000100e-02 1.712319999999999953e-01 -4.500524500000000039e+00 1.758868999999999971e+01 2.255234999999999673e+03
4.900000000000000189e-02 1.710524999999999962e-01 -6.679599999999999760e+00 1.213917499999999983e+01 2.253795000000000073e+03
5.000000000000000278e-02 1.708925000000000027e-01 -8.568125000000000213e+00 7.573017000000000110e+00 2.252500000000000000e+03
5.100000000000000366e-02 1.707580000000000209e-01 -1.008170499999999947e+01 4.054660000000000153e+00 2.251409999999999854e+03
5.200000000000000455e-02 1.706544999999999868e-01 -1.114397999999999911e+01 1.736580000000000013e+00 2.250555000000000291e+03
5.300000000000000544e-02 1.705860000000000154e-01 -1.169255000000000067e+01 7.476149999999999185e-01 2.249989999999999782e+03
5.399999999999999939e-02 1.705570000000000142e-01 -1.168595000000000006e+01 1.173423000000000105e+00 2.249724999999999909e+03
5.500000000000000028e-02 1.705694999999999850e-01 -1.110952499999999965e+01 3.036470000000000002e+00 2.249795000000000073e+03
5.600000000000000117e-02 1.706234999999999835e-01 -9.978315000000000268e+00 6.282689999999999664e+00 2.250190000000000055e+03
5.700000000000000205e-02 1.707179999999999809e-01 -8.337020000000000763e+00 1.077953000000000117e+01 2.250909999999999854e+03
5.800000000000000294e-02 1.708479999999999999e-01 -6.255829999999999558e+00 1.632570000000000121e+01 2.251920000000000073e+03
5.900000000000000383e-02 1.710075000000000067e-01 -3.824014999999999720e+00 2.267040000000000077e+01 2.253175000000000182e+03
6.000000000000000472e-02 1.711904999999999955e-01 -1.142810000000000104e+00 2.953644999999999854e+01 2.254619999999999891e+03
6.099999999999999867e-02 1.713890000000000136e-01 1.682155000000000067e+00 3.664345000000000141e+01 2.256199999999999818e+03
6.199999999999999956e-02 1.715955000000000119e-01 4.547060999999999353e+00 4.372700000000000387e+01 2.257845000000000255e+03
6.300000000000000044e-02 1.718024999999999969e-01 7.355315000000000047e+00 5.055319999999999681e+01 2.259505000000000109e+03
6.400000000000000133e-02 1.720025000000000026e-01 1.002197500000000119e+01 5.692905000000000371e+01 2.261119999999999891e+03
6.500000000000000222e-02 1.721914999999999973e-01 1.247781499999999966e+01 6.271039999999999992e+01 2.262649999999999636e+03
6.600000000000000311e-02 1.723645000000000038e-01 1.467244999999999955e+01 6.780729999999999791e+01 2.264055000000000291e+03
6.700000000000000400e-02 1.725190000000000057e-01 1.657690000000000197e+01 7.218755000000000166e+01 2.265324999999999818e+03
6.800000000000000488e-02 1.726550000000000029e-01 1.818430000000000035e+01 7.587729999999999109e+01 2.266440000000000055e+03
6.900000000000000577e-02 1.727715000000000223e-01 1.950975000000000037e+01 7.895674999999999955e+01 2.267404999999999745e+03
7.000000000000000666e-02 1.728724999999999845e-01 2.058709999999999951e+01 8.155140000000000100e+01 2.268239999999999782e+03
7.100000000000000755e-02 1.729605000000000170e-01 2.146520000000000294e+01 8.381889999999999930e+01 2.268980000000000018e+03
7.200000000000000844e-02 1.730399999999999994e-01 2.220185000000000031e+01 8.593179999999999552e+01 2.269639999999999873e+03
7.300000000000000933e-02 1.731159999999999921e-01 2.285815000000000197e+01 8.806064999999999543e+01 2.270269999999999982e+03
7.399999999999999634e-02 1.731924999999999992e-01 2.349224999999999852e+01 9.035679999999999268e+01 2.270900000000000091e+03
7.499999999999999722e-02 1.732734999999999970e-01 2.415404999999999802e+01 9.293919999999999959e+01 2.271565000000000055e+03
7.599999999999999811e-02 1.733620000000000161e-01 2.488135000000000119e+01 9.588460000000000605e+01 2.272295000000000073e+03
7.699999999999999900e-02 1.734605000000000175e-01 2.569709999999999894e+01 9.922319999999999141e+01 2.273095000000000255e+03
7.799999999999999989e-02 1.735690000000000011e-01 2.660855000000000103e+01 1.029382499999999965e+02 2.273974999999999909e+03
7.900000000000000078e-02 1.736869999999999803e-01 2.760735000000000028e+01 1.069705000000000013e+02 2.274939999999999600e+03
8.000000000000000167e-02 1.738135000000000097e-01 2.867145000000000010e+01 1.112254999999999967e+02 2.275965000000000146e+03
8.100000000000000255e-02 1.739455000000000029e-01 2.976764999999999972e+01 1.155835000000000008e+02 2.277034999999999854e+03
8.200000000000000344e-02 1.740784999999999971e-01 3.085490000000000066e+01 1.199089999999999918e+02 2.278125000000000000e+03
8.300000000000000433e-02 1.742104999999999904e-01 3.188759999999999906e+01 1.240630000000000024e+02 2.279199999999999818e+03
8.400000000000000522e-02 1.743365000000000054e-01 3.281974999999999909e+01 1.279120000000000061e+02 2.280234999999999673e+03
8.500000000000000611e-02 1.744529999999999970e-01 3.360800000000000409e+01 1.313369999999999891e+02 2.281189999999999600e+03
8.600000000000000699e-02 1.745570000000000177e-01 3.421464999999999890e+01 1.342415000000000020e+02 2.282050000000000182e+03
8.700000000000000788e-02 1.746464999999999823e-01 3.461059999999999803e+01 1.365564999999999998e+02 2.282789999999999964e+03
8.800000000000000877e-02 1.747179999999999844e-01 3.477635000000000076e+01 1.382425000000000068e+02 2.283389999999999873e+03
8.899999999999999578e-02 1.747714999999999963e-01 3.470360000000000156e+01 1.392914999999999850e+02 2.283840000000000146e+03
8.999999999999999667e-02 1.748065000000000035e-01 3.439520000000000266e+01 1.397250000000000227e+02 2.284144999999999982e+03
9.099999999999999756e-02 1.748239999999999794e-01 3.386440000000000339e+01 1.395914999999999964e+02 2.284300000000000182e+03
9.199999999999999845e-02 1.748240000000000072e-01 3.313380000000000081e+01 1.389619999999999891e+02 2.284319999999999709e+03
9.299999999999999933e-02 1.748109999999999942e-01 3.223375000000000057e+01 1.379225000000000136e+02 2.284220000000000255e+03
9.400000000000000022e-02 1.747845000000000093e-01 3.120015000000000072e+01 1.365720000000000027e+02 2.284020000000000437e+03
9.500000000000000111e-02 1.747500000000000164e-01 3.007244999999999990e+01 1.350110000000000241e+02 2.283744999999999891e+03
9.600000000000000200e-02 1.747084999999999888e-01 2.889124999999999943e+01 1.333435000000000059e+02 2.283414999999999964e+03
9.700000000000000289e-02 1.746634999999999993e-01 2.769650000000000034e+01 1.316639999999999873e+02 2.283054999999999836e+03
9.800000000000000377e-02 1.746174999999999811e-01 2.652530000000000143e+01 1.300595000000000141e+02 2.282680000000000291e+03
9.900000000000000466e-02 1.745730000000000059e-01 2.541029999999999944e+01 1.286030000000000086e+02 2.282319999999999709e+03
1.000000000000000056e-01 1.745324999999999793e-01 2.437835000000000107e+01 1.273495000000000061e+02 2.281985000000000127e+03
1.010000000000000064e-01 1.744970000000000132e-01 2.344894999999999996e+01 1.263375000000000057e+02 2.281690000000000055e+03
1.020000000000000073e-01 1.744674999999999976e-01 2.263394999999999868e+01 1.255844999999999914e+02 2.281449999999999818e+03
1.030000000000000082e-01 1.744459999999999900e-01 2.193694999999999951e+01 1.250875000000000057e+02 2.281260000000000218e+03
1.040000000000000091e-01 1.744304999999999883e-01 2.135334999999999894e+01 1.248234999999999957e+02 2.281130000000000109e+03
1.050000000000000100e-01 1.744215000000000071e-01 2.087124999999999986e+01 1.247520000000000095e+02 2.281045000000000073e+03
1.059999999999999970e-01 1.744175000000000031e-01 2.047225000000000250e+01 1.248179999999999978e+02 2.281000000000000000e+03
1.069999999999999979e-01 1.744169999999999887e-01 2.013289999999999935e+01 1.249555000000000007e+02 2.280994999999999891e+03
1.079999999999999988e-01 1.744180000000000175e-01 1.982659999999999911e+01 1.250914999999999964e+02 2.280994999999999891e+03
1.089999999999999997e-01 1.744185000000000041e-01 1.952535000000000309e+01 1.251544999999999987e+02 2.280994999999999891e+03
1.100000000000000006e-01 1.744165000000000021e-01 1.920185000000000031e+01 1.250739999999999981e+02 2.280980000000000018e+03
1.110000000000000014e-01 1.744110000000000105e-01 1.883135000000000048e+01 1.247909999999999968e+02 2.280930000000000291e+03
1.120000000000000023e-01 1.743989999999999985e-01 1.839324999999999832e+01 1.242595000000000027e+02 2.280840000000000146e+03
1.130000000000000032e-01 1.743799999999999795e-01 1.787280000000000157e+01 1.234489999999999981e+02 2.280684999999999945e+03
1.140000000000000041e-01 1.743534999999999946e-01 1.726174999999999926e+01 1.223495000000000061e+02 2.280470000000000255e+03
1.150000000000000050e-01 1.743190000000000017e-01 1.655914999999999893e+01 1.209680000000000035e+02 2.280190000000000055e+03
1.160000000000000059e-01 1.742759999999999865e-01 1.577114999999999867e+01 1.193340000000000032e+02 2.279845000000000255e+03
1.170000000000000068e-01 1.742265000000000064e-01 1.491065000000000040e+01 1.174900000000000091e+02 2.279445000000000164e+03
1.180000000000000077e-01 1.741709999999999925e-01 1.399634999999999962e+01 1.154945000000000022e+02 2.278994999999999891e+03
1.190000000000000085e-01 1.741110000000000158e-01 1.305119999999999969e+01 1.134159999999999968e+02 2.278510000000000218e+03
1.200000000000000094e-01 1.740490000000000093e-01 1.210108999999999924e+01 1.113265000000000100e+02 2.278005000000000109e+03
1.209999999999999964e-01 1.739870000000000028e-01 1.117307500000000076e+01 1.092999999999999972e+02 2.277500000000000000e+03
1.219999999999999973e-01 1.739269999999999983e-01 1.029360000000000142e+01 1.074055000000000035e+02 2.277010000000000218e+03
1.229999999999999982e-01 1.738704999999999834e-01 9.486950000000000216e+00 1.057035000000000053e+02 2.276550000000000182e+03
1.239999999999999991e-01 1.738195000000000157e-01 8.774020000000000152e+00 1.042450000000000045e+02 2.276130000000000109e+03
1.250000000000000000e-01 1.737759999999999860e-01 8.171089999999999520e+00 1.030660000000000025e+02 2.275764999999999873e+03
1.260000000000000009e-01 1.737400000000000055e-01 7.689169999999999838e+00 1.021886000000000081e+02 2.275470000000000255e+03
1.270000000000000018e-01 1.737130000000000063e-01 7.333689999999999820e+00 1.016192499999999939e+02 2.275239999999999782e+03
1.280000000000000027e-01 1.736940000000000150e-01 7.104400000000000048e+00 1.013499999999999943e+02 2.275079999999999927e+03
1.290000000000000036e-01 1.736845000000000194e-01 6.995725000000000193e+00 1.013605000000000018e+02 2.274994999999999891e+03
1.300000000000000044e-01 1.736830000000000040e-01 6.997300000000000075e+00 1.016184999999999974e+02 2.274970000000000255e+03
1.310000000000000053e-01 1.736884999999999957e-01 7.094744999999999635e+00 1.020829999999999984e+02 2.275005000000000109e+03
1.320000000000000062e-01 1.736995000000000067e-01 7.270604999999999762e+00 1.027069999999999936e+02 2.275095000000000255e+03
1.330000000000000071e-01 1.737160000000000093e-01 7.505329999999999835e+00 1.034395000000000095e+02 2.275220000000000255e+03
1.340000000000000080e-01 1.737350000000000005e-01 7.778335000000000221e+00 1.042305000000000064e+02 2.275369999999999891e+03
1.350000000000000089e-01 1.737565000000000082e-01 8.068995000000001028e+00 1.050285000000000082e+02 2.275539999999999964e+03
1.360000000000000098e-01 1.737779999999999880e-01 8.357575000000000642e+00 1.057890000000000015e+02 2.275715000000000146e+03
1.370000000000000107e-01 1.737985000000000224e-01 8.626125000000000043e+00 1.064705000000000013e+02 2.275880000000000109e+03
1.380000000000000115e-01 1.738180000000000003e-01 8.859200000000001296e+00 1.070404999999999944e+02 2.276034999999999854e+03
1.390000000000000124e-01 1.738334999999999742e-01 9.044404999999999362e+00 1.074745000000000061e+02 2.276159999999999854e+03
1.400000000000000133e-01 1.738454999999999862e-01 9.172864999999999824e+00 1.077565000000000026e+02 2.276265000000000327e+03
1.410000000000000142e-01 1.738534999999999942e-01 9.239399999999999835e+00 1.078795000000000073e+02 2.276329999999999927e+03
1.420000000000000151e-01 1.738569999999999838e-01 9.242574999999998653e+00 1.078470000000000084e+02 2.276364999999999782e+03
1.430000000000000160e-01 1.738560000000000105e-01 9.184515000000001095e+00 1.076694999999999993e+02 2.276359999999999673e+03
1.440000000000000169e-01 1.738514999999999922e-01 9.070519999999998362e+00 1.073650000000000091e+02 2.276324999999999818e+03
1.450000000000000178e-01 1.738429999999999975e-01 8.908554999999999779e+00 1.069579999999999984e+02 2.276260000000000218e+03
1.459999999999999909e-01 1.738314999999999999e-01 8.708550000000000679e+00 1.064759999999999991e+02 2.276175000000000182e+03
1.469999999999999918e-01 1.738180000000000003e-01 8.481664999999999566e+00 1.059474999999999909e+02 2.276065000000000055e+03
1.479999999999999927e-01 1.738034999999999997e-01 8.239525000000000432e+00 1.054029999999999916e+02 2.275944999999999709e+03
1.489999999999999936e-01 1.737879999999999980e-01 7.993444999999999467e+00 1.048684999999999974e+02 2.275824999999999818e+03
1.499999999999999944e-01 1.737730000000000108e-01 7.753789999999999516e+00 1.043685000000000116e+02 2.275704999999999927e+03
1.509999999999999953e-01 1.737589999999999968e-01 7.529410000000000380e+00 1.039219999999999970e+02 2.275585000000000036e+03
1.519999999999999962e-01 1.737460000000000115e-01 7.327255000000000074e+00 1.035409999999999968e+02 2.275484999999999673e+03
1.529999999999999971e-01 1.737350000000000005e-01 7.152115000000000222e+00 1.032334999999999923e+02 2.275390000000000327e+03
1.539999999999999980e-01 1.737254999999999772e-01 7.006565000000000154e+00 1.030010000000000048e+02 2.275315000000000055e+03
1.549999999999999989e-01 1.737184999999999979e-01 6.891000000000000014e+00 1.028400000000000034e+02 2.275260000000000218e+03
1.559999999999999998e-01 1.737135000000000207e-01 6.803829999999999600e+00 1.027415000000000020e+02 2.275220000000000255e+03
1.570000000000000007e-01 1.737104999999999899e-01 6.741754999999999498e+00 1.026935000000000002e+02 2.275184999999999945e+03
1.580000000000000016e-01 1.737080000000000013e-01 6.700115000000000265e+00 1.026810000000000116e+02 2.275164999999999964e+03
1.590000000000000024e-01 1.737070000000000003e-01 6.673300000000000232e+00 1.026889999999999930e+02 2.275154999999999745e+03
