# t [s], A [cm^2], U [cm/s], P [cPa], c [cm/s]
1.000000000000000021e-03 6.136949999999999905e-01 3.216650000000001453e-03 9.127389999999999759e+01 1.518224999999999909e+03
2.000000000000000042e-03 6.136865000000000236e-01 -1.500324999999999836e-03 9.125520000000000209e+01 1.518220000000000027e+03
3.000000000000000062e-03 6.137224999999999486e-01 5.954810000000000658e-02 9.131325000000001069e+01 1.518240000000000009e+03
4.000000000000000083e-03 6.137740000000000418e-01 1.483617500000000144e-01 9.142045000000000243e+01 1.518264999999999873e+03
5.000000000000000104e-03 6.137764999999999471e-01 1.629094999999999849e-01 9.143664999999998599e+01 1.518275000000000091e+03
6.000000000000000125e-03 6.137345000000000717e-01 1.017064999999999914e-01 9.132515000000000782e+01 1.518250000000000000e+03
7.000000000000000146e-03 6.136900000000000688e-01 3.118749999999997913e-02 9.115000000000000568e+01 1.518210000000000036e+03
8.000000000000000167e-03 6.136409999999999920e-01 -5.182900000000001395e-02 9.091989999999999839e+01 1.518164999999999964e+03
9.000000000000001055e-03 6.135570000000000190e-01 -2.038504999999999900e-01 9.057044999999999391e+01 1.518089999999999918e+03
1.000000000000000194e-02 6.134249999999999980e-01 -4.490249999999998964e-01 9.005259999999999820e+01 1.517970000000000027e+03
1.099999999999999936e-02 6.132364999999999622e-01 -7.956550000000000011e-01 8.932999999999999829e+01 1.517805000000000064e+03
1.200000000000000025e-02 6.129804999999999282e-01 -1.257210000000000161e+00 8.835880000000000223e+01 1.517589999999999918e+03
1.300000000000000114e-02 6.126544999999999908e-01 -1.825045000000000028e+00 8.711795000000000755e+01 1.517299999999999955e+03
1.400000000000000203e-02 6.122809999999999642e-01 -2.442274999999999974e+00 8.564914999999999168e+01 1.516950000000000045e+03
1.499999999999999944e-02 6.119019999999999460e-01 -3.015679999999999694e+00 8.405629999999999313e+01 1.516559999999999945e+03
1.600000000000000033e-02 6.115559999999999885e-01 -3.453160000000000007e+00 8.246604999999999563e+01 1.516154999999999973e+03
1.700000000000000122e-02 6.112649999999999473e-01 -3.696214000000000333e+00 8.098214999999999009e+01 1.515759999999999991e+03
1.800000000000000211e-02 6.110284999999999744e-01 -3.731769050000000032e+00 7.965764999999998963e+01 1.515389999999999873e+03
1.900000000000000300e-02 6.108299999999999841e-01 -3.585505500000000012e+00 7.849089999999999634e+01 1.515045000000000073e+03
2.000000000000000042e-02 6.106439999999999646e-01 -3.305490499999999887e+00 7.743864999999999554e+01 1.514719999999999800e+03
2.100000000000000130e-02 6.104475000000000318e-01 -2.943851800000000019e+00 7.643800000000000239e+01 1.514409999999999854e+03
2.200000000000000219e-02 6.102250000000000174e-01 -2.541695999999999955e+00 7.542855000000000132e+01 1.514085000000000036e+03
2.299999999999999961e-02 6.099719999999999587e-01 -2.120474999999999888e+00 7.437014999999999532e+01 1.513759999999999991e+03
2.400000000000000050e-02 6.096934999999999993e-01 -1.681435000000000013e+00 7.325055000000000405e+01 1.513420000000000073e+03
2.500000000000000139e-02 6.093999999999999417e-01 -1.212459999999999871e+00 7.208225000000000193e+01 1.513065000000000055e+03
2.600000000000000228e-02 6.091039999999999788e-01 -6.991250000000002185e-01 7.089115000000001032e+01 1.512710000000000036e+03
2.700000000000000316e-02 6.088130000000000486e-01 -1.354150000000000631e-01 6.970159999999999911e+01 1.512349999999999909e+03
2.800000000000000058e-02 6.085264999999999702e-01 4.692949999999997956e-01 6.852394999999999925e+01 1.511994999999999891e+03
2.900000000000000147e-02 6.082354999999999290e-01 1.088724999999999721e+00 6.734780000000000655e+01 1.511634999999999991e+03
3.000000000000000236e-02 6.079285000000000938e-01 1.683189999999999964e+00 6.614185000000000514e+01 1.511264999999999873e+03
3.099999999999999978e-02 6.075874999999999471e-01 2.206679999999999975e+00 6.486015000000000441e+01 1.510880000000000109e+03
3.200000000000000067e-02 6.071995000000000031e-01 2.615694999999999659e+00 6.345279999999999632e+01 1.510474999999999909e+03
3.300000000000000155e-02 6.067560000000000731e-01 2.877729999999999677e+00 6.187774999999999892e+01 1.510025000000000091e+03
3.400000000000000244e-02 6.062545000000000295e-01 2.977650000000000574e+00 6.011220000000000141e+01 1.509539999999999964e+03
3.500000000000000333e-02 6.057025000000000325e-01 2.920430000000000081e+00 5.816009999999999991e+01 1.509009999999999991e+03
3.600000000000000422e-02 6.051159999999999872e-01 2.729999999999999982e+00 5.605410000000000537e+01 1.508440000000000055e+03
3.700000000000000511e-02 6.045160000000000533e-01 2.444334999999999702e+00 5.385245000000000459e+01 1.507845000000000027e+03
3.799999999999999906e-02 6.039244999999999752e-01 2.108920000000000350e+00 5.163089999999999691e+01 1.507250000000000000e+03
3.899999999999999994e-02 6.033640000000000114e-01 1.769800000000000484e+00 4.947329999999999472e+01 1.506654999999999973e+03
4.000000000000000083e-02 6.028545000000000709e-01 1.468039999999999790e+00 4.746155000000000257e+01 1.506094999999999800e+03
4.100000000000000172e-02 6.024110000000000298e-01 1.236430000000000362e+00 4.566809999999999548e+01 1.505585000000000036e+03
4.200000000000000261e-02 6.020440000000000236e-01 1.098344999999999683e+00 4.415120000000000289e+01 1.505134999999999991e+03
4.300000000000000350e-02 6.017589999999999328e-01 1.068504999999999816e+00 4.295260000000000389e+01 1.504764999999999873e+03
4.400000000000000439e-02 6.015595000000000248e-01 1.154954999999999732e+00 4.209844999999999970e+01 1.504480000000000018e+03
4.499999999999999833e-02 6.014460000000000361e-01 1.361544000000000088e+00 4.160160000000000480e+01 1.504285000000000082e+03
4.599999999999999922e-02 6.014185000000000780e-01 1.690259500000000026e+00 4.146515000000000128e+01 1.504184999999999945e+03
4.700000000000000011e-02 6.014755000000000518e-01 2.142854999999999954e+00 4.168540000000000134e+01 1.504179999999999836e+03
4.800000000000000100e-02 6.016150000000000109e-01 2.721595000000000208e+00 4.225525000000000375e+01 1.504269999999999982e+03
4.900000000000000189e-02 6.018364999999999965e-01 3.429052500000000059e+00 4.316509999999999536e+01 1.504450000000000045e+03
5.000000000000000278e-02 6.021385000000000209e-01 4.267159499999999994e+00 4.440375000000000227e+01 1.504724999999999909e+03
5.100000000000000366e-02 6.025175000000000392e-01 5.235919500000000504e+00 4.595744999999999436e+01 1.505095000000000027e+03
5.200000000000000455e-02 6.029694999999999361e-01 6.332140000000000768e+00 4.780930000000000035e+01 1.505539999999999964e+03
5.300000000000000544e-02 6.034895000000000120e-01 7.548559999999999270e+00 4.993789999999999907e+01 1.506065000000000055e+03
5.399999999999999939e-02 6.040695000000000370e-01 8.873429999999999040e+00 5.231690000000000396e+01 1.506664999999999964e+03
5.500000000000000028e-02 6.047019999999999618e-01 1.029089499999999902e+01 5.491490000000000293e+01 1.507325000000000045e+03
5.600000000000000117e-02 6.053764999999999841e-01 1.178174999999999883e+01 5.769589999999999463e+01 1.508039999999999964e+03
5.700000000000000205e-02 6.060830000000000384e-01 1.332474500000000006e+01 6.062125000000000341e+01 1.508804999999999836e+03
5.800000000000000294e-02 6.068109999999999893e-01 1.489761999999999986e+01 6.365070000000000050e+01 1.509605000000000018e+03
5.900000000000000383e-02 6.075515000000000221e-01 1.647885000000000133e+01 6.674484999999999957e+01 1.510434999999999945e+03
6.000000000000000472e-02 6.082955000000001000e-01 1.804865000000000208e+01 6.986699999999999022e+01 1.511280000000000200e+03
6.099999999999999867e-02 6.090370000000000505e-01 1.958970000000000056e+01 7.298470000000000368e+01 1.512134999999999991e+03
6.199999999999999956e-02 6.097695000000000753e-01 2.108810000000000073e+01 7.607110000000000127e+01 1.512990000000000009e+03
6.300000000000000044e-02 6.104890000000000594e-01 2.253309999999999746e+01 7.910564999999999714e+01 1.513839999999999918e+03
6.400000000000000133e-02 6.111934999999999452e-01 2.391740000000000066e+01 8.207425000000000637e+01 1.514680000000000064e+03
6.500000000000000222e-02 6.118820000000000370e-01 2.523655000000000115e+01 8.496899999999999409e+01 1.515505000000000109e+03
6.600000000000000311e-02 6.125549999999999606e-01 2.648874999999999957e+01 8.778749999999999432e+01 1.516315000000000055e+03
6.700000000000000400e-02 6.132135000000000780e-01 2.767425000000000068e+01 9.053170000000000073e+01 1.517105000000000018e+03
6.800000000000000488e-02 6.138595000000000024e-01 2.879455000000000098e+01 9.320775000000000432e+01 1.517884999999999991e+03
6.900000000000000577e-02 6.144939999999999847e-01 2.985229999999999961e+01 9.582294999999999163e+01 1.518639999999999873e+03
7.000000000000000666e-02 6.151200000000000001e-01 3.085034999999999883e+01 9.838675000000000637e+01 1.519394999999999982e+03
7.100000000000000755e-02 6.157380000000000075e-01 3.179165000000000063e+01 1.009068499999999915e+02 1.520130000000000109e+03
7.200000000000000844e-02 6.163509999999999822e-01 3.267864999999999753e+01 1.033910999999999945e+02 1.520855000000000018e+03
7.300000000000000933e-02 6.169590000000000352e-01 3.351315000000000310e+01 1.058453000000000088e+02 1.521579999999999927e+03
7.399999999999999634e-02 6.175619999999999443e-01 3.429574999999999818e+01 1.082720000000000056e+02 1.522289999999999964e+03
7.499999999999999722e-02 6.181594999999999729e-01 3.502639999999999532e+01 1.106709999999999923e+02 1.523000000000000000e+03
7.599999999999999811e-02 6.187495000000000633e-01 3.570380000000000109e+01 1.130395000000000039e+02 1.523700000000000045e+03
7.699999999999999900e-02 6.193314999999999237e-01 3.632560000000000144e+01 1.153704999999999927e+02 1.524384999999999991e+03
7.799999999999999989e-02 6.199014999999999942e-01 3.688884999999999792e+01 1.176544999999999987e+02 1.525059999999999945e+03
7.900000000000000078e-02 6.204570000000000363e-01 3.739014999999999844e+01 1.198824999999999932e+02 1.525720000000000027e+03
8.000000000000000167e-02 6.209955000000000336e-01 3.782569999999999766e+01 1.220404999999999944e+02 1.526365000000000009e+03
8.100000000000000255e-02 6.215129999999999821e-01 3.819180000000000064e+01 1.241165000000000020e+02 1.526985000000000127e+03
8.200000000000000344e-02 6.220065000000000177e-01 3.848519999999999897e+01 1.260965000000000060e+02 1.527585000000000036e+03
8.300000000000000433e-02 6.224730000000000540e-01 3.870289999999999964e+01 1.279680000000000035e+02 1.528154999999999973e+03
8.400000000000000522e-02 6.229099999999999637e-01 3.884284999999999854e+01 1.297205000000000155e+02 1.528684999999999945e+03
8.500000000000000611e-02 6.233155000000000223e-01 3.890359999999999729e+01 1.313435000000000059e+02 1.529190000000000055e+03
8.600000000000000699e-02 6.236880000000000202e-01 3.888469999999999516e+01 1.328305000000000007e+02 1.529660000000000082e+03
8.700000000000000788e-02 6.240259999999999696e-01 3.878665000000000163e+01 1.341750000000000114e+02 1.530085000000000036e+03
8.800000000000000877e-02 6.243290000000000228e-01 3.861090000000000089e+01 1.353740000000000236e+02 1.530474999999999909e+03
8.899999999999999578e-02 6.245970000000000688e-01 3.835970000000000368e+01 1.364275000000000091e+02 1.530820000000000164e+03
8.999999999999999667e-02 6.248299999999999965e-01 3.803645000000000209e+01 1.373354999999999961e+02 1.531125000000000000e+03
9.099999999999999756e-02 6.250295000000000156e-01 3.764530000000000598e+01 1.381030000000000086e+02 1.531390000000000100e+03
9.199999999999999845e-02 6.251970000000000027e-01 3.719145000000000323e+01 1.387350000000000136e+02 1.531615000000000009e+03
9.299999999999999933e-02 6.253340000000000565e-01 3.668084999999999951e+01 1.392395000000000209e+02 1.531805000000000064e+03
9.400000000000000022e-02 6.254429999999999712e-01 3.612000000000000455e+01 1.396254999999999882e+02 1.531954999999999927e+03
9.500000000000000111e-02 6.255260000000000264e-01 3.551630000000000109e+01 1.399039999999999964e+02 1.532075000000000045e+03
9.600000000000000200e-02 6.255874999999999631e-01 3.487729999999999819e+01 1.400865000000000009e+02 1.532164999999999964e+03
9.700000000000000289e-02 6.256285000000000318e-01 3.421095000000000397e+01 1.401864999999999952e+02 1.532230000000000018e+03
9.800000000000000377e-02 6.256534999999999735e-01 3.352530000000000143e+01 1.402160000000000082e+02 1.532269999999999982e+03
9.900000000000000466e-02 6.256650000000000267e-01 3.282809999999999917e+01 1.401895000000000095e+02 1.532289999999999964e+03
1.000000000000000056e-01 6.256665000000000143e-01 3.212669999999999959e+01 1.401189999999999998e+02 1.532295000000000073e+03
1.010000000000000064e-01 6.256599999999999939e-01 3.142779999999999774e+01 1.400165000000000077e+02 1.532289999999999964e+03
1.020000000000000073e-01 6.256485000000000518e-01 3.073720000000000141e+01 1.398924999999999841e+02 1.532269999999999982e+03
1.030000000000000082e-01 6.256329999999999947e-01 3.005959999999999610e+01 1.397564999999999884e+02 1.532244999999999891e+03
1.040000000000000091e-01 6.256159999999999499e-01 2.939869999999999806e+01 1.396154999999999973e+02 1.532215000000000146e+03
1.050000000000000100e-01 6.255984999999999463e-01 2.875669999999999860e+01 1.394750000000000227e+02 1.532180000000000064e+03
1.059999999999999970e-01 6.255809999999999427e-01 2.813479999999999848e+01 1.393374999999999773e+02 1.532150000000000091e+03
1.069999999999999979e-01 6.255625000000000213e-01 2.753275000000000006e+01 1.392044999999999959e+02 1.532110000000000127e+03
1.079999999999999988e-01 6.255429999999999602e-01 2.694940000000000069e+01 1.390745000000000005e+02 1.532079999999999927e+03
1.089999999999999997e-01 6.255224999999999813e-01 2.638250000000000028e+01 1.389459999999999980e+02 1.532039999999999964e+03
1.100000000000000006e-01 6.254984999999999573e-01 2.582929999999999993e+01 1.388135000000000048e+02 1.532005000000000109e+03
1.110000000000000014e-01 6.254714999999999581e-01 2.528614999999999924e+01 1.386725000000000136e+02 1.531954999999999927e+03
1.120000000000000023e-01 6.254385000000000083e-01 2.474924999999999997e+01 1.385174999999999841e+02 1.531914999999999964e+03
1.130000000000000032e-01 6.253990000000000382e-01 2.421475000000000222e+01 1.383419999999999845e+02 1.531865000000000009e+03
1.140000000000000041e-01 6.253515000000000601e-01 2.367869999999999919e+01 1.381405000000000030e+02 1.531809999999999945e+03
1.150000000000000050e-01 6.252940000000000165e-01 2.313749999999999929e+01 1.379069999999999823e+02 1.531740000000000009e+03
1.160000000000000059e-01 6.252275000000000471e-01 2.258800000000000097e+01 1.376370000000000005e+02 1.531670000000000073e+03
1.170000000000000068e-01 6.251495000000000246e-01 2.202754999999999797e+01 1.373274999999999864e+02 1.531585000000000036e+03
1.180000000000000077e-01 6.250599999999999490e-01 2.145420000000000016e+01 1.369755000000000109e+02 1.531485000000000127e+03
1.190000000000000085e-01 6.249599999999999600e-01 2.086690000000000111e+01 1.365799999999999841e+02 1.531380000000000109e+03
1.200000000000000094e-01 6.248489999999999878e-01 2.026535000000000153e+01 1.361415000000000077e+02 1.531264999999999873e+03
1.209999999999999964e-01 6.247279999999999500e-01 1.964999999999999858e+01 1.356630000000000109e+02 1.531134999999999991e+03
1.219999999999999973e-01 6.245979999999999865e-01 1.902230000000000132e+01 1.351469999999999914e+02 1.530990000000000009e+03
1.229999999999999982e-01 6.244609999999999328e-01 1.838455000000000084e+01 1.345989999999999895e+02 1.530845000000000027e+03
1.239999999999999991e-01 6.243179999999999286e-01 1.773975000000000080e+01 1.340254999999999939e+02 1.530690000000000055e+03
1.250000000000000000e-01 6.241704999999999615e-01 1.709140000000000015e+01 1.334334999999999809e+02 1.530525000000000091e+03
1.260000000000000009e-01 6.240220000000000766e-01 1.644364999999999810e+01 1.328315000000000055e+02 1.530360000000000127e+03
1.270000000000000018e-01 6.238740000000000396e-01 1.580114999999999981e+01 1.322284999999999968e+02 1.530190000000000055e+03
1.280000000000000027e-01 6.237295000000000478e-01 1.516849999999999810e+01 1.316330000000000098e+02 1.530025000000000091e+03
1.290000000000000036e-01 6.235889999999999489e-01 1.455059999999999931e+01 1.310545000000000186e+02 1.529855000000000018e+03
1.300000000000000044e-01 6.234560000000000102e-01 1.395213500000000018e+01 1.305010000000000048e+02 1.529700000000000045e+03
1.310000000000000053e-01 6.233319999999999972e-01 1.337740999999999936e+01 1.299814999999999827e+02 1.529549999999999955e+03
1.320000000000000062e-01 6.232185000000000086e-01 1.283048499999999947e+01 1.295029999999999859e+02 1.529409999999999854e+03
1.330000000000000071e-01 6.231174999999999908e-01 1.231471999999999944e+01 1.290709999999999980e+02 1.529275000000000091e+03
1.340000000000000080e-01 6.230295000000000138e-01 1.183281999999999989e+01 1.286905000000000143e+02 1.529160000000000082e+03
1.350000000000000089e-01 6.229544999999999666e-01 1.138680000000000092e+01 1.283640000000000043e+02 1.529059999999999945e+03
1.360000000000000098e-01 6.228934999999999889e-01 1.097780999999999985e+01 1.280944999999999823e+02 1.528970000000000027e+03
1.370000000000000107e-01 6.228460000000000107e-01 1.060623999999999967e+01 1.278810000000000002e+02 1.528894999999999982e+03
1.380000000000000115e-01 6.228120000000000323e-01 1.027159500000000136e+01 1.277219999999999942e+02 1.528835000000000036e+03
1.390000000000000124e-01 6.227905000000000246e-01 9.972780000000000200e+00 1.276160000000000139e+02 1.528795000000000073e+03
1.400000000000000133e-01 6.227795000000000414e-01 9.708000000000000185e+00 1.275575000000000045e+02 1.528759999999999991e+03
1.410000000000000142e-01 6.227789999999999715e-01 9.474859999999999616e+00 1.275424999999999898e+02 1.528740000000000009e+03
1.420000000000000151e-01 6.227869999999999795e-01 9.270654999999999646e+00 1.275649999999999977e+02 1.528735000000000127e+03
1.430000000000000160e-01 6.228015000000000079e-01 9.092254999999999754e+00 1.276185000000000116e+02 1.528735000000000127e+03
1.440000000000000169e-01 6.228214999999999169e-01 8.936510000000000176e+00 1.276965000000000003e+02 1.528750000000000000e+03
1.450000000000000178e-01 6.228454999999999409e-01 8.800134999999999152e+00 1.277930000000000064e+02 1.528764999999999873e+03
1.459999999999999909e-01 6.228719999999999812e-01 8.679870000000001085e+00 1.279025000000000034e+02 1.528784999999999854e+03
1.469999999999999918e-01 6.228994999999999393e-01 8.572684999999999889e+00 1.280185000000000173e+02 1.528809999999999945e+03
1.479999999999999927e-01 6.229270000000000085e-01 8.475744999999999862e+00 1.281360000000000241e+02 1.528839999999999918e+03
1.489999999999999936e-01 6.229534999999999378e-01 8.386485000000000412e+00 1.282510000000000048e+02 1.528865000000000009e+03
1.499999999999999944e-01 6.229789999999999495e-01 8.302645000000000053e+00 1.283594999999999970e+02 1.528889999999999873e+03
1.509999999999999953e-01 6.230014999999999858e-01 8.222319999999999851e+00 1.284594999999999914e+02 1.528914999999999964e+03
1.519999999999999962e-01 6.230215000000000058e-01 8.143900000000000361e+00 1.285475000000000136e+02 1.528940000000000055e+03
1.529999999999999971e-01 6.230390000000000095e-01 8.066095000000000681e+00 1.286234999999999786e+02 1.528960000000000036e+03
1.539999999999999980e-01 6.230530000000000790e-01 7.987925000000000608e+00 1.286864999999999952e+02 1.528980000000000018e+03
1.549999999999999989e-01 6.230634999999999923e-01 7.908659999999999357e+00 1.287355000000000018e+02 1.528990000000000009e+03
1.559999999999999998e-01 6.230715000000000003e-01 7.827814999999999301e+00 1.287715000000000032e+02 1.529000000000000000e+03
1.570000000000000007e-01 6.230769999999999920e-01 7.745105000000000572e+00 1.287950000000000159e+02 1.529009999999999991e+03
1.580000000000000016e-01 6.230795000000000083e-01 7.660445000000000171e+00 1.288070000000000164e+02 1.529014999999999873e+03
1.590000000000000024e-01 6.230800000000000782e-01 7.573859999999999815e+00 1.288085000000000093e+02 1.529014999999999873e+03
