# t [s], A [cm^2], U [cm/s], P [cPa], c [cm/s]
1.000000000000000021e-03 4.510135000000000116e-01 4.380949999999994571e-03 9.376630000000000109e+01 1.543440000000000055e+03
2.000000000000000042e-03 4.510060000000000180e-01 -2.860729999999999697e-03 9.374195000000000277e+01 1.543434999999999945e+03
3.000000000000000062e-03 4.510385000000000089e-01 7.411499999999998645e-02 9.381719999999999970e+01 1.543449999999999818e+03
4.000000000000000083e-03 4.510770000000000057e-01 1.716826499999999922e-01 9.393349999999999511e+01 1.543485000000000127e+03
5.000000000000000104e-03 4.510699999999999710e-01 1.718314999999999981e-01 9.392114999999999725e+01 1.543485000000000127e+03
6.000000000000000125e-03 4.510260000000000380e-01 8.418299999999998007e-02 9.375055000000000405e+01 1.543445000000000164e+03
7.000000000000000146e-03 4.509855000000000391e-01 -3.155000000000018900e-03 9.351720000000000255e+01 1.543394999999999982e+03
8.000000000000000167e-03 4.509350000000000303e-01 -1.223824999999999497e-01 9.320279999999999632e+01 1.543315000000000055e+03
9.000000000000001055e-03 4.508480000000000265e-01 -3.411999999999999478e-01 9.272034999999999627e+01 1.543204999999999927e+03
1.000000000000000194e-02 4.507205000000000239e-01 -6.673350000000000115e-01 9.203005000000000280e+01 1.543039999999999964e+03
1.099999999999999936e-02 4.505470000000000308e-01 -1.106959999999999944e+00 9.109360000000000923e+01 1.542815000000000055e+03
1.200000000000000025e-02 4.503139999999999921e-01 -1.678755000000000219e+00 8.985495000000000232e+01 1.542514999999999873e+03
1.300000000000000114e-02 4.500250000000000083e-01 -2.359750000000000014e+00 8.830314999999998804e+01 1.542135000000000218e+03
1.400000000000000203e-02 4.497090000000000254e-01 -3.055114999999999803e+00 8.652620000000000289e+01 1.541679999999999836e+03
1.499999999999999944e-02 4.494099999999999762e-01 -3.631726999999999705e+00 8.468959999999999866e+01 1.541200000000000045e+03
1.600000000000000033e-02 4.491604999999999626e-01 -3.979051500000000630e+00 8.296379999999999200e+01 1.540724999999999909e+03
1.700000000000000122e-02 4.489719999999999822e-01 -4.049266999999999506e+00 8.145884999999999820e+01 1.540284999999999854e+03
1.800000000000000211e-02 4.488310000000000355e-01 -3.862102000000000146e+00 8.019679999999999609e+01 1.539884999999999991e+03
1.900000000000000300e-02 4.487114999999999854e-01 -3.484697999999999851e+00 7.912154999999999916e+01 1.539530000000000200e+03
2.000000000000000042e-02 4.485839999999999828e-01 -3.001592500000000108e+00 7.813130000000001019e+01 1.539195000000000164e+03
2.100000000000000130e-02 4.484270000000000200e-01 -2.485836500000000004e+00 7.711820000000000164e+01 1.538855000000000018e+03
2.200000000000000219e-02 4.482315000000000049e-01 -1.978890000000000260e+00 7.600480000000000302e+01 1.538494999999999891e+03
2.299999999999999961e-02 4.480025000000000257e-01 -1.484465000000000146e+00 7.476404999999999745e+01 1.538099999999999909e+03
2.400000000000000050e-02 4.477530000000000121e-01 -9.774650000000000283e-01 7.341900000000001114e+01 1.537684999999999945e+03
2.500000000000000139e-02 4.475014999999999965e-01 -4.230899999999997441e-01 7.202344999999999686e+01 1.537259999999999991e+03
2.600000000000000228e-02 4.472595000000000320e-01 2.025649999999998840e-01 7.063415000000000532e+01 1.536825000000000045e+03
2.700000000000000316e-02 4.470300000000000384e-01 8.980699999999999239e-01 6.928544999999999732e+01 1.536400000000000091e+03
2.800000000000000058e-02 4.468064999999999953e-01 1.631925000000000070e+00 6.797440000000000282e+01 1.535980000000000018e+03
2.900000000000000147e-02 4.465729999999999977e-01 2.347175000000000011e+00 6.665805000000000291e+01 1.535559999999999945e+03
3.000000000000000236e-02 4.463120000000000420e-01 2.972850000000000215e+00 6.526330000000000098e+01 1.535125000000000000e+03
3.099999999999999978e-02 4.460045000000000259e-01 3.439085000000000392e+00 6.370425000000000182e+01 1.534650000000000091e+03
3.200000000000000067e-02 4.456375000000000197e-01 3.692460000000000075e+00 6.190475000000000705e+01 1.534130000000000109e+03
3.300000000000000155e-02 4.452095000000000358e-01 3.708135000000000403e+00 5.981955000000000666e+01 1.533535000000000082e+03
3.400000000000000244e-02 4.447265000000000246e-01 3.495589999999999975e+00 5.744904999999999973e+01 1.532875000000000000e+03
3.500000000000000333e-02 4.442070000000000185e-01 3.096275000000000333e+00 5.484359999999999502e+01 1.532155000000000200e+03
3.600000000000000422e-02 4.436745000000000272e-01 2.574675000000000047e+00 5.209669999999999845e+01 1.531400000000000091e+03
3.700000000000000511e-02 4.431554999999999800e-01 2.005590000000000206e+00 4.932989999999999498e+01 1.530625000000000000e+03
3.799999999999999906e-02 4.426735000000000531e-01 1.461744999999999628e+00 4.667440000000000566e+01 1.529869999999999891e+03
3.899999999999999994e-02 4.422494999999999621e-01 1.004440000000000222e+00 4.425369999999999493e+01 1.529170000000000073e+03
4.000000000000000083e-02 4.418965000000000254e-01 6.786449999999999427e-01 4.217099999999999937e+01 1.528545000000000073e+03
4.100000000000000172e-02 4.416234999999999467e-01 5.119350000000002510e-01 4.050154999999999461e+01 1.528019999999999982e+03
4.200000000000000261e-02 4.414329999999999643e-01 5.168700000000001626e-01 3.929124999999999801e+01 1.527610000000000127e+03
4.300000000000000350e-02 4.413245000000000084e-01 6.951800000000000201e-01 3.855904999999999916e+01 1.527329999999999927e+03
4.400000000000000439e-02 4.412949999999999928e-01 1.042638300000000129e+00 3.830284999999999940e+01 1.527174999999999955e+03
4.499999999999999833e-02 4.413415000000000532e-01 1.553355000000000041e+00 3.850685000000000002e+01 1.527150000000000091e+03
4.599999999999999922e-02 4.414595000000000047e-01 2.222738999999999798e+00 3.914815000000000111e+01 1.527255000000000109e+03
4.700000000000000011e-02 4.416459999999999830e-01 3.048570039999999981e+00 4.020185000000000031e+01 1.527470000000000027e+03
4.800000000000000100e-02 4.418980000000000130e-01 4.030305499999999874e+00 4.164365000000000094e+01 1.527809999999999945e+03
4.900000000000000189e-02 4.422135000000000371e-01 5.167076400000000014e+00 4.344955000000000211e+01 1.528244999999999891e+03
5.000000000000000278e-02 4.425875000000000226e-01 6.455150500000000235e+00 4.559494999999999720e+01 1.528789999999999964e+03
5.100000000000000366e-02 4.430159999999999654e-01 7.886053499999999161e+00 4.805164999999999509e+01 1.529429999999999836e+03
5.200000000000000455e-02 4.434930000000000261e-01 9.444979999999999265e+00 5.078594999999999970e+01 1.530150000000000091e+03
5.300000000000000544e-02 4.440100000000000158e-01 1.111092000000000013e+01 5.375799999999999557e+01 1.530945000000000164e+03
5.399999999999999939e-02 4.445574999999999943e-01 1.285783499999999968e+01 5.692170000000000130e+01 1.531804999999999836e+03
5.500000000000000028e-02 4.451264999999999805e-01 1.465606999999999971e+01 6.022665000000000646e+01 1.532710000000000036e+03
5.600000000000000117e-02 4.457069999999999643e-01 1.647494000000000014e+01 6.362050000000000693e+01 1.533660000000000082e+03
5.700000000000000205e-02 4.462909999999999933e-01 1.828500000000000014e+01 6.705235000000000412e+01 1.534625000000000000e+03
5.800000000000000294e-02 4.468699999999999894e-01 2.005985000000000085e+01 7.047570000000000334e+01 1.535605000000000018e+03
5.900000000000000383e-02 4.474380000000000024e-01 2.177754999999999797e+01 7.385115000000000407e+01 1.536575000000000045e+03
6.000000000000000472e-02 4.479914999999999869e-01 2.342170000000000130e+01 7.714804999999999779e+01 1.537539999999999964e+03
6.099999999999999867e-02 4.485284999999999966e-01 2.498120000000000118e+01 8.034600000000000364e+01 1.538485000000000127e+03
6.199999999999999956e-02 4.490465000000000151e-01 2.645029999999999859e+01 8.343399999999999750e+01 1.539409999999999854e+03
6.300000000000000044e-02 4.495480000000000032e-01 2.782750000000000057e+01 8.641040000000000987e+01 1.540304999999999836e+03
6.400000000000000133e-02 4.500345000000000040e-01 2.911509999999999820e+01 8.928130000000000166e+01 1.541170000000000073e+03
6.500000000000000222e-02 4.505080000000000195e-01 3.031804999999999950e+01 9.205854999999999677e+01 1.542019999999999982e+03
6.600000000000000311e-02 4.509719999999999840e-01 3.144319999999999737e+01 9.475835000000000719e+01 1.542849999999999909e+03
6.700000000000000400e-02 4.514295000000000391e-01 3.249835000000000207e+01 9.740004999999999313e+01 1.543654999999999973e+03
6.800000000000000488e-02 4.518834999999999935e-01 3.349179999999999779e+01 1.000016500000000121e+02 1.544454999999999927e+03
6.900000000000000577e-02 4.523369999999999891e-01 3.443139999999999645e+01 1.025814000000000021e+02 1.545244999999999891e+03
7.000000000000000666e-02 4.527920000000000278e-01 3.532410000000000139e+01 1.051557999999999993e+02 1.546034999999999854e+03
7.100000000000000755e-02 4.532499999999999862e-01 3.617544999999999789e+01 1.077359999999999900e+02 1.546820000000000164e+03
7.200000000000000844e-02 4.537114999999999898e-01 3.698884999999999934e+01 1.103285000000000053e+02 1.547610000000000127e+03
7.300000000000000933e-02 4.541764999999999830e-01 3.776560000000000628e+01 1.129339999999999975e+02 1.548405000000000200e+03
7.399999999999999634e-02 4.546434999999999782e-01 3.850440000000000396e+01 1.155494999999999948e+02 1.549199999999999818e+03
7.499999999999999722e-02 4.551094999999999446e-01 3.920190000000000197e+01 1.181630000000000109e+02 1.549994999999999891e+03
7.599999999999999811e-02 4.555715000000000181e-01 3.985245000000000459e+01 1.207599999999999909e+02 1.550784999999999854e+03
7.699999999999999900e-02 4.560265000000000013e-01 4.044915000000000305e+01 1.233199999999999932e+02 1.551565000000000055e+03
7.799999999999999989e-02 4.564700000000000424e-01 4.098399999999999466e+01 1.258220000000000027e+02 1.552329999999999927e+03
7.900000000000000078e-02 4.568974999999999564e-01 4.144865000000000066e+01 1.282404999999999973e+02 1.553079999999999927e+03
8.000000000000000167e-02 4.573049999999999615e-01 4.183514999999999873e+01 1.305529999999999973e+02 1.553800000000000182e+03
8.100000000000000255e-02 4.576890000000000125e-01 4.213625000000000398e+01 1.327370000000000232e+02 1.554480000000000018e+03
8.200000000000000344e-02 4.580465000000000231e-01 4.234595000000000198e+01 1.347715000000000032e+02 1.555130000000000109e+03
8.300000000000000433e-02 4.583745000000000180e-01 4.245969999999999800e+01 1.366405000000000030e+02 1.555724999999999909e+03
8.400000000000000522e-02 4.586715000000000098e-01 4.247494999999999976e+01 1.383310000000000173e+02 1.556275000000000091e+03
8.500000000000000611e-02 4.589354999999999407e-01 4.239060000000000628e+01 1.398340000000000032e+02 1.556775000000000091e+03
8.600000000000000699e-02 4.591669999999999918e-01 4.220789999999999509e+01 1.411460000000000150e+02 1.557214999999999918e+03
8.700000000000000788e-02 4.593665000000000109e-01 4.192954999999999899e+01 1.422680000000000007e+02 1.557599999999999909e+03
8.800000000000000877e-02 4.595339999999999980e-01 4.156040000000000134e+01 1.432024999999999864e+02 1.557934999999999945e+03
8.899999999999999578e-02 4.596719999999999695e-01 4.110679999999999978e+01 1.439590000000000032e+02 1.558214999999999918e+03
8.999999999999999667e-02 4.597815000000000651e-01 4.057659999999999911e+01 1.445495000000000232e+02 1.558440000000000055e+03
9.099999999999999756e-02 4.598664999999999559e-01 3.997894999999999754e+01 1.449879999999999995e+02 1.558619999999999891e+03
9.199999999999999845e-02 4.599284999999999624e-01 3.932410000000000139e+01 1.452915000000000134e+02 1.558759999999999991e+03
9.299999999999999933e-02 4.599714999999999776e-01 3.862300000000000466e+01 1.454784999999999968e+02 1.558860000000000127e+03
9.400000000000000022e-02 4.599989999999999912e-01 3.788694999999999879e+01 1.455685000000000002e+02 1.558925000000000182e+03
9.500000000000000111e-02 4.600139999999999785e-01 3.712745000000000317e+01 1.455805000000000007e+02 1.558965000000000146e+03
9.600000000000000200e-02 4.600195000000000256e-01 3.635549999999999926e+01 1.455349999999999966e+02 1.558980000000000018e+03
9.700000000000000289e-02 4.600189999999999557e-01 3.558140000000000214e+01 1.454499999999999886e+02 1.558980000000000018e+03
9.800000000000000377e-02 4.600150000000000072e-01 3.481439999999999912e+01 1.453410000000000082e+02 1.558974999999999909e+03
9.900000000000000466e-02 4.600090000000000012e-01 3.406224999999999881e+01 1.452230000000000132e+02 1.558954999999999927e+03
1.000000000000000056e-01 4.600030000000000507e-01 3.333124999999999716e+01 1.451059999999999945e+02 1.558934999999999945e+03
1.010000000000000064e-01 4.599989999999999912e-01 3.262554999999999694e+01 1.449985000000000070e+02 1.558909999999999854e+03
1.020000000000000073e-01 4.599965000000000304e-01 3.194774999999999920e+01 1.449050000000000011e+02 1.558889999999999873e+03
1.030000000000000082e-01 4.599949999999999872e-01 3.129830000000000112e+01 1.448269999999999982e+02 1.558865000000000009e+03
1.040000000000000091e-01 4.599949999999999872e-01 3.067620000000000147e+01 1.447624999999999886e+02 1.558845000000000027e+03
1.050000000000000100e-01 4.599955000000000016e-01 3.007874999999999943e+01 1.447065000000000055e+02 1.558824999999999818e+03
1.059999999999999970e-01 4.599940000000000140e-01 2.950195000000000078e+01 1.446519999999999868e+02 1.558809999999999945e+03
1.069999999999999979e-01 4.599904999999999688e-01 2.894089999999999918e+01 1.445899999999999750e+02 1.558789999999999964e+03
1.079999999999999988e-01 4.599820000000000020e-01 2.839004999999999868e+01 1.445110000000000241e+02 1.558759999999999991e+03
1.089999999999999997e-01 4.599670000000000147e-01 2.784345000000000070e+01 1.444035000000000082e+02 1.558735000000000127e+03
1.100000000000000006e-01 4.599434999999999496e-01 2.729514999999999958e+01 1.442580000000000098e+02 1.558690000000000055e+03
1.110000000000000014e-01 4.599104999999999999e-01 2.673955000000000126e+01 1.440640000000000214e+02 1.558630000000000109e+03
1.120000000000000023e-01 4.598659999999999970e-01 2.617154999999999987e+01 1.438114999999999952e+02 1.558559999999999945e+03
1.130000000000000032e-01 4.598100000000000520e-01 2.558689999999999998e+01 1.434950000000000045e+02 1.558474999999999909e+03
1.140000000000000041e-01 4.597404999999999964e-01 2.498235000000000028e+01 1.431080000000000041e+02 1.558365000000000009e+03
1.150000000000000050e-01 4.596580000000000110e-01 2.435575000000000045e+01 1.426485000000000127e+02 1.558240000000000009e+03
1.160000000000000059e-01 4.595624999999999849e-01 2.370640000000000214e+01 1.421150000000000091e+02 1.558095000000000027e+03
1.170000000000000068e-01 4.594544999999999879e-01 2.303495000000000203e+01 1.415095000000000027e+02 1.557925000000000182e+03
1.180000000000000077e-01 4.593349999999999933e-01 2.234329999999999927e+01 1.408369999999999891e+02 1.557740000000000009e+03
1.190000000000000085e-01 4.592055000000000442e-01 2.163480000000000203e+01 1.401050000000000182e+02 1.557529999999999973e+03
1.200000000000000094e-01 4.590674999999999617e-01 2.091404999999999959e+01 1.393209999999999980e+02 1.557309999999999945e+03
1.209999999999999964e-01 4.589239999999999986e-01 2.018659999999999854e+01 1.384979999999999905e+02 1.557079999999999927e+03
1.219999999999999973e-01 4.587759999999999616e-01 1.945880000000000010e+01 1.376474999999999795e+02 1.556835000000000036e+03
1.229999999999999982e-01 4.586265000000000480e-01 1.873785000000000167e+01 1.367830000000000155e+02 1.556589999999999918e+03
1.239999999999999991e-01 4.584779999999999966e-01 1.803115000000000023e+01 1.359194999999999993e+02 1.556335000000000036e+03
1.250000000000000000e-01 4.583335000000000048e-01 1.734615000000000151e+01 1.350710000000000264e+02 1.556085000000000036e+03
1.260000000000000009e-01 4.581950000000000189e-01 1.669014999999999915e+01 1.342509999999999764e+02 1.555840000000000146e+03
1.270000000000000018e-01 4.580639999999999712e-01 1.606984999999999886e+01 1.334730000000000132e+02 1.555610000000000127e+03
1.280000000000000027e-01 4.579429999999999890e-01 1.549130000000000074e+01 1.327479999999999905e+02 1.555380000000000109e+03
1.290000000000000036e-01 4.578339999999999632e-01 1.495960000000000178e+01 1.320854999999999961e+02 1.555174999999999955e+03
1.300000000000000044e-01 4.577370000000000050e-01 1.447850000000000037e+01 1.314929999999999950e+02 1.554990000000000009e+03
1.310000000000000053e-01 4.576525000000000176e-01 1.405079999999999885e+01 1.309759999999999991e+02 1.554820000000000164e+03
1.320000000000000062e-01 4.575819999999999887e-01 1.367764999999999986e+01 1.305355000000000132e+02 1.554670000000000073e+03
1.330000000000000071e-01 4.575249999999999595e-01 1.335904999999999987e+01 1.301734999999999900e+02 1.554545000000000073e+03
1.340000000000000080e-01 4.574799999999999978e-01 1.309365000000000023e+01 1.298865000000000123e+02 1.554440000000000055e+03
1.350000000000000089e-01 4.574469999999999925e-01 1.287889999999999979e+01 1.296705000000000041e+02 1.554355000000000018e+03
1.360000000000000098e-01 4.574239999999999973e-01 1.271124999999999972e+01 1.295180000000000007e+02 1.554285000000000082e+03
1.370000000000000107e-01 4.574099999999999833e-01 1.258634999999999948e+01 1.294225000000000136e+02 1.554240000000000009e+03
1.380000000000000115e-01 4.574034999999999629e-01 1.249905000000000044e+01 1.293745000000000118e+02 1.554204999999999927e+03
1.390000000000000124e-01 4.574020000000000308e-01 1.244405000000000072e+01 1.293644999999999925e+02 1.554184999999999945e+03
1.400000000000000133e-01 4.574049999999999505e-01 1.241564999999999941e+01 1.293829999999999814e+02 1.554174999999999955e+03
1.410000000000000142e-01 4.574104999999999421e-01 1.240840000000000032e+01 1.294200000000000159e+02 1.554170000000000073e+03
1.420000000000000151e-01 4.574169999999999625e-01 1.241679999999999851e+01 1.294675000000000011e+02 1.554174999999999955e+03
1.430000000000000160e-01 4.574230000000000240e-01 1.243595000000000006e+01 1.295165000000000077e+02 1.554175000000000182e+03
1.440000000000000169e-01 4.574274999999999869e-01 1.246134999999999948e+01 1.295614999999999952e+02 1.554180000000000064e+03
1.450000000000000178e-01 4.574300000000000033e-01 1.248910000000000053e+01 1.295955000000000155e+02 1.554184999999999945e+03
1.459999999999999909e-01 4.574300000000000033e-01 1.251609999999999978e+01 1.296154999999999973e+02 1.554190000000000055e+03
1.469999999999999918e-01 4.574274999999999869e-01 1.253960000000000008e+01 1.296189999999999998e+02 1.554184999999999945e+03
1.479999999999999927e-01 4.574210000000000220e-01 1.255785000000000018e+01 1.296034999999999968e+02 1.554179999999999836e+03
1.489999999999999936e-01 4.574114999999999709e-01 1.256964999999999932e+01 1.295699999999999932e+02 1.554164999999999964e+03
1.499999999999999944e-01 4.573994999999999589e-01 1.257440000000000069e+01 1.295185000000000173e+02 1.554154999999999973e+03
1.509999999999999953e-01 4.573849999999999860e-01 1.257199999999999918e+01 1.294519999999999982e+02 1.554139999999999873e+03
1.519999999999999962e-01 4.573685000000000112e-01 1.256305000000000049e+01 1.293725000000000023e+02 1.554115000000000009e+03
1.529999999999999971e-01 4.573509999999999520e-01 1.254830000000000112e+01 1.292839999999999918e+02 1.554090000000000146e+03
1.539999999999999980e-01 4.573325000000000307e-01 1.252899999999999991e+01 1.291885000000000048e+02 1.554059999999999945e+03
1.549999999999999989e-01 4.573144999999999571e-01 1.250645000000000095e+01 1.290919999999999845e+02 1.554034999999999854e+03
1.559999999999999998e-01 4.572969999999999535e-01 1.248239999999999839e+01 1.289964999999999975e+02 1.554009999999999991e+03
1.570000000000000007e-01 4.572809999999999930e-01 1.245824999999999960e+01 1.289069999999999823e+02 1.553985000000000127e+03
1.580000000000000016e-01 4.572665000000000202e-01 1.243575000000000053e+01 1.288259999999999934e+02 1.553954999999999927e+03
1.590000000000000024e-01 4.572545000000000082e-01 1.241615000000000002e+01 1.287565000000000168e+02 1.553940000000000055e+03
