# t [s], A [cm^2], U [cm/s], P [cPa], c [cm/s]
1.000000000000000021e-03 6.568399999999999794e-01 5.223649999999996352e-03 1.060345000000000084e+02 1.631259999999999991e+03
2.000000000000000042e-03 6.568304999999999838e-01 7.193149999999998850e-04 1.060084999999999980e+02 1.631255000000000109e+03
3.000000000000000062e-03 6.568920000000000314e-01 1.068058499999999938e-01 1.061250000000000000e+02 1.631279999999999973e+03
4.000000000000000083e-03 6.569390000000000507e-01 1.974729000000000068e-01 1.062399999999999949e+02 1.631309999999999945e+03
5.000000000000000104e-03 6.569035000000000846e-01 1.572376499999999788e-01 1.061569999999999965e+02 1.631295000000000073e+03
6.000000000000000125e-03 6.568335000000000701e-01 5.291699999999999182e-02 1.059134999999999991e+02 1.631240000000000009e+03
7.000000000000000146e-03 6.567690000000000472e-01 -5.201349999999999030e-02 1.055985000000000014e+02 1.631180000000000064e+03
8.000000000000000167e-03 6.566605000000000913e-01 -2.450099999999999500e-01 1.051185000000000116e+02 1.631070000000000164e+03
9.000000000000001055e-03 6.564825000000000799e-01 -5.733550000000000590e-01 1.043824999999999932e+02 1.630909999999999854e+03
1.000000000000000194e-02 6.562320000000000375e-01 -1.038594999999999935e+00 1.033439999999999941e+02 1.630684999999999945e+03
1.099999999999999936e-02 6.558869999999999978e-01 -1.662044999999999995e+00 1.019320500000000038e+02 1.630375000000000000e+03
1.200000000000000025e-02 6.554419999999999691e-01 -2.433510000000000062e+00 1.001072999999999951e+02 1.629960000000000036e+03
1.300000000000000114e-02 6.549395000000000078e-01 -3.250169999999999781e+00 9.796080000000000609e+01 1.629460000000000036e+03
1.400000000000000203e-02 6.544544999999999391e-01 -3.944634999999999447e+00 9.570520000000000493e+01 1.628920000000000073e+03
1.499999999999999944e-02 6.540500000000000203e-01 -4.368974499999999317e+00 9.357855000000000700e+01 1.628384999999999991e+03
1.600000000000000033e-02 6.537470000000000780e-01 -4.456569500000000517e+00 9.173754999999999882e+01 1.627889999999999873e+03
1.700000000000000122e-02 6.535239999999999938e-01 -4.231950499999999948e+00 9.021569999999999823e+01 1.627460000000000036e+03
1.800000000000000211e-02 6.533345000000000402e-01 -3.782722500000000210e+00 8.893465000000000487e+01 1.627065000000000055e+03
1.900000000000000300e-02 6.531295000000000295e-01 -3.216950000000000198e+00 8.775430000000000064e+01 1.626690000000000055e+03
2.000000000000000042e-02 6.528724999999999667e-01 -2.623092000000000201e+00 8.653369999999999607e+01 1.626315000000000055e+03
2.100000000000000130e-02 6.525545000000000373e-01 -2.044509999999999827e+00 8.518145000000001232e+01 1.625920000000000073e+03
2.200000000000000219e-02 6.521885000000000598e-01 -1.476049999999999862e+00 8.367955000000000609e+01 1.625490000000000009e+03
2.299999999999999961e-02 6.518014999999999226e-01 -8.820449999999997459e-01 8.207310000000001082e+01 1.625030000000000200e+03
2.400000000000000050e-02 6.514189999999999703e-01 -2.253499999999997172e-01 8.043530000000001223e+01 1.624569999999999936e+03
2.500000000000000139e-02 6.510544999999999805e-01 5.066800000000002413e-01 7.882589999999999009e+01 1.624105000000000018e+03
2.600000000000000228e-02 6.507024999999999615e-01 1.288744999999999807e+00 7.726085000000000491e+01 1.623650000000000091e+03
2.700000000000000316e-02 6.503419999999999757e-01 2.058885000000000076e+00 7.570054999999999268e+01 1.623194999999999936e+03
2.800000000000000058e-02 6.499409999999999910e-01 2.731645000000000323e+00 7.405790000000000362e+01 1.622719999999999800e+03
2.900000000000000147e-02 6.494689999999999630e-01 3.218250000000000277e+00 7.222210000000001173e+01 1.622214999999999918e+03
3.000000000000000236e-02 6.489019999999999788e-01 3.448369999999999713e+00 7.009004999999999086e+01 1.621644999999999982e+03
3.099999999999999978e-02 6.482345000000000468e-01 3.388035000000000352e+00 6.759874999999999545e+01 1.621000000000000000e+03
3.200000000000000067e-02 6.474785000000000679e-01 3.048135000000000261e+00 6.474800000000000466e+01 1.620275000000000091e+03
3.300000000000000155e-02 6.466644999999999754e-01 2.482304999999999762e+00 6.160730000000000217e+01 1.619480000000000018e+03
3.400000000000000244e-02 6.458344999999999780e-01 1.774040000000000283e+00 5.830620000000000402e+01 1.618644999999999982e+03
3.500000000000000333e-02 6.450335000000000374e-01 1.019225000000000492e+00 5.501140000000000185e+01 1.617805000000000064e+03
3.600000000000000422e-02 6.443039999999999878e-01 3.096050000000003521e-01 5.190000000000000568e+01 1.616990000000000009e+03
3.700000000000000511e-02 6.436790000000000012e-01 -2.795499999999999652e-01 4.913470000000000226e+01 1.616250000000000000e+03
3.799999999999999906e-02 6.431799999999999740e-01 -6.951749999999998764e-01 4.684624999999999773e+01 1.615610000000000127e+03
3.899999999999999994e-02 6.428194999999999881e-01 -9.065499999999997449e-01 4.512460000000000093e+01 1.615099999999999909e+03
4.000000000000000083e-02 6.426009999999999778e-01 -9.012649999999997608e-01 4.401870000000000260e+01 1.614735000000000127e+03
4.100000000000000172e-02 6.425209999999998978e-01 -6.790975000000000206e-01 4.354180000000000206e+01 1.614529999999999973e+03
4.200000000000000261e-02 6.425745000000000484e-01 -2.456320000000000170e-01 4.368139999999999645e+01 1.614474999999999909e+03
4.300000000000000350e-02 6.427540000000000475e-01 3.926699999999999635e-01 4.440935000000000343e+01 1.614575000000000045e+03
4.400000000000000439e-02 6.430529999999999857e-01 1.230969999999999898e+00 4.569030000000000058e+01 1.614815000000000055e+03
4.499999999999999833e-02 6.434655000000000236e-01 2.265884999999999927e+00 4.748700000000000188e+01 1.615200000000000045e+03
4.599999999999999922e-02 6.439844999999999597e-01 3.493360000000000021e+00 4.976139999999999475e+01 1.615714999999999918e+03
4.700000000000000011e-02 6.446020000000000083e-01 4.905504999999999782e+00 5.247330000000000183e+01 1.616345000000000027e+03
4.800000000000000100e-02 6.453079999999999927e-01 6.488014999999999866e+00 5.557730000000000103e+01 1.617085000000000036e+03
4.900000000000000189e-02 6.460894999999999833e-01 8.218460000000000321e+00 5.902060000000000173e+01 1.617920000000000073e+03
5.000000000000000278e-02 6.469309999999999228e-01 1.006646849999999915e+01 6.274179999999999779e+01 1.618840000000000146e+03
5.100000000000000366e-02 6.478154999999999886e-01 1.199539000000000044e+01 6.667179999999999040e+01 1.619825000000000045e+03
5.200000000000000455e-02 6.487245000000000372e-01 1.396509500000000159e+01 7.073694999999999311e+01 1.620855000000000018e+03
5.300000000000000544e-02 6.496414999999999829e-01 1.593500500000000031e+01 7.486310000000000286e+01 1.621920000000000073e+03
5.399999999999999939e-02 6.505505000000000315e-01 1.786722500000000124e+01 7.897990000000000066e+01 1.622990000000000009e+03
5.500000000000000028e-02 6.514389999999999903e-01 1.972919999999999874e+01 8.302594999999999459e+01 1.624059999999999945e+03
5.600000000000000117e-02 6.522970000000000157e-01 2.149524999999999864e+01 8.695159999999999911e+01 1.625105000000000018e+03
5.700000000000000205e-02 6.531195000000000750e-01 2.314714999999999989e+01 9.072065000000000623e+01 1.626125000000000000e+03
5.800000000000000294e-02 6.539034999999999709e-01 2.467439999999999856e+01 9.431319999999999482e+01 1.627115000000000009e+03
5.900000000000000383e-02 6.546494999999999953e-01 2.607300000000000040e+01 9.772175000000000011e+01 1.628055000000000064e+03
6.000000000000000472e-02 6.553594999999999837e-01 2.734489999999999910e+01 1.009519500000000107e+02 1.628960000000000036e+03
6.099999999999999867e-02 6.560390000000000388e-01 2.849630000000000152e+01 1.040191000000000088e+02 1.629825000000000045e+03
6.199999999999999956e-02 6.566935000000000411e-01 2.953679999999999950e+01 1.069456999999999880e+02 1.630660000000000082e+03
6.300000000000000044e-02 6.573279999999999124e-01 3.047775000000000034e+01 1.097590000000000003e+02 1.631454999999999927e+03
6.400000000000000133e-02 6.579500000000000348e-01 3.133170000000000144e+01 1.124874999999999972e+02 1.632235000000000127e+03
6.500000000000000222e-02 6.585640000000000382e-01 3.211099999999999710e+01 1.151589999999999918e+02 1.632994999999999891e+03
6.600000000000000311e-02 6.591750000000000664e-01 3.282685000000000031e+01 1.177969999999999970e+02 1.633744999999999891e+03
6.700000000000000400e-02 6.597865000000000535e-01 3.348854999999999649e+01 1.204215000000000089e+02 1.634485000000000127e+03
6.800000000000000488e-02 6.604004999999999459e-01 3.410280000000000200e+01 1.230440000000000111e+02 1.635230000000000018e+03
6.900000000000000577e-02 6.610160000000000480e-01 3.467305000000000348e+01 1.256674999999999898e+02 1.635960000000000036e+03
7.000000000000000666e-02 6.616310000000000802e-01 3.519934999999999548e+01 1.282880000000000109e+02 1.636699999999999818e+03
7.100000000000000755e-02 6.622414999999999274e-01 3.567864999999999753e+01 1.308919999999999959e+02 1.637430000000000064e+03
7.200000000000000844e-02 6.628419999999999312e-01 3.610514999999999475e+01 1.334585000000000150e+02 1.638150000000000091e+03
7.300000000000000933e-02 6.634269999999999889e-01 3.647079999999999700e+01 1.359619999999999891e+02 1.638855000000000018e+03
7.399999999999999634e-02 6.639880000000000226e-01 3.676640000000000441e+01 1.383729999999999905e+02 1.639534999999999854e+03
7.499999999999999722e-02 6.645185000000000120e-01 3.698234999999999673e+01 1.406605000000000132e+02 1.640195000000000164e+03
7.599999999999999811e-02 6.650114999999999776e-01 3.710965000000000202e+01 1.427925000000000182e+02 1.640805000000000064e+03
7.699999999999999900e-02 6.654614999999999281e-01 3.714029999999999632e+01 1.447425000000000068e+02 1.641375000000000000e+03
7.799999999999999989e-02 6.658634999999999415e-01 3.706829999999999359e+01 1.464855000000000018e+02 1.641889999999999873e+03
7.900000000000000078e-02 6.662135000000000140e-01 3.688970000000000482e+01 1.480034999999999741e+02 1.642349999999999909e+03
8.000000000000000167e-02 6.665090000000000181e-01 3.660320000000000107e+01 1.492835000000000036e+02 1.642750000000000000e+03
8.100000000000000255e-02 6.667505000000000237e-01 3.621009999999999707e+01 1.503204999999999814e+02 1.643085000000000036e+03
8.200000000000000344e-02 6.669380000000000308e-01 3.571429999999999438e+01 1.511150000000000091e+02 1.643360000000000127e+03
8.300000000000000433e-02 6.670724999999999572e-01 3.512214999999999776e+01 1.516750000000000114e+02 1.643565000000000055e+03
8.400000000000000522e-02 6.671590000000000575e-01 3.444250000000000256e+01 1.520130000000000052e+02 1.643710000000000036e+03
8.500000000000000611e-02 6.672009999999999330e-01 3.368614999999999782e+01 1.521485000000000127e+02 1.643799999999999955e+03
8.600000000000000699e-02 6.672035000000000604e-01 3.286554999999999893e+01 1.521039999999999850e+02 1.643835000000000036e+03
8.700000000000000788e-02 6.671730000000000160e-01 3.199459999999999837e+01 1.519060000000000059e+02 1.643829999999999927e+03
8.800000000000000877e-02 6.671165000000000012e-01 3.108774999999999977e+01 1.515815000000000055e+02 1.643779999999999973e+03
8.899999999999999578e-02 6.670389999999999375e-01 3.015974999999999895e+01 1.511610000000000014e+02 1.643700000000000045e+03
8.999999999999999667e-02 6.669475000000000264e-01 2.922500000000000142e+01 1.506740000000000066e+02 1.643594999999999800e+03
9.099999999999999756e-02 6.668479999999999963e-01 2.829704999999999870e+01 1.501465000000000032e+02 1.643480000000000018e+03
9.199999999999999845e-02 6.667454999999999909e-01 2.738785000000000025e+01 1.496059999999999945e+02 1.643349999999999909e+03
9.299999999999999933e-02 6.666449999999999321e-01 2.650755000000000194e+01 1.490724999999999909e+02 1.643219999999999800e+03
9.400000000000000022e-02 6.665499999999999758e-01 2.566400000000000148e+01 1.485654999999999859e+02 1.643085000000000036e+03
9.500000000000000111e-02 6.664630000000000276e-01 2.486225000000000307e+01 1.480960000000000036e+02 1.642960000000000036e+03
9.600000000000000200e-02 6.663844999999999352e-01 2.410495000000000232e+01 1.476730000000000018e+02 1.642840000000000146e+03
9.700000000000000289e-02 6.663149999999999906e-01 2.339205000000000112e+01 1.472989999999999782e+02 1.642735000000000127e+03
9.800000000000000377e-02 6.662540000000000129e-01 2.272104999999999819e+01 1.469720000000000084e+02 1.642634999999999991e+03
9.900000000000000466e-02 6.661999999999999034e-01 2.208719999999999928e+01 1.466850000000000023e+02 1.642545000000000073e+03
1.000000000000000056e-01 6.661500000000000199e-01 2.148420000000000130e+01 1.464290000000000020e+02 1.642470000000000027e+03
1.010000000000000064e-01 6.661004999999999843e-01 2.090435000000000088e+01 1.461904999999999859e+02 1.642394999999999982e+03
1.020000000000000073e-01 6.660490000000000022e-01 2.033924999999999983e+01 1.459549999999999841e+02 1.642320000000000164e+03
1.030000000000000082e-01 6.659924999999999873e-01 1.978000000000000114e+01 1.457090000000000032e+02 1.642244999999999891e+03
1.040000000000000091e-01 6.659275000000000055e-01 1.921819999999999951e+01 1.454354999999999905e+02 1.642164999999999964e+03
1.050000000000000100e-01 6.658509999999999707e-01 1.864584999999999937e+01 1.451220000000000141e+02 1.642079999999999927e+03
1.059999999999999970e-01 6.657610000000000472e-01 1.805610000000000070e+01 1.447564999999999884e+02 1.641980000000000018e+03
1.069999999999999979e-01 6.656560000000000255e-01 1.744340000000000046e+01 1.443305000000000007e+02 1.641869999999999891e+03
1.079999999999999988e-01 6.655349999999999877e-01 1.680385000000000062e+01 1.438365000000000009e+02 1.641735000000000127e+03
1.089999999999999997e-01 6.653974999999999751e-01 1.613555000000000206e+01 1.432724999999999795e+02 1.641595000000000027e+03
1.100000000000000006e-01 6.652449999999999752e-01 1.543834999999999980e+01 1.426404999999999745e+02 1.641424999999999955e+03
1.110000000000000014e-01 6.650780000000000580e-01 1.471424999999999983e+01 1.419439999999999884e+02 1.641250000000000000e+03
1.120000000000000023e-01 6.649000000000000465e-01 1.396690500000000057e+01 1.411924999999999955e+02 1.641055000000000064e+03
1.130000000000000032e-01 6.647125000000000394e-01 1.320196999999999932e+01 1.403965000000000032e+02 1.640849999999999909e+03
1.140000000000000041e-01 6.645205000000000695e-01 1.242634999999999934e+01 1.395710000000000264e+02 1.640630000000000109e+03
1.150000000000000050e-01 6.643270000000000008e-01 1.164823499999999967e+01 1.387314999999999827e+02 1.640410000000000082e+03
1.160000000000000059e-01 6.641365000000000185e-01 1.087664499999999990e+01 1.378960000000000150e+02 1.640190000000000055e+03
1.170000000000000068e-01 6.639519999999999866e-01 1.012086000000000041e+01 1.370824999999999818e+02 1.639974999999999909e+03
1.180000000000000077e-01 6.637794999999999668e-01 9.390344999999999942e+00 1.363095000000000141e+02 1.639759999999999991e+03
1.190000000000000085e-01 6.636215000000000863e-01 8.693985000000001406e+00 1.355930000000000177e+02 1.639565000000000055e+03
1.200000000000000094e-01 6.634804999999999175e-01 8.039984999999999715e+00 1.349480000000000075e+02 1.639380000000000109e+03
1.209999999999999964e-01 6.633605000000000196e-01 7.435240000000000293e+00 1.343879999999999768e+02 1.639224999999999909e+03
1.219999999999999973e-01 6.632624999999999771e-01 6.885400000000000631e+00 1.339219999999999970e+02 1.639079999999999927e+03
1.229999999999999982e-01 6.631879999999999997e-01 6.394319999999999560e+00 1.335570000000000164e+02 1.638970000000000027e+03
1.239999999999999991e-01 6.631370000000000875e-01 5.964140000000000441e+00 1.332955000000000041e+02 1.638880000000000109e+03
1.250000000000000000e-01 6.631095000000000184e-01 5.595209999999999795e+00 1.331370000000000005e+02 1.638815000000000055e+03
1.260000000000000009e-01 6.631039999999999157e-01 5.286105000000000054e+00 1.330774999999999864e+02 1.638784999999999854e+03
1.270000000000000018e-01 6.631179999999999852e-01 5.033805000000000085e+00 1.331089999999999804e+02 1.638769999999999982e+03
1.280000000000000027e-01 6.631495000000000584e-01 4.833870000000000111e+00 1.332219999999999800e+02 1.638779999999999973e+03
1.290000000000000036e-01 6.631949999999999790e-01 4.680714999999999293e+00 1.334044999999999845e+02 1.638809999999999945e+03
1.300000000000000044e-01 6.632525000000000226e-01 4.567895000000000039e+00 1.336424999999999841e+02 1.638855000000000018e+03
1.310000000000000053e-01 6.633175000000000043e-01 4.488394999999999690e+00 1.339214999999999804e+02 1.638914999999999964e+03
1.320000000000000062e-01 6.633875000000000188e-01 4.434965000000000046e+00 1.342274999999999920e+02 1.638980000000000018e+03
1.330000000000000071e-01 6.634594999999999798e-01 4.400384999999999991e+00 1.345455000000000041e+02 1.639059999999999945e+03
1.340000000000000080e-01 6.635299999999999532e-01 4.377724999999999866e+00 1.348625000000000114e+02 1.639134999999999991e+03
1.350000000000000089e-01 6.635959999999999637e-01 4.360554999999999737e+00 1.351664999999999850e+02 1.639210000000000036e+03
1.360000000000000098e-01 6.636569999999999414e-01 4.343135000000000190e+00 1.354474999999999909e+02 1.639279999999999973e+03
1.370000000000000107e-01 6.637094999999999523e-01 4.320545000000000080e+00 1.356965000000000146e+02 1.639349999999999909e+03
1.380000000000000115e-01 6.637534999999999963e-01 4.288739999999999775e+00 1.359074999999999989e+02 1.639405000000000200e+03
1.390000000000000124e-01 6.637885000000000035e-01 4.244640000000000413e+00 1.360765000000000100e+02 1.639454999999999927e+03
1.400000000000000133e-01 6.638129999999999864e-01 4.186094999999999899e+00 1.362004999999999768e+02 1.639490000000000009e+03
1.410000000000000142e-01 6.638275000000000148e-01 4.111885000000000012e+00 1.362794999999999845e+02 1.639515000000000100e+03
1.420000000000000151e-01 6.638330000000000064e-01 4.021645000000000358e+00 1.363145000000000095e+02 1.639534999999999854e+03
1.430000000000000160e-01 6.638295000000000723e-01 3.915770000000000195e+00 1.363075000000000045e+02 1.639539999999999964e+03
1.440000000000000169e-01 6.638180000000000192e-01 3.795350000000000001e+00 1.362630000000000052e+02 1.639534999999999854e+03
1.450000000000000178e-01 6.637999999999999456e-01 3.662009999999999543e+00 1.361850000000000023e+02 1.639519999999999982e+03
1.459999999999999909e-01 6.637755000000000738e-01 3.517809999999999881e+00 1.360785000000000196e+02 1.639500000000000000e+03
1.469999999999999918e-01 6.637469999999999759e-01 3.365075000000000038e+00 1.359484999999999957e+02 1.639469999999999800e+03
1.479999999999999927e-01 6.637144999999999850e-01 3.206280000000000019e+00 1.358004999999999995e+02 1.639434999999999945e+03
1.489999999999999936e-01 6.636800000000000477e-01 3.043905000000000083e+00 1.356390000000000100e+02 1.639400000000000091e+03
1.499999999999999944e-01 6.636440000000000117e-01 2.880314999999999959e+00 1.354685000000000059e+02 1.639355000000000018e+03
1.509999999999999953e-01 6.636070000000000579e-01 2.717659999999999965e+00 1.352924999999999898e+02 1.639315000000000055e+03
1.519999999999999962e-01 6.635694999999999233e-01 2.557780000000000165e+00 1.351140000000000043e+02 1.639264999999999873e+03
1.529999999999999971e-01 6.635324999999999696e-01 2.402144999999999975e+00 1.349354999999999905e+02 1.639224999999999909e+03
1.539999999999999980e-01 6.634960000000000857e-01 2.251840000000000064e+00 1.347574999999999932e+02 1.639174999999999955e+03
1.549999999999999989e-01 6.634584999999999511e-01 2.107569999999999943e+00 1.345800000000000125e+02 1.639130000000000109e+03
1.559999999999999998e-01 6.634214999999999973e-01 1.969650000000000123e+00 1.344025000000000034e+02 1.639079999999999927e+03
1.570000000000000007e-01 6.633845000000000436e-01 1.838130000000000042e+00 1.342239999999999895e+02 1.639029999999999973e+03
1.580000000000000016e-01 6.633459999999999912e-01 1.712799500000000030e+00 1.340430000000000064e+02 1.638985000000000127e+03
1.590000000000000024e-01 6.633059999999999512e-01 1.593319499999999778e+00 1.338569999999999993e+02 1.638934999999999945e+03
