# t [s], A [cm^2], U [cm/s], P [cPa], c [cm/s]
1.000000000000000021e-03 2.111375000000000057e-01 1.332626000000000088e-01 8.908570000000000277e+01 2.097055000000000291e+03
2.000000000000000042e-03 2.110974999999999935e-01 1.324452500000000033e+00 8.655225000000000080e+01 2.096744999999999891e+03
3.000000000000000062e-03 2.109739999999999949e-01 2.874074999999999935e+00 8.287394999999999357e+01 2.095849999999999909e+03
4.000000000000000083e-03 2.107975000000000265e-01 4.647529499999999203e+00 7.857840000000000202e+01 2.094595000000000255e+03
5.000000000000000104e-03 2.106009999999999827e-01 6.592190000000000438e+00 7.444804999999999495e+01 2.093204999999999927e+03
6.000000000000000125e-03 2.104084999999999983e-01 8.591369999999999507e+00 7.092609999999999104e+01 2.091860000000000127e+03
7.000000000000000146e-03 2.102279999999999982e-01 1.045083999999999946e+01 6.796134999999999593e+01 2.090619999999999891e+03
8.000000000000000167e-03 2.100605000000000111e-01 1.203378999999999976e+01 6.531289999999999907e+01 2.089500000000000000e+03
9.000000000000001055e-03 2.099110000000000142e-01 1.333883000000000152e+01 6.294950000000000045e+01 2.088510000000000218e+03
1.000000000000000194e-02 2.097829999999999973e-01 1.440559999999999974e+01 6.096685000000000088e+01 2.087675000000000182e+03
1.099999999999999936e-02 2.096780000000000033e-01 1.525710000000000122e+01 5.939694999999999681e+01 2.087000000000000000e+03
1.200000000000000025e-02 2.095954999999999901e-01 1.591134999999999877e+01 5.821285000000000309e+01 2.086470000000000255e+03
1.300000000000000114e-02 2.095319999999999960e-01 1.637760000000000105e+01 5.734740000000000038e+01 2.086074999999999818e+03
1.400000000000000203e-02 2.094834999999999892e-01 1.665249999999999986e+01 5.667905000000000371e+01 2.085780000000000200e+03
1.499999999999999944e-02 2.094435000000000047e-01 1.675440000000000040e+01 5.610360000000000014e+01 2.085545000000000073e+03
1.600000000000000033e-02 2.094135000000000024e-01 1.676435000000000031e+01 5.567049999999999699e+01 2.085375000000000000e+03
1.700000000000000122e-02 2.094004999999999894e-01 1.681779999999999831e+01 5.562630000000000052e+01 2.085305000000000291e+03
1.800000000000000211e-02 2.094135000000000024e-01 1.704489999999999839e+01 5.629110000000000014e+01 2.085400000000000091e+03
1.900000000000000300e-02 2.094610000000000083e-01 1.750260000000000105e+01 5.785399999999999920e+01 2.085710000000000036e+03
2.000000000000000042e-02 2.095410000000000050e-01 1.814405000000000001e+01 6.022839999999999350e+01 2.086230000000000018e+03
2.100000000000000130e-02 2.096445000000000114e-01 1.883869999999999933e+01 6.304944999999999311e+01 2.086904999999999745e+03
2.200000000000000219e-02 2.097535000000000094e-01 1.942580000000000240e+01 6.579954999999999643e+01 2.087640000000000327e+03
2.299999999999999961e-02 2.098524999999999974e-01 1.977335000000000065e+01 6.798910000000000764e+01 2.088305000000000291e+03
2.400000000000000050e-02 2.099260000000000015e-01 1.981895000000000095e+01 6.931069999999999709e+01 2.088820000000000164e+03
2.500000000000000139e-02 2.099699999999999900e-01 1.958004999999999995e+01 6.971325000000000216e+01 2.089139999999999873e+03
2.600000000000000228e-02 2.099850000000000050e-01 1.913539999999999708e+01 6.937950000000000728e+01 2.089260000000000218e+03
2.700000000000000316e-02 2.099785000000000124e-01 1.858854999999999791e+01 6.862845000000000084e+01 2.089235000000000127e+03
2.800000000000000058e-02 2.099620000000000097e-01 1.802909999999999968e+01 6.778874999999999318e+01 2.089135000000000218e+03
2.900000000000000147e-02 2.099429999999999907e-01 1.750505000000000067e+01 6.708899999999999864e+01 2.089010000000000218e+03
3.000000000000000236e-02 2.099260000000000015e-01 1.701464999999999961e+01 6.660115000000000407e+01 2.088899999999999636e+03
3.099999999999999978e-02 2.099115000000000009e-01 1.651604999999999990e+01 6.624514999999999532e+01 2.088800000000000182e+03
3.200000000000000067e-02 2.098955000000000126e-01 1.594974999999999810e+01 6.584475000000000477e+01 2.088694999999999709e+03
3.300000000000000155e-02 2.098720000000000030e-01 1.526619999999999955e+01 6.521090000000000941e+01 2.088545000000000073e+03
3.400000000000000244e-02 2.098369999999999957e-01 1.444829999999999970e+01 6.422415000000000873e+01 2.088319999999999709e+03
3.500000000000000333e-02 2.097890000000000033e-01 1.352449999999999974e+01 6.289175000000000182e+01 2.088010000000000218e+03
3.600000000000000422e-02 2.097315000000000151e-01 1.256599999999999895e+01 6.136200000000000188e+01 2.087640000000000327e+03
3.700000000000000511e-02 2.096724999999999839e-01 1.167111500000000035e+01 5.989149999999999352e+01 2.087250000000000000e+03
3.799999999999999906e-02 2.096210000000000018e-01 1.094030000000000058e+01 5.877670000000000528e+01 2.086904999999999745e+03
3.899999999999999994e-02 2.095879999999999965e-01 1.045066999999999879e+01 5.827315000000000111e+01 2.086675000000000182e+03
4.000000000000000083e-02 2.095805000000000029e-01 1.023767499999999941e+01 5.852644999999999698e+01 2.086605000000000018e+03
4.100000000000000172e-02 2.096014999999999961e-01 1.028800000000000026e+01 5.953624999999999545e+01 2.086720000000000255e+03
4.200000000000000261e-02 2.096480000000000010e-01 1.054439999999999955e+01 6.115735000000000099e+01 2.087010000000000218e+03
4.300000000000000350e-02 2.097129999999999828e-01 1.091910500000000006e+01 6.313485000000000014e+01 2.087430000000000291e+03
4.400000000000000439e-02 2.097879999999999745e-01 1.131210000000000093e+01 6.515874999999999773e+01 2.087914999999999964e+03
4.499999999999999833e-02 2.098609999999999920e-01 1.162835000000000107e+01 6.692350000000000421e+01 2.088394999999999982e+03
4.599999999999999922e-02 2.099209999999999965e-01 1.179199999999999982e+01 6.817849999999999966e+01 2.088800000000000182e+03
4.700000000000000011e-02 2.099610000000000087e-01 1.175399999999999956e+01 6.876085000000000491e+01 2.089074999999999818e+03
4.800000000000000100e-02 2.099759999999999960e-01 1.149350000000000094e+01 6.860624999999998863e+01 2.089185000000000400e+03
4.900000000000000189e-02 2.099624999999999964e-01 1.101481000000000066e+01 6.774070000000000391e+01 2.089114999999999782e+03
5.000000000000000278e-02 2.099234999999999851e-01 1.033990499999999990e+01 6.625714999999999577e+01 2.088864999999999782e+03
5.100000000000000366e-02 2.098610000000000197e-01 9.500659999999999883e+00 6.428610000000000468e+01 2.088465000000000146e+03
5.200000000000000455e-02 2.097799999999999943e-01 8.531819999999999737e+00 6.196719999999999828e+01 2.087934999999999945e+03
5.300000000000000544e-02 2.096850000000000103e-01 7.466109999999999580e+00 5.942835000000000178e+01 2.087309999999999945e+03
5.399999999999999939e-02 2.095805000000000029e-01 6.332444999999999879e+00 5.677384999999999593e+01 2.086619999999999891e+03
5.500000000000000028e-02 2.094699999999999895e-01 5.156295000000000073e+00 5.408330000000000126e+01 2.085894999999999982e+03
5.600000000000000117e-02 2.093570000000000153e-01 3.961605999999999739e+00 5.141729999999999734e+01 2.085139999999999873e+03
5.700000000000000205e-02 2.092434999999999989e-01 2.773325000000000262e+00 4.882690000000000197e+01 2.084389999999999873e+03
5.800000000000000294e-02 2.091330000000000133e-01 1.619399999999999729e+00 4.636360000000000525e+01 2.083659999999999854e+03
5.900000000000000383e-02 2.090279999999999916e-01 5.318400000000000905e-01 4.408650000000000091e+01 2.082954999999999927e+03
6.000000000000000472e-02 2.089310000000000056e-01 -4.535999999999998922e-01 4.206555000000000177e+01 2.082309999999999945e+03
6.099999999999999867e-02 2.088460000000000039e-01 -1.299050999999999956e+00 4.037959999999999638e+01 2.081734999999999673e+03
6.199999999999999956e-02 2.087749999999999884e-01 -1.966994499999999979e+00 3.911124999999999829e+01 2.081255000000000109e+03
6.300000000000000044e-02 2.087235000000000062e-01 -2.423274999999999846e+00 3.833894999999999698e+01 2.080895000000000437e+03
6.400000000000000133e-02 2.086925000000000030e-01 -2.640004999999999935e+00 3.812834999999999752e+01 2.080675000000000182e+03
6.500000000000000222e-02 2.086854999999999960e-01 -2.597904999999999909e+00 3.852509999999999479e+01 2.080610000000000127e+03
6.600000000000000311e-02 2.087045000000000150e-01 -2.287865000000000038e+00 3.954930000000000234e+01 2.080715000000000146e+03
6.700000000000000400e-02 2.087494999999999767e-01 -1.711516000000000037e+00 4.119344999999999857e+01 2.080989999999999782e+03
6.800000000000000488e-02 2.088205000000000200e-01 -8.809399999999999453e-01 4.342284999999999684e+01 2.081434999999999945e+03
6.900000000000000577e-02 2.089150000000000174e-01 1.824249999999998373e-01 4.617860000000000298e+01 2.082045000000000073e+03
7.000000000000000666e-02 2.090314999999999812e-01 1.449430000000000218e+00 4.938259999999999650e+01 2.082795000000000073e+03
7.100000000000000755e-02 2.091669999999999918e-01 2.885184000000000193e+00 5.294360000000000355e+01 2.083675000000000182e+03
7.200000000000000844e-02 2.093165000000000164e-01 4.451302499999999718e+00 5.676355000000000217e+01 2.084659999999999854e+03
7.300000000000000933e-02 2.094779999999999975e-01 6.108175000000000132e+00 6.074439999999999884e+01 2.085720000000000255e+03
7.399999999999999634e-02 2.096459999999999990e-01 7.817135000000000389e+00 6.479419999999998936e+01 2.086835000000000036e+03
7.499999999999999722e-02 2.098174999999999901e-01 9.542480000000001183e+00 6.883214999999999861e+01 2.087980000000000018e+03
7.599999999999999811e-02 2.099900000000000100e-01 1.125313500000000033e+01 7.279310000000000969e+01 2.089125000000000000e+03
7.699999999999999900e-02 2.101594999999999991e-01 1.292372500000000102e+01 7.662975000000000136e+01 2.090260000000000218e+03
7.799999999999999989e-02 2.103254999999999986e-01 1.453535000000000110e+01 8.031405000000000882e+01 2.091375000000000000e+03
7.900000000000000078e-02 2.104860000000000064e-01 1.607540000000000191e+01 8.383580000000000609e+01 2.092460000000000036e+03
8.000000000000000167e-02 2.106409999999999949e-01 1.753739999999999810e+01 8.720109999999999673e+01 2.093505000000000109e+03
8.100000000000000255e-02 2.107910000000000061e-01 1.891959999999999908e+01 9.042754999999999654e+01 2.094515000000000327e+03
8.200000000000000344e-02 2.109360000000000124e-01 2.022415000000000163e+01 9.354085000000000605e+01 2.095494999999999891e+03
8.300000000000000433e-02 2.110759999999999859e-01 2.145555000000000234e+01 9.656950000000000500e+01 2.096454999999999927e+03
8.400000000000000522e-02 2.112140000000000128e-01 2.261909999999999954e+01 9.954110000000000014e+01 2.097389999999999873e+03
8.500000000000000611e-02 2.113494999999999957e-01 2.372044999999999959e+01 1.024787499999999909e+02 2.098310000000000400e+03
8.600000000000000699e-02 2.114834999999999909e-01 2.476415000000000077e+01 1.053979999999999961e+02 2.099225000000000364e+03
8.700000000000000788e-02 2.116169999999999995e-01 2.575334999999999752e+01 1.083070000000000022e+02 2.100130000000000109e+03
8.800000000000000877e-02 2.117494999999999794e-01 2.668969999999999843e+01 1.112065000000000055e+02 2.101034999999999854e+03
8.899999999999999578e-02 2.118815000000000004e-01 2.757300000000000040e+01 1.140884999999999962e+02 2.101934999999999945e+03
8.999999999999999667e-02 2.120124999999999926e-01 2.840155000000000030e+01 1.169410000000000025e+02 2.102824999999999818e+03
9.099999999999999756e-02 2.121414999999999829e-01 2.917220000000000013e+01 1.197439999999999998e+02 2.103710000000000036e+03
9.199999999999999845e-02 2.122680000000000122e-01 2.988065000000000282e+01 1.224784999999999968e+02 2.104574999999999818e+03
9.299999999999999933e-02 2.123915000000000108e-01 3.052179999999999893e+01 1.251194999999999879e+02 2.105414999999999964e+03
9.400000000000000022e-02 2.125104999999999911e-01 3.108964999999999890e+01 1.276439999999999912e+02 2.106234999999999673e+03
9.500000000000000111e-02 2.126244999999999941e-01 3.157804999999999751e+01 1.300270000000000152e+02 2.107010000000000218e+03
9.600000000000000200e-02 2.127320000000000044e-01 3.198060000000000258e+01 1.322460000000000093e+02 2.107750000000000000e+03
9.700000000000000289e-02 2.128325000000000078e-01 3.229084999999999894e+01 1.342785000000000082e+02 2.108440000000000055e+03
9.800000000000000377e-02 2.129250000000000032e-01 3.250310000000000343e+01 1.361045000000000016e+02 2.109074999999999818e+03
9.900000000000000466e-02 2.130075000000000163e-01 3.261234999999999928e+01 1.377069999999999936e+02 2.109650000000000091e+03
1.000000000000000056e-01 2.130809999999999926e-01 3.261480000000000246e+01 1.390724999999999909e+02 2.110159999999999854e+03
1.010000000000000064e-01 2.131440000000000001e-01 3.250839999999999463e+01 1.401920000000000073e+02 2.110595000000000255e+03
1.020000000000000073e-01 2.131959999999999966e-01 3.229314999999999714e+01 1.410625000000000000e+02 2.110965000000000146e+03
1.030000000000000082e-01 2.132374999999999965e-01 3.197104999999999819e+01 1.416850000000000023e+02 2.111260000000000218e+03
1.040000000000000091e-01 2.132684999999999997e-01 3.154664999999999964e+01 1.420685000000000002e+02 2.111480000000000018e+03
1.050000000000000100e-01 2.132890000000000064e-01 3.102680000000000149e+01 1.422269999999999754e+02 2.111630000000000109e+03
1.059999999999999970e-01 2.133005000000000040e-01 3.042045000000000243e+01 1.421814999999999998e+02 2.111715000000000146e+03
1.069999999999999979e-01 2.133025000000000060e-01 2.973845000000000027e+01 1.419549999999999841e+02 2.111739999999999782e+03
1.079999999999999988e-01 2.132970000000000144e-01 2.899320000000000164e+01 1.415760000000000218e+02 2.111710000000000036e+03
1.089999999999999997e-01 2.132844999999999880e-01 2.819769999999999754e+01 1.410734999999999957e+02 2.111635000000000218e+03
1.100000000000000006e-01 2.132669999999999844e-01 2.736574999999999847e+01 1.404780000000000086e+02 2.111519999999999982e+03
1.110000000000000014e-01 2.132449999999999901e-01 2.651089999999999947e+01 1.398189999999999884e+02 2.111375000000000000e+03
1.120000000000000023e-01 2.132200000000000206e-01 2.564594999999999914e+01 1.391245000000000118e+02 2.111210000000000036e+03
1.130000000000000032e-01 2.131930000000000214e-01 2.478289999999999793e+01 1.384184999999999945e+02 2.111025000000000091e+03
1.140000000000000041e-01 2.131655000000000078e-01 2.393234999999999957e+01 1.377214999999999918e+02 2.110840000000000146e+03
1.150000000000000050e-01 2.131374999999999797e-01 2.310314999999999941e+01 1.370504999999999995e+02 2.110650000000000091e+03
1.160000000000000059e-01 2.131104999999999805e-01 2.230229999999999890e+01 1.364169999999999732e+02 2.110465000000000146e+03
1.170000000000000068e-01 2.130845000000000100e-01 2.153470000000000084e+01 1.358280000000000030e+02 2.110284999999999854e+03
1.180000000000000077e-01 2.130599999999999994e-01 2.080315000000000225e+01 1.352850000000000250e+02 2.110119999999999891e+03
1.190000000000000085e-01 2.130369999999999764e-01 2.010829999999999984e+01 1.347855000000000132e+02 2.109960000000000036e+03
1.200000000000000094e-01 2.130154999999999965e-01 1.944885000000000019e+01 1.343220000000000027e+02 2.109804999999999836e+03
1.209999999999999964e-01 2.129949999999999899e-01 1.882155000000000200e+01 1.338834999999999980e+02 2.109664999999999964e+03
1.219999999999999973e-01 2.129749999999999976e-01 1.822175000000000011e+01 1.334565000000000055e+02 2.109525000000000091e+03
1.229999999999999982e-01 2.129550000000000054e-01 1.764359999999999928e+01 1.330244999999999891e+02 2.109385000000000218e+03
1.239999999999999991e-01 2.129349999999999854e-01 1.708024999999999949e+01 1.325699999999999932e+02 2.109244999999999891e+03
1.250000000000000000e-01 2.129135000000000055e-01 1.652459999999999951e+01 1.320749999999999886e+02 2.109100000000000364e+03
1.260000000000000009e-01 2.128904999999999825e-01 1.596945000000000192e+01 1.315235000000000127e+02 2.108939999999999600e+03
1.270000000000000018e-01 2.128645000000000120e-01 1.540824999999999889e+01 1.308994999999999891e+02 2.108760000000000218e+03
1.280000000000000027e-01 2.128355000000000108e-01 1.483499999999999908e+01 1.301920000000000073e+02 2.108559999999999945e+03
1.290000000000000036e-01 2.128035000000000065e-01 1.424525000000000041e+01 1.293915000000000077e+02 2.108345000000000255e+03
1.300000000000000044e-01 2.127669999999999839e-01 1.363579999999999970e+01 1.284929999999999950e+02 2.108095000000000255e+03
1.310000000000000053e-01 2.127259999999999984e-01 1.300539999999999985e+01 1.274985000000000070e+02 2.107819999999999709e+03
1.320000000000000062e-01 2.126815000000000233e-01 1.235449999999999982e+01 1.264110000000000014e+02 2.107519999999999982e+03
1.330000000000000071e-01 2.126330000000000164e-01 1.168542000000000058e+01 1.252404999999999973e+02 2.107190000000000055e+03
1.340000000000000080e-01 2.125815000000000066e-01 1.100243000000000038e+01 1.240010000000000048e+02 2.106845000000000255e+03
1.350000000000000089e-01 2.125270000000000215e-01 1.031134499999999932e+01 1.227104999999999961e+02 2.106474999999999909e+03
1.360000000000000098e-01 2.124705000000000066e-01 9.619320000000000093e+00 1.213900000000000006e+02 2.106090000000000146e+03
1.370000000000000107e-01 2.124129999999999907e-01 8.934720000000000439e+00 1.200610000000000070e+02 2.105699999999999818e+03
1.380000000000000115e-01 2.123554999999999748e-01 8.266305000000000902e+00 1.187485000000000070e+02 2.105305000000000291e+03
1.390000000000000124e-01 2.122979999999999867e-01 7.623070000000000235e+00 1.174755000000000109e+02 2.104920000000000073e+03
1.400000000000000133e-01 2.122430000000000150e-01 7.013844999999999885e+00 1.162649999999999864e+02 2.104539999999999964e+03
1.410000000000000142e-01 2.121899999999999897e-01 6.446685000000000443e+00 1.151359999999999957e+02 2.104185000000000400e+03
1.420000000000000151e-01 2.121409999999999962e-01 5.928644999999999499e+00 1.141059999999999945e+02 2.103844999999999800e+03
1.430000000000000160e-01 2.120954999999999924e-01 5.465465000000000018e+00 1.131875000000000000e+02 2.103534999999999854e+03
1.440000000000000169e-01 2.120549999999999935e-01 5.061370000000000147e+00 1.123900000000000006e+02 2.103255000000000109e+03
1.450000000000000178e-01 2.120194999999999996e-01 4.718955000000000233e+00 1.117185000000000059e+02 2.103010000000000218e+03
1.459999999999999909e-01 2.119890000000000108e-01 4.439169999999999838e+00 1.111719999999999970e+02 2.102800000000000182e+03
1.469999999999999918e-01 2.119639999999999858e-01 4.221359999999999779e+00 1.107489999999999952e+02 2.102625000000000000e+03
1.479999999999999927e-01 2.119440000000000213e-01 4.063419999999999810e+00 1.104420000000000073e+02 2.102480000000000018e+03
1.489999999999999936e-01 2.119290000000000063e-01 3.961924999999999919e+00 1.102420000000000044e+02 2.102369999999999891e+03
1.499999999999999944e-01 2.119185000000000096e-01 3.912349999999999994e+00 1.101370000000000005e+02 2.102295000000000073e+03
1.509999999999999953e-01 2.119115000000000026e-01 3.909289999999999932e+00 1.101150000000000091e+02 2.102244999999999891e+03
1.519999999999999962e-01 2.119090000000000140e-01 3.946690000000000254e+00 1.101610000000000014e+02 2.102220000000000255e+03
1.529999999999999971e-01 2.119084999999999996e-01 4.018060000000000187e+00 1.102615000000000123e+02 2.102210000000000036e+03
1.539999999999999980e-01 2.119110000000000160e-01 4.116679999999999673e+00 1.104020000000000010e+02 2.102224999999999909e+03
1.549999999999999989e-01 2.119149999999999923e-01 4.235839999999999606e+00 1.105679999999999978e+02 2.102250000000000000e+03
1.559999999999999998e-01 2.119205000000000116e-01 4.368990000000000151e+00 1.107475000000000023e+02 2.102284999999999854e+03
1.570000000000000007e-01 2.119265000000000176e-01 4.509924999999999962e+00 1.109284999999999997e+02 2.102324999999999818e+03
1.580000000000000016e-01 2.119329999999999825e-01 4.652929999999999566e+00 1.111009999999999991e+02 2.102364999999999782e+03
1.590000000000000024e-01 2.119385000000000019e-01 4.792915000000000703e+00 1.112549999999999955e+02 2.102400000000000091e+03
