# t [s], A [cm^2], U [cm/s], P [cPa], c [cm/s]
1.000000000000000021e-03 5.036840000000000206e-01 3.555849999999999289e-03 9.554845000000000255e+01 1.469650000000000091e+03
2.000000000000000042e-03 5.036764999999999715e-01 -1.536436030499999843e-03 9.553024999999999523e+01 1.469644999999999982e+03
3.000000000000000062e-03 5.037049999999999583e-01 5.325074999999999947e-02 9.558009999999998740e+01 1.469660000000000082e+03
4.000000000000000083e-03 5.037494999999999612e-01 1.428045000000000009e-01 9.568475000000000819e+01 1.469694999999999936e+03
5.000000000000000104e-03 5.037559999999999816e-01 1.645085000000000020e-01 9.570980000000000132e+01 1.469699999999999818e+03
6.000000000000000125e-03 5.037209999999999743e-01 1.054670000000000052e-01 9.560740000000001260e+01 1.469680000000000064e+03
7.000000000000000146e-03 5.036804999999999755e-01 3.094299999999999828e-02 9.543510000000000559e+01 1.469639999999999873e+03
8.000000000000000167e-03 5.036395000000000177e-01 -4.935000000000000497e-02 9.521490000000000009e+01 1.469585000000000036e+03
9.000000000000001055e-03 5.035724999999999785e-01 -1.911390000000000033e-01 9.488845000000000596e+01 1.469505000000000109e+03
1.000000000000000194e-02 5.034659999999999691e-01 -4.210700000000000554e-01 9.440735000000000809e+01 1.469389999999999873e+03
1.099999999999999936e-02 5.033174999999999732e-01 -7.426150000000000251e-01 9.374219999999999686e+01 1.469219999999999800e+03
1.200000000000000025e-02 5.031155000000000488e-01 -1.168150000000000022e+00 9.285329999999999018e+01 1.469000000000000000e+03
1.300000000000000114e-02 5.028535000000000643e-01 -1.700434999999999919e+00 9.170789999999999509e+01 1.468704999999999927e+03
1.400000000000000203e-02 5.025429999999999620e-01 -2.299299999999999677e+00 9.032359999999999900e+01 1.468344999999999800e+03
1.499999999999999944e-02 5.022159999999999958e-01 -2.879979999999999762e+00 8.878340000000000032e+01 1.467930000000000064e+03
1.600000000000000033e-02 5.019080000000000208e-01 -3.344834999999999781e+00 8.720820000000000505e+01 1.467490000000000009e+03
1.700000000000000122e-02 5.016435000000000199e-01 -3.620305500000000176e+00 8.571135000000001014e+01 1.467054999999999836e+03
1.800000000000000211e-02 5.014300000000000423e-01 -3.677048500000000164e+00 8.436359999999999104e+01 1.466644999999999982e+03
1.900000000000000300e-02 5.012555000000000760e-01 -3.529715749999999819e+00 8.318045000000000755e+01 1.466259999999999991e+03
2.000000000000000042e-02 5.010999999999999899e-01 -3.223416000000000281e+00 8.212959999999999638e+01 1.465900000000000091e+03
2.100000000000000130e-02 5.009405000000000108e-01 -2.815141999999999811e+00 8.114939999999999998e+01 1.465554999999999836e+03
2.200000000000000219e-02 5.007590000000000652e-01 -2.356219499999999911e+00 8.017215000000000202e+01 1.465210000000000036e+03
2.299999999999999961e-02 5.005475000000000341e-01 -1.879830000000000112e+00 7.914494999999999436e+01 1.464855000000000018e+03
2.400000000000000050e-02 5.003064999999999873e-01 -1.396174999999999944e+00 7.804234999999999900e+01 1.464485000000000127e+03
2.500000000000000139e-02 5.000445000000000029e-01 -8.961000000000001187e-01 7.686894999999999811e+01 1.464095000000000027e+03
2.600000000000000228e-02 4.997749999999999693e-01 -3.610349999999999948e-01 7.565120000000000289e+01 1.463695000000000164e+03
2.700000000000000316e-02 4.995080000000000076e-01 2.248449999999997395e-01 7.442310000000000514e+01 1.463280000000000200e+03
2.800000000000000058e-02 4.992484999999999840e-01 8.646200000000001662e-01 7.321109999999998763e+01 1.462875000000000000e+03
2.900000000000000147e-02 4.989954999999999807e-01 1.543485000000000218e+00 7.202330000000000609e+01 1.462474999999999909e+03
3.000000000000000236e-02 4.987389999999999879e-01 2.229149999999999743e+00 7.084475000000000477e+01 1.462070000000000164e+03
3.099999999999999978e-02 4.984664999999999790e-01 2.876860000000000639e+00 6.963954999999999984e+01 1.461664999999999964e+03
3.200000000000000067e-02 4.981634999999999813e-01 3.437459999999999738e+00 6.835855000000000814e+01 1.461240000000000009e+03
3.300000000000000155e-02 4.978190000000000115e-01 3.866654999999999731e+00 6.695050000000000523e+01 1.460789999999999964e+03
3.400000000000000244e-02 4.974244999999999917e-01 4.133515000000000050e+00 6.537489999999999668e+01 1.460295000000000073e+03
3.500000000000000333e-02 4.969810000000000061e-01 4.226664999999999672e+00 6.361244999999999550e+01 1.459759999999999991e+03
3.600000000000000422e-02 4.964969999999999661e-01 4.156365000000000087e+00 6.167235000000000156e+01 1.459174999999999955e+03
3.700000000000000511e-02 4.959869999999999557e-01 3.952464999999999673e+00 5.959329999999999927e+01 1.458555000000000064e+03
3.799999999999999906e-02 4.954705000000000359e-01 3.658805000000000529e+00 5.743934999999999746e+01 1.457914999999999964e+03
3.899999999999999994e-02 4.949684999999999779e-01 3.326084999999999514e+00 5.529139999999999588e+01 1.457275000000000091e+03
4.000000000000000083e-02 4.945014999999999827e-01 3.004629999999999690e+00 5.323714999999999975e+01 1.456654999999999973e+03
4.100000000000000172e-02 4.940869999999999984e-01 2.738534999999999719e+00 5.136119999999999663e+01 1.456069999999999936e+03
4.200000000000000261e-02 4.937380000000000102e-01 2.562619999999999898e+00 4.973760000000000048e+01 1.455550000000000182e+03
4.300000000000000350e-02 4.934634999999999994e-01 2.501129999999999853e+00 4.842470000000000141e+01 1.455110000000000127e+03
4.400000000000000439e-02 4.932684999999999986e-01 2.568685000000000329e+00 4.746349999999999625e+01 1.454769999999999982e+03
4.499999999999999833e-02 4.931545000000000512e-01 2.772357050000000100e+00 4.687815000000000509e+01 1.454525000000000091e+03
4.599999999999999922e-02 4.931219999999999493e-01 3.114290000000000003e+00 4.667860000000000298e+01 1.454394999999999982e+03
4.700000000000000011e-02 4.931689999999999685e-01 3.594215000000000160e+00 4.686400000000000432e+01 1.454380000000000109e+03
4.800000000000000100e-02 4.932944999999999691e-01 4.211405000000000065e+00 4.742634999999999934e+01 1.454470000000000027e+03
4.900000000000000189e-02 4.934944999999999471e-01 4.965575000000000294e+00 4.835360000000000014e+01 1.454674999999999955e+03
5.000000000000000278e-02 4.937685000000000546e-01 5.856894999999999740e+00 4.963145000000000095e+01 1.454985000000000127e+03
5.100000000000000366e-02 4.941134999999999833e-01 6.885149999999999437e+00 5.124425000000000097e+01 1.455400000000000091e+03
5.200000000000000455e-02 4.945264999999999800e-01 8.048394999999999300e+00 5.317439999999999856e+01 1.455914999999999964e+03
5.300000000000000544e-02 4.950029999999999708e-01 9.341699999999999449e+00 5.540149999999999864e+01 1.456525000000000091e+03
5.399999999999999939e-02 4.955380000000000340e-01 1.075603000000000087e+01 5.790140000000000242e+01 1.457220000000000027e+03
5.500000000000000028e-02 4.961244999999999683e-01 1.227793000000000134e+01 6.064515000000000100e+01 1.457994999999999891e+03
5.600000000000000117e-02 4.967544999999999877e-01 1.388946500000000128e+01 6.359884999999999877e+01 1.458835000000000036e+03
5.700000000000000205e-02 4.974190000000000000e-01 1.556934499999999844e+01 6.672450000000000614e+01 1.459744999999999891e+03
5.800000000000000294e-02 4.981084999999999541e-01 1.729366999999999877e+01 6.998080000000000211e+01 1.460699999999999818e+03
5.900000000000000383e-02 4.988135000000000208e-01 1.903772500000000178e+01 7.332495000000000118e+01 1.461684999999999945e+03
6.000000000000000472e-02 4.995255000000000112e-01 2.077714999999999890e+01 7.671475000000000932e+01 1.462704999999999927e+03
6.099999999999999867e-02 5.002354999999999441e-01 2.248939999999999984e+01 8.011050000000000182e+01 1.463730000000000018e+03
6.199999999999999956e-02 5.009369999999999656e-01 2.415445000000000064e+01 8.347644999999999982e+01 1.464759999999999991e+03
6.300000000000000044e-02 5.016245000000000287e-01 2.575594999999999857e+01 8.678235000000000809e+01 1.465784999999999854e+03
6.400000000000000133e-02 5.022934999999999484e-01 2.728099999999999881e+01 9.000530000000000541e+01 1.466789999999999964e+03
6.500000000000000222e-02 5.029424999999999590e-01 2.872060000000000102e+01 9.312729999999999109e+01 1.467779999999999973e+03
6.600000000000000311e-02 5.035689999999999333e-01 3.006915000000000049e+01 9.613899999999999579e+01 1.468744999999999891e+03
6.700000000000000400e-02 5.041735000000000522e-01 3.132414999999999594e+01 9.903630000000001132e+01 1.469670000000000073e+03
6.800000000000000488e-02 5.047570000000000112e-01 3.248554999999999637e+01 1.018192499999999967e+02 1.470574999999999818e+03
6.900000000000000577e-02 5.053205000000000613e-01 3.355554999999999666e+01 1.044943499999999972e+02 1.471454999999999927e+03
7.000000000000000666e-02 5.058664999999999967e-01 3.453764999999999930e+01 1.070696999999999974e+02 1.472300000000000182e+03
7.100000000000000755e-02 5.063969999999999860e-01 3.543630000000000280e+01 1.095559999999999974e+02 1.473119999999999891e+03
7.200000000000000844e-02 5.069139999999999757e-01 3.625659999999999883e+01 1.119639999999999986e+02 1.473914999999999964e+03
7.300000000000000933e-02 5.074199999999999822e-01 3.700359999999999872e+01 1.143054999999999950e+02 1.474694999999999936e+03
7.399999999999999634e-02 5.079164999999999930e-01 3.768195000000000050e+01 1.165895000000000010e+02 1.475449999999999818e+03
7.499999999999999722e-02 5.084049999999999958e-01 3.829574999999999818e+01 1.188234999999999957e+02 1.476194999999999936e+03
7.599999999999999811e-02 5.088850000000000318e-01 3.884785000000000110e+01 1.210139999999999958e+02 1.476914999999999964e+03
7.699999999999999900e-02 5.093564999999999898e-01 3.934024999999999750e+01 1.231614999999999895e+02 1.477630000000000109e+03
7.799999999999999989e-02 5.098200000000000509e-01 3.977355000000000018e+01 1.252644999999999982e+02 1.478329999999999927e+03
7.900000000000000078e-02 5.102729999999999766e-01 4.014719999999999800e+01 1.273195000000000050e+02 1.479014999999999873e+03
8.000000000000000167e-02 5.107144999999999602e-01 4.045980000000000132e+01 1.293185000000000002e+02 1.479684999999999945e+03
8.100000000000000255e-02 5.111404999999999976e-01 4.070900000000000318e+01 1.312515000000000214e+02 1.480325000000000045e+03
8.200000000000000344e-02 5.115494999999999903e-01 4.089209999999999923e+01 1.331075000000000159e+02 1.480950000000000045e+03
8.300000000000000433e-02 5.119390000000000329e-01 4.100600000000000023e+01 1.348739999999999952e+02 1.481550000000000182e+03
8.400000000000000522e-02 5.123054999999999692e-01 4.104795000000000016e+01 1.365380000000000109e+02 1.482115000000000009e+03
8.500000000000000611e-02 5.126465000000000050e-01 4.101545000000000130e+01 1.380865000000000009e+02 1.482650000000000091e+03
8.600000000000000699e-02 5.129605000000000414e-01 4.090659999999999741e+01 1.395095000000000027e+02 1.483144999999999982e+03
8.700000000000000788e-02 5.132449999999999513e-01 4.072034999999999627e+01 1.407964999999999804e+02 1.483599999999999909e+03
8.800000000000000877e-02 5.134984999999999689e-01 4.045650000000000546e+01 1.419404999999999859e+02 1.484009999999999991e+03
8.899999999999999578e-02 5.137209999999999832e-01 4.011605000000000132e+01 1.429364999999999952e+02 1.484375000000000000e+03
8.999999999999999667e-02 5.139110000000000067e-01 3.970085000000000264e+01 1.437824999999999989e+02 1.484694999999999936e+03
9.099999999999999756e-02 5.140689999999999982e-01 3.921379999999999910e+01 1.444780000000000086e+02 1.484965000000000146e+03
9.199999999999999845e-02 5.141959999999999864e-01 3.865895000000000437e+01 1.450249999999999773e+02 1.485190000000000055e+03
9.299999999999999933e-02 5.142934999999999590e-01 3.804129999999999967e+01 1.454290000000000020e+02 1.485369999999999891e+03
9.400000000000000022e-02 5.143619999999999859e-01 3.736674999999999613e+01 1.456980000000000075e+02 1.485505000000000109e+03
9.500000000000000111e-02 5.144044999999999312e-01 3.664199999999999591e+01 1.458410000000000082e+02 1.485595000000000027e+03
9.600000000000000200e-02 5.144229999999999636e-01 3.587449999999999761e+01 1.458685000000000116e+02 1.485650000000000091e+03
9.700000000000000289e-02 5.144210000000000171e-01 3.507205000000000439e+01 1.457934999999999945e+02 1.485670000000000073e+03
9.800000000000000377e-02 5.143995000000000095e-01 3.424314999999999998e+01 1.456295000000000073e+02 1.485654999999999973e+03
9.900000000000000466e-02 5.143630000000000146e-01 3.339600000000000080e+01 1.453905000000000030e+02 1.485610000000000127e+03
1.000000000000000056e-01 5.143139999999999379e-01 3.253920000000000101e+01 1.450914999999999964e+02 1.485549999999999955e+03
1.010000000000000064e-01 5.142554999999999765e-01 3.168055000000000021e+01 1.447454999999999927e+02 1.485470000000000027e+03
1.020000000000000073e-01 5.141900000000000359e-01 3.082759999999999678e+01 1.443679999999999950e+02 1.485375000000000000e+03
1.030000000000000082e-01 5.141204999999999803e-01 2.998689999999999856e+01 1.439699999999999989e+02 1.485259999999999991e+03
1.040000000000000091e-01 5.140485000000000193e-01 2.916424999999999912e+01 1.435625000000000000e+02 1.485144999999999982e+03
1.050000000000000100e-01 5.139759999999999884e-01 2.836384999999999934e+01 1.431550000000000011e+02 1.485029999999999973e+03
1.059999999999999970e-01 5.139049999999999452e-01 2.758905000000000030e+01 1.427549999999999955e+02 1.484905000000000200e+03
1.069999999999999979e-01 5.138350000000000417e-01 2.684150000000000347e+01 1.423669999999999902e+02 1.484785000000000082e+03
1.079999999999999988e-01 5.137674999999999326e-01 2.612160000000000082e+01 1.419929999999999950e+02 1.484664999999999964e+03
1.089999999999999997e-01 5.137009999999999632e-01 2.542835000000000178e+01 1.416339999999999861e+02 1.484550000000000182e+03
1.100000000000000006e-01 5.136365000000000514e-01 2.475975000000000037e+01 1.412880000000000109e+02 1.484434999999999945e+03
1.110000000000000014e-01 5.135715000000000696e-01 2.411264999999999858e+01 1.409505000000000052e+02 1.484324999999999818e+03
1.120000000000000023e-01 5.135060000000000180e-01 2.348304999999999865e+01 1.406170000000000186e+02 1.484214999999999918e+03
1.130000000000000032e-01 5.134379999999999500e-01 2.286659999999999826e+01 1.402804999999999893e+02 1.484099999999999909e+03
1.140000000000000041e-01 5.133664999999999479e-01 2.225829999999999842e+01 1.399350000000000023e+02 1.483990000000000009e+03
1.150000000000000050e-01 5.132889999999999953e-01 2.165330000000000155e+01 1.395724999999999909e+02 1.483869999999999891e+03
1.160000000000000059e-01 5.132054999999999811e-01 2.104674999999999940e+01 1.391860000000000070e+02 1.483744999999999891e+03
1.170000000000000068e-01 5.131140000000000700e-01 2.043415000000000248e+01 1.387680000000000007e+02 1.483615000000000009e+03
1.180000000000000077e-01 5.130129999999999413e-01 1.981150000000000233e+01 1.383129999999999882e+02 1.483470000000000027e+03
1.190000000000000085e-01 5.129025000000000389e-01 1.917549999999999955e+01 1.378165000000000191e+02 1.483315000000000055e+03
1.200000000000000094e-01 5.127820000000000711e-01 1.852370000000000161e+01 1.372755000000000223e+02 1.483150000000000091e+03
1.209999999999999964e-01 5.126500000000000501e-01 1.785435000000000016e+01 1.366864999999999952e+02 1.482969999999999800e+03
1.219999999999999973e-01 5.125085000000000335e-01 1.716675000000000040e+01 1.360500000000000114e+02 1.482775000000000091e+03
1.229999999999999982e-01 5.123570000000000624e-01 1.646110000000000184e+01 1.353679999999999950e+02 1.482569999999999936e+03
1.239999999999999991e-01 5.121959999999999846e-01 1.573879999999999946e+01 1.346419999999999959e+02 1.482345000000000027e+03
1.250000000000000000e-01 5.120274999999999688e-01 1.500172999999999845e+01 1.338774999999999977e+02 1.482115000000000009e+03
1.260000000000000009e-01 5.118525000000000436e-01 1.425293500000000080e+01 1.330800000000000125e+02 1.481869999999999891e+03
1.270000000000000018e-01 5.116724999999999746e-01 1.349620499999999979e+01 1.322560000000000002e+02 1.481615000000000009e+03
1.280000000000000027e-01 5.114895000000000413e-01 1.273581500000000055e+01 1.314145000000000039e+02 1.481360000000000127e+03
1.290000000000000036e-01 5.113050000000000095e-01 1.197660499999999928e+01 1.305625000000000000e+02 1.481094999999999800e+03
1.300000000000000044e-01 5.111219999999999652e-01 1.122384500000000074e+01 1.297110000000000127e+02 1.480829999999999927e+03
1.310000000000000053e-01 5.109420000000000073e-01 1.048285500000000070e+01 1.288679999999999950e+02 1.480569999999999936e+03
1.320000000000000062e-01 5.107659999999999423e-01 9.759079999999999089e+00 1.280434999999999945e+02 1.480309999999999945e+03
1.330000000000000071e-01 5.105969999999999676e-01 9.057735000000000980e+00 1.272459999999999951e+02 1.480050000000000182e+03
1.340000000000000080e-01 5.104364999999999597e-01 8.383749999999999147e+00 1.264839999999999947e+02 1.479804999999999836e+03
1.350000000000000089e-01 5.102854999999999475e-01 7.741565000000000474e+00 1.257644999999999982e+02 1.479574999999999818e+03
1.360000000000000098e-01 5.101454999999999185e-01 7.135155000000000136e+00 1.250930000000000035e+02 1.479355000000000018e+03
1.370000000000000107e-01 5.100175000000000125e-01 6.567625000000000490e+00 1.244759999999999991e+02 1.479144999999999982e+03
1.380000000000000115e-01 5.099024999999999253e-01 6.041369999999999685e+00 1.239155000000000086e+02 1.478960000000000036e+03
1.390000000000000124e-01 5.097994999999999610e-01 5.557914999999999495e+00 1.234140000000000015e+02 1.478784999999999854e+03
1.400000000000000133e-01 5.097089999999999677e-01 5.117924999999999613e+00 1.229714999999999918e+02 1.478630000000000109e+03
1.410000000000000142e-01 5.096309999999999452e-01 4.721194999999999808e+00 1.225885000000000105e+02 1.478490000000000009e+03
1.420000000000000151e-01 5.095650000000000457e-01 4.366685000000000372e+00 1.222605000000000075e+02 1.478369999999999891e+03
1.430000000000000160e-01 5.095095000000000596e-01 4.052620000000000111e+00 1.219844999999999970e+02 1.478264999999999873e+03
1.440000000000000169e-01 5.094629999999999992e-01 3.776559999999999917e+00 1.217560000000000002e+02 1.478174999999999955e+03
1.450000000000000178e-01 5.094250000000000167e-01 3.535515000000000185e+00 1.215695000000000050e+02 1.478099999999999909e+03
1.459999999999999909e-01 5.093940000000000135e-01 3.326080000000000148e+00 1.214175000000000040e+02 1.478034999999999854e+03
1.469999999999999918e-01 5.093680000000000430e-01 3.144584999999999742e+00 1.212944999999999993e+02 1.477980000000000018e+03
1.479999999999999927e-01 5.093465000000000353e-01 2.987200000000000077e+00 1.211935000000000002e+02 1.477930000000000064e+03
1.489999999999999936e-01 5.093265000000000153e-01 2.850089999999999790e+00 1.211069999999999993e+02 1.477889999999999873e+03
1.499999999999999944e-01 5.093090000000000117e-01 2.729515000000000136e+00 1.210300000000000011e+02 1.477855000000000018e+03
1.509999999999999953e-01 5.092915000000000081e-01 2.621950000000000003e+00 1.209559999999999889e+02 1.477820000000000164e+03
1.519999999999999962e-01 5.092725000000000168e-01 2.524169999999999803e+00 1.208799999999999955e+02 1.477785000000000082e+03
1.529999999999999971e-01 5.092520000000000380e-01 2.433304999999999829e+00 1.207980000000000018e+02 1.477755000000000109e+03
1.539999999999999980e-01 5.092295000000000016e-01 2.346915000000000084e+00 1.207060000000000031e+02 1.477724999999999909e+03
1.549999999999999989e-01 5.092045000000000599e-01 2.262985000000000024e+00 1.206024999999999920e+02 1.477684999999999945e+03
1.559999999999999998e-01 5.091765000000000319e-01 2.179969999999999963e+00 1.204855000000000018e+02 1.477644999999999982e+03
1.570000000000000007e-01 5.091449999999999587e-01 2.096764999999999990e+00 1.203539999999999992e+02 1.477599999999999909e+03
1.580000000000000016e-01 5.091114999999999391e-01 2.012704999999999966e+00 1.202079999999999984e+02 1.477550000000000182e+03
1.590000000000000024e-01 5.090749999999999442e-01 1.927509999999999835e+00 1.200500000000000114e+02 1.477505000000000109e+03
