# t [s], A [cm^2], U [cm/s], P [cPa], c [cm/s]
1.000000000000000021e-03 1.800444999999999962e-01 4.083303999999999823e-01 9.853945000000000221e+01 2.184970000000000255e+03
2.000000000000000042e-03 1.799840000000000051e-01 2.078381500000000326e+00 9.464079999999999870e+01 2.184475000000000364e+03
3.000000000000000062e-03 1.798374999999999835e-01 4.117664500000000061e+00 8.930559999999999832e+01 2.183315000000000055e+03
4.000000000000000083e-03 1.796484999999999888e-01 6.417146499999999421e+00 8.381774999999998954e+01 2.181835000000000036e+03
5.000000000000000104e-03 1.794550000000000034e-01 8.858435000000000059e+00 7.920945000000000391e+01 2.180340000000000146e+03
6.000000000000000125e-03 1.792745000000000033e-01 1.116502499999999998e+01 7.552609999999999957e+01 2.178960000000000036e+03
7.000000000000000146e-03 1.791079999999999894e-01 1.310709999999999908e+01 7.228775000000000261e+01 2.177715000000000146e+03
8.000000000000000167e-03 1.789589999999999792e-01 1.468919999999999959e+01 6.939994999999998981e+01 2.176619999999999891e+03
9.000000000000001055e-03 1.788334999999999786e-01 1.597879999999999967e+01 6.702709999999999013e+01 2.175710000000000036e+03
1.000000000000000194e-02 1.787314999999999876e-01 1.700014999999999787e+01 6.517634999999999934e+01 2.174980000000000018e+03
1.099999999999999936e-02 1.786514999999999909e-01 1.777534999999999954e+01 6.377275000000000205e+01 2.174414999999999964e+03
1.200000000000000025e-02 1.785899999999999987e-01 1.831640000000000157e+01 6.270400000000000063e+01 2.173984999999999673e+03
1.300000000000000114e-02 1.785404999999999909e-01 1.863009999999999877e+01 6.180400000000000205e+01 2.173650000000000091e+03
1.400000000000000203e-02 1.785005000000000064e-01 1.879204999999999970e+01 6.104865000000000208e+01 2.173385000000000218e+03
1.499999999999999944e-02 1.784760000000000235e-01 1.898434999999999917e+01 6.076069999999999993e+01 2.173230000000000018e+03
1.600000000000000033e-02 1.784795000000000131e-01 1.941405000000000314e+01 6.148060000000000258e+01 2.173260000000000218e+03
1.700000000000000122e-02 1.785209999999999853e-01 2.017815000000000225e+01 6.355829999999999558e+01 2.173564999999999600e+03
1.800000000000000211e-02 1.786014999999999964e-01 2.118934999999999746e+01 6.681799999999999784e+01 2.174144999999999982e+03
1.900000000000000300e-02 1.787064999999999904e-01 2.221090000000000231e+01 7.054529999999999745e+01 2.174909999999999854e+03
2.000000000000000042e-02 1.788115000000000121e-01 2.296580000000000155e+01 7.377740000000000009e+01 2.175690000000000055e+03
2.100000000000000130e-02 1.788939999999999975e-01 2.325560000000000116e+01 7.570635000000000048e+01 2.176315000000000055e+03
2.200000000000000219e-02 1.789379999999999860e-01 2.303190000000000026e+01 7.598804999999998699e+01 2.176664999999999964e+03
2.299999999999999961e-02 1.789399999999999880e-01 2.239699999999999847e+01 7.482630000000000337e+01 2.176715000000000146e+03
2.400000000000000050e-02 1.789100000000000135e-01 2.154110000000000014e+01 7.282054999999999723e+01 2.176515000000000327e+03
2.500000000000000139e-02 1.788629999999999942e-01 2.065404999999999802e+01 7.067214999999998781e+01 2.176184999999999945e+03
2.600000000000000228e-02 1.788140000000000007e-01 1.985350000000000037e+01 6.889889999999999759e+01 2.175824999999999818e+03
2.700000000000000316e-02 1.787719999999999865e-01 1.915680000000000049e+01 6.767640000000000100e+01 2.175519999999999982e+03
2.800000000000000058e-02 1.787389999999999812e-01 1.849940000000000140e+01 6.684720000000000084e+01 2.175270000000000437e+03
2.900000000000000147e-02 1.787090000000000067e-01 1.778359999999999985e+01 6.606175000000000352e+01 2.175050000000000182e+03
3.000000000000000236e-02 1.786739999999999995e-01 1.693424999999999869e+01 6.497499999999999432e+01 2.174795000000000073e+03
3.099999999999999978e-02 1.786284999999999956e-01 1.594144999999999968e+01 6.341969999999999885e+01 2.174465000000000146e+03
3.200000000000000067e-02 1.785710000000000075e-01 1.487579999999999991e+01 6.149764999999999304e+01 2.174055000000000291e+03
3.300000000000000155e-02 1.785100000000000020e-01 1.387229999999999919e+01 5.956099999999999994e+01 2.173609999999999673e+03
3.400000000000000244e-02 1.784554999999999891e-01 1.308790000000000120e+01 5.809449999999999648e+01 2.173210000000000036e+03
3.500000000000000333e-02 1.784209999999999963e-01 1.265129999999999910e+01 5.754590000000000316e+01 2.172940000000000055e+03
3.600000000000000422e-02 1.784155000000000046e-01 1.262075000000000102e+01 5.816989999999999839e+01 2.172885000000000218e+03
3.700000000000000511e-02 1.784439999999999915e-01 1.296610000000000085e+01 5.993850000000000477e+01 2.173069999999999709e+03
3.799999999999999906e-02 1.785019999999999940e-01 1.357574999999999932e+01 6.254179999999999495e+01 2.173474999999999909e+03
3.899999999999999994e-02 1.785800000000000165e-01 1.428460000000000107e+01 6.546779999999999688e+01 2.174029999999999745e+03
4.000000000000000083e-02 1.786615000000000009e-01 1.491094999999999970e+01 6.812665000000001214e+01 2.174619999999999891e+03
4.100000000000000172e-02 1.787314999999999876e-01 1.529224999999999923e+01 6.997905000000000086e+01 2.175135000000000218e+03
4.200000000000000261e-02 1.787750000000000172e-01 1.531029999999999980e+01 7.063560000000001082e+01 2.175465000000000146e+03
4.300000000000000350e-02 1.787829999999999975e-01 1.490440000000000076e+01 6.990855000000000530e+01 2.175539999999999964e+03
4.400000000000000439e-02 1.787505000000000066e-01 1.406960000000000122e+01 6.781255000000000166e+01 2.175319999999999709e+03
4.499999999999999833e-02 1.786784999999999901e-01 1.284645499999999885e+01 6.452539999999999054e+01 2.174815000000000055e+03
4.599999999999999922e-02 1.785720000000000085e-01 1.130503999999999998e+01 6.032600000000000762e+01 2.174050000000000182e+03
4.700000000000000011e-02 1.784384999999999999e-01 9.529415000000000191e+00 5.553020000000000067e+01 2.173079999999999927e+03
4.800000000000000100e-02 1.782865000000000144e-01 7.605610000000000426e+00 5.043999999999999773e+01 2.171975000000000364e+03
4.900000000000000189e-02 1.781234999999999902e-01 5.614955000000000140e+00 4.531474999999999653e+01 2.170784999999999854e+03
5.000000000000000278e-02 1.779580000000000051e-01 3.632312999999999903e+00 4.036384999999999934e+01 2.169574999999999818e+03
5.100000000000000366e-02 1.777969999999999828e-01 1.727354999999999752e+00 3.575504999999999711e+01 2.168394999999999982e+03
5.200000000000000455e-02 1.776455000000000117e-01 -3.322000000000002728e-02 3.162989999999999924e+01 2.167279999999999745e+03
5.300000000000000544e-02 1.775079999999999991e-01 -1.584140000000000104e+00 2.811805000000000021e+01 2.166265000000000327e+03
5.399999999999999939e-02 1.773909999999999931e-01 -2.861871499999999902e+00 2.534519999999999840e+01 2.165394999999999982e+03
5.500000000000000028e-02 1.772974999999999968e-01 -3.807129999999999903e+00 2.343254999999999910e+01 2.164699999999999818e+03
5.600000000000000117e-02 1.772325000000000150e-01 -4.368959999999999511e+00 2.248780000000000001e+01 2.164204999999999927e+03
5.700000000000000205e-02 1.771999999999999964e-01 -4.509425000000000239e+00 2.259280000000000044e+01 2.163944999999999709e+03
5.800000000000000294e-02 1.772020000000000262e-01 -4.207739999999999370e+00 2.379014999999999702e+01 2.163930000000000291e+03
5.900000000000000383e-02 1.772394999999999943e-01 -3.462975000000000136e+00 2.607314999999999827e+01 2.164175000000000182e+03
6.000000000000000472e-02 1.773119999999999974e-01 -2.294693500000000164e+00 2.938235000000000241e+01 2.164680000000000291e+03
6.099999999999999867e-02 1.774180000000000201e-01 -7.414749999999998842e-01 3.360815000000000197e+01 2.165434999999999945e+03
6.199999999999999956e-02 1.775539999999999896e-01 1.142124999999999835e+00 3.859999999999999432e+01 2.166404999999999745e+03
6.300000000000000044e-02 1.777150000000000118e-01 3.289770000000000305e+00 4.417834999999999468e+01 2.167565000000000055e+03
6.400000000000000133e-02 1.778959999999999986e-01 5.627864999999999895e+00 5.014910000000000423e+01 2.168875000000000000e+03
6.500000000000000222e-02 1.780899999999999983e-01 8.080169999999998964e+00 5.631654999999999944e+01 2.170284999999999854e+03
6.600000000000000311e-02 1.782920000000000060e-01 1.057176000000000116e+01 6.249575000000000102e+01 2.171765000000000327e+03
6.700000000000000400e-02 1.784955000000000014e-01 1.303309499999999943e+01 6.852224999999999966e+01 2.173260000000000218e+03
6.800000000000000488e-02 1.786960000000000215e-01 1.540334999999999965e+01 7.426019999999999754e+01 2.174735000000000127e+03
6.900000000000000577e-02 1.788879999999999915e-01 1.763320000000000221e+01 7.960859999999999559e+01 2.176164999999999964e+03
7.000000000000000666e-02 1.790694999999999926e-01 1.968704999999999927e+01 8.450575000000000614e+01 2.177515000000000327e+03
7.100000000000000755e-02 1.792380000000000084e-01 2.154449999999999932e+01 8.893035000000000423e+01 2.178769999999999982e+03
7.200000000000000844e-02 1.793930000000000247e-01 2.320004999999999740e+01 9.290080000000000382e+01 2.179925000000000182e+03
7.300000000000000933e-02 1.795344999999999858e-01 2.466244999999999976e+01 9.647044999999999959e+01 2.180989999999999782e+03
7.399999999999999634e-02 1.796635000000000038e-01 2.595230000000000103e+01 9.971909999999999741e+01 2.181965000000000146e+03
7.499999999999999722e-02 1.797845000000000137e-01 2.709884999999999877e+01 1.027456499999999977e+02 2.182869999999999891e+03
7.599999999999999811e-02 1.798974999999999880e-01 2.813635000000000019e+01 1.056539999999999964e+02 2.183730000000000018e+03
7.699999999999999900e-02 1.800080000000000013e-01 2.910060000000000002e+01 1.085450000000000017e+02 2.184559999999999945e+03
7.799999999999999989e-02 1.801169999999999993e-01 3.002489999999999881e+01 1.115045000000000073e+02 2.185385000000000218e+03
7.900000000000000078e-02 1.802279999999999993e-01 3.093750000000000000e+01 1.145980000000000132e+02 2.186220000000000255e+03
8.000000000000000167e-02 1.803430000000000033e-01 3.185940000000000083e+01 1.178659999999999997e+02 2.187079999999999927e+03
8.100000000000000255e-02 1.804630000000000123e-01 3.280275000000000318e+01 1.213189999999999884e+02 2.187975000000000364e+03
8.200000000000000344e-02 1.805875000000000119e-01 3.377100000000000080e+01 1.249435000000000002e+02 2.188909999999999854e+03
8.300000000000000433e-02 1.807175000000000031e-01 3.475844999999999629e+01 1.286995000000000005e+02 2.189875000000000000e+03
8.400000000000000522e-02 1.808500000000000107e-01 3.575194999999999368e+01 1.325294999999999845e+02 2.190869999999999891e+03
8.500000000000000611e-02 1.809844999999999926e-01 3.673189999999999600e+01 1.363600000000000136e+02 2.191875000000000000e+03
8.600000000000000699e-02 1.811180000000000012e-01 3.767425000000000068e+01 1.401115000000000066e+02 2.192880000000000109e+03
8.700000000000000788e-02 1.812489999999999934e-01 3.855230000000000246e+01 1.436984999999999957e+02 2.193860000000000127e+03
8.800000000000000877e-02 1.813734999999999931e-01 3.933849999999999625e+01 1.470420000000000016e+02 2.194800000000000182e+03
8.899999999999999578e-02 1.814899999999999847e-01 4.000674999999999670e+01 1.500670000000000073e+02 2.195675000000000182e+03
8.999999999999999667e-02 1.815959999999999797e-01 4.053370000000000317e+01 1.527135000000000105e+02 2.196475000000000364e+03
9.099999999999999756e-02 1.816889999999999894e-01 4.090040000000000475e+01 1.549320000000000164e+02 2.197184999999999945e+03
9.199999999999999845e-02 1.817684999999999995e-01 4.109319999999999595e+01 1.566935000000000002e+02 2.197789999999999964e+03
9.299999999999999933e-02 1.818325000000000080e-01 4.110500000000000398e+01 1.579839999999999804e+02 2.198279999999999745e+03
9.400000000000000022e-02 1.818815000000000015e-01 4.093510000000000559e+01 1.588079999999999927e+02 2.198654999999999745e+03
9.500000000000000111e-02 1.819149999999999934e-01 4.058960000000000434e+01 1.591885000000000048e+02 2.198920000000000073e+03
9.600000000000000200e-02 1.819334999999999980e-01 4.008075000000000188e+01 1.591620000000000061e+02 2.199070000000000164e+03
9.700000000000000289e-02 1.819385000000000030e-01 3.942634999999999934e+01 1.587785000000000082e+02 2.199119999999999891e+03
9.800000000000000377e-02 1.819315000000000238e-01 3.864860000000000184e+01 1.580969999999999800e+02 2.199085000000000036e+03
9.900000000000000466e-02 1.819145000000000068e-01 3.777275000000000205e+01 1.571835000000000093e+02 2.198965000000000146e+03
1.000000000000000056e-01 1.818894999999999817e-01 3.682600000000000051e+01 1.561055000000000064e+02 2.198789999999999964e+03
1.010000000000000064e-01 1.818585000000000063e-01 3.583585000000000065e+01 1.549300000000000068e+02 2.198559999999999945e+03
1.020000000000000073e-01 1.818239999999999856e-01 3.482914999999999850e+01 1.537199999999999989e+02 2.198304999999999836e+03
1.030000000000000082e-01 1.817874999999999908e-01 3.383059999999999690e+01 1.525310000000000059e+02 2.198034999999999854e+03
1.040000000000000091e-01 1.817509999999999959e-01 3.286164999999999736e+01 1.514095000000000084e+02 2.197764999999999873e+03
1.050000000000000100e-01 1.817159999999999886e-01 3.194004999999999939e+01 1.503924999999999841e+02 2.197500000000000000e+03
1.059999999999999970e-01 1.816834999999999978e-01 3.107884999999999920e+01 1.495039999999999907e+02 2.197260000000000218e+03
1.069999999999999979e-01 1.816544999999999965e-01 3.028625000000000256e+01 1.487560000000000002e+02 2.197039999999999964e+03
1.079999999999999988e-01 1.816300000000000137e-01 2.956524999999999892e+01 1.481474999999999795e+02 2.196849999999999909e+03
1.089999999999999997e-01 1.816085000000000060e-01 2.891380000000000194e+01 1.476670000000000016e+02 2.196684999999999945e+03
1.100000000000000006e-01 1.815915000000000168e-01 2.832529999999999859e+01 1.472909999999999968e+02 2.196550000000000182e+03
1.110000000000000014e-01 1.815769999999999884e-01 2.778920000000000101e+01 1.469875000000000114e+02 2.196435000000000400e+03
1.120000000000000023e-01 1.815644999999999898e-01 2.729149999999999920e+01 1.467174999999999727e+02 2.196340000000000146e+03
1.130000000000000032e-01 1.815529999999999922e-01 2.681609999999999872e+01 1.464395000000000095e+02 2.196244999999999891e+03
1.140000000000000041e-01 1.815410000000000079e-01 2.634570000000000078e+01 1.461069999999999993e+02 2.196154999999999745e+03
1.150000000000000050e-01 1.815269999999999939e-01 2.586305000000000121e+01 1.456784999999999854e+02 2.196045000000000073e+03
1.160000000000000059e-01 1.815094999999999903e-01 2.535190000000000055e+01 1.451154999999999973e+02 2.195914999999999964e+03
1.170000000000000068e-01 1.814880000000000104e-01 2.479834999999999923e+01 1.443859999999999957e+02 2.195755000000000109e+03
1.180000000000000077e-01 1.814609999999999834e-01 2.419140000000000157e+01 1.434675000000000011e+02 2.195550000000000182e+03
1.190000000000000085e-01 1.814274999999999916e-01 2.352394999999999925e+01 1.423480000000000132e+02 2.195305000000000291e+03
1.200000000000000094e-01 1.813879999999999937e-01 2.279319999999999879e+01 1.410260000000000105e+02 2.195010000000000218e+03
1.209999999999999964e-01 1.813420000000000032e-01 2.200079999999999814e+01 1.395130000000000052e+02 2.194670000000000073e+03
1.219999999999999973e-01 1.812900000000000067e-01 2.115290000000000248e+01 1.378319999999999936e+02 2.194279999999999745e+03
1.229999999999999982e-01 1.812325000000000186e-01 2.025959999999999894e+01 1.360155000000000030e+02 2.193855000000000018e+03
1.239999999999999991e-01 1.811709999999999987e-01 1.933474999999999966e+01 1.341019999999999754e+02 2.193399999999999636e+03
1.250000000000000000e-01 1.811065000000000036e-01 1.839470000000000027e+01 1.321399999999999864e+02 2.192914999999999964e+03
1.260000000000000009e-01 1.810399999999999787e-01 1.745759999999999934e+01 1.301779999999999973e+02 2.192420000000000073e+03
1.270000000000000018e-01 1.809735000000000094e-01 1.654244999999999877e+01 1.282655000000000030e+02 2.191930000000000291e+03
1.280000000000000027e-01 1.809089999999999865e-01 1.566769999999999996e+01 1.264515000000000100e+02 2.191440000000000055e+03
1.290000000000000036e-01 1.808470000000000077e-01 1.485084999999999944e+01 1.247785000000000082e+02 2.190980000000000018e+03
1.300000000000000044e-01 1.807905000000000206e-01 1.410689999999999955e+01 1.232819999999999965e+02 2.190550000000000182e+03
1.310000000000000053e-01 1.807385000000000241e-01 1.344819999999999993e+01 1.219909999999999997e+02 2.190164999999999964e+03
1.320000000000000062e-01 1.806939999999999935e-01 1.288364999999999938e+01 1.209240000000000066e+02 2.189819999999999709e+03
1.330000000000000071e-01 1.806559999999999833e-01 1.241854999999999976e+01 1.200889999999999986e+02 2.189534999999999854e+03
1.340000000000000080e-01 1.806260000000000088e-01 1.205444999999999922e+01 1.194874999999999972e+02 2.189300000000000182e+03
1.350000000000000089e-01 1.806030000000000135e-01 1.178924999999999912e+01 1.191090000000000089e+02 2.189125000000000000e+03
1.360000000000000098e-01 1.805869999999999975e-01 1.161765000000000114e+01 1.189360000000000070e+02 2.189000000000000000e+03
1.370000000000000107e-01 1.805784999999999751e-01 1.153140000000000143e+01 1.189465000000000003e+02 2.188930000000000291e+03
1.380000000000000115e-01 1.805760000000000143e-01 1.152005000000000123e+01 1.191109999999999900e+02 2.188904999999999745e+03
1.390000000000000124e-01 1.805780000000000163e-01 1.157135000000000069e+01 1.193994999999999891e+02 2.188914999999999964e+03
1.400000000000000133e-01 1.805849999999999955e-01 1.167205000000000048e+01 1.197789999999999964e+02 2.188954999999999927e+03
1.410000000000000142e-01 1.805950000000000055e-01 1.180845000000000056e+01 1.202169999999999987e+02 2.189024999999999636e+03
1.420000000000000151e-01 1.806070000000000175e-01 1.196679999999999922e+01 1.206810000000000116e+02 2.189114999999999782e+03
1.430000000000000160e-01 1.806200000000000028e-01 1.213429999999999964e+01 1.211440000000000055e+02 2.189210000000000036e+03
1.440000000000000169e-01 1.806335000000000024e-01 1.229909999999999926e+01 1.215799999999999983e+02 2.189305000000000291e+03
1.450000000000000178e-01 1.806470000000000020e-01 1.245090000000000074e+01 1.219679999999999893e+02 2.189399999999999636e+03
1.459999999999999909e-01 1.806584999999999996e-01 1.258129999999999882e+01 1.222920000000000016e+02 2.189489999999999782e+03
1.469999999999999918e-01 1.806685000000000096e-01 1.268374999999999986e+01 1.225399999999999920e+02 2.189565000000000055e+03
1.479999999999999927e-01 1.806760000000000033e-01 1.275399999999999956e+01 1.227074999999999960e+02 2.189619999999999891e+03
1.489999999999999936e-01 1.806814999999999949e-01 1.278999999999999915e+01 1.227920000000000016e+02 2.189664999999999964e+03
1.499999999999999944e-01 1.806845000000000256e-01 1.279159999999999897e+01 1.227980000000000018e+02 2.189684999999999945e+03
1.509999999999999953e-01 1.806844999999999979e-01 1.276069999999999993e+01 1.227334999999999923e+02 2.189695000000000164e+03
1.519999999999999962e-01 1.806834999999999969e-01 1.270090000000000074e+01 1.226094999999999970e+02 2.189685000000000400e+03
1.529999999999999971e-01 1.806794999999999929e-01 1.261700000000000088e+01 1.224405000000000001e+02 2.189659999999999854e+03
1.539999999999999980e-01 1.806745000000000156e-01 1.251480000000000103e+01 1.222410000000000139e+02 2.189625000000000000e+03
1.549999999999999989e-01 1.806689999999999963e-01 1.240064999999999884e+01 1.220280000000000058e+02 2.189579999999999927e+03
1.559999999999999998e-01 1.806625000000000036e-01 1.228089999999999904e+01 1.218164999999999907e+02 2.189539999999999964e+03
1.570000000000000007e-01 1.806564999999999976e-01 1.216169999999999973e+01 1.216204999999999927e+02 2.189489999999999782e+03
1.580000000000000016e-01 1.806500000000000050e-01 1.204840000000000089e+01 1.214515000000000100e+02 2.189449999999999818e+03
1.590000000000000024e-01 1.806455000000000144e-01 1.194555000000000078e+01 1.213190000000000026e+02 2.189409999999999854e+03
