# t [s], A [cm^2], U [cm/s], P [cPa], c [cm/s]
1.000000000000000021e-03 6.778345000000000065e-01 5.805000000000004601e-03 1.034265000000000043e+02 1.735610000000000127e+03
2.000000000000000042e-03 6.778284999999999449e-01 7.385550000000000274e-03 1.033985000000000127e+02 1.735599999999999909e+03
3.000000000000000062e-03 6.779060000000000086e-01 1.511286499999999755e-01 1.035665000000000049e+02 1.735634999999999991e+03
4.000000000000000083e-03 6.779344999999999954e-01 2.268670000000000131e-01 1.036555000000000035e+02 1.735655000000000200e+03
5.000000000000000104e-03 6.778634999999999522e-01 1.302065000000000028e-01 1.034470000000000027e+02 1.735619999999999891e+03
6.000000000000000125e-03 6.777819999999999956e-01 3.327000000000024382e-03 1.030884999999999962e+02 1.735549999999999955e+03
7.000000000000000146e-03 6.776849999999999818e-01 -1.661749999999999616e-01 1.025970000000000084e+02 1.735454999999999927e+03
8.000000000000000167e-03 6.775074999999999292e-01 -5.019950000000000800e-01 1.017999999999999972e+02 1.735300000000000182e+03
9.000000000000001055e-03 6.772449999999999859e-01 -1.009300000000000086e+00 1.006281999999999925e+02 1.735079999999999927e+03
1.000000000000000194e-02 6.768819999999999837e-01 -1.703280000000000349e+00 9.900610000000000355e+01 1.734759999999999991e+03
1.099999999999999936e-02 6.763945000000000096e-01 -2.601509999999999767e+00 9.684555000000000291e+01 1.734329999999999927e+03
1.200000000000000025e-02 6.758239999999999803e-01 -3.597910000000000164e+00 9.422724999999999795e+01 1.733804999999999836e+03
1.300000000000000114e-02 6.752709999999999546e-01 -4.463548499999999919e+00 9.145654999999999291e+01 1.733224999999999909e+03
1.400000000000000203e-02 6.748300000000000409e-01 -4.979163500000000298e+00 8.890264999999999418e+01 1.732659999999999854e+03
1.499999999999999944e-02 6.745309999999999917e-01 -5.048985000000000056e+00 8.680780000000000030e+01 1.732159999999999854e+03
1.600000000000000033e-02 6.743379999999999930e-01 -4.721165000000000056e+00 8.519989999999999952e+01 1.731744999999999891e+03
1.700000000000000122e-02 6.741800000000000015e-01 -4.138614999999999711e+00 8.392230000000000700e+01 1.731384999999999991e+03
1.800000000000000211e-02 6.739840000000000275e-01 -3.464760000000000062e+00 8.272990000000000066e+01 1.731045000000000073e+03
1.900000000000000300e-02 6.737070000000000558e-01 -2.816225499999999826e+00 8.140340000000000487e+01 1.730690000000000055e+03
2.000000000000000042e-02 6.733489999999999753e-01 -2.226500000000000146e+00 7.983535000000000537e+01 1.730295000000000073e+03
2.100000000000000130e-02 6.729414999999999702e-01 -1.654519999999999991e+00 7.805124999999999602e+01 1.729865000000000009e+03
2.200000000000000219e-02 6.725295000000000023e-01 -1.030005000000000059e+00 7.616370000000000573e+01 1.729409999999999854e+03
2.299999999999999961e-02 6.721420000000000172e-01 -3.070499999999998231e-01 7.429155000000000086e+01 1.728945000000000164e+03
2.400000000000000050e-02 6.717805000000000026e-01 5.006599999999998829e-01 7.248879999999999768e+01 1.728494999999999891e+03
2.500000000000000139e-02 6.714154999999999429e-01 1.313739999999999908e+00 7.070924999999999727e+01 1.728045000000000073e+03
2.600000000000000228e-02 6.710004999999999997e-01 2.006199999999999761e+00 6.881419999999999959e+01 1.727574999999999818e+03
2.700000000000000316e-02 6.704840000000000799e-01 2.440275000000000194e+00 6.661334999999999695e+01 1.727054999999999836e+03
2.800000000000000058e-02 6.698290000000000077e-01 2.506220000000000336e+00 6.392589999999999861e+01 1.726445000000000164e+03
2.900000000000000147e-02 6.690260000000000096e-01 2.155429999999999513e+00 6.064405000000000001e+01 1.725719999999999800e+03
3.000000000000000236e-02 6.680960000000000232e-01 1.416150000000000020e+00 5.677649999999999864e+01 1.724875000000000000e+03
3.099999999999999978e-02 6.670899999999999608e-01 3.859499999999993491e-01 5.245815000000000339e+01 1.723940000000000055e+03
3.200000000000000067e-02 6.660725000000000673e-01 -7.945999999999999730e-01 4.792334999999999923e+01 1.722954999999999927e+03
3.300000000000000155e-02 6.651114999999999666e-01 -1.975064999999999849e+00 4.345714999999999861e+01 1.721960000000000036e+03
3.400000000000000244e-02 6.642635000000000067e-01 -3.023420000000000218e+00 3.934205000000000041e+01 1.721019999999999982e+03
3.500000000000000333e-02 6.635670000000000179e-01 -3.843084999999999862e+00 3.581534999999999513e+01 1.720184999999999945e+03
3.600000000000000422e-02 6.630439999999999667e-01 -4.377584999999999837e+00 3.304449999999999932e+01 1.719500000000000000e+03
3.700000000000000511e-02 6.627004999999999146e-01 -4.605464500000000072e+00 3.111999999999999744e+01 1.718985000000000127e+03
3.799999999999999906e-02 6.625315000000000509e-01 -4.529689999999999550e+00 3.006414999999999793e+01 1.718650000000000091e+03
3.899999999999999994e-02 6.625244999999999607e-01 -4.165440000000000254e+00 2.984880000000000422e+01 1.718505000000000109e+03
4.000000000000000083e-02 6.626674999999999649e-01 -3.529920000000000169e+00 3.041694999999999993e+01 1.718534999999999854e+03
4.100000000000000172e-02 6.629484999999999406e-01 -2.636705000000000076e+00 3.170035000000000025e+01 1.718730000000000018e+03
4.200000000000000261e-02 6.633565000000000156e-01 -1.495414999999999939e+00 3.363119999999999976e+01 1.719075000000000045e+03
4.300000000000000350e-02 6.638819999999999721e-01 -1.155450000000000088e-01 3.614410000000000167e+01 1.719565000000000055e+03
4.400000000000000439e-02 6.645119999999999916e-01 1.487865000000000215e+00 3.917300000000000182e+01 1.720170000000000073e+03
4.499999999999999833e-02 6.652325000000000044e-01 3.289425000000000043e+00 4.264525000000000432e+01 1.720894999999999982e+03
4.599999999999999922e-02 6.660239999999999494e-01 5.251265000000000072e+00 4.647700000000000387e+01 1.721700000000000045e+03
4.700000000000000011e-02 6.668644999999999712e-01 7.324160000000000004e+00 5.057180000000000319e+01 1.722579999999999927e+03
4.800000000000000100e-02 6.677305000000000046e-01 9.451285999999999632e+00 5.482375000000000398e+01 1.723509999999999991e+03
4.900000000000000189e-02 6.685965000000000380e-01 1.157388499999999887e+01 5.912425000000000352e+01 1.724465000000000146e+03
5.000000000000000278e-02 6.694439999999999280e-01 1.363672000000000040e+01 6.337004999999999910e+01 1.725420000000000073e+03
5.100000000000000366e-02 6.702540000000000164e-01 1.559292499999999926e+01 6.747175000000000011e+01 1.726360000000000127e+03
5.200000000000000455e-02 6.710164999999999047e-01 1.740729999999999933e+01 7.136045000000000016e+01 1.727269999999999982e+03
5.300000000000000544e-02 6.717250000000000165e-01 1.905760000000000076e+01 7.499160000000000537e+01 1.728130000000000109e+03
5.399999999999999939e-02 6.723784999999999901e-01 2.053399999999999892e+01 7.834590000000000032e+01 1.728940000000000055e+03
5.500000000000000028e-02 6.729810000000000514e-01 2.183769999999999811e+01 8.142780000000000484e+01 1.729695000000000164e+03
5.600000000000000117e-02 6.735389999999999988e-01 2.297889999999999944e+01 8.426160000000000139e+01 1.730400000000000091e+03
5.700000000000000205e-02 6.740630000000000788e-01 2.397424999999999784e+01 8.688694999999999879e+01 1.731050000000000182e+03
5.800000000000000294e-02 6.745630000000000237e-01 2.484499999999999886e+01 8.935374999999999091e+01 1.731674999999999955e+03
5.900000000000000383e-02 6.750495000000000800e-01 2.561525000000000318e+01 9.171755000000000280e+01 1.732264999999999873e+03
6.000000000000000472e-02 6.755344999999999267e-01 2.630985000000000085e+01 9.403454999999999586e+01 1.732845000000000027e+03
6.099999999999999867e-02 6.760275000000000034e-01 2.695299999999999940e+01 9.635745000000000005e+01 1.733420000000000073e+03
6.199999999999999956e-02 6.765364999999999851e-01 2.756620000000000203e+01 9.873214999999999009e+01 1.734000000000000000e+03
6.300000000000000044e-02 6.770680000000000032e-01 2.816675000000000040e+01 1.011915500000000065e+02 1.734590000000000146e+03
6.400000000000000133e-02 6.776240000000000041e-01 2.876604999999999990e+01 1.037557500000000061e+02 1.735204999999999927e+03
6.500000000000000222e-02 6.782025000000000414e-01 2.936890000000000001e+01 1.064279999999999973e+02 1.735845000000000027e+03
6.600000000000000311e-02 6.788004999999999178e-01 2.997319999999999851e+01 1.091959999999999980e+02 1.736494999999999891e+03
6.700000000000000400e-02 6.794099999999999584e-01 3.057000000000000028e+01 1.120300000000000011e+02 1.737164999999999964e+03
6.800000000000000488e-02 6.800204999999999167e-01 3.114549999999999841e+01 1.148880000000000052e+02 1.737845000000000027e+03
6.900000000000000577e-02 6.806214999999999904e-01 3.168175000000000097e+01 1.177199999999999989e+02 1.738519999999999982e+03
7.000000000000000666e-02 6.812009999999999454e-01 3.215914999999999679e+01 1.204705000000000013e+02 1.739179999999999836e+03
7.100000000000000755e-02 6.817480000000000206e-01 3.255799999999999983e+01 1.230810000000000031e+02 1.739809999999999945e+03
7.200000000000000844e-02 6.822509999999999408e-01 3.285994999999999777e+01 1.255005000000000024e+02 1.740405000000000200e+03
7.300000000000000933e-02 6.827019999999999200e-01 3.304975000000000307e+01 1.276810000000000116e+02 1.740945000000000164e+03
7.399999999999999634e-02 6.830939999999999790e-01 3.311565000000000225e+01 1.295875000000000057e+02 1.741434999999999945e+03
7.499999999999999722e-02 6.834234999999999616e-01 3.305039999999999623e+01 1.311940000000000168e+02 1.741855000000000018e+03
7.599999999999999811e-02 6.836884999999999213e-01 3.285144999999999982e+01 1.324875000000000114e+02 1.742200000000000045e+03
7.699999999999999900e-02 6.838895000000000390e-01 3.252109999999999701e+01 1.334669999999999845e+02 1.742485000000000127e+03
7.799999999999999989e-02 6.840295000000000680e-01 3.206605000000000416e+01 1.341435000000000173e+02 1.742690000000000055e+03
7.900000000000000078e-02 6.841135000000000410e-01 3.149739999999999895e+01 1.345374999999999943e+02 1.742835000000000036e+03
8.000000000000000167e-02 6.841475000000000195e-01 3.082975000000000065e+01 1.346790000000000020e+02 1.742914999999999964e+03
8.100000000000000255e-02 6.841405000000000403e-01 3.008094999999999786e+01 1.346050000000000182e+02 1.742945000000000164e+03
8.200000000000000344e-02 6.840999999999999304e-01 2.927064999999999984e+01 1.343574999999999875e+02 1.742929999999999836e+03
8.300000000000000433e-02 6.840360000000000884e-01 2.841969999999999885e+01 1.339799999999999898e+02 1.742880000000000109e+03
8.400000000000000522e-02 6.839565000000000783e-01 2.754910000000000281e+01 1.335174999999999841e+02 1.742799999999999955e+03
8.500000000000000611e-02 6.838710000000000067e-01 2.667889999999999873e+01 1.330130000000000052e+02 1.742704999999999927e+03
8.600000000000000699e-02 6.837860000000000049e-01 2.582710000000000150e+01 1.325054999999999836e+02 1.742599999999999909e+03
8.700000000000000788e-02 6.837079999999999824e-01 2.500900000000000034e+01 1.320269999999999868e+02 1.742500000000000000e+03
8.800000000000000877e-02 6.836415000000000131e-01 2.423644999999999783e+01 1.316030000000000086e+02 1.742404999999999973e+03
8.899999999999999578e-02 6.835894999999999611e-01 2.351725000000000065e+01 1.312514999999999930e+02 1.742320000000000164e+03
8.999999999999999667e-02 6.835535000000000361e-01 2.285519999999999996e+01 1.309809999999999945e+02 1.742255000000000109e+03
9.099999999999999756e-02 6.835314999999999586e-01 2.225000000000000000e+01 1.307914999999999850e+02 1.742199999999999818e+03
9.199999999999999845e-02 6.835225000000000328e-01 2.169765000000000299e+01 1.306750000000000114e+02 1.742160000000000082e+03
9.299999999999999933e-02 6.835229999999999917e-01 2.119089999999999918e+01 1.306175000000000068e+02 1.742139999999999873e+03
9.400000000000000022e-02 6.835275000000000656e-01 2.071979999999999933e+01 1.305980000000000132e+02 1.742125000000000000e+03
9.500000000000000111e-02 6.835320000000000285e-01 2.027254999999999896e+01 1.305935000000000059e+02 1.742115000000000009e+03
9.600000000000000200e-02 6.835309999999999997e-01 1.983624999999999972e+01 1.305765000000000100e+02 1.742105000000000018e+03
9.700000000000000289e-02 6.835180000000000700e-01 1.939760000000000062e+01 1.305199999999999818e+02 1.742085000000000036e+03
9.800000000000000377e-02 6.834894999999999721e-01 1.894395000000000095e+01 1.304000000000000057e+02 1.742055000000000064e+03
9.900000000000000466e-02 6.834400000000000475e-01 1.846395000000000053e+01 1.301914999999999907e+02 1.742009999999999991e+03
1.000000000000000056e-01 6.833664999999999878e-01 1.794810000000000016e+01 1.298770000000000095e+02 1.741940000000000055e+03
1.010000000000000064e-01 6.832679999999999865e-01 1.738970000000000127e+01 1.294429999999999836e+02 1.741845000000000027e+03
1.020000000000000073e-01 6.831414999999999571e-01 1.678504999999999825e+01 1.288830000000000098e+02 1.741730000000000018e+03
1.030000000000000082e-01 6.829899999999999860e-01 1.613374999999999915e+01 1.281970000000000027e+02 1.741579999999999927e+03
1.040000000000000091e-01 6.828144999999999909e-01 1.543890000000000029e+01 1.273925000000000125e+02 1.741404999999999973e+03
1.050000000000000100e-01 6.826189999999999758e-01 1.470674999999999955e+01 1.264835000000000065e+02 1.741210000000000036e+03
1.059999999999999970e-01 6.824075000000000557e-01 1.394676000000000116e+01 1.254904999999999973e+02 1.740990000000000009e+03
1.069999999999999979e-01 6.821859999999999591e-01 1.317058499999999910e+01 1.244380000000000024e+02 1.740755000000000109e+03
1.079999999999999988e-01 6.819614999999999982e-01 1.239185499999999962e+01 1.233559999999999945e+02 1.740509999999999991e+03
1.089999999999999997e-01 6.817389999999999839e-01 1.162542499999999990e+01 1.222745000000000033e+02 1.740264999999999873e+03
1.100000000000000006e-01 6.815269999999999939e-01 1.088616999999999990e+01 1.212264999999999873e+02 1.740025000000000091e+03
1.110000000000000014e-01 6.813294999999999213e-01 1.018866000000000049e+01 1.202419999999999902e+02 1.739789999999999964e+03
1.120000000000000023e-01 6.811540000000000372e-01 9.546124999999999972e+00 1.193489999999999895e+02 1.739579999999999927e+03
1.130000000000000032e-01 6.810030000000000250e-01 8.969834999999999781e+00 1.185709999999999980e+02 1.739384999999999991e+03
1.140000000000000041e-01 6.808810000000000695e-01 8.468434999999999491e+00 1.179259999999999877e+02 1.739215000000000146e+03
1.150000000000000050e-01 6.807894999999999364e-01 8.047935000000000727e+00 1.174269999999999925e+02 1.739085000000000036e+03
1.160000000000000059e-01 6.807289999999999175e-01 7.711019999999999541e+00 1.170780000000000030e+02 1.738980000000000018e+03
1.170000000000000068e-01 6.806989999999999430e-01 7.457375000000000753e+00 1.168795000000000073e+02 1.738914999999999964e+03
1.180000000000000077e-01 6.806969999999999965e-01 7.283730000000000260e+00 1.168230000000000075e+02 1.738875000000000000e+03
1.190000000000000085e-01 6.807199999999999918e-01 7.184160000000000323e+00 1.168960000000000008e+02 1.738869999999999891e+03
1.200000000000000094e-01 6.807650000000000645e-01 7.150565000000000282e+00 1.170825000000000102e+02 1.738894999999999982e+03
1.209999999999999964e-01 6.808265000000000011e-01 7.173159999999999314e+00 1.173610000000000042e+02 1.738934999999999945e+03
1.219999999999999973e-01 6.809004999999999086e-01 7.241039999999999921e+00 1.177090000000000032e+02 1.738994999999999891e+03
1.229999999999999982e-01 6.809819999999999762e-01 7.342755000000000365e+00 1.181045000000000016e+02 1.739075000000000045e+03
1.239999999999999991e-01 6.810665000000000191e-01 7.466829999999999856e+00 1.185240000000000009e+02 1.739154999999999973e+03
1.250000000000000000e-01 6.811499999999999222e-01 7.602240000000000109e+00 1.189465000000000003e+02 1.739244999999999891e+03
1.260000000000000009e-01 6.812285000000000146e-01 7.738859999999999850e+00 1.193530000000000086e+02 1.739329999999999927e+03
1.270000000000000018e-01 6.813000000000000167e-01 7.867734999999999701e+00 1.197274999999999920e+02 1.739409999999999854e+03
1.280000000000000027e-01 6.813609999999999944e-01 7.981379999999999697e+00 1.200570000000000022e+02 1.739490000000000009e+03
1.290000000000000036e-01 6.814109999999999889e-01 8.073914999999999509e+00 1.203334999999999866e+02 1.739559999999999945e+03
1.300000000000000044e-01 6.814485000000000126e-01 8.141169999999998907e+00 1.205515000000000043e+02 1.739610000000000127e+03
1.310000000000000053e-01 6.814744999999999830e-01 8.180649999999999977e+00 1.207090000000000032e+02 1.739650000000000091e+03
1.320000000000000062e-01 6.814884999999999415e-01 8.191535000000000011e+00 1.208075000000000045e+02 1.739679999999999836e+03
1.330000000000000071e-01 6.814919999999999867e-01 8.174514999999999532e+00 1.208505000000000109e+02 1.739700000000000045e+03
1.340000000000000080e-01 6.814864999999999950e-01 8.131634999999999280e+00 1.208455000000000013e+02 1.739704999999999927e+03
1.350000000000000089e-01 6.814744999999999830e-01 8.066084999999999283e+00 1.208010000000000019e+02 1.739704999999999927e+03
1.360000000000000098e-01 6.814564999999999095e-01 7.981944999999999624e+00 1.207249999999999943e+02 1.739690000000000055e+03
1.370000000000000107e-01 6.814359999999999307e-01 7.883899999999999686e+00 1.206299999999999955e+02 1.739679999999999836e+03
1.380000000000000115e-01 6.814145000000000341e-01 7.776965000000000572e+00 1.205250000000000057e+02 1.739654999999999973e+03
1.390000000000000124e-01 6.813940000000000552e-01 7.666179999999999772e+00 1.204205000000000041e+02 1.739639999999999873e+03
1.400000000000000133e-01 6.813770000000000104e-01 7.556324999999999292e+00 1.203259999999999934e+02 1.739619999999999891e+03
1.410000000000000142e-01 6.813639999999999697e-01 7.451665000000000205e+00 1.202485000000000070e+02 1.739605000000000018e+03
1.420000000000000151e-01 6.813559999999999617e-01 7.355755000000000265e+00 1.201930000000000121e+02 1.739595000000000027e+03
1.430000000000000160e-01 6.813545000000000851e-01 7.271264999999999645e+00 1.201649999999999920e+02 1.739585000000000036e+03
1.440000000000000169e-01 6.813579999999999082e-01 7.199899999999999523e+00 1.201645000000000039e+02 1.739585000000000036e+03
1.450000000000000178e-01 6.813679999999999737e-01 7.142355000000000231e+00 1.201920000000000073e+02 1.739590000000000146e+03
1.459999999999999909e-01 6.813830000000000719e-01 7.098390000000000200e+00 1.202445000000000022e+02 1.739595000000000027e+03
1.469999999999999918e-01 6.814014999999999933e-01 7.066930000000000156e+00 1.203180000000000121e+02 1.739614999999999782e+03
1.479999999999999927e-01 6.814225000000000421e-01 7.046200000000000685e+00 1.204069999999999965e+02 1.739630000000000109e+03
1.489999999999999936e-01 6.814450000000000784e-01 7.033924999999999983e+00 1.205049999999999955e+02 1.739654999999999973e+03
1.499999999999999944e-01 6.814670000000000449e-01 7.027569999999999872e+00 1.206055000000000064e+02 1.739674999999999955e+03
1.509999999999999953e-01 6.814879999999999827e-01 7.024510000000000254e+00 1.207025000000000006e+02 1.739694999999999936e+03
1.519999999999999962e-01 6.815059999999999452e-01 7.022225000000000605e+00 1.207890000000000015e+02 1.739715000000000146e+03
1.529999999999999971e-01 6.815210000000000434e-01 7.018494999999999706e+00 1.208610000000000042e+02 1.739730000000000018e+03
1.539999999999999980e-01 6.815314999999999568e-01 7.011515000000000164e+00 1.209140000000000015e+02 1.739744999999999891e+03
1.549999999999999989e-01 6.815370000000000594e-01 6.999965000000000437e+00 1.209465000000000003e+02 1.739755000000000109e+03
1.559999999999999998e-01 6.815379999999999772e-01 6.983100000000000307e+00 1.209565000000000055e+02 1.739755000000000109e+03
1.570000000000000007e-01 6.815344999999999320e-01 6.960734999999999673e+00 1.209449999999999932e+02 1.739755000000000109e+03
1.580000000000000016e-01 6.815274999999999528e-01 6.933244999999999436e+00 1.209145000000000039e+02 1.739750000000000000e+03
1.590000000000000024e-01 6.815169999999999284e-01 6.901535000000000863e+00 1.208679999999999950e+02 1.739740000000000009e+03
