# t [s], A [cm^2], U [cm/s], P [cPa], c [cm/s]
1.000000000000000021e-03 1.986665000000000236e-01 1.847945000000000004e-01 1.001956500000000005e+02 2.061789999999999964e+03
2.000000000000000042e-03 1.986225000000000074e-01 1.596345499999999973e+00 9.725460000000001060e+01 2.061429999999999836e+03
3.000000000000000062e-03 1.984869999999999968e-01 3.412397499999999972e+00 9.303819999999998913e+01 2.060385000000000218e+03
4.000000000000000083e-03 1.982935000000000114e-01 5.480832499999999996e+00 8.816454999999999131e+01 2.058904999999999745e+03
5.000000000000000104e-03 1.980774999999999897e-01 7.736699999999999910e+00 8.350764999999999816e+01 2.057275000000000091e+03
6.000000000000000125e-03 1.978654999999999997e-01 1.004088500000000117e+01 7.952904999999999802e+01 2.055695000000000164e+03
7.000000000000000146e-03 1.976650000000000074e-01 1.218057499999999926e+01 7.615609999999999502e+01 2.054230000000000018e+03
8.000000000000000167e-03 1.974795000000000023e-01 1.401498499999999936e+01 7.313684999999999548e+01 2.052894999999999982e+03
9.000000000000001055e-03 1.973135000000000028e-01 1.554530000000000101e+01 7.044389999999999930e+01 2.051720000000000255e+03
1.000000000000000194e-02 1.971700000000000119e-01 1.681299999999999883e+01 6.817300000000000182e+01 2.050719999999999800e+03
1.099999999999999936e-02 1.970520000000000049e-01 1.784254999999999924e+01 6.635129999999999484e+01 2.049899999999999636e+03
1.200000000000000025e-02 1.969569999999999932e-01 1.865480000000000160e+01 6.494870000000000232e+01 2.049255000000000109e+03
1.300000000000000114e-02 1.968834999999999891e-01 1.926259999999999906e+01 6.389795000000000158e+01 2.048760000000000218e+03
1.400000000000000203e-02 1.968254999999999866e-01 1.966600000000000037e+01 6.307814999999999372e+01 2.048380000000000109e+03
1.499999999999999944e-02 1.967789999999999817e-01 1.988615000000000066e+01 6.238500000000000512e+01 2.048079999999999927e+03
1.600000000000000033e-02 1.967435000000000156e-01 2.000679999999999836e+01 6.186650000000000205e+01 2.047860000000000127e+03
1.700000000000000122e-02 1.967254999999999976e-01 2.016610000000000014e+01 6.176685000000000514e+01 2.047750000000000000e+03
1.800000000000000211e-02 1.967345000000000066e-01 2.049624999999999986e+01 6.240285000000000082e+01 2.047824999999999818e+03
1.900000000000000300e-02 1.967770000000000075e-01 2.105429999999999779e+01 6.395795000000000385e+01 2.048130000000000109e+03
2.000000000000000042e-02 1.968530000000000002e-01 2.179159999999999897e+01 6.633655000000000257e+01 2.048655000000000200e+03
2.100000000000000130e-02 1.969520000000000159e-01 2.257339999999999947e+01 6.916155000000000541e+01 2.049349999999999909e+03
2.200000000000000219e-02 1.970574999999999966e-01 2.323389999999999844e+01 7.190130000000000621e+01 2.050105000000000018e+03
2.299999999999999961e-02 1.971529999999999949e-01 2.363685000000000258e+01 7.405429999999999779e+01 2.050789999999999964e+03
2.400000000000000050e-02 1.972234999999999960e-01 2.371824999999999761e+01 7.530715000000000714e+01 2.051319999999999709e+03
2.500000000000000139e-02 1.972634999999999805e-01 2.349759999999999849e+01 7.561204999999999643e+01 2.051635000000000218e+03
2.600000000000000228e-02 1.972754999999999925e-01 2.305944999999999823e+01 7.516400000000000148e+01 2.051740000000000236e+03
2.700000000000000316e-02 1.972669999999999979e-01 2.251494999999999891e+01 7.430045000000001210e+01 2.051694999999999709e+03
2.800000000000000058e-02 1.972470000000000057e-01 2.196130000000000138e+01 7.336885000000000900e+01 2.051569999999999709e+03
2.900000000000000147e-02 1.972260000000000124e-01 2.145230000000000103e+01 7.261215000000001396e+01 2.051425000000000182e+03
3.000000000000000236e-02 1.972085000000000088e-01 2.098904999999999887e+01 7.210900000000000887e+01 2.051300000000000182e+03
3.099999999999999978e-02 1.971944999999999948e-01 2.052960000000000207e+01 7.177840000000000487e+01 2.051194999999999709e+03
3.200000000000000067e-02 1.971804999999999808e-01 2.001225000000000165e+01 7.143649999999999523e+01 2.051094999999999800e+03
3.300000000000000155e-02 1.971605000000000163e-01 1.938329999999999842e+01 7.088245000000000573e+01 2.050960000000000036e+03
3.400000000000000244e-02 1.971295000000000130e-01 1.862140000000000128e+01 6.998300000000000409e+01 2.050750000000000000e+03
3.500000000000000333e-02 1.970864999999999978e-01 1.775065000000000026e+01 6.873214999999999009e+01 2.050454999999999927e+03
3.600000000000000422e-02 1.970339999999999869e-01 1.683950000000000102e+01 6.726765000000000327e+01 2.050090000000000146e+03
3.700000000000000511e-02 1.969779999999999864e-01 1.598545000000000016e+01 6.584050000000000580e+01 2.049699999999999818e+03
3.799999999999999906e-02 1.969299999999999939e-01 1.529035000000000011e+01 6.474799999999999045e+01 2.049349999999999909e+03
3.899999999999999994e-02 1.968975000000000031e-01 1.483419999999999916e+01 6.425164999999999793e+01 2.049114999999999782e+03
4.000000000000000083e-02 1.968900000000000095e-01 1.465605000000000047e+01 6.450740000000000407e+01 2.049039999999999964e+03
4.100000000000000172e-02 1.969090000000000007e-01 1.474534999999999840e+01 6.552509999999999479e+01 2.049159999999999854e+03
4.200000000000000261e-02 1.969540000000000179e-01 1.504584999999999972e+01 6.716765000000000896e+01 2.049449999999999818e+03
4.300000000000000350e-02 1.970179999999999987e-01 1.546870000000000189e+01 6.918285000000000196e+01 2.049885000000000218e+03
4.400000000000000439e-02 1.970919999999999894e-01 1.591049999999999898e+01 7.125794999999999391e+01 2.050404999999999745e+03
4.499999999999999833e-02 1.971644999999999925e-01 1.627139999999999986e+01 7.307920000000000016e+01 2.050914999999999964e+03
4.599999999999999922e-02 1.972254999999999980e-01 1.646974999999999767e+01 7.438434999999999775e+01 2.051350000000000364e+03
4.700000000000000011e-02 1.972665000000000113e-01 1.645120000000000005e+01 7.499790000000000134e+01 2.051649999999999636e+03
4.800000000000000100e-02 1.972824999999999995e-01 1.619129999999999825e+01 7.484515000000000384e+01 2.051779999999999745e+03
4.900000000000000189e-02 1.972700000000000009e-01 1.569249999999999901e+01 7.394575000000000387e+01 2.051710000000000036e+03
5.000000000000000278e-02 1.972315000000000040e-01 1.497765000000000057e+01 7.239179999999998927e+01 2.051449999999999818e+03
5.100000000000000366e-02 1.971689999999999832e-01 1.408169999999999966e+01 7.031929999999999836e+01 2.051019999999999982e+03
5.200000000000000455e-02 1.970874999999999988e-01 1.304415000000000013e+01 6.787815000000000509e+01 2.050450000000000273e+03
5.300000000000000544e-02 1.969909999999999994e-01 1.190378000000000114e+01 6.520969999999999800e+01 2.049780000000000200e+03
5.399999999999999939e-02 1.968854999999999911e-01 1.069581499999999963e+01 6.243335000000000434e+01 2.049034999999999854e+03
5.500000000000000028e-02 1.967740000000000045e-01 9.451579999999999870e+00 5.964319999999999311e+01 2.048250000000000000e+03
5.600000000000000117e-02 1.966605000000000159e-01 8.200240000000000862e+00 5.691225000000000023e+01 2.047444999999999936e+03
5.700000000000000205e-02 1.965485000000000149e-01 6.970834999999999226e+00 5.430140000000000100e+01 2.046659999999999854e+03
5.800000000000000294e-02 1.964409999999999767e-01 5.794290000000000163e+00 5.186874999999999858e+01 2.045890000000000100e+03
5.900000000000000383e-02 1.963400000000000145e-01 4.704604999999999926e+00 4.967714999999999748e+01 2.045175000000000182e+03
6.000000000000000472e-02 1.962494999999999934e-01 3.738580000000000236e+00 4.779760000000000275e+01 2.044525000000000091e+03
6.099999999999999867e-02 1.961714999999999987e-01 2.934457499999999719e+00 4.630845000000000056e+01 2.043964999999999918e+03
6.199999999999999956e-02 1.961105000000000209e-01 2.329528999999999961e+00 4.529035000000000366e+01 2.043515000000000100e+03
6.300000000000000044e-02 1.960689999999999933e-01 1.957294999999999785e+00 4.481889999999999930e+01 2.043210000000000036e+03
6.400000000000000133e-02 1.960510000000000030e-01 1.844584999999999919e+00 4.495645000000000380e+01 2.043065000000000055e+03
6.500000000000000222e-02 1.960574999999999957e-01 2.009265000000000079e+00 4.574484999999999957e+01 2.043090000000000146e+03
6.600000000000000311e-02 1.960905000000000009e-01 2.458705000000000140e+00 4.720045000000000357e+01 2.043304999999999836e+03
6.700000000000000400e-02 1.961509999999999920e-01 3.189249999999999918e+00 4.931125000000000114e+01 2.043705000000000155e+03
6.800000000000000488e-02 1.962379999999999958e-01 4.186609999999999943e+00 5.203820000000000334e+01 2.044300000000000182e+03
6.900000000000000577e-02 1.963499999999999968e-01 5.427010000000000112e+00 5.531815000000000282e+01 2.045065000000000055e+03
7.000000000000000666e-02 1.964839999999999920e-01 6.878959999999999297e+00 5.906855000000000189e+01 2.046000000000000000e+03
7.100000000000000755e-02 1.966374999999999929e-01 8.505230000000000956e+00 6.319389999999999930e+01 2.047069999999999936e+03
7.200000000000000844e-02 1.968064999999999953e-01 1.026518500000000067e+01 6.759219999999999118e+01 2.048260000000000218e+03
7.300000000000000933e-02 1.969874999999999821e-01 1.211711999999999989e+01 7.216129999999999711e+01 2.049530000000000200e+03
7.399999999999999634e-02 1.971759999999999902e-01 1.402022999999999975e+01 7.680480000000000018e+01 2.050860000000000127e+03
7.499999999999999722e-02 1.973679999999999879e-01 1.593679999999999986e+01 8.143739999999999668e+01 2.052230000000000018e+03
7.599999999999999811e-02 1.975609999999999866e-01 1.783375000000000199e+01 8.598879999999999768e+01 2.053605000000000018e+03
7.699999999999999900e-02 1.977519999999999833e-01 1.968415000000000248e+01 9.040690000000000737e+01 2.054970000000000255e+03
7.799999999999999989e-02 1.979385000000000172e-01 2.146759999999999735e+01 9.465850000000000364e+01 2.056310000000000400e+03
7.900000000000000078e-02 1.981200000000000183e-01 2.317089999999999961e+01 9.873024999999999807e+01 2.057619999999999891e+03
8.000000000000000167e-02 1.982955000000000134e-01 2.478725000000000023e+01 1.026252000000000066e+02 2.058885000000000218e+03
8.100000000000000255e-02 1.984644999999999881e-01 2.631559999999999988e+01 1.063596499999999878e+02 2.060110000000000127e+03
8.200000000000000344e-02 1.986279999999999990e-01 2.775939999999999941e+01 1.099609999999999985e+02 2.061295000000000073e+03
8.300000000000000433e-02 1.987869999999999915e-01 2.912509999999999977e+01 1.134609999999999985e+02 2.062449999999999818e+03
8.400000000000000522e-02 1.989425000000000221e-01 3.042070000000000007e+01 1.168919999999999959e+02 2.063579999999999927e+03
8.500000000000000611e-02 1.990954999999999808e-01 3.165440000000000254e+01 1.202814999999999941e+02 2.064694999999999709e+03
8.600000000000000699e-02 1.992470000000000074e-01 3.283334999999999582e+01 1.236520000000000010e+02 2.065795000000000073e+03
8.700000000000000788e-02 1.993975000000000053e-01 3.396314999999999884e+01 1.270169999999999959e+02 2.066889999999999873e+03
8.800000000000000877e-02 1.995474999999999888e-01 3.504690000000000083e+01 1.303799999999999955e+02 2.067979999999999563e+03
8.899999999999999578e-02 1.996964999999999990e-01 3.608530000000000371e+01 1.337355000000000018e+02 2.069069999999999709e+03
8.999999999999999667e-02 1.998455000000000092e-01 3.707659999999999911e+01 1.370704999999999814e+02 2.070154999999999745e+03
9.099999999999999756e-02 1.999925000000000175e-01 3.801675000000000182e+01 1.403640000000000043e+02 2.071230000000000018e+03
9.199999999999999845e-02 2.001374999999999960e-01 3.889985000000000070e+01 1.435899999999999750e+02 2.072289999999999964e+03
9.299999999999999933e-02 2.002794999999999992e-01 3.971849999999999881e+01 1.467195000000000107e+02 2.073324999999999818e+03
9.400000000000000022e-02 2.004164999999999974e-01 4.046415000000000362e+01 1.497224999999999966e+02 2.074329999999999927e+03
9.500000000000000111e-02 2.005484999999999907e-01 4.112794999999999845e+01 1.525670000000000073e+02 2.075300000000000182e+03
9.600000000000000200e-02 2.006735000000000047e-01 4.170050000000000523e+01 1.552235000000000014e+02 2.076219999999999800e+03
9.700000000000000289e-02 2.007899999999999963e-01 4.217315000000000680e+01 1.576639999999999873e+02 2.077074999999999818e+03
9.800000000000000377e-02 2.008980000000000210e-01 4.253764999999999930e+01 1.598629999999999995e+02 2.077869999999999891e+03
9.900000000000000466e-02 2.009954999999999936e-01 4.278719999999999857e+01 1.618015000000000043e+02 2.078594999999999800e+03
1.000000000000000056e-01 2.010819999999999830e-01 4.291655000000000086e+01 1.634625000000000057e+02 2.079234999999999673e+03
1.010000000000000064e-01 2.011570000000000025e-01 4.292239999999999611e+01 1.648360000000000127e+02 2.079795000000000073e+03
1.020000000000000073e-01 2.012194999999999956e-01 4.280400000000000205e+01 1.659184999999999945e+02 2.080264999999999873e+03
1.030000000000000082e-01 2.012705000000000188e-01 4.256305000000000405e+01 1.667119999999999891e+02 2.080644999999999982e+03
1.040000000000000091e-01 2.013085000000000013e-01 4.220409999999999684e+01 1.672264999999999873e+02 2.080940000000000055e+03
1.050000000000000100e-01 2.013360000000000150e-01 4.173414999999999964e+01 1.674789999999999850e+02 2.081150000000000091e+03
1.059999999999999970e-01 2.013515000000000166e-01 4.116294999999999504e+01 1.674895000000000209e+02 2.081275000000000091e+03
1.069999999999999979e-01 2.013574999999999948e-01 4.050220000000000198e+01 1.672869999999999777e+02 2.081329999999999927e+03
1.079999999999999988e-01 2.013540000000000052e-01 3.976539999999999964e+01 1.669024999999999750e+02 2.081314999999999600e+03
1.089999999999999997e-01 2.013429999999999942e-01 3.896710000000000207e+01 1.663685000000000116e+02 2.081244999999999891e+03
1.100000000000000006e-01 2.013250000000000040e-01 3.812239999999999895e+01 1.657199999999999989e+02 2.081119999999999891e+03
1.110000000000000014e-01 2.013030000000000097e-01 3.724634999999999962e+01 1.649900000000000091e+02 2.080965000000000146e+03
1.120000000000000023e-01 2.012760000000000105e-01 3.635334999999999894e+01 1.642104999999999961e+02 2.080775000000000091e+03
1.130000000000000032e-01 2.012470000000000092e-01 3.545680000000000121e+01 1.634089999999999918e+02 2.080565000000000055e+03
1.140000000000000041e-01 2.012164999999999926e-01 3.456834999999999525e+01 1.626094999999999970e+02 2.080345000000000255e+03
1.150000000000000050e-01 2.011854999999999893e-01 3.369805000000000206e+01 1.618324999999999818e+02 2.080119999999999891e+03
1.160000000000000059e-01 2.011550000000000005e-01 3.285354999999999848e+01 1.610904999999999916e+02 2.079894999999999982e+03
1.170000000000000068e-01 2.011255000000000126e-01 3.204034999999999656e+01 1.603924999999999841e+02 2.079675000000000182e+03
1.180000000000000077e-01 2.010975000000000124e-01 3.126154999999999973e+01 1.597420000000000186e+02 2.079465000000000146e+03
1.190000000000000085e-01 2.010704999999999854e-01 3.051785000000000281e+01 1.591359999999999957e+02 2.079265000000000327e+03
1.200000000000000094e-01 2.010445000000000149e-01 2.980775000000000219e+01 1.585674999999999955e+02 2.079074999999999818e+03
1.209999999999999964e-01 2.010195000000000176e-01 2.912780000000000058e+01 1.580254999999999939e+02 2.078894999999999982e+03
1.219999999999999973e-01 2.009960000000000080e-01 2.847259999999999991e+01 1.574939999999999998e+02 2.078715000000000146e+03
1.229999999999999982e-01 2.009724999999999984e-01 2.783554999999999779e+01 1.569565000000000055e+02 2.078539999999999964e+03
1.239999999999999991e-01 2.009480000000000155e-01 2.720899999999999963e+01 1.563919999999999959e+02 2.078355000000000018e+03
1.250000000000000000e-01 2.009219999999999895e-01 2.658484999999999943e+01 1.557830000000000155e+02 2.078164999999999964e+03
1.260000000000000009e-01 2.008945000000000036e-01 2.595495000000000019e+01 1.551084999999999923e+02 2.077965000000000146e+03
1.270000000000000018e-01 2.008639999999999870e-01 2.531159999999999854e+01 1.543520000000000039e+02 2.077739999999999782e+03
1.280000000000000027e-01 2.008294999999999941e-01 2.464804999999999779e+01 1.534995000000000118e+02 2.077489999999999782e+03
1.290000000000000036e-01 2.007919999999999983e-01 2.395895000000000152e+01 1.525389999999999873e+02 2.077215000000000146e+03
1.300000000000000044e-01 2.007494999999999974e-01 2.324040000000000106e+01 1.514654999999999916e+02 2.076909999999999854e+03
1.310000000000000053e-01 2.007025000000000059e-01 2.249074999999999847e+01 1.502769999999999868e+02 2.076565000000000055e+03
1.320000000000000062e-01 2.006510000000000238e-01 2.171020000000000039e+01 1.489770000000000039e+02 2.076190000000000055e+03
1.330000000000000071e-01 2.005949999999999955e-01 2.090119999999999933e+01 1.475760000000000218e+02 2.075784999999999854e+03
1.340000000000000080e-01 2.005349999999999910e-01 2.006830000000000069e+01 1.460879999999999939e+02 2.075355000000000018e+03
1.350000000000000089e-01 2.004714999999999969e-01 1.921795000000000186e+01 1.445310000000000059e+02 2.074894999999999982e+03
1.360000000000000098e-01 2.004055000000000142e-01 1.835829999999999984e+01 1.429289999999999736e+02 2.074414999999999964e+03
1.370000000000000107e-01 2.003375000000000017e-01 1.749885000000000090e+01 1.413065000000000282e+02 2.073920000000000073e+03
1.380000000000000115e-01 2.002690000000000026e-01 1.664979999999999905e+01 1.396899999999999977e+02 2.073420000000000073e+03
1.390000000000000124e-01 2.002005000000000035e-01 1.582179999999999964e+01 1.381069999999999993e+02 2.072920000000000073e+03
1.400000000000000133e-01 2.001330000000000053e-01 1.502554999999999907e+01 1.365844999999999914e+02 2.072430000000000291e+03
1.410000000000000142e-01 2.000685000000000102e-01 1.427104999999999890e+01 1.351465000000000032e+02 2.071960000000000036e+03
1.420000000000000151e-01 2.000075000000000047e-01 1.356715000000000160e+01 1.338134999999999764e+02 2.071515000000000327e+03
1.430000000000000160e-01 1.999500000000000166e-01 1.292154999999999987e+01 1.326045000000000016e+02 2.071095000000000255e+03
1.440000000000000169e-01 1.998979999999999924e-01 1.234014999999999951e+01 1.315310000000000059e+02 2.070710000000000036e+03
1.450000000000000178e-01 1.998515000000000152e-01 1.182690500000000000e+01 1.306009999999999991e+02 2.070364999999999782e+03
1.459999999999999909e-01 1.998105000000000020e-01 1.138405999999999985e+01 1.298185000000000002e+02 2.070065000000000055e+03
1.469999999999999918e-01 1.997754999999999947e-01 1.101179499999999933e+01 1.291810000000000116e+02 2.069804999999999836e+03
1.479999999999999927e-01 1.997460000000000069e-01 1.070842500000000008e+01 1.286834999999999809e+02 2.069590000000000146e+03
1.489999999999999936e-01 1.997224999999999973e-01 1.047086499999999987e+01 1.283165000000000191e+02 2.069409999999999854e+03
1.499999999999999944e-01 1.997049999999999936e-01 1.029437499999999872e+01 1.280685000000000002e+02 2.069274999999999636e+03
1.509999999999999953e-01 1.996915000000000218e-01 1.017328000000000010e+01 1.279249999999999972e+02 2.069170000000000073e+03
1.519999999999999962e-01 1.996825000000000128e-01 1.010105499999999878e+01 1.278689999999999998e+02 2.069100000000000364e+03
1.529999999999999971e-01 1.996775000000000078e-01 1.007060500000000047e+01 1.278859999999999957e+02 2.069059999999999945e+03
1.539999999999999980e-01 1.996755000000000058e-01 1.007448499999999925e+01 1.279590000000000032e+02 2.069034999999999854e+03
1.549999999999999989e-01 1.996760000000000201e-01 1.010546000000000078e+01 1.280720000000000027e+02 2.069039999999999964e+03
1.559999999999999998e-01 1.996785000000000088e-01 1.015635999999999939e+01 1.282110000000000127e+02 2.069050000000000182e+03
1.570000000000000007e-01 1.996824999999999850e-01 1.022048999999999985e+01 1.283629999999999995e+02 2.069074999999999818e+03
1.580000000000000016e-01 1.996870000000000034e-01 1.029165499999999867e+01 1.285154999999999745e+02 2.069105000000000018e+03
1.590000000000000024e-01 1.996915000000000218e-01 1.036456499999999892e+01 1.286594999999999800e+02 2.069135000000000218e+03
