# t [s], A [cm^2], U [cm/s], P [cPa], c [cm/s]
1.000000000000000021e-03 7.479194999999999593e-01 6.319649999999996104e-03 1.041580000000000013e+02 1.637684999999999945e+03
2.000000000000000042e-03 7.479050000000000420e-01 -5.019480000000000643e-03 1.041274999999999977e+02 1.637680000000000064e+03
3.000000000000000062e-03 7.479569999999999830e-01 7.135915000000001007e-02 1.042115000000000009e+02 1.637695000000000164e+03
4.000000000000000083e-03 7.480195000000000594e-01 1.733925000000000050e-01 1.043404999999999916e+02 1.637730000000000018e+03
5.000000000000000104e-03 7.480029999999999735e-01 1.717660000000000020e-01 1.043174999999999955e+02 1.637724999999999909e+03
6.000000000000000125e-03 7.479255000000000209e-01 7.915800000000000614e-02 1.041169999999999902e+02 1.637679999999999836e+03
7.000000000000000146e-03 7.478624999999999856e-01 1.091000000000008630e-03 1.038700000000000045e+02 1.637619999999999891e+03
8.000000000000000167e-03 7.477804999999999591e-01 -1.155404999999999904e-01 1.035384999999999991e+02 1.637545000000000073e+03
9.000000000000001055e-03 7.476365000000000371e-01 -3.437549999999999217e-01 1.030215000000000032e+02 1.637424999999999955e+03
1.000000000000000194e-02 7.474285000000000512e-01 -6.869149999999999423e-01 1.022814999999999941e+02 1.637255000000000109e+03
1.099999999999999936e-02 7.471399999999999153e-01 -1.160835000000000061e+00 1.012637000000000000e+02 1.637014999999999873e+03
1.200000000000000025e-02 7.467489999999999961e-01 -1.786375000000000046e+00 9.989695000000000391e+01 1.636694999999999936e+03
1.300000000000000114e-02 7.462735000000000340e-01 -2.514530000000000154e+00 9.819659999999998945e+01 1.636275000000000091e+03
1.400000000000000203e-02 7.457830000000000847e-01 -3.212089999999999890e+00 9.630625000000000568e+01 1.635809999999999945e+03
1.499999999999999944e-02 7.453525000000000844e-01 -3.726987999999999523e+00 9.443285000000000196e+01 1.635319999999999936e+03
1.600000000000000033e-02 7.450220000000000731e-01 -3.961653000000000091e+00 9.274475000000001046e+01 1.634865000000000009e+03
1.700000000000000122e-02 7.447844999999999605e-01 -3.902454000000000089e+00 9.130910000000000082e+01 1.634450000000000045e+03
1.800000000000000211e-02 7.445960000000000356e-01 -3.605722999999999789e+00 9.008594999999999686e+01 1.634070000000000164e+03
1.900000000000000300e-02 7.444029999999999259e-01 -3.162138999999999811e+00 8.896569999999999823e+01 1.633720000000000027e+03
2.000000000000000042e-02 7.441600000000000437e-01 -2.658748249999999924e+00 8.782044999999999391e+01 1.633355000000000018e+03
2.100000000000000130e-02 7.438454999999999373e-01 -2.150548500000000196e+00 8.655304999999999893e+01 1.632965000000000146e+03
2.200000000000000219e-02 7.434650000000000425e-01 -1.648785000000000167e+00 8.512704999999999700e+01 1.632539999999999964e+03
2.299999999999999961e-02 7.430459999999999843e-01 -1.127774999999999972e+00 8.357019999999999982e+01 1.632085000000000036e+03
2.400000000000000050e-02 7.426194999999999879e-01 -5.459000000000000519e-01 8.195314999999999372e+01 1.631610000000000127e+03
2.500000000000000139e-02 7.422139999999999294e-01 1.293199999999998795e-01 8.035394999999999754e+01 1.631134999999999991e+03
2.600000000000000228e-02 7.418385000000000673e-01 9.020899999999998364e-01 7.882500000000000284e+01 1.630670000000000073e+03
2.700000000000000316e-02 7.414819999999999744e-01 1.740639999999999965e+00 7.737184999999999491e+01 1.630220000000000027e+03
2.800000000000000058e-02 7.411194999999999311e-01 2.581099999999999728e+00 7.594845000000000823e+01 1.629779999999999973e+03
2.900000000000000147e-02 7.407150000000000123e-01 3.340504999999999391e+00 7.446795000000000186e+01 1.629329999999999927e+03
3.000000000000000236e-02 7.402349999999999763e-01 3.934959999999999791e+00 7.282564999999999600e+01 1.628849999999999909e+03
3.099999999999999978e-02 7.396564999999999390e-01 4.299005000000000187e+00 7.092734999999998990e+01 1.628309999999999945e+03
3.200000000000000067e-02 7.389734999999999498e-01 4.401295000000000179e+00 6.871764999999999191e+01 1.627704999999999927e+03
3.300000000000000155e-02 7.382024999999999837e-01 4.251730000000000231e+00 6.619839999999999236e+01 1.627029999999999973e+03
3.400000000000000244e-02 7.373750000000000027e-01 3.897899999999999920e+00 6.343285000000000196e+01 1.626289999999999964e+03
3.500000000000000333e-02 7.365360000000000795e-01 3.412720000000000198e+00 6.053379999999999939e+01 1.625514999999999873e+03
3.600000000000000422e-02 7.357299999999999951e-01 2.877729999999999677e+00 5.764220000000000255e+01 1.624735000000000127e+03
3.700000000000000511e-02 7.349965000000000526e-01 2.368184999999999985e+00 5.490269999999999584e+01 1.623985000000000127e+03
3.799999999999999906e-02 7.343634999999999469e-01 1.943414999999999893e+00 5.244384999999999764e+01 1.623295000000000073e+03
3.899999999999999994e-02 7.338489999999999736e-01 1.642315000000000413e+00 5.036454999999999416e+01 1.622690000000000055e+03
4.000000000000000083e-02 7.334600000000000009e-01 1.484625000000000083e+00 4.872889999999999588e+01 1.622195000000000164e+03
4.100000000000000172e-02 7.331955000000000000e-01 1.475229999999999819e+00 4.756759999999999877e+01 1.621819999999999936e+03
4.200000000000000261e-02 7.330505000000000493e-01 1.610252000000000017e+00 4.688450000000000273e+01 1.621569999999999936e+03
4.300000000000000350e-02 7.330179999999999474e-01 1.883211999999999886e+00 4.666550000000000153e+01 1.621445000000000164e+03
4.400000000000000439e-02 7.330915000000000070e-01 2.289810000000000123e+00 4.688844999999999885e+01 1.621440000000000055e+03
4.499999999999999833e-02 7.332674999999999610e-01 2.830354999999999954e+00 4.753000000000000114e+01 1.621549999999999955e+03
4.599999999999999922e-02 7.335430000000000561e-01 3.509615499999999777e+00 4.857019999999999982e+01 1.621779999999999973e+03
4.700000000000000011e-02 7.339175000000000004e-01 4.334375500000000159e+00 4.999280000000000257e+01 1.622110000000000127e+03
4.800000000000000100e-02 7.343884999999999996e-01 5.309902000000000122e+00 5.178239999999999554e+01 1.622545000000000073e+03
4.900000000000000189e-02 7.349514999999999798e-01 6.436326999999999465e+00 5.392074999999999818e+01 1.623079999999999927e+03
5.000000000000000278e-02 7.355990000000000029e-01 7.706385000000000041e+00 5.638269999999999982e+01 1.623704999999999927e+03
5.100000000000000366e-02 7.363210000000000033e-01 9.104224999999999568e+00 5.913344999999999629e+01 1.624420000000000073e+03
5.200000000000000455e-02 7.371015000000000761e-01 1.060620499999999922e+01 6.212865000000000038e+01 1.625200000000000045e+03
5.300000000000000544e-02 7.379255000000000120e-01 1.218308000000000035e+01 6.531530000000000769e+01 1.626039999999999964e+03
5.399999999999999939e-02 7.387764999999999471e-01 1.380235000000000056e+01 6.863540000000000418e+01 1.626929999999999836e+03
5.500000000000000028e-02 7.396384999999999765e-01 1.543170499999999912e+01 7.202965000000000373e+01 1.627845000000000027e+03
5.600000000000000117e-02 7.404969999999999608e-01 1.704139500000000140e+01 7.544214999999999804e+01 1.628780000000000200e+03
5.700000000000000205e-02 7.413404999999999578e-01 1.860620000000000118e+01 7.882404999999999973e+01 1.629720000000000027e+03
5.800000000000000294e-02 7.421625000000000583e-01 2.010689999999999955e+01 8.213625000000000398e+01 1.630644999999999982e+03
5.900000000000000383e-02 7.429574999999999374e-01 2.153030000000000044e+01 8.535099999999999909e+01 1.631559999999999945e+03
6.000000000000000472e-02 7.437240000000000517e-01 2.286899999999999977e+01 8.845204999999999984e+01 1.632445000000000164e+03
6.099999999999999867e-02 7.444625000000000270e-01 2.412035000000000196e+01 9.143389999999999418e+01 1.633305000000000064e+03
6.199999999999999956e-02 7.451749999999999208e-01 2.528575000000000017e+01 9.430000000000001137e+01 1.634134999999999991e+03
6.300000000000000044e-02 7.458654999999999591e-01 2.636935000000000073e+01 9.705995000000000061e+01 1.634940000000000055e+03
6.400000000000000133e-02 7.465390000000000637e-01 2.737680000000000291e+01 9.972970000000000823e+01 1.635720000000000027e+03
6.500000000000000222e-02 7.471989999999999466e-01 2.831475000000000009e+01 1.023256000000000085e+02 1.636485000000000127e+03
6.600000000000000311e-02 7.478504999999999736e-01 2.918994999999999962e+01 1.048661500000000046e+02 1.637230000000000018e+03
6.700000000000000400e-02 7.484960000000000502e-01 3.000830000000000197e+01 1.073675000000000068e+02 1.637964999999999918e+03
6.800000000000000488e-02 7.491384999999999295e-01 3.077469999999999928e+01 1.098414999999999964e+02 1.638690000000000055e+03
6.900000000000000577e-02 7.497795000000000432e-01 3.149230000000000018e+01 1.122980000000000018e+02 1.639409999999999854e+03
7.000000000000000666e-02 7.504180000000000295e-01 3.216205000000000069e+01 1.147394999999999925e+02 1.640125000000000000e+03
7.100000000000000755e-02 7.510520000000000529e-01 3.278300000000000125e+01 1.171630000000000109e+02 1.640835000000000036e+03
7.200000000000000844e-02 7.516795000000000559e-01 3.335210000000000008e+01 1.195605000000000047e+02 1.641534999999999854e+03
7.300000000000000933e-02 7.522955000000000059e-01 3.386455000000000126e+01 1.219175000000000040e+02 1.642224999999999909e+03
7.399999999999999634e-02 7.528945000000000221e-01 3.431454999999999700e+01 1.242179999999999893e+02 1.642905000000000200e+03
7.499999999999999722e-02 7.534719999999999196e-01 3.469575000000000387e+01 1.264405000000000001e+02 1.643559999999999945e+03
7.599999999999999811e-02 7.540219999999999700e-01 3.500164999999999793e+01 1.285649999999999977e+02 1.644194999999999936e+03
7.699999999999999900e-02 7.545390000000000708e-01 3.522655000000000314e+01 1.305705000000000098e+02 1.644795000000000073e+03
7.799999999999999989e-02 7.550185000000000368e-01 3.536570000000000391e+01 1.324375000000000000e+02 1.645359999999999900e+03
7.900000000000000078e-02 7.554579999999999629e-01 3.541564999999999941e+01 1.341505000000000223e+02 1.645880000000000109e+03
8.000000000000000167e-02 7.558534999999999560e-01 3.537440000000000140e+01 1.356949999999999932e+02 1.646360000000000127e+03
8.100000000000000255e-02 7.562039999999999873e-01 3.524170000000000158e+01 1.370629999999999882e+02 1.646789999999999964e+03
8.200000000000000344e-02 7.565074999999999994e-01 3.501859999999999928e+01 1.382489999999999952e+02 1.647170000000000073e+03
8.300000000000000433e-02 7.567650000000000210e-01 3.470790000000000219e+01 1.392504999999999882e+02 1.647500000000000000e+03
8.400000000000000522e-02 7.569775000000000809e-01 3.431374999999999886e+01 1.400720000000000027e+02 1.647775000000000091e+03
8.500000000000000611e-02 7.571460000000000967e-01 3.384170000000000300e+01 1.407175000000000011e+02 1.648000000000000000e+03
8.600000000000000699e-02 7.572735000000000438e-01 3.329885000000000161e+01 1.411974999999999909e+02 1.648179999999999836e+03
8.700000000000000788e-02 7.573639999999999262e-01 3.269324999999999903e+01 1.415235000000000127e+02 1.648309999999999945e+03
8.800000000000000877e-02 7.574199999999999822e-01 3.203414999999999679e+01 1.417110000000000127e+02 1.648400000000000091e+03
8.899999999999999578e-02 7.574469999999999814e-01 3.133169999999999789e+01 1.417760000000000105e+02 1.648454999999999927e+03
8.999999999999999667e-02 7.574490000000000389e-01 3.059655000000000058e+01 1.417379999999999995e+02 1.648474999999999909e+03
9.099999999999999756e-02 7.574315000000000353e-01 2.983964999999999890e+01 1.416150000000000091e+02 1.648470000000000027e+03
9.199999999999999845e-02 7.573995000000000033e-01 2.907164999999999822e+01 1.414269999999999925e+02 1.648440000000000055e+03
9.299999999999999933e-02 7.573564999999999880e-01 2.830274999999999963e+01 1.411929999999999836e+02 1.648394999999999982e+03
9.400000000000000022e-02 7.573075000000000223e-01 2.754220000000000113e+01 1.409289999999999736e+02 1.648335000000000036e+03
9.500000000000000111e-02 7.572555000000000813e-01 2.679780000000000229e+01 1.406514999999999986e+02 1.648264999999999873e+03
9.600000000000000200e-02 7.572030000000000705e-01 2.607565000000000310e+01 1.403720000000000141e+02 1.648199999999999818e+03
9.700000000000000289e-02 7.571525000000000061e-01 2.538005000000000067e+01 1.401005000000000109e+02 1.648119999999999891e+03
9.800000000000000377e-02 7.571049999999999169e-01 2.471314999999999884e+01 1.398425000000000011e+02 1.648050000000000182e+03
9.900000000000000466e-02 7.570600000000000662e-01 2.407540000000000191e+01 1.395994999999999777e+02 1.647985000000000127e+03
1.000000000000000056e-01 7.570164999999999811e-01 2.346525000000000105e+01 1.393714999999999975e+02 1.647914999999999964e+03
1.010000000000000064e-01 7.569740000000000357e-01 2.287969999999999970e+01 1.391539999999999964e+02 1.647849999999999909e+03
1.020000000000000073e-01 7.569295000000000329e-01 2.231429999999999936e+01 1.389399999999999977e+02 1.647784999999999854e+03
1.030000000000000082e-01 7.568814999999999849e-01 2.176384999999999792e+01 1.387220000000000084e+02 1.647715000000000146e+03
1.040000000000000091e-01 7.568265000000000686e-01 2.122240000000000038e+01 1.384890000000000043e+02 1.647650000000000091e+03
1.050000000000000100e-01 7.567630000000000745e-01 2.068394999999999939e+01 1.382314999999999827e+02 1.647575000000000045e+03
1.059999999999999970e-01 7.566874999999999574e-01 2.014225000000000065e+01 1.379389999999999930e+02 1.647489999999999782e+03
1.069999999999999979e-01 7.565990000000000215e-01 1.959179999999999922e+01 1.376025000000000205e+02 1.647394999999999982e+03
1.079999999999999988e-01 7.564939999999999998e-01 1.902769999999999939e+01 1.372135000000000105e+02 1.647285000000000082e+03
1.089999999999999997e-01 7.563735000000000319e-01 1.844600000000000151e+01 1.367665000000000077e+02 1.647164999999999964e+03
1.100000000000000006e-01 7.562349999999999905e-01 1.784389999999999787e+01 1.362564999999999884e+02 1.647025000000000091e+03
1.110000000000000014e-01 7.560795000000000154e-01 1.721995000000000076e+01 1.356825000000000045e+02 1.646865000000000009e+03
1.120000000000000023e-01 7.559080000000000243e-01 1.657434999999999903e+01 1.350459999999999923e+02 1.646694999999999936e+03
1.130000000000000032e-01 7.557214999999999350e-01 1.590865000000000151e+01 1.343514999999999873e+02 1.646505000000000109e+03
1.140000000000000041e-01 7.555229999999999446e-01 1.522610000000000063e+01 1.336055000000000064e+02 1.646299999999999955e+03
1.150000000000000050e-01 7.553144999999999998e-01 1.453121999999999936e+01 1.328170000000000073e+02 1.646085000000000036e+03
1.160000000000000059e-01 7.551000000000001044e-01 1.382976999999999990e+01 1.319995000000000118e+02 1.645860000000000127e+03
1.170000000000000068e-01 7.548835000000000406e-01 1.312860500000000030e+01 1.311655000000000086e+02 1.645625000000000000e+03
1.180000000000000077e-01 7.546680000000000055e-01 1.243519500000000022e+01 1.303310000000000173e+02 1.645394999999999982e+03
1.190000000000000085e-01 7.544589999999999907e-01 1.175750999999999991e+01 1.295105000000000075e+02 1.645159999999999854e+03
1.200000000000000094e-01 7.542599999999999305e-01 1.110346499999999992e+01 1.287214999999999918e+02 1.644934999999999945e+03
1.209999999999999964e-01 7.540744999999999809e-01 1.048076000000000008e+01 1.279775000000000063e+02 1.644720000000000027e+03
1.219999999999999973e-01 7.539059999999999651e-01 9.896444999999999936e+00 1.272930000000000064e+02 1.644519999999999982e+03
1.229999999999999982e-01 7.537574999999999692e-01 9.356590000000000629e+00 1.266800000000000068e+02 1.644340000000000146e+03
1.239999999999999991e-01 7.536315000000000097e-01 8.866149999999999309e+00 1.261479999999999961e+02 1.644170000000000073e+03
1.250000000000000000e-01 7.535279999999999756e-01 8.428734999999999644e+00 1.257044999999999959e+02 1.644034999999999854e+03
1.260000000000000009e-01 7.534484999999999655e-01 8.046424999999999272e+00 1.253524999999999920e+02 1.643920000000000073e+03
1.270000000000000018e-01 7.533929999999999794e-01 7.719765000000000654e+00 1.250925000000000011e+02 1.643824999999999818e+03
1.280000000000000027e-01 7.533600000000000296e-01 7.447874999999999801e+00 1.249244999999999948e+02 1.643759999999999991e+03
1.290000000000000036e-01 7.533484999999999765e-01 7.228450000000000486e+00 1.248419999999999987e+02 1.643720000000000027e+03
1.300000000000000044e-01 7.533560000000000256e-01 7.057980000000000587e+00 1.248385000000000105e+02 1.643700000000000045e+03
1.310000000000000053e-01 7.533794999999999797e-01 6.931950000000000500e+00 1.249044999999999987e+02 1.643699999999999818e+03
1.320000000000000062e-01 7.534170000000000034e-01 6.845094999999999708e+00 1.250300000000000011e+02 1.643720000000000027e+03
1.330000000000000071e-01 7.534650000000000514e-01 6.791665000000000063e+00 1.252030000000000030e+02 1.643750000000000000e+03
1.340000000000000080e-01 7.535205000000000375e-01 6.765670000000000073e+00 1.254124999999999943e+02 1.643795000000000073e+03
1.350000000000000089e-01 7.535810000000000564e-01 6.761144999999999960e+00 1.256465000000000032e+02 1.643855000000000018e+03
1.360000000000000098e-01 7.536430000000000629e-01 6.772320000000000562e+00 1.258935000000000031e+02 1.643914999999999964e+03
1.370000000000000107e-01 7.537055000000000282e-01 6.793844999999999246e+00 1.261450000000000102e+02 1.643974999999999909e+03
1.380000000000000115e-01 7.537650000000000183e-01 6.820880000000000720e+00 1.263919999999999959e+02 1.644039999999999964e+03
1.390000000000000124e-01 7.538215000000000332e-01 6.849215000000000053e+00 1.266274999999999977e+02 1.644099999999999909e+03
1.400000000000000133e-01 7.538730000000000153e-01 6.875284999999999869e+00 1.268449999999999989e+02 1.644164999999999964e+03
1.410000000000000142e-01 7.539184999999999359e-01 6.896259999999999835e+00 1.270414999999999992e+02 1.644215000000000146e+03
1.420000000000000151e-01 7.539584999999999759e-01 6.909955000000000069e+00 1.272139999999999986e+02 1.644264999999999873e+03
1.430000000000000160e-01 7.539919999999999956e-01 6.914875000000000327e+00 1.273615000000000066e+02 1.644305000000000064e+03
1.440000000000000169e-01 7.540195000000000647e-01 6.910140000000000171e+00 1.274844999999999970e+02 1.644345000000000027e+03
1.450000000000000178e-01 7.540409999999999613e-01 6.895439999999999792e+00 1.275829999999999984e+02 1.644375000000000000e+03
1.459999999999999909e-01 7.540575000000000472e-01 6.870950000000000557e+00 1.276599999999999966e+02 1.644400000000000091e+03
1.469999999999999918e-01 7.540700000000000180e-01 6.837305000000000632e+00 1.277175000000000011e+02 1.644425000000000182e+03
1.479999999999999927e-01 7.540789999999999438e-01 6.795479999999999521e+00 1.277589999999999861e+02 1.644434999999999945e+03
1.489999999999999936e-01 7.540850000000000053e-01 6.746724999999999639e+00 1.277864999999999895e+02 1.644450000000000045e+03
1.499999999999999944e-01 7.540895000000000792e-01 6.692479999999999762e+00 1.278050000000000068e+02 1.644460000000000036e+03
1.509999999999999953e-01 7.540929999999999023e-01 6.634280000000000399e+00 1.278164999999999907e+02 1.644465000000000146e+03
1.519999999999999962e-01 7.540955000000000297e-01 6.573665000000000092e+00 1.278255000000000052e+02 1.644469999999999800e+03
1.529999999999999971e-01 7.540985000000000049e-01 6.512129999999999974e+00 1.278329999999999984e+02 1.644474999999999909e+03
1.539999999999999980e-01 7.541029999999999678e-01 6.451024999999999565e+00 1.278414999999999964e+02 1.644480000000000018e+03
1.549999999999999989e-01 7.541080000000000005e-01 6.391490000000000116e+00 1.278545000000000016e+02 1.644485000000000127e+03
1.559999999999999998e-01 7.541149999999999798e-01 6.334435000000000038e+00 1.278710000000000093e+02 1.644490000000000009e+03
1.570000000000000007e-01 7.541229999999999878e-01 6.280515000000000292e+00 1.278925000000000125e+02 1.644494999999999891e+03
1.580000000000000016e-01 7.541320000000000245e-01 6.230095000000000383e+00 1.279190000000000111e+02 1.644505000000000109e+03
1.590000000000000024e-01 7.541424999999999379e-01 6.183295000000000208e+00 1.279489999999999981e+02 1.644509999999999991e+03
