# t [s], A [cm^2], U [cm/s], P [cPa], c [cm/s]
1.000000000000000021e-03 1.661924999999999930e-01 3.983698999999999990e-01 1.018357499999999902e+02 2.191494999999999891e+03
2.000000000000000042e-03 1.661314999999999875e-01 2.134908499999999876e+00 9.781964999999999577e+01 2.190875000000000000e+03
3.000000000000000062e-03 1.659859999999999947e-01 4.274086000000000496e+00 9.222675000000000978e+01 2.189454999999999927e+03
4.000000000000000083e-03 1.658000000000000029e-01 6.693531499999999745e+00 8.642879999999999541e+01 2.187664999999999964e+03
5.000000000000000104e-03 1.656114999999999948e-01 9.262879999999999114e+00 8.154564999999999486e+01 2.185864999999999782e+03
6.000000000000000125e-03 1.654370000000000007e-01 1.168087000000000053e+01 7.764920000000000755e+01 2.184230000000000018e+03
7.000000000000000146e-03 1.652770000000000072e-01 1.369277999999999906e+01 7.422894999999999754e+01 2.182764999999999873e+03
8.000000000000000167e-03 1.651360000000000050e-01 1.530780000000000030e+01 7.119780000000000086e+01 2.181489999999999782e+03
9.000000000000001055e-03 1.650185000000000124e-01 1.660164999999999935e+01 6.873820000000000618e+01 2.180449999999999818e+03
1.000000000000000194e-02 1.649249999999999883e-01 1.760460000000000136e+01 6.685429999999999495e+01 2.179630000000000109e+03
1.099999999999999936e-02 1.648534999999999862e-01 1.835330000000000084e+01 6.548609999999999332e+01 2.179015000000000327e+03
1.200000000000000025e-02 1.648009999999999753e-01 1.886830000000000140e+01 6.453209999999999980e+01 2.178564999999999600e+03
1.300000000000000114e-02 1.647609999999999908e-01 1.914815000000000111e+01 6.378950000000000387e+01 2.178244999999999891e+03
1.400000000000000203e-02 1.647299999999999875e-01 1.926534999999999798e+01 6.318900000000000006e+01 2.178000000000000000e+03
1.499999999999999944e-02 1.647144999999999859e-01 1.942170000000000130e+01 6.306960000000000122e+01 2.177880000000000109e+03
1.600000000000000033e-02 1.647270000000000123e-01 1.985435000000000016e+01 6.404319999999999879e+01 2.178000000000000000e+03
1.700000000000000122e-02 1.647784999999999944e-01 2.067014999999999958e+01 6.650525000000000375e+01 2.178460000000000036e+03
1.800000000000000211e-02 1.648680000000000145e-01 2.175580000000000069e+01 7.022974999999999568e+01 2.179250000000000000e+03
1.900000000000000300e-02 1.649789999999999868e-01 2.282220000000000226e+01 7.435894999999999300e+01 2.180250000000000000e+03
2.000000000000000042e-02 1.650854999999999961e-01 2.354139999999999944e+01 7.776394999999999413e+01 2.181220000000000255e+03
2.100000000000000130e-02 1.651610000000000023e-01 2.369265000000000043e+01 7.953820000000000334e+01 2.181934999999999945e+03
2.200000000000000219e-02 1.651924999999999921e-01 2.324770000000000181e+01 7.936625000000000796e+01 2.182255000000000109e+03
2.299999999999999961e-02 1.651785000000000059e-01 2.236295000000000144e+01 7.760434999999999661e+01 2.182175000000000182e+03
2.400000000000000050e-02 1.651340000000000030e-01 2.129335000000000022e+01 7.506344999999998890e+01 2.181795000000000073e+03
2.500000000000000139e-02 1.650774999999999881e-01 2.027674999999999983e+01 7.262539999999999907e+01 2.181300000000000182e+03
2.600000000000000228e-02 1.650274999999999936e-01 1.944510000000000005e+01 7.088775000000001114e+01 2.180850000000000364e+03
2.700000000000000316e-02 1.649930000000000008e-01 1.879525000000000290e+01 6.998535000000001105e+01 2.180524999999999636e+03
2.800000000000000058e-02 1.649720000000000075e-01 1.821979999999999933e+01 6.962854999999998995e+01 2.180319999999999709e+03
2.900000000000000147e-02 1.649555000000000049e-01 1.757350000000000279e+01 6.930169999999999675e+01 2.180164999999999964e+03
3.000000000000000236e-02 1.649324999999999819e-01 1.674670000000000059e+01 6.852180000000001314e+01 2.179965000000000146e+03
3.099999999999999978e-02 1.648950000000000138e-01 1.571965000000000146e+01 6.705875000000000341e+01 2.179640000000000327e+03
3.200000000000000067e-02 1.648425000000000029e-01 1.458044999999999902e+01 6.504534999999999911e+01 2.179180000000000291e+03
3.300000000000000155e-02 1.647834999999999994e-01 1.350039999999999907e+01 6.294124999999999659e+01 2.178654999999999745e+03
3.400000000000000244e-02 1.647310000000000163e-01 1.267670000000000030e+01 6.136854999999999905e+01 2.178175000000000182e+03
3.500000000000000333e-02 1.647009999999999863e-01 1.226555000000000106e+01 6.088680000000000092e+01 2.177885000000000218e+03
3.600000000000000422e-02 1.647035000000000027e-01 1.233040000000000092e+01 6.179449999999999932e+01 2.177880000000000109e+03
3.700000000000000511e-02 1.647425000000000139e-01 1.282235000000000014e+01 6.402700000000000102e+01 2.178199999999999818e+03
3.799999999999999906e-02 1.648120000000000140e-01 1.359424999999999883e+01 6.717289999999999850e+01 2.178805000000000291e+03
3.899999999999999994e-02 1.648999999999999910e-01 1.443955000000000055e+01 7.058879999999999200e+01 2.179574999999999818e+03
4.000000000000000083e-02 1.649869999999999948e-01 1.514039999999999964e+01 7.356184999999999263e+01 2.180359999999999673e+03
4.100000000000000172e-02 1.650570000000000093e-01 1.551105000000000089e+01 7.546985000000000809e+01 2.181000000000000000e+03
4.200000000000000261e-02 1.650955000000000061e-01 1.542740000000000045e+01 7.589730000000000132e+01 2.181360000000000127e+03
4.300000000000000350e-02 1.650925000000000031e-01 1.483905000000000030e+01 7.468829999999999814e+01 2.181360000000000127e+03
4.400000000000000439e-02 1.650449999999999973e-01 1.376400000000000112e+01 7.193404999999999916e+01 2.180960000000000036e+03
4.499999999999999833e-02 1.649579999999999935e-01 1.227189500000000066e+01 6.791195000000000448e+01 2.180194999999999709e+03
4.599999999999999922e-02 1.648364999999999969e-01 1.046199999999999974e+01 6.300050000000000239e+01 2.179119999999999891e+03
4.700000000000000011e-02 1.646914999999999907e-01 8.443244999999999223e+00 5.759665000000000390e+01 2.177829999999999927e+03
4.800000000000000100e-02 1.645330000000000126e-01 6.320190000000000197e+00 5.205664999999999765e+01 2.176409999999999854e+03
4.900000000000000189e-02 1.643695000000000017e-01 4.186912500000000037e+00 4.666790000000000305e+01 2.174939999999999600e+03
5.000000000000000278e-02 1.642095000000000082e-01 2.126850000000000129e+00 4.164894999999999925e+01 2.173494999999999891e+03
5.100000000000000366e-02 1.640590000000000104e-01 2.163250000000003226e-01 3.716779999999999973e+01 2.172140000000000327e+03
5.200000000000000455e-02 1.639245000000000008e-01 -1.471509999999999874e+00 3.336599999999999966e+01 2.170909999999999854e+03
5.300000000000000544e-02 1.638094999999999968e-01 -2.864697249999999862e+00 3.037720000000000198e+01 2.169864999999999782e+03
5.399999999999999939e-02 1.637195000000000178e-01 -3.893550000000000288e+00 2.833525000000000205e+01 2.169034999999999854e+03
5.500000000000000028e-02 1.636589999999999989e-01 -4.494679999999999787e+00 2.736919999999999931e+01 2.168469999999999800e+03
5.600000000000000117e-02 1.636319999999999997e-01 -4.617024999999999935e+00 2.758870000000000289e+01 2.168194999999999709e+03
5.700000000000000205e-02 1.636409999999999809e-01 -4.227990000000000137e+00 2.906530000000000058e+01 2.168239999999999782e+03
5.800000000000000294e-02 1.636890000000000012e-01 -3.318280000000000118e+00 3.181589999999999918e+01 2.168635000000000218e+03
5.900000000000000383e-02 1.637744999999999895e-01 -1.903990000000000293e+00 3.579290000000000305e+01 2.169375000000000000e+03
6.000000000000000472e-02 1.638975000000000015e-01 -2.569500000000002338e-02 4.088434999999999775e+01 2.170444999999999709e+03
6.099999999999999867e-02 1.640530000000000044e-01 2.255175000000000374e+00 4.692309999999999803e+01 2.171815000000000055e+03
6.199999999999999956e-02 1.642370000000000219e-01 4.861657999999999369e+00 5.370239999999999725e+01 2.173439999999999600e+03
6.300000000000000044e-02 1.644424999999999915e-01 7.707164999999999822e+00 6.099439999999999884e+01 2.175279999999999745e+03
6.400000000000000133e-02 1.646639999999999771e-01 1.070117999999999903e+01 6.856765000000000043e+01 2.177274999999999636e+03
6.500000000000000222e-02 1.648950000000000138e-01 1.375416000000000061e+01 7.620144999999999413e+01 2.179349999999999909e+03
6.600000000000000311e-02 1.651285000000000114e-01 1.678170000000000073e+01 8.369710000000000605e+01 2.181465000000000146e+03
6.700000000000000400e-02 1.653580000000000050e-01 1.970790000000000219e+01 9.088595000000000823e+01 2.183554999999999836e+03
6.800000000000000488e-02 1.655800000000000050e-01 2.246894999999999953e+01 9.763519999999999754e+01 2.185585000000000036e+03
6.900000000000000577e-02 1.657899999999999929e-01 2.501549999999999940e+01 1.038543500000000108e+02 2.187514999999999873e+03
7.000000000000000666e-02 1.659855000000000080e-01 2.731550000000000011e+01 1.094968499999999949e+02 2.189315000000000055e+03
7.100000000000000755e-02 1.661644999999999928e-01 2.935475000000000279e+01 1.145625000000000000e+02 2.190974999999999909e+03
7.200000000000000844e-02 1.663284999999999902e-01 3.113695000000000235e+01 1.190960000000000036e+02 2.192494999999999891e+03
7.300000000000000933e-02 1.664769999999999861e-01 3.268195000000000050e+01 1.231790000000000020e+02 2.193885000000000218e+03
7.399999999999999634e-02 1.666134999999999977e-01 3.402270000000000039e+01 1.269214999999999947e+02 2.195164999999999964e+03
7.499999999999999722e-02 1.667410000000000003e-01 3.520060000000000144e+01 1.304499999999999886e+02 2.196355000000000018e+03
7.599999999999999811e-02 1.668625000000000247e-01 3.626085000000000491e+01 1.338910000000000196e+02 2.197489999999999782e+03
7.699999999999999900e-02 1.669815000000000049e-01 3.724760000000000559e+01 1.373600000000000136e+02 2.198605000000000018e+03
7.799999999999999989e-02 1.671020000000000005e-01 3.819939999999999714e+01 1.409490000000000123e+02 2.199724999999999909e+03
7.900000000000000078e-02 1.672244999999999981e-01 3.914605000000000246e+01 1.447169999999999845e+02 2.200869999999999891e+03
8.000000000000000167e-02 1.673525000000000151e-01 4.010634999999999906e+01 1.486895000000000095e+02 2.202055000000000291e+03
8.100000000000000255e-02 1.674849999999999950e-01 4.108715000000000117e+01 1.528555000000000064e+02 2.203284999999999854e+03
8.200000000000000344e-02 1.676219999999999932e-01 4.208335000000000292e+01 1.571689999999999827e+02 2.204559999999999945e+03
8.300000000000000433e-02 1.677629999999999955e-01 4.307949999999999591e+01 1.615589999999999975e+02 2.205864999999999782e+03
8.400000000000000522e-02 1.679039999999999977e-01 4.405169999999999675e+01 1.659340000000000259e+02 2.207180000000000291e+03
8.500000000000000611e-02 1.680439999999999989e-01 4.496985000000000099e+01 1.701909999999999741e+02 2.208485000000000127e+03
8.600000000000000699e-02 1.681794999999999818e-01 4.580060000000000286e+01 1.742230000000000132e+02 2.209744999999999891e+03
8.700000000000000788e-02 1.683069999999999844e-01 4.651004999999999967e+01 1.779295000000000186e+02 2.210940000000000055e+03
8.800000000000000877e-02 1.684240000000000181e-01 4.706615000000000038e+01 1.812175000000000011e+02 2.212039999999999964e+03
8.899999999999999578e-02 1.685284999999999977e-01 4.744089999999999918e+01 1.840135000000000218e+02 2.213019999999999982e+03
8.999999999999999667e-02 1.686174999999999757e-01 4.761254999999999882e+01 1.862624999999999886e+02 2.213860000000000127e+03
9.099999999999999756e-02 1.686894999999999922e-01 4.756645000000000323e+01 1.879314999999999998e+02 2.214550000000000182e+03
9.199999999999999845e-02 1.687440000000000051e-01 4.729650000000000176e+01 1.890120000000000005e+02 2.215074999999999818e+03
9.299999999999999933e-02 1.687815000000000010e-01 4.680505000000000138e+01 1.895165000000000077e+02 2.215435000000000400e+03
9.400000000000000022e-02 1.688004999999999922e-01 4.610280000000000200e+01 1.894809999999999945e+02 2.215635000000000218e+03
9.500000000000000111e-02 1.688040000000000096e-01 4.520824999999999960e+01 1.889590000000000032e+02 2.215685000000000400e+03
9.600000000000000200e-02 1.687925000000000120e-01 4.414645000000000152e+01 1.880180000000000007e+02 2.215590000000000146e+03
9.700000000000000289e-02 1.687680000000000013e-01 4.294729999999999848e+01 1.867365000000000066e+02 2.215380000000000109e+03
9.800000000000000377e-02 1.687329999999999941e-01 4.164424999999999955e+01 1.851999999999999886e+02 2.215069999999999709e+03
9.900000000000000466e-02 1.686904999999999932e-01 4.027230000000000132e+01 1.834920000000000186e+02 2.214680000000000291e+03
1.000000000000000056e-01 1.686420000000000141e-01 3.886619999999999919e+01 1.816974999999999909e+02 2.214239999999999782e+03
1.010000000000000064e-01 1.685909999999999909e-01 3.745924999999999727e+01 1.798909999999999911e+02 2.213765000000000327e+03
1.020000000000000073e-01 1.685385000000000078e-01 3.608159999999999457e+01 1.781405000000000030e+02 2.213279999999999745e+03
1.030000000000000082e-01 1.684869999999999979e-01 3.475925000000000153e+01 1.765014999999999930e+02 2.212805000000000291e+03
1.040000000000000091e-01 1.684384999999999910e-01 3.351304999999999978e+01 1.750160000000000196e+02 2.212349999999999909e+03
1.050000000000000100e-01 1.683945000000000025e-01 3.235795000000000243e+01 1.737115000000000009e+02 2.211930000000000291e+03
1.059999999999999970e-01 1.683549999999999769e-01 3.130284999999999940e+01 1.725999999999999943e+02 2.211560000000000400e+03
1.069999999999999979e-01 1.683204999999999840e-01 3.035000000000000142e+01 1.716800000000000068e+02 2.211230000000000018e+03
1.079999999999999988e-01 1.682914999999999828e-01 2.949580000000000268e+01 1.709345000000000141e+02 2.210949999999999818e+03
1.089999999999999997e-01 1.682669999999999999e-01 2.873069999999999879e+01 1.703335000000000150e+02 2.210715000000000146e+03
1.100000000000000006e-01 1.682460000000000067e-01 2.804015000000000057e+01 1.698369999999999891e+02 2.210510000000000218e+03
1.110000000000000014e-01 1.682279999999999887e-01 2.740579999999999927e+01 1.693950000000000102e+02 2.210335000000000036e+03
1.120000000000000023e-01 1.682115000000000138e-01 2.680664999999999765e+01 1.689544999999999959e+02 2.210175000000000182e+03
1.130000000000000032e-01 1.681944999999999968e-01 2.622025000000000006e+01 1.684590000000000032e+02 2.210010000000000218e+03
1.140000000000000041e-01 1.681755000000000055e-01 2.562444999999999951e+01 1.678550000000000182e+02 2.209829999999999927e+03
1.150000000000000050e-01 1.681529999999999969e-01 2.499869999999999948e+01 1.670955000000000155e+02 2.209619999999999891e+03
1.160000000000000059e-01 1.681259999999999977e-01 2.432525000000000048e+01 1.661394999999999982e+02 2.209369999999999891e+03
1.170000000000000068e-01 1.680925000000000058e-01 2.359049999999999869e+01 1.649610000000000127e+02 2.209064999999999600e+03
1.180000000000000077e-01 1.680535000000000223e-01 2.278560000000000230e+01 1.635455000000000041e+02 2.208699999999999818e+03
1.190000000000000085e-01 1.680069999999999897e-01 2.190740000000000265e+01 1.618915000000000077e+02 2.208269999999999982e+03
1.200000000000000094e-01 1.679535000000000056e-01 2.095814999999999984e+01 1.600149999999999864e+02 2.207774999999999636e+03
1.209999999999999964e-01 1.678935000000000011e-01 1.994585000000000008e+01 1.579435000000000002e+02 2.207224999999999909e+03
1.219999999999999973e-01 1.678280000000000050e-01 1.888325000000000031e+01 1.557175000000000011e+02 2.206625000000000000e+03
1.229999999999999982e-01 1.677580000000000182e-01 1.778754999999999953e+01 1.533870000000000005e+02 2.205974999999999909e+03
1.239999999999999991e-01 1.676854999999999873e-01 1.667879999999999896e+01 1.510084999999999980e+02 2.205309999999999945e+03
1.250000000000000000e-01 1.676114999999999966e-01 1.557914999999999850e+01 1.486415000000000077e+02 2.204619999999999891e+03
1.260000000000000009e-01 1.675375000000000059e-01 1.451104999999999912e+01 1.463439999999999941e+02 2.203940000000000055e+03
1.270000000000000018e-01 1.674664999999999904e-01 1.349645000000000117e+01 1.441719999999999970e+02 2.203279999999999745e+03
1.280000000000000027e-01 1.673990000000000200e-01 1.255509999999999948e+01 1.421744999999999948e+02 2.202654999999999745e+03
1.290000000000000036e-01 1.673370000000000135e-01 1.170404999999999873e+01 1.403905000000000030e+02 2.202074999999999818e+03
1.300000000000000044e-01 1.672804999999999986e-01 1.095644500000000043e+01 1.388495000000000061e+02 2.201550000000000182e+03
1.310000000000000053e-01 1.672319999999999918e-01 1.032122000000000028e+01 1.375690000000000168e+02 2.201085000000000036e+03
1.320000000000000062e-01 1.671910000000000063e-01 9.802834999999999965e+00 1.365544999999999902e+02 2.200704999999999927e+03
1.330000000000000071e-01 1.671575000000000144e-01 9.401244999999999408e+00 1.358019999999999925e+02 2.200385000000000218e+03
1.340000000000000080e-01 1.671320000000000028e-01 9.112289999999999779e+00 1.352950000000000159e+02 2.200144999999999982e+03
1.350000000000000089e-01 1.671144999999999992e-01 8.928049999999998931e+00 1.350120000000000005e+02 2.199965000000000146e+03
1.360000000000000098e-01 1.671030000000000015e-01 8.837500000000000355e+00 1.349209999999999923e+02 2.199855000000000018e+03
1.370000000000000107e-01 1.670975000000000099e-01 8.827189999999999870e+00 1.349875000000000114e+02 2.199795000000000073e+03
1.380000000000000115e-01 1.670965000000000089e-01 8.882004999999999484e+00 1.351754999999999995e+02 2.199774999999999636e+03
1.390000000000000124e-01 1.670995000000000119e-01 8.985890000000001265e+00 1.354449999999999932e+02 2.199800000000000182e+03
1.400000000000000133e-01 1.671055000000000179e-01 9.122575000000001211e+00 1.357590000000000146e+02 2.199840000000000146e+03
1.410000000000000142e-01 1.671119999999999828e-01 9.276199999999999335e+00 1.360829999999999984e+02 2.199904999999999745e+03
1.420000000000000151e-01 1.671199999999999908e-01 9.431910000000000238e+00 1.363834999999999980e+02 2.199970000000000255e+03
1.430000000000000160e-01 1.671269999999999978e-01 9.576330000000000453e+00 1.366340000000000146e+02 2.200034999999999854e+03
1.440000000000000169e-01 1.671330000000000038e-01 9.698024999999999451e+00 1.368109999999999786e+02 2.200090000000000146e+03
1.450000000000000178e-01 1.671364999999999934e-01 9.787675000000000125e+00 1.368974999999999795e+02 2.200125000000000000e+03
1.459999999999999909e-01 1.671380000000000088e-01 9.838544999999999874e+00 1.368824999999999932e+02 2.200135000000000218e+03
1.469999999999999918e-01 1.671369999999999800e-01 9.846420000000000172e+00 1.367595000000000027e+02 2.200125000000000000e+03
1.479999999999999927e-01 1.671320000000000028e-01 9.809560000000001168e+00 1.365300000000000011e+02 2.200090000000000146e+03
1.489999999999999936e-01 1.671245000000000092e-01 9.728830000000000311e+00 1.361995000000000005e+02 2.200019999999999982e+03
1.499999999999999944e-01 1.671139999999999848e-01 9.607264999999999944e+00 1.357785000000000082e+02 2.199925000000000182e+03
1.509999999999999953e-01 1.671009999999999995e-01 9.449790000000000134e+00 1.352819999999999823e+02 2.199809999999999945e+03
1.519999999999999962e-01 1.670854999999999979e-01 9.262909999999999755e+00 1.347269999999999754e+02 2.199675000000000182e+03
1.529999999999999971e-01 1.670685000000000087e-01 9.054100000000000037e+00 1.341329999999999814e+02 2.199519999999999982e+03
1.539999999999999980e-01 1.670510000000000050e-01 8.831350000000000477e+00 1.335199999999999818e+02 2.199354999999999563e+03
1.549999999999999989e-01 1.670320000000000138e-01 8.602650000000000574e+00 1.329064999999999941e+02 2.199185000000000400e+03
1.559999999999999998e-01 1.670134999999999814e-01 8.375564999999999927e+00 1.323089999999999975e+02 2.199015000000000327e+03
1.570000000000000007e-01 1.669950000000000045e-01 8.156810000000000116e+00 1.317429999999999950e+02 2.198850000000000364e+03
1.580000000000000016e-01 1.669780000000000153e-01 7.951934999999999754e+00 1.312180000000000177e+02 2.198685000000000400e+03
1.590000000000000024e-01 1.669614999999999849e-01 7.765114999999999768e+00 1.307415000000000020e+02 2.198539999999999964e+03
