# t [s], A [cm^2], U [cm/s], P [cPa], c [cm/s]
1.000000000000000021e-03 6.256869999999999932e-01 7.006500000000005779e-03 1.066169999999999902e+02 1.740750000000000000e+03
2.000000000000000042e-03 6.256789999999999852e-01 4.939900000000000541e-03 1.065840000000000032e+02 1.740744999999999891e+03
3.000000000000000062e-03 6.257515000000000160e-01 1.527170999999999945e-01 1.067560000000000002e+02 1.740784999999999854e+03
4.000000000000000083e-03 6.257785000000000153e-01 2.341775000000000106e-01 1.068460000000000036e+02 1.740800000000000182e+03
5.000000000000000104e-03 6.257044999999999968e-01 1.267135000000000067e-01 1.066094999999999970e+02 1.740755000000000109e+03
6.000000000000000125e-03 6.256224999999999703e-01 -7.780000000000009130e-03 1.062205000000000013e+02 1.740670000000000073e+03
7.000000000000000146e-03 6.255265000000000963e-01 -1.875000000000000000e-01 1.056984999999999957e+02 1.740555000000000064e+03
8.000000000000000167e-03 6.253490000000000437e-01 -5.497000000000000774e-01 1.048474999999999966e+02 1.740369999999999891e+03
9.000000000000001055e-03 6.250959999999999850e-01 -1.081080000000000041e+00 1.036210000000000093e+02 1.740099999999999909e+03
1.000000000000000194e-02 6.247515000000000152e-01 -1.795300000000000118e+00 1.019443500000000000e+02 1.739730000000000018e+03
1.099999999999999936e-02 6.242855000000000487e-01 -2.724185000000000301e+00 9.970734999999999104e+01 1.739230000000000018e+03
1.200000000000000025e-02 6.237384999999999735e-01 -3.754539999999999988e+00 9.699200000000000443e+01 1.738605000000000018e+03
1.300000000000000114e-02 6.232200000000001072e-01 -4.622949999999999449e+00 9.414900000000000091e+01 1.737929999999999836e+03
1.400000000000000203e-02 6.228279999999999372e-01 -5.079633000000000287e+00 9.159954999999999359e+01 1.737285000000000082e+03
1.499999999999999944e-02 6.225875000000000714e-01 -5.026960000000000761e+00 8.959995000000000687e+01 1.736740000000000009e+03
1.600000000000000033e-02 6.224534999999999929e-01 -4.539984999999999715e+00 8.814555000000000007e+01 1.736295000000000073e+03
1.700000000000000122e-02 6.223400000000000043e-01 -3.802964999999999929e+00 8.701515000000000555e+01 1.735920000000000073e+03
1.800000000000000211e-02 6.221654999999999269e-01 -3.016645000000000021e+00 8.589555000000000007e+01 1.735559999999999945e+03
1.900000000000000300e-02 6.218859999999999388e-01 -2.314614000000000171e+00 8.452629999999999200e+01 1.735154999999999973e+03
2.000000000000000042e-02 6.215089999999999781e-01 -1.720114999999999839e+00 8.280400000000000205e+01 1.734680000000000064e+03
2.100000000000000130e-02 6.210804999999999243e-01 -1.162339999999999929e+00 8.079984999999999218e+01 1.734144999999999982e+03
2.200000000000000219e-02 6.206559999999999855e-01 -5.387349999999999639e-01 7.868954999999999700e+01 1.733579999999999927e+03
2.299999999999999961e-02 6.202729999999999633e-01 2.164000000000001478e-01 7.664509999999999934e+01 1.733019999999999982e+03
2.400000000000000050e-02 6.199315000000000797e-01 1.090355000000000185e+00 7.474629999999999086e+01 1.732485000000000127e+03
2.500000000000000139e-02 6.195999999999999286e-01 1.987634999999999819e+00 7.294149999999999068e+01 1.731965000000000146e+03
2.600000000000000228e-02 6.192239999999999966e-01 2.755545000000000133e+00 7.106080000000000041e+01 1.731440000000000055e+03
2.700000000000000316e-02 6.187449999999999894e-01 3.228085000000000093e+00 6.886990000000000123e+01 1.730849999999999909e+03
2.800000000000000058e-02 6.181229999999999780e-01 3.275790000000000202e+00 6.614840000000000941e+01 1.730159999999999854e+03
2.900000000000000147e-02 6.173480000000000079e-01 2.847289999999999655e+00 6.277000000000000313e+01 1.729320000000000164e+03
3.000000000000000236e-02 6.164479999999999960e-01 1.987250000000000405e+00 5.875610000000000355e+01 1.728355000000000018e+03
3.099999999999999978e-02 6.154824999999999324e-01 8.237000000000005429e-01 5.428215000000000146e+01 1.727264999999999873e+03
3.200000000000000067e-02 6.145244999999999180e-01 -4.680999999999997385e-01 4.963819999999999766e+01 1.726130000000000109e+03
3.300000000000000155e-02 6.136460000000000248e-01 -1.708420000000000272e+00 4.516384999999999650e+01 1.725005000000000109e+03
3.400000000000000244e-02 6.129059999999999508e-01 -2.746609999999999552e+00 4.118339999999999890e+01 1.723980000000000018e+03
3.500000000000000333e-02 6.123410000000000242e-01 -3.479069999999999663e+00 3.795685000000000286e+01 1.723110000000000127e+03
3.600000000000000422e-02 6.119674999999999976e-01 -3.852250000000000618e+00 3.565429999999999922e+01 1.722434999999999945e+03
3.700000000000000511e-02 6.117870000000000807e-01 -3.854270000000000085e+00 3.435245000000000459e+01 1.722005000000000109e+03
3.799999999999999906e-02 6.117869999999999697e-01 -3.500669999999999948e+00 3.404869999999999663e+01 1.721809999999999945e+03
3.899999999999999994e-02 6.119520000000000515e-01 -2.818548999999999971e+00 3.468589999999999662e+01 1.721849999999999909e+03
4.000000000000000083e-02 6.122659999999999769e-01 -1.833984999999999754e+00 3.618025000000000091e+01 1.722115000000000009e+03
4.100000000000000172e-02 6.127154999999999685e-01 -5.657149999999999679e-01 3.844310000000000116e+01 1.722579999999999927e+03
4.200000000000000261e-02 6.132885000000000142e-01 9.740150000000000752e-01 4.139269999999999783e+01 1.723230000000000018e+03
4.300000000000000350e-02 6.139749999999999375e-01 2.773240000000000371e+00 4.495425000000000182e+01 1.724050000000000182e+03
4.400000000000000439e-02 6.147629999999999484e-01 4.812374999999999403e+00 4.905319999999999681e+01 1.725015000000000100e+03
4.499999999999999833e-02 6.156355000000000022e-01 7.058115000000000805e+00 5.360589999999999833e+01 1.726105000000000018e+03
4.599999999999999922e-02 6.165709999999999802e-01 9.461605000000000487e+00 5.851344999999999885e+01 1.727295000000000073e+03
4.700000000000000011e-02 6.175450000000000106e-01 1.196081500000000020e+01 6.366165000000000163e+01 1.728570000000000164e+03
4.800000000000000100e-02 6.185325000000000406e-01 1.448651999999999873e+01 6.892595000000000027e+01 1.729885000000000218e+03
4.900000000000000189e-02 6.195074999999999887e-01 1.696938000000000102e+01 7.418120000000000402e+01 1.731220000000000027e+03
5.000000000000000278e-02 6.204490000000000283e-01 1.934725000000000250e+01 7.931239999999999668e+01 1.732539999999999964e+03
5.100000000000000366e-02 6.213424999999999088e-01 2.157049999999999912e+01 8.422469999999999857e+01 1.733829999999999927e+03
5.200000000000000455e-02 6.221780000000000088e-01 2.360470000000000113e+01 8.885065000000000168e+01 1.735054999999999836e+03
5.300000000000000544e-02 6.229529999999999790e-01 2.543120000000000047e+01 9.315240000000000009e+01 1.736220000000000027e+03
5.399999999999999939e-02 6.236675000000000413e-01 2.704540000000000077e+01 9.712174999999999159e+01 1.737309999999999945e+03
5.500000000000000028e-02 6.243300000000000516e-01 2.845400000000000063e+01 1.007742000000000075e+02 1.738319999999999936e+03
5.600000000000000117e-02 6.249460000000000015e-01 2.967220000000000013e+01 1.041467999999999989e+02 1.739264999999999873e+03
5.700000000000000205e-02 6.255275000000000141e-01 3.072109999999999985e+01 1.072884999999999991e+02 1.740150000000000091e+03
5.800000000000000294e-02 6.260845000000000438e-01 3.162559999999999860e+01 1.102554999999999978e+02 1.740990000000000009e+03
5.900000000000000383e-02 6.266289999999999916e-01 3.241315000000000168e+01 1.131109999999999900e+02 1.741795000000000073e+03
6.000000000000000472e-02 6.271710000000000340e-01 3.311180000000000234e+01 1.159140000000000015e+02 1.742585000000000036e+03
6.099999999999999867e-02 6.277200000000000557e-01 3.374864999999999782e+01 1.187195000000000107e+02 1.743360000000000127e+03
6.199999999999999956e-02 6.282834999999999948e-01 3.434794999999999732e+01 1.215739999999999981e+02 1.744144999999999982e+03
6.300000000000000044e-02 6.288664999999999949e-01 3.492844999999999800e+01 1.245090000000000003e+02 1.744944999999999936e+03
6.400000000000000133e-02 6.294699999999999740e-01 3.550204999999999700e+01 1.275415000000000134e+02 1.745769999999999982e+03
6.500000000000000222e-02 6.300919999999999854e-01 3.607200000000000273e+01 1.306674999999999898e+02 1.746605000000000018e+03
6.600000000000000311e-02 6.307255000000000500e-01 3.663299999999999557e+01 1.338634999999999877e+02 1.747465000000000146e+03
6.700000000000000400e-02 6.313614999999999089e-01 3.717185000000000628e+01 1.370885000000000105e+02 1.748329999999999927e+03
6.800000000000000488e-02 6.319885000000000641e-01 3.766925000000000523e+01 1.402875000000000227e+02 1.749190000000000055e+03
6.900000000000000577e-02 6.325920000000000432e-01 3.810200000000000387e+01 1.433949999999999818e+02 1.750035000000000082e+03
7.000000000000000666e-02 6.331605000000000150e-01 3.844565000000000055e+01 1.463419999999999845e+02 1.750835000000000036e+03
7.100000000000000755e-02 6.336800000000000210e-01 3.867680000000000007e+01 1.490625000000000000e+02 1.751590000000000146e+03
7.200000000000000844e-02 6.341415000000000246e-01 3.877524999999999977e+01 1.514960000000000093e+02 1.752275000000000091e+03
7.300000000000000933e-02 6.345365000000000588e-01 3.872549999999999670e+01 1.535950000000000273e+02 1.752880000000000109e+03
7.399999999999999634e-02 6.348595000000000210e-01 3.851770000000000493e+01 1.553245000000000005e+02 1.753394999999999982e+03
7.499999999999999722e-02 6.351084999999999647e-01 3.814824999999999733e+01 1.566664999999999850e+02 1.753804999999999836e+03
7.599999999999999811e-02 6.352845000000000297e-01 3.761959999999999837e+01 1.576179999999999950e+02 1.754125000000000000e+03
7.699999999999999900e-02 6.353900000000000103e-01 3.694044999999999845e+01 1.581920000000000073e+02 1.754345000000000027e+03
7.799999999999999989e-02 6.354319999999999968e-01 3.612474999999999881e+01 1.584139999999999873e+02 1.754469999999999800e+03
7.900000000000000078e-02 6.354170000000000096e-01 3.519115000000000038e+01 1.583234999999999957e+02 1.754505000000000109e+03
8.000000000000000167e-02 6.353554999999999620e-01 3.416205000000000069e+01 1.579664999999999964e+02 1.754470000000000027e+03
8.100000000000000255e-02 6.352569999999999606e-01 3.306239999999999668e+01 1.573960000000000150e+02 1.754369999999999891e+03
8.200000000000000344e-02 6.351320000000000299e-01 3.191844999999999999e+01 1.566694999999999993e+02 1.754220000000000027e+03
8.300000000000000433e-02 6.349914999999999310e-01 3.075660000000000238e+01 1.558439999999999941e+02 1.754039999999999964e+03
8.400000000000000522e-02 6.348449999999999926e-01 2.960195000000000221e+01 1.549735000000000014e+02 1.753835000000000036e+03
8.500000000000000611e-02 6.347015000000000295e-01 2.847724999999999795e+01 1.541075000000000159e+02 1.753625000000000000e+03
8.600000000000000699e-02 6.345684999999999798e-01 2.740169999999999817e+01 1.532889999999999873e+02 1.753414999999999964e+03
8.700000000000000788e-02 6.344505000000000283e-01 2.639009999999999678e+01 1.525500000000000114e+02 1.753224999999999909e+03
8.800000000000000877e-02 6.343514999999999571e-01 2.545240000000000080e+01 1.519130000000000109e+02 1.753049999999999955e+03
8.899999999999999578e-02 6.342725000000000168e-01 2.459335000000000093e+01 1.513909999999999911e+02 1.752900000000000091e+03
8.999999999999999667e-02 6.342144999999999033e-01 2.381279999999999930e+01 1.509834999999999923e+02 1.752775000000000091e+03
9.099999999999999756e-02 6.341730000000000977e-01 2.310585000000000022e+01 1.506839999999999975e+02 1.752679999999999836e+03
9.199999999999999845e-02 6.341460000000000985e-01 2.246340000000000003e+01 1.504749999999999943e+02 1.752605000000000018e+03
9.299999999999999933e-02 6.341274999999999551e-01 2.187320000000000064e+01 1.503315000000000055e+02 1.752545000000000073e+03
9.400000000000000022e-02 6.341129999999999267e-01 2.132055000000000078e+01 1.502249999999999943e+02 1.752505000000000109e+03
9.500000000000000111e-02 6.340950000000000752e-01 2.078914999999999935e+01 1.501239999999999952e+02 1.752465000000000146e+03
9.600000000000000200e-02 6.340684999999999238e-01 2.026219999999999999e+01 1.499945000000000164e+02 1.752420000000000073e+03
9.700000000000000289e-02 6.340274999999999661e-01 1.972339999999999804e+01 1.498050000000000068e+02 1.752364999999999782e+03
9.800000000000000377e-02 6.339660000000000295e-01 1.915784999999999982e+01 1.495260000000000105e+02 1.752289999999999964e+03
9.900000000000000466e-02 6.338814999999999866e-01 1.855299999999999727e+01 1.491340000000000146e+02 1.752194999999999936e+03
1.000000000000000056e-01 6.337699999999999445e-01 1.789939999999999998e+01 1.486105000000000018e+02 1.752059999999999945e+03
1.010000000000000064e-01 6.336304999999999854e-01 1.719134999999999991e+01 1.479449999999999932e+02 1.751894999999999982e+03
1.020000000000000073e-01 6.334645000000000969e-01 1.642725000000000080e+01 1.471355000000000075e+02 1.751700000000000045e+03
1.030000000000000082e-01 6.332724999999999049e-01 1.560970000000000013e+01 1.461889999999999930e+02 1.751465000000000146e+03
1.040000000000000091e-01 6.330590000000000384e-01 1.474550999999999945e+01 1.451200000000000045e+02 1.751204999999999927e+03
1.050000000000000100e-01 6.328290000000000859e-01 1.384517999999999915e+01 1.439509999999999934e+02 1.750909999999999854e+03
1.059999999999999970e-01 6.325875000000000803e-01 1.292237499999999883e+01 1.427104999999999961e+02 1.750599999999999909e+03
1.069999999999999979e-01 6.323425000000000296e-01 1.199308999999999870e+01 1.414325000000000045e+02 1.750269999999999982e+03
1.079999999999999988e-01 6.321004999999999541e-01 1.107479999999999976e+01 1.401525000000000034e+02 1.749945000000000164e+03
1.089999999999999997e-01 6.318680000000000963e-01 1.018529499999999999e+01 1.389089999999999918e+02 1.749615000000000009e+03
1.100000000000000006e-01 6.316519999999999913e-01 9.341879999999999740e+00 1.377359999999999900e+02 1.749304999999999836e+03
1.110000000000000014e-01 6.314580000000000748e-01 8.560320000000000817e+00 1.366659999999999968e+02 1.749014999999999873e+03
1.120000000000000023e-01 6.312904999999999767e-01 7.853970000000000340e+00 1.357270000000000039e+02 1.748755000000000109e+03
1.130000000000000032e-01 6.311534999999999229e-01 7.233190000000000452e+00 1.349384999999999764e+02 1.748529999999999973e+03
1.140000000000000041e-01 6.310485000000000122e-01 6.704800000000000537e+00 1.343149999999999977e+02 1.748344999999999800e+03
1.150000000000000050e-01 6.309754999999999114e-01 6.271955000000000169e+00 1.338600000000000136e+02 1.748200000000000045e+03
1.160000000000000059e-01 6.309329999999999661e-01 5.934050000000000047e+00 1.335720000000000027e+02 1.748099999999999909e+03
1.170000000000000068e-01 6.309195000000000775e-01 5.686980000000000146e+00 1.334414999999999907e+02 1.748034999999999854e+03
1.180000000000000077e-01 6.309314999999999785e-01 5.523574999999999235e+00 1.334519999999999982e+02 1.748009999999999991e+03
1.190000000000000085e-01 6.309635000000000105e-01 5.434120000000000061e+00 1.335825000000000102e+02 1.748014999999999873e+03
1.200000000000000094e-01 6.310109999999999886e-01 5.407014999999999461e+00 1.338079999999999927e+02 1.748049999999999955e+03
1.209999999999999964e-01 6.310694999999999499e-01 5.429425000000000168e+00 1.341014999999999873e+02 1.748105000000000018e+03
1.219999999999999973e-01 6.311335000000000139e-01 5.487975000000000492e+00 1.344370000000000118e+02 1.748175000000000182e+03
1.229999999999999982e-01 6.311984999999999957e-01 5.569354999999999833e+00 1.347874999999999943e+02 1.748255000000000109e+03
1.239999999999999991e-01 6.312590000000000146e-01 5.660865000000000258e+00 1.351284999999999741e+02 1.748329999999999927e+03
1.250000000000000000e-01 6.313124999999999432e-01 5.750869999999999926e+00 1.354384999999999764e+02 1.748404999999999973e+03
1.260000000000000009e-01 6.313554999999999584e-01 5.829180000000000028e+00 1.356995000000000005e+02 1.748470000000000027e+03
1.270000000000000018e-01 6.313860000000000028e-01 5.887299999999999756e+00 1.358979999999999961e+02 1.748525000000000091e+03
1.280000000000000027e-01 6.314025000000000887e-01 5.918594999999999828e+00 1.360250000000000057e+02 1.748559999999999945e+03
1.290000000000000036e-01 6.314040000000000763e-01 5.918395000000000294e+00 1.360734999999999957e+02 1.748579999999999927e+03
1.300000000000000044e-01 6.313910000000000355e-01 5.883985000000000021e+00 1.360425000000000182e+02 1.748579999999999927e+03
1.310000000000000053e-01 6.313630000000000075e-01 5.814555000000000362e+00 1.359345000000000141e+02 1.748555000000000064e+03
1.320000000000000062e-01 6.313230000000000786e-01 5.711075000000000124e+00 1.357540000000000191e+02 1.748525000000000091e+03
1.330000000000000071e-01 6.312714999999999854e-01 5.576095000000000468e+00 1.355090000000000146e+02 1.748470000000000027e+03
1.340000000000000080e-01 6.312100000000000488e-01 5.413555000000000561e+00 1.352099999999999795e+02 1.748400000000000091e+03
1.350000000000000089e-01 6.311424999999999397e-01 5.228469999999999729e+00 1.348679999999999950e+02 1.748319999999999936e+03
1.360000000000000098e-01 6.310704999999999787e-01 5.026634999999999742e+00 1.344954999999999927e+02 1.748230000000000018e+03
1.370000000000000107e-01 6.309960000000000013e-01 4.814275000000000304e+00 1.341050000000000182e+02 1.748134999999999991e+03
1.380000000000000115e-01 6.309219999999999828e-01 4.597704999999999487e+00 1.337090000000000032e+02 1.748034999999999854e+03
1.390000000000000124e-01 6.308495000000000630e-01 4.382979999999999876e+00 1.333179999999999836e+02 1.747934999999999945e+03
1.400000000000000133e-01 6.307814999999999950e-01 4.175580000000000069e+00 1.329420000000000073e+02 1.747839999999999918e+03
1.410000000000000142e-01 6.307175000000000420e-01 3.980135000000000201e+00 1.325889999999999986e+02 1.747744999999999891e+03
1.420000000000000151e-01 6.306594999999999285e-01 3.800244999999999873e+00 1.322634999999999934e+02 1.747659999999999854e+03
1.430000000000000160e-01 6.306080000000000574e-01 3.638355000000000228e+00 1.319679999999999893e+02 1.747579999999999927e+03
1.440000000000000169e-01 6.305620000000000669e-01 3.495735000000000259e+00 1.317040000000000077e+02 1.747505000000000109e+03
1.450000000000000178e-01 6.305209999999999981e-01 3.372524999999999995e+00 1.314685000000000059e+02 1.747440000000000055e+03
1.459999999999999909e-01 6.304840000000000444e-01 3.267845000000000333e+00 1.312574999999999932e+02 1.747380000000000109e+03
1.469999999999999918e-01 6.304505000000000248e-01 3.180019999999999847e+00 1.310664999999999907e+02 1.747324999999999818e+03
1.479999999999999927e-01 6.304184999999999928e-01 3.106765000000000221e+00 1.308890000000000100e+02 1.747275000000000091e+03
1.489999999999999936e-01 6.303874999999999895e-01 3.045424999999999827e+00 1.307175000000000011e+02 1.747224999999999909e+03
1.499999999999999944e-01 6.303549999999999986e-01 2.993224999999999802e+00 1.305459999999999923e+02 1.747174999999999955e+03
1.509999999999999953e-01 6.303214999999999790e-01 2.947479999999999656e+00 1.303679999999999950e+02 1.747125000000000000e+03
1.519999999999999962e-01 6.302845000000000253e-01 2.905769999999999964e+00 1.301794999999999902e+02 1.747075000000000045e+03
1.529999999999999971e-01 6.302449999999999442e-01 2.866114999999999746e+00 1.299759999999999991e+02 1.747019999999999982e+03
1.539999999999999980e-01 6.302019999999999289e-01 2.827065000000000161e+00 1.297554999999999836e+02 1.746960000000000036e+03
1.549999999999999989e-01 6.301550000000000207e-01 2.787774999999999892e+00 1.295184999999999889e+02 1.746894999999999982e+03
1.559999999999999998e-01 6.301049999999999152e-01 2.748050000000000104e+00 1.292660000000000196e+02 1.746829999999999927e+03
1.570000000000000007e-01 6.300529999999999742e-01 2.708294999999999675e+00 1.290000000000000000e+02 1.746759999999999991e+03
1.580000000000000016e-01 6.299995000000000456e-01 2.669494999999999951e+00 1.287259999999999991e+02 1.746684999999999945e+03
1.590000000000000024e-01 6.299449999999999772e-01 2.633094999999999963e+00 1.284480000000000075e+02 1.746610000000000127e+03
