# t [s], A [cm^2], U [cm/s], P [cPa], c [cm/s]
1.000000000000000021e-03 1.458635000000000070e-01 4.253190000000000026e-01 1.017300999999999931e+02 1.844409999999999854e+03
2.000000000000000042e-03 1.458319999999999894e-01 2.138760500000000064e+00 9.830305000000001314e+01 1.844055000000000064e+03
3.000000000000000062e-03 1.457244999999999790e-01 4.187397999999999954e+00 9.390295000000000414e+01 1.842920000000000073e+03
4.000000000000000083e-03 1.455695000000000183e-01 6.440611499999999268e+00 8.920820000000000505e+01 1.841289999999999964e+03
5.000000000000000104e-03 1.453929999999999945e-01 8.834004999999999441e+00 8.498460000000000036e+01 1.839464999999999918e+03
6.000000000000000125e-03 1.452160000000000117e-01 1.122769000000000084e+01 8.150919999999999277e+01 1.837650000000000091e+03
7.000000000000000146e-03 1.450460000000000083e-01 1.344700999999999880e+01 7.861804999999999666e+01 1.835925000000000182e+03
8.000000000000000167e-03 1.448859999999999870e-01 1.539416499999999921e+01 7.607005000000000905e+01 1.834329999999999927e+03
9.000000000000001055e-03 1.447395000000000209e-01 1.707515000000000072e+01 7.381274999999999409e+01 1.832889999999999873e+03
1.000000000000000194e-02 1.446100000000000163e-01 1.852264999999999873e+01 7.189320000000000732e+01 1.831630000000000109e+03
1.099999999999999936e-02 1.444980000000000153e-01 1.975130000000000052e+01 7.030629999999999313e+01 1.830545000000000073e+03
1.200000000000000025e-02 1.444024999999999892e-01 2.076995000000000147e+01 6.900100000000000477e+01 1.829639999999999873e+03
1.300000000000000114e-02 1.443224999999999925e-01 2.158895000000000053e+01 6.792054999999999154e+01 1.828880000000000109e+03
1.400000000000000203e-02 1.442549999999999943e-01 2.221710000000000207e+01 6.700095000000000312e+01 1.828250000000000000e+03
1.499999999999999944e-02 1.441979999999999928e-01 2.267365000000000208e+01 6.618995000000001028e+01 1.827730000000000018e+03
1.600000000000000033e-02 1.441494999999999860e-01 2.301109999999999900e+01 6.551030000000000086e+01 1.827295000000000073e+03
1.700000000000000122e-02 1.441125000000000045e-01 2.331974999999999909e+01 6.510069999999998913e+01 1.826964999999999918e+03
1.800000000000000211e-02 1.440909999999999969e-01 2.370064999999999955e+01 6.517364999999999498e+01 1.826784999999999854e+03
1.900000000000000300e-02 1.440905000000000102e-01 2.422325000000000017e+01 6.590429999999999211e+01 1.826795000000000073e+03
2.000000000000000042e-02 1.441140000000000199e-01 2.489375000000000071e+01 6.732235000000000014e+01 1.827025000000000091e+03
2.100000000000000130e-02 1.441584999999999950e-01 2.565099999999999980e+01 6.926744999999999663e+01 1.827465000000000146e+03
2.200000000000000219e-02 1.442189999999999861e-01 2.638860000000000028e+01 7.142650000000000432e+01 1.828054999999999836e+03
2.299999999999999961e-02 1.442859999999999976e-01 2.699070000000000036e+01 7.342785000000000650e+01 1.828710000000000036e+03
2.400000000000000050e-02 1.443490000000000051e-01 2.736699999999999733e+01 7.494910000000000139e+01 1.829335000000000036e+03
2.500000000000000139e-02 1.443995000000000140e-01 2.747489999999999810e+01 7.580015000000000214e+01 1.829845000000000027e+03
2.600000000000000228e-02 1.444330000000000058e-01 2.732505000000000095e+01 7.595695000000000618e+01 1.830190000000000055e+03
2.700000000000000316e-02 1.444479999999999931e-01 2.696994999999999720e+01 7.554335000000000377e+01 1.830365000000000009e+03
2.800000000000000058e-02 1.444479999999999931e-01 2.648294999999999888e+01 7.477285000000000537e+01 1.830380000000000109e+03
2.900000000000000147e-02 1.444360000000000088e-01 2.593545000000000300e+01 7.387520000000000664e+01 1.830289999999999964e+03
3.000000000000000236e-02 1.444199999999999928e-01 2.537870000000000203e+01 7.303215000000000146e+01 1.830139999999999873e+03
3.099999999999999978e-02 1.444020000000000026e-01 2.483599999999999852e+01 7.234010000000000673e+01 1.829974999999999909e+03
3.200000000000000067e-02 1.443849999999999856e-01 2.430474999999999852e+01 7.180430000000001201e+01 1.829815000000000055e+03
3.300000000000000155e-02 1.443694999999999840e-01 2.376534999999999798e+01 7.136209999999999809e+01 1.829670000000000073e+03
3.400000000000000244e-02 1.443544999999999967e-01 2.319449999999999790e+01 7.092070000000001073e+01 1.829525000000000091e+03
3.500000000000000333e-02 1.443369999999999931e-01 2.257740000000000080e+01 7.039875000000000682e+01 1.829365000000000009e+03
3.600000000000000422e-02 1.443169999999999731e-01 2.191619999999999990e+01 6.975874999999999204e+01 1.829170000000000073e+03
3.700000000000000511e-02 1.442940000000000056e-01 2.123329999999999984e+01 6.902360000000000184e+01 1.828954999999999927e+03
3.799999999999999906e-02 1.442684999999999940e-01 2.056824999999999903e+01 6.827465000000000828e+01 1.828715000000000146e+03
3.899999999999999994e-02 1.442434999999999967e-01 1.997019999999999840e+01 6.763249999999999318e+01 1.828474999999999909e+03
4.000000000000000083e-02 1.442229999999999901e-01 1.948680000000000234e+01 6.722755000000000791e+01 1.828275000000000091e+03
4.100000000000000172e-02 1.442100000000000048e-01 1.915420000000000300e+01 6.716700000000000159e+01 1.828144999999999982e+03
4.200000000000000261e-02 1.442080000000000028e-01 1.898830000000000240e+01 6.750780000000000314e+01 1.828115000000000009e+03
4.300000000000000350e-02 1.442180000000000129e-01 1.898120000000000118e+01 6.824094999999999800e+01 1.828200000000000045e+03
4.400000000000000439e-02 1.442404999999999937e-01 1.910170000000000101e+01 6.929025000000000034e+01 1.828404999999999973e+03
4.499999999999999833e-02 1.442720000000000113e-01 1.930015000000000214e+01 7.052429999999999666e+01 1.828704999999999927e+03
4.599999999999999922e-02 1.443099999999999938e-01 1.951620000000000132e+01 7.177774999999999750e+01 1.829059999999999945e+03
4.700000000000000011e-02 1.443490000000000051e-01 1.968690000000000140e+01 7.287709999999999866e+01 1.829430000000000064e+03
4.800000000000000100e-02 1.443834999999999980e-01 1.975495000000000090e+01 7.366474999999999795e+01 1.829764999999999873e+03
4.900000000000000189e-02 1.444094999999999962e-01 1.967464999999999975e+01 7.401865000000000805e+01 1.830019999999999982e+03
5.000000000000000278e-02 1.444225000000000092e-01 1.941535000000000011e+01 7.386359999999999104e+01 1.830144999999999982e+03
5.100000000000000366e-02 1.444199999999999928e-01 1.896280000000000143e+01 7.317419999999999902e+01 1.830130000000000109e+03
5.200000000000000455e-02 1.444004999999999872e-01 1.831795000000000329e+01 7.197114999999999441e+01 1.829949999999999818e+03
5.300000000000000544e-02 1.443639999999999923e-01 1.749465000000000003e+01 7.031174999999998931e+01 1.829605000000000018e+03
5.399999999999999939e-02 1.443114999999999815e-01 1.651630000000000109e+01 6.827844999999999231e+01 1.829105000000000018e+03
5.500000000000000028e-02 1.442454999999999987e-01 1.541270000000000095e+01 6.596705000000000041e+01 1.828474999999999909e+03
5.600000000000000117e-02 1.441685000000000050e-01 1.421760000000000090e+01 6.347729999999999961e+01 1.827735000000000127e+03
5.700000000000000205e-02 1.440835000000000032e-01 1.296625500000000031e+01 6.090579999999999927e+01 1.826914999999999964e+03
5.800000000000000294e-02 1.439930000000000099e-01 1.169467000000000034e+01 5.834250000000000114e+01 1.826049999999999955e+03
5.900000000000000383e-02 1.439010000000000011e-01 1.043859499999999940e+01 5.586950000000000216e+01 1.825159999999999854e+03
6.000000000000000472e-02 1.438094999999999790e-01 9.233354999999999535e+00 5.356199999999999761e+01 1.824284999999999854e+03
6.099999999999999867e-02 1.437225000000000030e-01 8.113844999999999530e+00 5.148899999999999721e+01 1.823440000000000055e+03
6.199999999999999956e-02 1.436419999999999919e-01 7.113764999999999894e+00 4.971519999999999584e+01 1.822655000000000200e+03
6.300000000000000044e-02 1.435704999999999898e-01 6.265565000000000495e+00 4.830064999999999742e+01 1.821965000000000146e+03
6.400000000000000133e-02 1.435104999999999853e-01 5.599210000000000242e+00 4.730055000000000121e+01 1.821380000000000109e+03
6.500000000000000222e-02 1.434650000000000092e-01 5.141305000000000014e+00 4.676340000000000430e+01 1.820930000000000064e+03
6.600000000000000311e-02 1.434350000000000069e-01 4.913834999999999731e+00 4.672854999999999848e+01 1.820625000000000000e+03
6.700000000000000400e-02 1.434225000000000083e-01 4.932990000000000208e+00 4.722364999999999924e+01 1.820494999999999891e+03
6.800000000000000488e-02 1.434290000000000009e-01 5.208190000000000097e+00 4.826234999999999786e+01 1.820539999999999964e+03
6.900000000000000577e-02 1.434549999999999992e-01 5.741439999999999877e+00 4.984224999999999994e+01 1.820775000000000091e+03
7.000000000000000666e-02 1.435015000000000041e-01 6.527105000000000601e+00 5.194454999999999956e+01 1.821195000000000164e+03
7.100000000000000755e-02 1.435670000000000002e-01 7.552134999999999820e+00 5.453444999999999965e+01 1.821809999999999945e+03
7.200000000000000844e-02 1.436505000000000143e-01 8.796730000000000160e+00 5.756265000000000498e+01 1.822599999999999909e+03
7.300000000000000933e-02 1.437515000000000043e-01 1.023542499999999933e+01 6.096835000000000093e+01 1.823559999999999945e+03
7.399999999999999634e-02 1.438679999999999959e-01 1.183830999999999989e+01 6.468225000000001046e+01 1.824670000000000073e+03
7.499999999999999722e-02 1.439975000000000005e-01 1.357270499999999913e+01 6.863060000000000116e+01 1.825904999999999973e+03
7.599999999999999811e-02 1.441375000000000017e-01 1.540440000000000076e+01 7.273879999999999768e+01 1.827250000000000000e+03
7.699999999999999900e-02 1.442855000000000110e-01 1.729935000000000045e+01 7.693500000000000227e+01 1.828675000000000182e+03
7.799999999999999989e-02 1.444389999999999841e-01 1.922504999999999953e+01 8.115335000000000321e+01 1.830164999999999964e+03
7.900000000000000078e-02 1.445960000000000023e-01 2.115149999999999864e+01 8.533650000000000091e+01 1.831684999999999945e+03
8.000000000000000167e-02 1.447539999999999938e-01 2.305259999999999820e+01 8.943739999999999668e+01 1.833224999999999909e+03
8.100000000000000255e-02 1.449104999999999976e-01 2.490630000000000166e+01 9.342050000000000409e+01 1.834759999999999991e+03
8.200000000000000344e-02 1.450649999999999995e-01 2.669570000000000221e+01 9.726295000000000357e+01 1.836275000000000091e+03
8.300000000000000433e-02 1.452164999999999984e-01 2.840869999999999962e+01 1.009528999999999996e+02 1.837764999999999873e+03
8.400000000000000522e-02 1.453635000000000066e-01 3.003835000000000122e+01 1.044903999999999940e+02 1.839215000000000146e+03
8.500000000000000611e-02 1.455064999999999831e-01 3.158220000000000027e+01 1.078845000000000027e+02 1.840625000000000000e+03
8.600000000000000699e-02 1.456445000000000101e-01 3.304189999999999827e+01 1.111514999999999986e+02 1.841994999999999891e+03
8.700000000000000788e-02 1.457789999999999919e-01 3.442235000000000156e+01 1.143149999999999977e+02 1.843329999999999927e+03
8.800000000000000877e-02 1.459094999999999975e-01 3.573089999999999833e+01 1.174000000000000057e+02 1.844634999999999991e+03
8.899999999999999578e-02 1.460380000000000011e-01 3.697634999999999650e+01 1.204329999999999927e+02 1.845909999999999854e+03
8.999999999999999667e-02 1.461640000000000161e-01 3.816785000000000139e+01 1.234389999999999930e+02 1.847164999999999964e+03
9.099999999999999756e-02 1.462884999999999880e-01 3.931444999999999368e+01 1.264385000000000048e+02 1.848414999999999964e+03
9.199999999999999845e-02 1.464125000000000010e-01 4.042360000000000042e+01 1.294470000000000027e+02 1.849650000000000091e+03
9.299999999999999933e-02 1.465359999999999996e-01 4.150130000000000052e+01 1.324749999999999943e+02 1.850894999999999982e+03
9.400000000000000022e-02 1.466604999999999992e-01 4.255095000000000027e+01 1.355230000000000246e+02 1.852139999999999873e+03
9.500000000000000111e-02 1.467849999999999988e-01 4.357350000000000279e+01 1.385869999999999891e+02 1.853384999999999991e+03
9.600000000000000200e-02 1.469094999999999984e-01 4.456734999999999758e+01 1.416550000000000011e+02 1.854634999999999991e+03
9.700000000000000289e-02 1.470339999999999980e-01 4.552824999999999989e+01 1.447084999999999866e+02 1.855884999999999991e+03
9.800000000000000377e-02 1.471574999999999966e-01 4.644979999999999620e+01 1.477244999999999777e+02 1.857125000000000000e+03
9.900000000000000466e-02 1.472799999999999943e-01 4.732365000000000066e+01 1.506754999999999995e+02 1.858360000000000127e+03
1.000000000000000056e-01 1.474000000000000032e-01 4.814020000000000010e+01 1.535319999999999823e+02 1.859569999999999936e+03
1.010000000000000064e-01 1.475164999999999949e-01 4.888894999999999413e+01 1.562644999999999982e+02 1.860744999999999891e+03
1.020000000000000073e-01 1.476290000000000102e-01 4.955915000000000248e+01 1.588425000000000011e+02 1.861880000000000109e+03
1.030000000000000082e-01 1.477360000000000062e-01 5.014039999999999964e+01 1.612375000000000114e+02 1.862965000000000146e+03
1.040000000000000091e-01 1.478359999999999952e-01 5.062279999999999802e+01 1.634265000000000043e+02 1.863984999999999900e+03
1.050000000000000100e-01 1.479294999999999916e-01 5.099804999999999922e+01 1.653865000000000123e+02 1.864934999999999945e+03
1.059999999999999970e-01 1.480144999999999933e-01 5.125919999999999987e+01 1.671019999999999754e+02 1.865800000000000182e+03
1.069999999999999979e-01 1.480905000000000138e-01 5.140130000000000621e+01 1.685609999999999786e+02 1.866579999999999927e+03
1.079999999999999988e-01 1.481569999999999832e-01 5.142159999999999798e+01 1.697570000000000050e+02 1.867265000000000100e+03
1.089999999999999997e-01 1.482144999999999990e-01 5.131954999999999956e+01 1.706895000000000095e+02 1.867855000000000018e+03
1.100000000000000006e-01 1.482620000000000049e-01 5.109699999999999420e+01 1.713634999999999877e+02 1.868340000000000146e+03
1.110000000000000014e-01 1.482995000000000008e-01 5.075820000000000221e+01 1.717875000000000227e+02 1.868735000000000127e+03
1.120000000000000023e-01 1.483269999999999866e-01 5.030960000000000321e+01 1.719770000000000039e+02 1.869025000000000091e+03
1.130000000000000032e-01 1.483455000000000190e-01 4.975974999999999682e+01 1.719504999999999768e+02 1.869230000000000018e+03
1.140000000000000041e-01 1.483559999999999879e-01 4.911880000000000024e+01 1.717299999999999898e+02 1.869344999999999800e+03
1.150000000000000050e-01 1.483579999999999899e-01 4.839860000000000184e+01 1.713405000000000200e+02 1.869380000000000109e+03
1.160000000000000059e-01 1.483534999999999993e-01 4.761185000000000400e+01 1.708084999999999809e+02 1.869339999999999918e+03
1.170000000000000068e-01 1.483430000000000026e-01 4.677200000000000557e+01 1.701614999999999895e+02 1.869240000000000009e+03
1.180000000000000077e-01 1.483269999999999866e-01 4.589270000000000493e+01 1.694275000000000091e+02 1.869079999999999927e+03
1.190000000000000085e-01 1.483065000000000078e-01 4.498714999999999975e+01 1.686320000000000050e+02 1.868884999999999991e+03
1.200000000000000094e-01 1.482829999999999981e-01 4.406815000000000282e+01 1.678000000000000114e+02 1.868650000000000091e+03
1.209999999999999964e-01 1.482565000000000133e-01 4.314719999999999800e+01 1.669530000000000030e+02 1.868389999999999873e+03
1.219999999999999973e-01 1.482289999999999996e-01 4.223454999999999870e+01 1.661094999999999970e+02 1.868110000000000127e+03
1.229999999999999982e-01 1.482005000000000128e-01 4.133885000000000076e+01 1.652835000000000036e+02 1.867824999999999818e+03
1.239999999999999991e-01 1.481715000000000115e-01 4.046680000000000632e+01 1.644869999999999948e+02 1.867534999999999854e+03
1.250000000000000000e-01 1.481429999999999969e-01 3.962319999999999709e+01 1.637249999999999943e+02 1.867240000000000009e+03
1.260000000000000009e-01 1.481145000000000100e-01 3.881094999999999828e+01 1.630004999999999882e+02 1.866960000000000036e+03
1.270000000000000018e-01 1.480870000000000242e-01 3.803095000000000425e+01 1.623120000000000118e+02 1.866674999999999955e+03
1.280000000000000027e-01 1.480604999999999838e-01 3.728229999999999933e+01 1.616544999999999845e+02 1.866404999999999973e+03
1.290000000000000036e-01 1.480345000000000133e-01 3.656244999999999834e+01 1.610194999999999936e+02 1.866139999999999873e+03
1.300000000000000044e-01 1.480090000000000017e-01 3.586769999999999925e+01 1.603959999999999866e+02 1.865880000000000109e+03
1.310000000000000053e-01 1.479840000000000044e-01 3.519299999999999784e+01 1.597724999999999795e+02 1.865619999999999891e+03
1.320000000000000062e-01 1.479584999999999928e-01 3.453249999999999886e+01 1.591349999999999909e+02 1.865365000000000009e+03
1.330000000000000071e-01 1.479330000000000089e-01 3.387999999999999545e+01 1.584705000000000155e+02 1.865099999999999909e+03
1.340000000000000080e-01 1.479060000000000097e-01 3.322915000000000418e+01 1.577640000000000100e+02 1.864829999999999927e+03
1.350000000000000089e-01 1.478780000000000094e-01 3.257365000000000066e+01 1.570040000000000191e+02 1.864539999999999964e+03
1.360000000000000098e-01 1.478480000000000072e-01 3.190764999999999674e+01 1.561794999999999902e+02 1.864235000000000127e+03
1.370000000000000107e-01 1.478154999999999886e-01 3.122615000000000052e+01 1.552804999999999893e+02 1.863909999999999854e+03
1.380000000000000115e-01 1.477804999999999813e-01 3.052505000000000024e+01 1.543019999999999925e+02 1.863559999999999945e+03
1.390000000000000124e-01 1.477430000000000132e-01 2.980144999999999911e+01 1.532384999999999877e+02 1.863175000000000182e+03
1.400000000000000133e-01 1.477025000000000143e-01 2.905369999999999919e+01 1.520914999999999964e+02 1.862769999999999982e+03
1.410000000000000142e-01 1.476589999999999847e-01 2.828170000000000073e+01 1.508619999999999948e+02 1.862324999999999818e+03
1.420000000000000151e-01 1.476120000000000210e-01 2.748649999999999949e+01 1.495564999999999998e+02 1.861860000000000127e+03
1.430000000000000160e-01 1.475624999999999853e-01 2.667090000000000316e+01 1.481829999999999927e+02 1.861365000000000009e+03
1.440000000000000169e-01 1.475104999999999889e-01 2.583879999999999910e+01 1.467529999999999859e+02 1.860845000000000027e+03
1.450000000000000178e-01 1.474560000000000037e-01 2.499549999999999983e+01 1.452810000000000059e+02 1.860295000000000073e+03
1.459999999999999909e-01 1.474004999999999899e-01 2.414714999999999989e+01 1.437819999999999823e+02 1.859735000000000127e+03
1.469999999999999918e-01 1.473424999999999874e-01 2.330075000000000074e+01 1.422740000000000009e+02 1.859159999999999854e+03
1.479999999999999927e-01 1.472844999999999849e-01 2.246395000000000053e+01 1.407735000000000127e+02 1.858575000000000045e+03
1.489999999999999936e-01 1.472264999999999824e-01 2.164444999999999908e+01 1.392994999999999948e+02 1.857994999999999891e+03
1.499999999999999944e-01 1.471689999999999943e-01 2.085020000000000095e+01 1.378689999999999998e+02 1.857414999999999964e+03
1.509999999999999953e-01 1.471124999999999794e-01 2.008854999999999791e+01 1.364990000000000236e+02 1.856849999999999909e+03
1.519999999999999962e-01 1.470579999999999943e-01 1.936659999999999826e+01 1.352034999999999911e+02 1.856299999999999955e+03
1.529999999999999971e-01 1.470059999999999978e-01 1.869040000000000035e+01 1.339959999999999809e+02 1.855775000000000091e+03
1.539999999999999980e-01 1.469564999999999899e-01 1.806514999999999915e+01 1.328860000000000241e+02 1.855279999999999973e+03
1.549999999999999989e-01 1.469100000000000128e-01 1.749484999999999957e+01 1.318810000000000002e+02 1.854809999999999945e+03
1.559999999999999998e-01 1.468674999999999842e-01 1.698235000000000028e+01 1.309869999999999948e+02 1.854384999999999991e+03
1.570000000000000007e-01 1.468285000000000007e-01 1.652909999999999968e+01 1.302044999999999959e+02 1.853990000000000009e+03
1.580000000000000016e-01 1.467944999999999944e-01 1.613534999999999897e+01 1.295324999999999989e+02 1.853639999999999873e+03
1.590000000000000024e-01 1.467634999999999912e-01 1.580010000000000048e+01 1.289685000000000059e+02 1.853329999999999927e+03
