# t [s], A [cm^2], U [cm/s], P [cPa], c [cm/s]
1.000000000000000021e-03 5.363535000000000386e-01 4.025250000000001049e-03 1.023025000000000091e+02 1.557835000000000036e+03
2.000000000000000042e-03 5.363459999999999894e-01 -7.083480000000000288e-04 1.022830000000000013e+02 1.557829999999999927e+03
3.000000000000000062e-03 5.363805000000000378e-01 6.530449999999998756e-02 1.023505000000000109e+02 1.557845000000000027e+03
4.000000000000000083e-03 5.364240000000000119e-01 1.529353499999999977e-01 1.024619999999999891e+02 1.557880000000000109e+03
5.000000000000000104e-03 5.364229999999999832e-01 1.595945000000000003e-01 1.024685000000000059e+02 1.557885000000000218e+03
6.000000000000000125e-03 5.363845000000000418e-01 9.263649999999999662e-02 1.023414999999999964e+02 1.557855000000000018e+03
7.000000000000000146e-03 5.363465000000000593e-01 2.098350000000004378e-02 1.021504999999999939e+02 1.557815000000000055e+03
8.000000000000000167e-03 5.363014999999999866e-01 -7.045199999999995910e-02 1.018934999999999889e+02 1.557755000000000109e+03
9.000000000000001055e-03 5.362219999999999764e-01 -2.393119999999999692e-01 1.014975000000000023e+02 1.557659999999999854e+03
1.000000000000000194e-02 5.360989999999999922e-01 -5.058749999999999636e-01 1.009138999999999982e+02 1.557525000000000091e+03
1.099999999999999936e-02 5.359234999999999971e-01 -8.809550000000000436e-01 1.000992499999999978e+02 1.557329999999999927e+03
1.200000000000000025e-02 5.356849999999999667e-01 -1.377854999999999830e+00 9.900380000000001246e+01 1.557059999999999945e+03
1.300000000000000114e-02 5.353854999999999587e-01 -1.976465000000000138e+00 9.761599999999999966e+01 1.556715000000000146e+03
1.400000000000000203e-02 5.350509999999999433e-01 -2.602320000000000189e+00 9.600050000000000239e+01 1.556300000000000182e+03
1.499999999999999944e-02 5.347210000000000019e-01 -3.150355000000000238e+00 9.428354999999999109e+01 1.555849999999999909e+03
1.600000000000000033e-02 5.344284999999999730e-01 -3.528806499999999957e+00 9.260124999999999318e+01 1.555389999999999873e+03
1.700000000000000122e-02 5.341854999999999798e-01 -3.689695500000000017e+00 9.105190000000000339e+01 1.554940000000000055e+03
1.800000000000000211e-02 5.339855000000000018e-01 -3.634741549999999766e+00 8.967170000000000130e+01 1.554519999999999982e+03
1.900000000000000300e-02 5.338100000000000067e-01 -3.402771350000000083e+00 8.843930000000000291e+01 1.554119999999999891e+03
2.000000000000000042e-02 5.336349999999999705e-01 -3.049458200000000119e+00 8.729529999999999745e+01 1.553740000000000009e+03
2.100000000000000130e-02 5.334415000000000129e-01 -2.627509500000000386e+00 8.616890000000000782e+01 1.553365000000000009e+03
2.200000000000000219e-02 5.332200000000000273e-01 -2.172464999999999868e+00 8.500204999999999700e+01 1.552974999999999909e+03
2.299999999999999961e-02 5.329694999999999849e-01 -1.696944999999999926e+00 8.376494999999999891e+01 1.552575000000000045e+03
2.400000000000000050e-02 5.327000000000000624e-01 -1.194150000000000045e+00 8.245904999999999063e+01 1.552150000000000091e+03
2.500000000000000139e-02 5.324214999999999920e-01 -6.482050000000001422e-01 8.110855000000000814e+01 1.551719999999999800e+03
2.600000000000000228e-02 5.321430000000000327e-01 -4.678499999999985448e-02 7.974455000000000382e+01 1.551279999999999973e+03
2.700000000000000316e-02 5.318700000000000649e-01 6.087400000000000588e-01 7.838890000000000668e+01 1.550839999999999918e+03
2.800000000000000058e-02 5.315969999999999862e-01 1.298645000000000271e+00 7.704309999999999548e+01 1.550394999999999982e+03
2.900000000000000147e-02 5.313149999999999817e-01 1.986144999999999827e+00 7.568420000000000414e+01 1.549949999999999818e+03
3.000000000000000236e-02 5.310099999999999820e-01 2.623690000000000300e+00 7.426924999999999955e+01 1.549494999999999891e+03
3.099999999999999978e-02 5.306680000000000286e-01 3.161979999999999791e+00 7.274465000000000714e+01 1.549014999999999873e+03
3.200000000000000067e-02 5.302784999999999860e-01 3.559765000000000512e+00 7.105965000000000487e+01 1.548490000000000009e+03
3.300000000000000155e-02 5.298374999999999613e-01 3.792069999999999830e+00 6.917990000000000350e+01 1.547924999999999955e+03
3.400000000000000244e-02 5.293489999999999585e-01 3.854739999999999611e+00 6.709735000000000582e+01 1.547315000000000055e+03
3.500000000000000333e-02 5.288245000000000307e-01 3.765060000000000073e+00 6.483544999999999447e+01 1.546654999999999973e+03
3.600000000000000422e-02 5.282795000000000130e-01 3.557544999999999735e+00 6.244735000000000014e+01 1.545964999999999918e+03
3.700000000000000511e-02 5.277350000000000652e-01 3.277190000000000047e+00 6.000874999999999915e+01 1.545255000000000109e+03
3.799999999999999906e-02 5.272124999999999728e-01 2.971794999999999742e+00 5.760710000000000264e+01 1.544554999999999836e+03
3.899999999999999994e-02 5.267279999999999740e-01 2.685519999999999907e+00 5.533104999999999762e+01 1.543880000000000109e+03
4.000000000000000083e-02 5.262970000000000148e-01 2.454540000000000610e+00 5.326069999999999993e+01 1.543250000000000000e+03
4.100000000000000172e-02 5.259300000000000086e-01 2.305124999999999869e+00 5.146175000000000210e+01 1.542684999999999945e+03
4.200000000000000261e-02 5.256319999999999881e-01 2.254059999999999953e+00 4.998215000000000430e+01 1.542210000000000036e+03
4.300000000000000350e-02 5.254069999999999574e-01 2.310719999999999885e+00 4.885275000000000034e+01 1.541819999999999936e+03
4.400000000000000439e-02 5.252559999999999452e-01 2.479611999999999927e+00 4.808934999999999604e+01 1.541535000000000082e+03
4.499999999999999833e-02 5.251779999999999227e-01 2.763006999999999991e+00 4.769644999999999868e+01 1.541345000000000027e+03
4.599999999999999922e-02 5.251725000000000421e-01 3.162885000000000169e+00 4.767095000000000482e+01 1.541269999999999982e+03
4.700000000000000011e-02 5.252380000000000937e-01 3.681869999999999976e+00 4.800560000000000116e+01 1.541295000000000073e+03
4.800000000000000100e-02 5.253735000000000488e-01 4.323129999999999917e+00 4.869055000000000177e+01 1.541425000000000182e+03
4.900000000000000189e-02 5.255784999999999485e-01 5.089434999999999931e+00 4.971420000000000528e+01 1.541654999999999973e+03
5.000000000000000278e-02 5.258494999999999697e-01 5.981730000000000658e+00 5.106269999999999953e+01 1.541980000000000018e+03
5.100000000000000366e-02 5.261829999999999563e-01 6.997799999999999798e+00 5.271880000000000166e+01 1.542400000000000091e+03
5.200000000000000455e-02 5.265754999999999741e-01 8.131069999999999354e+00 5.466039999999999566e+01 1.542900000000000091e+03
5.300000000000000544e-02 5.270200000000000440e-01 9.370544999999999902e+00 5.686045000000000016e+01 1.543490000000000009e+03
5.399999999999999939e-02 5.275084999999999358e-01 1.070064499999999974e+01 5.928614999999999213e+01 1.544144999999999982e+03
5.500000000000000028e-02 5.280340000000000034e-01 1.210238000000000014e+01 6.190014999999999645e+01 1.544865000000000009e+03
5.600000000000000117e-02 5.285864999999999592e-01 1.355452000000000012e+01 6.466190000000000282e+01 1.545634999999999991e+03
5.700000000000000205e-02 5.291569999999999885e-01 1.503510499999999972e+01 6.752965000000000373e+01 1.546450000000000045e+03
5.800000000000000294e-02 5.297389999999999599e-01 1.652278499999999894e+01 7.046260000000000900e+01 1.547284999999999854e+03
5.900000000000000383e-02 5.303229999999999889e-01 1.799830000000000041e+01 7.342324999999999591e+01 1.548144999999999982e+03
6.000000000000000472e-02 5.309049999999999603e-01 1.944514999999999816e+01 7.637890000000000157e+01 1.549009999999999991e+03
6.099999999999999867e-02 5.314790000000000347e-01 2.085034999999999883e+01 7.930315000000000225e+01 1.549875000000000000e+03
6.199999999999999956e-02 5.320439999999999614e-01 2.220434999999999803e+01 8.217664999999999509e+01 1.550740000000000009e+03
6.300000000000000044e-02 5.325964999999999172e-01 2.350124999999999886e+01 8.498695000000000732e+01 1.551590000000000146e+03
6.400000000000000133e-02 5.331375000000000419e-01 2.473789999999999978e+01 8.772839999999999350e+01 1.552424999999999955e+03
6.500000000000000222e-02 5.336674999999999613e-01 2.591365000000000052e+01 9.040099999999999625e+01 1.553244999999999891e+03
6.600000000000000311e-02 5.341875000000000373e-01 2.702989999999999782e+01 9.300880000000000791e+01 1.554050000000000182e+03
6.700000000000000400e-02 5.346990000000000354e-01 2.808885000000000076e+01 9.555944999999999823e+01 1.554845000000000027e+03
6.800000000000000488e-02 5.352044999999999719e-01 2.909359999999999857e+01 9.806234999999999502e+01 1.555625000000000000e+03
6.900000000000000577e-02 5.357045000000000279e-01 3.004710000000000036e+01 1.005267499999999927e+02 1.556394999999999982e+03
7.000000000000000666e-02 5.362014999999999976e-01 3.095185000000000031e+01 1.029616499999999917e+02 1.557154999999999973e+03
7.100000000000000755e-02 5.366960000000000619e-01 3.180975000000000108e+01 1.053734000000000037e+02 1.557909999999999854e+03
7.200000000000000844e-02 5.371879999999999988e-01 3.262140000000000128e+01 1.077659999999999911e+02 1.558664999999999964e+03
7.300000000000000933e-02 5.376779999999999893e-01 3.338654999999999973e+01 1.101409999999999911e+02 1.559404999999999973e+03
7.399999999999999634e-02 5.381639999999999757e-01 3.410360000000000014e+01 1.124939999999999998e+02 1.560144999999999982e+03
7.499999999999999722e-02 5.386450000000000404e-01 3.476994999999999436e+01 1.148204999999999956e+02 1.560880000000000109e+03
7.599999999999999811e-02 5.391174999999999162e-01 3.538200000000000500e+01 1.171099999999999994e+02 1.561605000000000018e+03
7.699999999999999900e-02 5.395809999999999773e-01 3.593580000000000041e+01 1.193515000000000015e+02 1.562309999999999945e+03
7.799999999999999989e-02 5.400310000000000388e-01 3.642680000000000007e+01 1.215320000000000107e+02 1.563005000000000109e+03
7.900000000000000078e-02 5.404645000000000143e-01 3.685079999999999956e+01 1.236359999999999957e+02 1.563675000000000182e+03
8.000000000000000167e-02 5.408794999999999575e-01 3.720364999999999611e+01 1.256504999999999939e+02 1.564320000000000164e+03
8.100000000000000255e-02 5.412730000000000041e-01 3.748185000000000144e+01 1.275609999999999928e+02 1.564940000000000055e+03
8.200000000000000344e-02 5.416425000000000267e-01 3.768254999999999910e+01 1.293545000000000016e+02 1.565530000000000200e+03
8.300000000000000433e-02 5.419859999999999678e-01 3.780384999999999707e+01 1.310204999999999984e+02 1.566079999999999927e+03
8.400000000000000522e-02 5.423025000000000206e-01 3.784479999999999933e+01 1.325500000000000114e+02 1.566590000000000146e+03
8.500000000000000611e-02 5.425900000000000167e-01 3.780525000000000091e+01 1.339375000000000000e+02 1.567065000000000055e+03
8.600000000000000699e-02 5.428479999999999972e-01 3.768640000000000612e+01 1.351779999999999973e+02 1.567490000000000009e+03
8.700000000000000788e-02 5.430770000000000319e-01 3.749014999999999986e+01 1.362700000000000102e+02 1.567869999999999891e+03
8.800000000000000877e-02 5.432770000000000099e-01 3.721949999999999648e+01 1.372150000000000034e+02 1.568210000000000036e+03
8.899999999999999578e-02 5.434480000000000421e-01 3.687834999999999752e+01 1.380155000000000030e+02 1.568505000000000109e+03
8.999999999999999667e-02 5.435920000000000751e-01 3.647164999999999679e+01 1.386769999999999925e+02 1.568760000000000218e+03
9.099999999999999756e-02 5.437099999999999156e-01 3.600515000000000043e+01 1.392069999999999936e+02 1.568970000000000027e+03
9.199999999999999845e-02 5.438039999999999541e-01 3.548519999999999897e+01 1.396150000000000091e+02 1.569139999999999873e+03
9.299999999999999933e-02 5.438760000000000261e-01 3.491904999999999859e+01 1.399110000000000014e+02 1.569275000000000091e+03
9.400000000000000022e-02 5.439285000000000370e-01 3.431419999999999959e+01 1.401064999999999827e+02 1.569375000000000000e+03
9.500000000000000111e-02 5.439640000000000031e-01 3.367860000000000298e+01 1.402149999999999750e+02 1.569449999999999818e+03
9.600000000000000200e-02 5.439855000000000107e-01 3.302020000000000266e+01 1.402484999999999786e+02 1.569494999999999891e+03
9.700000000000000289e-02 5.439944999999999364e-01 3.234680000000000177e+01 1.402214999999999918e+02 1.569519999999999982e+03
9.800000000000000377e-02 5.439944999999999364e-01 3.166584999999999894e+01 1.401449999999999818e+02 1.569525000000000091e+03
9.900000000000000466e-02 5.439864999999999284e-01 3.098380000000000223e+01 1.400319999999999823e+02 1.569509999999999991e+03
1.000000000000000056e-01 5.439734999999999987e-01 3.030669999999999931e+01 1.398915000000000077e+02 1.569490000000000009e+03
1.010000000000000064e-01 5.439564999999999539e-01 2.963925000000000054e+01 1.397334999999999923e+02 1.569454999999999927e+03
1.020000000000000073e-01 5.439374999999999627e-01 2.898485000000000156e+01 1.395645000000000095e+02 1.569420000000000073e+03
1.030000000000000082e-01 5.439160000000000661e-01 2.834595000000000198e+01 1.393884999999999934e+02 1.569375000000000000e+03
1.040000000000000091e-01 5.438920000000000421e-01 2.772344999999999970e+01 1.392085000000000150e+02 1.569324999999999818e+03
1.050000000000000100e-01 5.438665000000000305e-01 2.711739999999999640e+01 1.390249999999999773e+02 1.569275000000000091e+03
1.059999999999999970e-01 5.438389999999999613e-01 2.652655000000000030e+01 1.388354999999999961e+02 1.569219999999999800e+03
1.069999999999999979e-01 5.438080000000000691e-01 2.594885000000000019e+01 1.386385000000000218e+02 1.569164999999999964e+03
1.079999999999999988e-01 5.437730000000000619e-01 2.538150000000000261e+01 1.384279999999999973e+02 1.569099999999999909e+03
1.089999999999999997e-01 5.437330000000000219e-01 2.482134999999999891e+01 1.381999999999999886e+02 1.569034999999999854e+03
1.100000000000000006e-01 5.436860000000000026e-01 2.426485000000000269e+01 1.379474999999999909e+02 1.568954999999999927e+03
1.110000000000000014e-01 5.436320000000000041e-01 2.370850000000000080e+01 1.376655000000000086e+02 1.568869999999999891e+03
1.120000000000000023e-01 5.435695000000000388e-01 2.314884999999999948e+01 1.373474999999999966e+02 1.568775000000000091e+03
1.130000000000000032e-01 5.434974999999999667e-01 2.258290000000000219e+01 1.369890000000000043e+02 1.568670000000000073e+03
1.140000000000000041e-01 5.434154999999999403e-01 2.200795000000000101e+01 1.365865000000000009e+02 1.568554999999999836e+03
1.150000000000000050e-01 5.433230000000000004e-01 2.142210000000000036e+01 1.361365000000000123e+02 1.568425000000000182e+03
1.160000000000000059e-01 5.432200000000000362e-01 2.082404999999999973e+01 1.356374999999999886e+02 1.568279999999999973e+03
1.170000000000000068e-01 5.431074999999999653e-01 2.021330000000000027e+01 1.350894999999999868e+02 1.568119999999999891e+03
1.180000000000000077e-01 5.429844999999999811e-01 1.959029999999999916e+01 1.344954999999999927e+02 1.567945000000000164e+03
1.190000000000000085e-01 5.428530000000000300e-01 1.895620000000000260e+01 1.338580000000000041e+02 1.567755000000000109e+03
1.200000000000000094e-01 5.427134999999999598e-01 1.831299999999999883e+01 1.331809999999999832e+02 1.567559999999999945e+03
1.209999999999999964e-01 5.425680000000000502e-01 1.766365000000000052e+01 1.324729999999999848e+02 1.567355000000000018e+03
1.219999999999999973e-01 5.424180000000000668e-01 1.701164999999999949e+01 1.317394999999999925e+02 1.567134999999999991e+03
1.229999999999999982e-01 5.422654999999999559e-01 1.636120000000000019e+01 1.309900000000000091e+02 1.566914999999999964e+03
1.239999999999999991e-01 5.421119999999999273e-01 1.571699999999999875e+01 1.302340000000000089e+02 1.566684999999999945e+03
1.250000000000000000e-01 5.419599999999999973e-01 1.508380000000000010e+01 1.294815000000000111e+02 1.566460000000000036e+03
1.260000000000000009e-01 5.418110000000000426e-01 1.446685499999999891e+01 1.287419999999999902e+02 1.566235000000000127e+03
1.270000000000000018e-01 5.416680000000000383e-01 1.387127500000000069e+01 1.280264999999999986e+02 1.566019999999999982e+03
1.280000000000000027e-01 5.415324999999999722e-01 1.330189999999999984e+01 1.273435000000000059e+02 1.565799999999999955e+03
1.290000000000000036e-01 5.414054999999999840e-01 1.276324999999999932e+01 1.267030000000000030e+02 1.565605000000000018e+03
1.300000000000000044e-01 5.412894999999999790e-01 1.225942500000000024e+01 1.261115000000000066e+02 1.565414999999999964e+03
1.310000000000000053e-01 5.411850000000000271e-01 1.179366500000000073e+01 1.255764999999999958e+02 1.565235000000000127e+03
1.320000000000000062e-01 5.410924999999999763e-01 1.136865500000000040e+01 1.251020000000000039e+02 1.565079999999999927e+03
1.330000000000000071e-01 5.410139999999999949e-01 1.098617999999999917e+01 1.246920000000000073e+02 1.564945000000000164e+03
1.340000000000000080e-01 5.409485000000000543e-01 1.064699500000000043e+01 1.243479999999999990e+02 1.564820000000000164e+03
1.350000000000000089e-01 5.408954999999999735e-01 1.035123000000000104e+01 1.240699999999999932e+02 1.564715000000000146e+03
1.360000000000000098e-01 5.408560000000000034e-01 1.009794499999999928e+01 1.238565000000000111e+02 1.564634999999999991e+03
1.370000000000000107e-01 5.408279999999999754e-01 9.885580000000000922e+00 1.237040000000000077e+02 1.564565000000000055e+03
1.380000000000000115e-01 5.408110000000000417e-01 9.711825000000001040e+00 1.236080000000000041e+02 1.564519999999999982e+03
1.390000000000000124e-01 5.408034999999999926e-01 9.573814999999999742e+00 1.235639999999999930e+02 1.564490000000000009e+03
1.400000000000000133e-01 5.408049999999999802e-01 9.468304999999999083e+00 1.235649999999999977e+02 1.564470000000000027e+03
1.410000000000000142e-01 5.408135000000000581e-01 9.391695000000000348e+00 1.236045000000000016e+02 1.564464999999999918e+03
1.420000000000000151e-01 5.408275000000000166e-01 9.340284999999999727e+00 1.236765000000000043e+02 1.564470000000000027e+03
1.430000000000000160e-01 5.408459999999999379e-01 9.310310000000001196e+00 1.237734999999999985e+02 1.564485000000000127e+03
1.440000000000000169e-01 5.408680000000000154e-01 9.298090000000000188e+00 1.238889999999999958e+02 1.564505000000000109e+03
1.450000000000000178e-01 5.408920000000000394e-01 9.300105000000000288e+00 1.240169999999999959e+02 1.564534999999999854e+03
1.459999999999999909e-01 5.409174999999999400e-01 9.313214999999999577e+00 1.241535000000000082e+02 1.564565000000000055e+03
1.469999999999999918e-01 5.409429999999999517e-01 9.334389999999999077e+00 1.242914999999999992e+02 1.564599999999999909e+03
1.479999999999999927e-01 5.409684999999999633e-01 9.361164999999999736e+00 1.244294999999999902e+02 1.564634999999999991e+03
1.489999999999999936e-01 5.409924999999999873e-01 9.391280000000000072e+00 1.245635000000000048e+02 1.564670000000000073e+03
1.499999999999999944e-01 5.410159999999999414e-01 9.422950000000000159e+00 1.246915000000000049e+02 1.564704999999999927e+03
1.509999999999999953e-01 5.410384999999999778e-01 9.454720000000000013e+00 1.248129999999999882e+02 1.564735000000000127e+03
1.519999999999999962e-01 5.410584999999999978e-01 9.485520000000001062e+00 1.249265000000000043e+02 1.564775000000000091e+03
1.529999999999999971e-01 5.410779999999999479e-01 9.514670000000000627e+00 1.250330000000000013e+02 1.564800000000000182e+03
1.539999999999999980e-01 5.410964999999999803e-01 9.541700000000000514e+00 1.251320000000000050e+02 1.564829999999999927e+03
1.549999999999999989e-01 5.411135000000000250e-01 9.566499999999999559e+00 1.252245000000000061e+02 1.564860000000000127e+03
1.559999999999999998e-01 5.411299999999999999e-01 9.589140000000000441e+00 1.253129999999999882e+02 1.564889999999999873e+03
1.570000000000000007e-01 5.411464999999999748e-01 9.609909999999999286e+00 1.253975000000000080e+02 1.564914999999999964e+03
1.580000000000000016e-01 5.411630000000000607e-01 9.629224999999999923e+00 1.254805000000000064e+02 1.564940000000000055e+03
1.590000000000000024e-01 5.411789999999999656e-01 9.647559999999998581e+00 1.255639999999999930e+02 1.564965000000000146e+03
