# t [s], A [cm^2], U [cm/s], P [cPa], c [cm/s]
1.000000000000000021e-03 4.916500000000000314e-01 4.431349999999993627e-03 1.042060000000000031e+02 1.495900000000000091e+03
2.000000000000000042e-03 4.916419999999999679e-01 -1.543134999999999949e-03 1.041844999999999999e+02 1.495889999999999873e+03
3.000000000000000062e-03 4.916765000000000163e-01 6.761334999999998874e-02 1.042514999999999930e+02 1.495914999999999964e+03
4.000000000000000083e-03 4.917199999999999904e-01 1.609405499999999878e-01 1.043634999999999877e+02 1.495945000000000164e+03
5.000000000000000104e-03 4.917175000000000296e-01 1.673415000000000041e-01 1.043650000000000091e+02 1.495950000000000045e+03
6.000000000000000125e-03 4.916745000000000143e-01 8.947550000000001336e-02 1.042199999999999989e+02 1.495914999999999964e+03
7.000000000000000146e-03 4.916314999999999991e-01 5.610999999999977117e-03 1.040074999999999932e+02 1.495869999999999891e+03
8.000000000000000167e-03 4.915804999999999758e-01 -1.003089999999999815e-01 1.037235000000000014e+02 1.495799999999999955e+03
9.000000000000001055e-03 4.914935000000000276e-01 -2.934400000000000341e-01 1.032909999999999968e+02 1.495699999999999818e+03
1.000000000000000194e-02 4.913625000000000353e-01 -5.883949999999998903e-01 1.026655000000000086e+02 1.495550000000000182e+03
1.099999999999999936e-02 4.911834999999999951e-01 -9.871650000000000702e-01 1.018131999999999948e+02 1.495349999999999909e+03
1.200000000000000025e-02 4.909430000000000183e-01 -1.504780000000000006e+00 1.006847500000000082e+02 1.495070000000000164e+03
1.300000000000000114e-02 4.906375000000000042e-01 -2.130704999999999849e+00 9.925544999999999618e+01 1.494715000000000146e+03
1.400000000000000203e-02 4.902914999999999912e-01 -2.794194999999999762e+00 9.757750000000000057e+01 1.494285000000000082e+03
1.499999999999999944e-02 4.899454999999999782e-01 -3.379870000000000374e+00 9.577985000000001037e+01 1.493804999999999836e+03
1.600000000000000033e-02 4.896375000000000033e-01 -3.776536999999999811e+00 9.401619999999999777e+01 1.493320000000000164e+03
1.700000000000000122e-02 4.893874999999999753e-01 -3.918629000000000140e+00 9.240654999999999575e+01 1.492849999999999909e+03
1.800000000000000211e-02 4.891915000000000013e-01 -3.800213274999999946e+00 9.100329999999999586e+01 1.492420000000000073e+03
1.900000000000000300e-02 4.890275000000000594e-01 -3.464901999999999926e+00 8.978759999999999764e+01 1.492019999999999982e+03
2.000000000000000042e-02 4.888689999999999980e-01 -2.983153999999999861e+00 8.868895000000000550e+01 1.491650000000000091e+03
2.100000000000000130e-02 4.886894999999999989e-01 -2.427136500000000030e+00 8.761584999999999468e+01 1.491280000000000200e+03
2.200000000000000219e-02 4.884739999999999638e-01 -1.849899999999999878e+00 8.648699999999999477e+01 1.490900000000000091e+03
2.299999999999999961e-02 4.882190000000000141e-01 -1.274110000000000076e+00 8.525560000000000116e+01 1.490494999999999891e+03
2.400000000000000050e-02 4.879350000000000076e-01 -6.929899999999999949e-01 8.391759999999999309e+01 1.490065000000000055e+03
2.500000000000000139e-02 4.876365000000000283e-01 -8.217000000000007631e-02 8.250450000000000728e+01 1.489619999999999891e+03
2.600000000000000228e-02 4.873389999999999667e-01 5.832749999999999879e-01 8.106399999999999295e+01 1.489159999999999854e+03
2.700000000000000316e-02 4.870510000000000117e-01 1.313539999999999708e+00 7.963800000000000523e+01 1.488704999999999927e+03
2.800000000000000058e-02 4.867719999999999825e-01 2.095254999999999868e+00 7.824445000000000050e+01 1.488250000000000000e+03
2.900000000000000147e-02 4.864924999999999944e-01 2.890710000000000335e+00 7.686984999999999957e+01 1.487799999999999955e+03
3.000000000000000236e-02 4.861964999999999759e-01 3.643924999999999859e+00 7.546985000000000809e+01 1.487345000000000027e+03
3.099999999999999978e-02 4.858664999999999790e-01 4.291385000000000005e+00 7.397990000000000066e+01 1.486869999999999891e+03
3.200000000000000067e-02 4.854860000000000286e-01 4.774744999999999351e+00 7.233025000000000659e+01 1.486360000000000127e+03
3.300000000000000155e-02 4.850465000000000471e-01 5.052944999999999354e+00 7.046410000000000196e+01 1.485800000000000182e+03
3.400000000000000244e-02 4.845460000000000322e-01 5.110960000000000392e+00 6.835349999999999682e+01 1.485184999999999945e+03
3.500000000000000333e-02 4.839965000000000517e-01 4.962740000000000151e+00 6.600910000000000366e+01 1.484509999999999991e+03
3.600000000000000422e-02 4.834154999999999980e-01 4.648559999999999803e+00 6.348234999999999673e+01 1.483789999999999964e+03
3.700000000000000511e-02 4.828274999999999650e-01 4.227059999999999818e+00 6.085875000000000057e+01 1.483039999999999964e+03
3.799999999999999906e-02 4.822575000000000056e-01 3.764864999999999906e+00 5.824595000000000056e+01 1.482289999999999964e+03
3.899999999999999994e-02 4.817320000000000491e-01 3.326665000000000205e+00 5.575889999999999702e+01 1.481559999999999945e+03
4.000000000000000083e-02 4.812695000000000167e-01 2.967989999999999906e+00 5.350619999999999976e+01 1.480889999999999873e+03
4.100000000000000172e-02 4.808855000000000213e-01 2.730840000000000156e+00 5.158030000000000115e+01 1.480289999999999964e+03
4.200000000000000261e-02 4.805900000000000172e-01 2.642834999999999823e+00 5.005060000000000286e+01 1.479795000000000073e+03
4.300000000000000350e-02 4.803859999999999797e-01 2.718745000000000189e+00 4.896219999999999573e+01 1.479414999999999964e+03
4.400000000000000439e-02 4.802760000000000362e-01 2.963766999999999818e+00 4.833740000000000236e+01 1.479154999999999973e+03
4.499999999999999833e-02 4.802569999999999895e-01 3.377220000000000333e+00 4.817964999999999520e+01 1.479025000000000091e+03
4.599999999999999922e-02 4.803260000000000307e-01 3.956000000000000405e+00 4.847955000000000325e+01 1.479030000000000200e+03
4.700000000000000011e-02 4.804804999999999771e-01 4.696995000000000253e+00 4.921940000000000026e+01 1.479159999999999854e+03
4.800000000000000100e-02 4.807154999999999623e-01 5.598069999999999879e+00 5.037784999999999513e+01 1.479409999999999854e+03
4.900000000000000189e-02 4.810289999999999844e-01 6.657750000000000057e+00 5.193209999999999837e+01 1.479784999999999854e+03
5.000000000000000278e-02 4.814165000000000250e-01 7.873845000000000205e+00 5.385835000000000150e+01 1.480269999999999982e+03
5.100000000000000366e-02 4.818735000000000102e-01 9.241424999999999557e+00 5.613105000000000189e+01 1.480860000000000127e+03
5.200000000000000455e-02 4.823950000000000182e-01 1.075160499999999963e+01 5.872145000000000437e+01 1.481550000000000182e+03
5.300000000000000544e-02 4.829735000000000000e-01 1.238993500000000125e+01 6.159595000000000198e+01 1.482324999999999818e+03
5.399999999999999939e-02 4.835999999999999743e-01 1.413669499999999957e+01 6.471580000000000155e+01 1.483175000000000182e+03
5.500000000000000028e-02 4.842644999999999866e-01 1.596749999999999936e+01 6.803694999999999027e+01 1.484099999999999909e+03
5.600000000000000117e-02 4.849574999999999858e-01 1.785454500000000166e+01 7.151134999999999309e+01 1.485079999999999927e+03
5.700000000000000205e-02 4.856674999999999742e-01 1.976865000000000094e+01 7.508920000000000528e+01 1.486099999999999909e+03
5.800000000000000294e-02 4.863849999999999563e-01 2.168100000000000094e+01 7.872109999999999275e+01 1.487144999999999982e+03
5.900000000000000383e-02 4.871010000000000062e-01 2.356504999999999939e+01 8.236105000000000587e+01 1.488204999999999927e+03
6.000000000000000472e-02 4.878080000000000194e-01 2.539774999999999849e+01 8.596844999999999004e+01 1.489269999999999982e+03
6.099999999999999867e-02 4.885005000000000042e-01 2.716069999999999851e+01 8.950990000000000180e+01 1.490329999999999927e+03
6.199999999999999956e-02 4.891739999999999977e-01 2.884020000000000294e+01 9.296059999999999945e+01 1.491369999999999891e+03
6.300000000000000044e-02 4.898279999999999856e-01 3.042745000000000033e+01 9.630450000000000443e+01 1.492389999999999873e+03
6.400000000000000133e-02 4.904604999999999659e-01 3.191785000000000139e+01 9.953444999999999254e+01 1.493380000000000109e+03
6.500000000000000222e-02 4.910740000000000105e-01 3.331060000000000088e+01 1.026493000000000109e+02 1.494345000000000027e+03
6.600000000000000311e-02 4.916685000000000083e-01 3.460810000000000031e+01 1.056559500000000043e+02 1.495284999999999854e+03
6.700000000000000400e-02 4.922469999999999901e-01 3.581470000000000198e+01 1.085651000000000010e+02 1.496200000000000045e+03
6.800000000000000488e-02 4.928135000000000154e-01 3.693639999999999901e+01 1.113905000000000030e+02 1.497090000000000146e+03
6.900000000000000577e-02 4.933699999999999752e-01 3.798010000000000019e+01 1.141484999999999985e+02 1.497960000000000036e+03
7.000000000000000666e-02 4.939194999999999558e-01 3.895284999999999798e+01 1.168545000000000016e+02 1.498820000000000164e+03
7.100000000000000755e-02 4.944655000000000022e-01 3.986149999999999949e+01 1.195234999999999985e+02 1.499659999999999854e+03
7.200000000000000844e-02 4.950080000000000036e-01 4.071189999999999998e+01 1.221675000000000040e+02 1.500494999999999891e+03
7.300000000000000933e-02 4.955499999999999905e-01 4.150870000000000459e+01 1.247955000000000041e+02 1.501325000000000045e+03
7.399999999999999634e-02 4.960910000000000042e-01 4.225475000000000136e+01 1.274120000000000061e+02 1.502150000000000091e+03
7.499999999999999722e-02 4.966304999999999747e-01 4.295104999999999507e+01 1.300165000000000077e+02 1.502974999999999909e+03
7.599999999999999811e-02 4.971670000000000256e-01 4.359655000000000058e+01 1.326039999999999850e+02 1.503784999999999854e+03
7.699999999999999900e-02 4.976975000000000149e-01 4.418829999999999814e+01 1.351639999999999873e+02 1.504595000000000027e+03
7.799999999999999989e-02 4.982195000000000373e-01 4.472164999999999679e+01 1.376834999999999809e+02 1.505389999999999873e+03
7.900000000000000078e-02 4.987285000000000190e-01 4.519079999999999586e+01 1.401440000000000055e+02 1.506170000000000073e+03
8.000000000000000167e-02 4.992199999999999971e-01 4.558910000000000196e+01 1.425260000000000105e+02 1.506929999999999836e+03
8.100000000000000255e-02 4.996899999999999675e-01 4.590964999999999918e+01 1.448084999999999809e+02 1.507664999999999964e+03
8.200000000000000344e-02 5.001349999999999962e-01 4.614589999999999748e+01 1.469705000000000155e+02 1.508360000000000127e+03
8.300000000000000433e-02 5.005505000000000093e-01 4.629189999999999827e+01 1.489929999999999950e+02 1.509019999999999982e+03
8.400000000000000522e-02 5.009339999999999904e-01 4.634300000000000352e+01 1.508580000000000041e+02 1.509634999999999991e+03
8.500000000000000611e-02 5.012820000000000054e-01 4.629579999999999984e+01 1.525509999999999877e+02 1.510204999999999927e+03
8.600000000000000699e-02 5.015924999999999967e-01 4.614855000000000018e+01 1.540609999999999786e+02 1.510720000000000027e+03
8.700000000000000788e-02 5.018659999999999233e-01 4.590149999999999864e+01 1.553814999999999884e+02 1.511180000000000064e+03
8.800000000000000877e-02 5.021005000000000607e-01 4.555630000000000024e+01 1.565090000000000146e+02 1.511579999999999927e+03
8.899999999999999578e-02 5.022969999999999935e-01 4.511659999999999826e+01 1.574445000000000050e+02 1.511925000000000182e+03
8.999999999999999667e-02 5.024565000000000836e-01 4.458774999999999977e+01 1.581935000000000002e+02 1.512210000000000036e+03
9.099999999999999756e-02 5.025819999999999732e-01 4.397655000000000314e+01 1.587640000000000100e+02 1.512445000000000164e+03
9.199999999999999845e-02 5.026740000000000652e-01 4.329115000000000180e+01 1.591689999999999827e+02 1.512625000000000000e+03
9.299999999999999933e-02 5.027375000000000593e-01 4.254099999999999682e+01 1.594214999999999804e+02 1.512755000000000109e+03
9.400000000000000022e-02 5.027740000000000542e-01 4.173635000000000161e+01 1.595384999999999991e+02 1.512840000000000146e+03
9.500000000000000111e-02 5.027880000000000127e-01 4.088810000000000144e+01 1.595384999999999991e+02 1.512889999999999873e+03
9.600000000000000200e-02 5.027829999999999799e-01 4.000754999999999484e+01 1.594399999999999977e+02 1.512904999999999973e+03
9.700000000000000289e-02 5.027634999999999188e-01 3.910604999999999620e+01 1.592624999999999886e+02 1.512884999999999991e+03
9.800000000000000377e-02 5.027325000000000266e-01 3.819435000000000002e+01 1.590249999999999773e+02 1.512849999999999909e+03
9.900000000000000466e-02 5.026930000000000565e-01 3.728284999999999627e+01 1.587454999999999927e+02 1.512795000000000073e+03
1.000000000000000056e-01 5.026490000000000125e-01 3.638070000000000448e+01 1.584404999999999859e+02 1.512719999999999800e+03
1.010000000000000064e-01 5.026024999999999521e-01 3.549589999999999890e+01 1.581234999999999786e+02 1.512639999999999873e+03
1.020000000000000073e-01 5.025560000000000027e-01 3.463490000000000180e+01 1.578075000000000045e+02 1.512559999999999945e+03
1.030000000000000082e-01 5.025104999999999711e-01 3.380230000000000246e+01 1.575010000000000048e+02 1.512474999999999909e+03
1.040000000000000091e-01 5.024675000000000669e-01 3.300110000000000099e+01 1.572094999999999914e+02 1.512389999999999873e+03
1.050000000000000100e-01 5.024264999999999981e-01 3.223245000000000005e+01 1.569364999999999952e+02 1.512304999999999836e+03
1.059999999999999970e-01 5.023879999999999457e-01 3.149560000000000315e+01 1.566804999999999950e+02 1.512224999999999909e+03
1.069999999999999979e-01 5.023509999999999920e-01 3.078849999999999909e+01 1.564395000000000095e+02 1.512150000000000091e+03
1.079999999999999988e-01 5.023134999999999684e-01 3.010754999999999981e+01 1.562085000000000150e+02 1.512075000000000045e+03
1.089999999999999997e-01 5.022754999999999859e-01 2.944810000000000016e+01 1.559780000000000086e+02 1.512000000000000000e+03
1.100000000000000006e-01 5.022334999999999994e-01 2.880469999999999686e+01 1.557409999999999854e+02 1.511920000000000073e+03
1.110000000000000014e-01 5.021864999999999801e-01 2.817154999999999987e+01 1.554875000000000114e+02 1.511845000000000027e+03
1.120000000000000023e-01 5.021320000000000228e-01 2.754250000000000043e+01 1.552065000000000055e+02 1.511755000000000109e+03
1.130000000000000032e-01 5.020689999999999875e-01 2.691179999999999950e+01 1.548890000000000100e+02 1.511659999999999854e+03
1.140000000000000041e-01 5.019945000000000102e-01 2.627384999999999948e+01 1.545255000000000223e+02 1.511545000000000073e+03
1.150000000000000050e-01 5.019089999999999385e-01 2.562384999999999735e+01 1.541089999999999804e+02 1.511424999999999955e+03
1.160000000000000059e-01 5.018095000000000194e-01 2.495795000000000030e+01 1.536324999999999932e+02 1.511284999999999854e+03
1.170000000000000068e-01 5.016970000000000596e-01 2.427324999999999733e+01 1.530925000000000011e+02 1.511125000000000000e+03
1.180000000000000077e-01 5.015709999999999891e-01 2.356800000000000139e+01 1.524864999999999782e+02 1.510950000000000045e+03
1.190000000000000085e-01 5.014315000000000300e-01 2.284179999999999922e+01 1.518149999999999977e+02 1.510759999999999991e+03
1.200000000000000094e-01 5.012790000000000301e-01 2.209544999999999959e+01 1.510805000000000007e+02 1.510545000000000073e+03
1.209999999999999964e-01 5.011155000000000470e-01 2.133109999999999928e+01 1.502875000000000227e+02 1.510315000000000055e+03
1.219999999999999973e-01 5.009414999999999285e-01 2.055195000000000149e+01 1.494424999999999955e+02 1.510065000000000055e+03
1.229999999999999982e-01 5.007604999999999418e-01 1.976249999999999929e+01 1.485554999999999950e+02 1.509805000000000064e+03
1.239999999999999991e-01 5.005730000000000457e-01 1.896795000000000186e+01 1.476355000000000075e+02 1.509535000000000082e+03
1.250000000000000000e-01 5.003824999999999523e-01 1.817445000000000022e+01 1.466949999999999932e+02 1.509255000000000109e+03
1.260000000000000009e-01 5.001909999999999412e-01 1.738854999999999862e+01 1.457450000000000045e+02 1.508974999999999909e+03
1.270000000000000018e-01 5.000019999999999465e-01 1.661704999999999899e+01 1.447994999999999948e+02 1.508684999999999945e+03
1.280000000000000027e-01 4.998164999999999969e-01 1.586694999999999922e+01 1.438710000000000093e+02 1.508404999999999973e+03
1.290000000000000036e-01 4.996380000000000265e-01 1.514496000000000109e+01 1.429710000000000036e+02 1.508130000000000109e+03
1.300000000000000044e-01 4.994684999999999819e-01 1.445731499999999947e+01 1.421109999999999900e+02 1.507860000000000127e+03
1.310000000000000053e-01 4.993100000000000316e-01 1.380974499999999949e+01 1.413015000000000043e+02 1.507610000000000127e+03
1.320000000000000062e-01 4.991634999999999822e-01 1.320706000000000024e+01 1.405515000000000043e+02 1.507369999999999891e+03
1.330000000000000071e-01 4.990310000000000024e-01 1.265302499999999952e+01 1.398665000000000020e+02 1.507154999999999973e+03
1.340000000000000080e-01 4.989129999999999399e-01 1.215052000000000021e+01 1.392514999999999930e+02 1.506950000000000045e+03
1.350000000000000089e-01 4.988090000000000024e-01 1.170103500000000096e+01 1.387094999999999914e+02 1.506764999999999873e+03
1.360000000000000098e-01 4.987194999999999823e-01 1.130500999999999934e+01 1.382409999999999854e+02 1.506605000000000018e+03
1.370000000000000107e-01 4.986445000000000460e-01 1.096180000000000021e+01 1.378450000000000273e+02 1.506465000000000146e+03
1.380000000000000115e-01 4.985819999999999697e-01 1.066962999999999973e+01 1.375169999999999959e+02 1.506340000000000146e+03
1.390000000000000124e-01 4.985319999999999752e-01 1.042576999999999998e+01 1.372529999999999859e+02 1.506240000000000009e+03
1.400000000000000133e-01 4.984930000000000194e-01 1.022673499999999969e+01 1.370459999999999923e+02 1.506159999999999854e+03
1.410000000000000142e-01 4.984629999999999894e-01 1.006844000000000072e+01 1.368890000000000100e+02 1.506089999999999918e+03
1.420000000000000151e-01 4.984405000000000086e-01 9.946315000000000239e+00 1.367749999999999773e+02 1.506035000000000082e+03
1.430000000000000160e-01 4.984239999999999782e-01 9.855574999999999974e+00 1.366940000000000168e+02 1.505990000000000009e+03
1.440000000000000169e-01 4.984119999999999662e-01 9.791339999999999932e+00 1.366394999999999982e+02 1.505960000000000036e+03
1.450000000000000178e-01 4.984029999999999849e-01 9.748834999999999695e+00 1.366019999999999754e+02 1.505934999999999945e+03
1.459999999999999909e-01 4.983950000000000324e-01 9.723435000000000272e+00 1.365765000000000100e+02 1.505909999999999854e+03
1.469999999999999918e-01 4.983879999999999977e-01 9.710964999999999847e+00 1.365550000000000068e+02 1.505889999999999873e+03
1.479999999999999927e-01 4.983805000000000041e-01 9.707535000000000025e+00 1.365335000000000036e+02 1.505875000000000000e+03
1.489999999999999936e-01 4.983710000000000084e-01 9.709955000000000780e+00 1.365060000000000002e+02 1.505859999999999900e+03
1.499999999999999944e-01 4.983604999999999841e-01 9.715250000000001052e+00 1.364710000000000036e+02 1.505839999999999918e+03
1.509999999999999953e-01 4.983474999999999988e-01 9.721270000000000522e+00 1.364254999999999995e+02 1.505824999999999818e+03
1.519999999999999962e-01 4.983319999999999972e-01 9.726105000000000445e+00 1.363679999999999950e+02 1.505799999999999955e+03
1.529999999999999971e-01 4.983150000000000079e-01 9.728509999999999991e+00 1.362994999999999948e+02 1.505779999999999973e+03
1.539999999999999980e-01 4.982949999999999879e-01 9.727595000000000880e+00 1.362194999999999823e+02 1.505755000000000109e+03
1.549999999999999989e-01 4.982739999999999947e-01 9.722884999999999778e+00 1.361290000000000191e+02 1.505724999999999909e+03
1.559999999999999998e-01 4.982509999999999994e-01 9.714280000000000470e+00 1.360300000000000011e+02 1.505694999999999936e+03
1.570000000000000007e-01 4.982274999999999898e-01 9.701895000000000380e+00 1.359240000000000066e+02 1.505664999999999964e+03
1.580000000000000016e-01 4.982024999999999926e-01 9.686074999999998880e+00 1.358134999999999764e+02 1.505630000000000109e+03
1.590000000000000024e-01 4.981780000000000097e-01 9.667440000000000921e+00 1.357009999999999934e+02 1.505595000000000027e+03
