# t [s], A [cm^2], U [cm/s], P [cPa], c [cm/s]
1.000000000000000021e-03 1.234360000000000041e-01 2.933390000000000164e-01 9.300405000000000655e+01 2.040819999999999936e+03
2.000000000000000042e-03 1.234065000000000023e-01 1.743749999999999911e+00 8.990039999999999054e+01 2.040404999999999973e+03
3.000000000000000062e-03 1.233225000000000016e-01 3.535957999999999934e+00 8.563640000000000896e+01 2.039284999999999854e+03
4.000000000000000083e-03 1.232050000000000090e-01 5.548834000000000266e+00 8.096959999999999980e+01 2.037735000000000127e+03
5.000000000000000104e-03 1.230775000000000063e-01 7.718860000000000277e+00 7.674784999999999968e+01 2.036059999999999945e+03
6.000000000000000125e-03 1.229535000000000072e-01 9.888315000000000410e+00 7.328364999999999441e+01 2.034454999999999927e+03
7.000000000000000146e-03 1.228365000000000012e-01 1.184840000000000160e+01 7.035554999999999382e+01 2.032974999999999909e+03
8.000000000000000167e-03 1.227284999999999904e-01 1.350476000000000099e+01 6.770805000000000007e+01 2.031625000000000000e+03
9.000000000000001055e-03 1.226325000000000054e-01 1.489080000000000048e+01 6.537290000000000134e+01 2.030440000000000055e+03
1.000000000000000194e-02 1.225499999999999923e-01 1.604540000000000077e+01 6.344000000000000483e+01 2.029440000000000055e+03
1.099999999999999936e-02 1.224820000000000075e-01 1.698484999999999800e+01 6.190075000000000216e+01 2.028619999999999891e+03
1.200000000000000025e-02 1.224270000000000080e-01 1.772384999999999877e+01 6.070435000000000514e+01 2.027965000000000146e+03
1.300000000000000114e-02 1.223835000000000062e-01 1.826820000000000022e+01 5.976809999999999690e+01 2.027454999999999927e+03
1.400000000000000203e-02 1.223479999999999984e-01 1.861925000000000097e+01 5.897274999999999778e+01 2.027045000000000073e+03
1.499999999999999944e-02 1.223180000000000101e-01 1.881850000000000023e+01 5.826874999999999716e+01 2.026715000000000146e+03
1.600000000000000033e-02 1.222960000000000158e-01 1.897704999999999842e+01 5.780429999999999779e+01 2.026465000000000146e+03
1.700000000000000122e-02 1.222860000000000058e-01 1.924320000000000164e+01 5.790404999999999802e+01 2.026369999999999891e+03
1.800000000000000211e-02 1.222959999999999881e-01 1.972650000000000148e+01 5.887774999999999892e+01 2.026500000000000000e+03
1.900000000000000300e-02 1.223279999999999923e-01 2.043619999999999948e+01 6.080284999999999940e+01 2.026889999999999873e+03
2.000000000000000042e-02 1.223795000000000022e-01 2.127080000000000126e+01 6.342614999999999981e+01 2.027514999999999873e+03
2.100000000000000130e-02 1.224419999999999953e-01 2.206049999999999756e+01 6.623460000000000036e+01 2.028284999999999854e+03
2.200000000000000219e-02 1.225045000000000023e-01 2.263335000000000008e+01 6.863960000000000150e+01 2.029055000000000064e+03
2.299999999999999961e-02 1.225549999999999973e-01 2.287584999999999980e+01 7.018144999999999811e+01 2.029700000000000045e+03
2.400000000000000050e-02 1.225870000000000015e-01 2.276445000000000007e+01 7.066859999999999786e+01 2.030125000000000000e+03
2.500000000000000139e-02 1.225980000000000125e-01 2.236155000000000115e+01 7.020775000000000432e+01 2.030289999999999964e+03
2.600000000000000228e-02 1.225920000000000065e-01 2.178190000000000026e+01 6.912659999999999627e+01 2.030240000000000009e+03
2.700000000000000316e-02 1.225749999999999895e-01 2.114605000000000246e+01 6.783220000000000027e+01 2.030049999999999955e+03
2.800000000000000058e-02 1.225544999999999968e-01 2.054070000000000107e+01 6.666440000000000055e+01 2.029809999999999945e+03
2.900000000000000147e-02 1.225354999999999916e-01 1.999689999999999657e+01 6.579845000000000255e+01 2.029569999999999936e+03
3.000000000000000236e-02 1.225200000000000039e-01 1.949255000000000138e+01 6.521994999999999720e+01 2.029375000000000000e+03
3.099999999999999978e-02 1.225064999999999904e-01 1.897180000000000177e+01 6.476940000000000452e+01 2.029210000000000036e+03
3.200000000000000067e-02 1.224925000000000042e-01 1.837424999999999997e+01 6.422839999999999350e+01 2.029039999999999964e+03
3.300000000000000155e-02 1.224739999999999995e-01 1.766259999999999764e+01 6.341635000000000133e+01 2.028820000000000164e+03
3.400000000000000244e-02 1.224490000000000023e-01 1.684185000000000088e+01 6.226684999999999803e+01 2.028519999999999982e+03
3.500000000000000333e-02 1.224174999999999985e-01 1.596394999999999875e+01 6.086280000000000001e+01 2.028139999999999873e+03
3.600000000000000422e-02 1.223829999999999918e-01 1.511705000000000076e+01 5.942085000000000150e+01 2.027724999999999909e+03
3.700000000000000511e-02 1.223505000000000009e-01 1.440324999999999989e+01 5.823225000000000051e+01 2.027319999999999936e+03
3.799999999999999906e-02 1.223260000000000042e-01 1.391150000000000020e+01 5.757954999999999757e+01 2.027014999999999873e+03
3.899999999999999994e-02 1.223154999999999937e-01 1.369444999999999979e+01 5.765595000000000425e+01 2.026869999999999891e+03
4.000000000000000083e-02 1.223209999999999853e-01 1.375525000000000020e+01 5.851170000000000471e+01 2.026920000000000073e+03
4.100000000000000172e-02 1.223434999999999939e-01 1.404749999999999943e+01 6.003974999999999795e+01 2.027175000000000182e+03
4.200000000000000261e-02 1.223795000000000022e-01 1.448550000000000004e+01 6.200010000000000332e+01 2.027599999999999909e+03
4.300000000000000350e-02 1.224234999999999907e-01 1.496219999999999928e+01 6.407189999999999941e+01 2.028125000000000000e+03
4.400000000000000439e-02 1.224685000000000079e-01 1.536840000000000117e+01 6.591720000000000823e+01 2.028670000000000073e+03
4.499999999999999833e-02 1.225075000000000053e-01 1.561025000000000063e+01 6.724039999999999395e+01 2.029154999999999973e+03
4.599999999999999922e-02 1.225350000000000050e-01 1.562024999999999864e+01 6.783119999999999550e+01 2.029494999999999891e+03
4.700000000000000011e-02 1.225450000000000012e-01 1.536285000000000167e+01 6.758594999999999686e+01 2.029634999999999991e+03
4.800000000000000100e-02 1.225370000000000070e-01 1.483314999999999984e+01 6.650614999999999100e+01 2.029549999999999955e+03
4.900000000000000189e-02 1.225094999999999934e-01 1.405130000000000123e+01 6.467945000000000277e+01 2.029224999999999909e+03
5.000000000000000278e-02 1.224655000000000049e-01 1.305429999999999957e+01 6.225014999999999787e+01 2.028700000000000045e+03
5.100000000000000366e-02 1.224065000000000014e-01 1.188799999999999990e+01 5.938774999999999693e+01 2.027990000000000009e+03
5.200000000000000455e-02 1.223370000000000013e-01 1.060063500000000047e+01 5.626084999999999781e+01 2.027144999999999982e+03
5.300000000000000544e-02 1.222600000000000076e-01 9.238640000000000185e+00 5.301975000000000193e+01 2.026204999999999927e+03
5.399999999999999939e-02 1.221789999999999959e-01 7.845520000000000493e+00 4.979005000000000081e+01 2.025215000000000146e+03
5.500000000000000028e-02 1.220964999999999967e-01 6.461899999999999977e+00 4.667409999999999570e+01 2.024215000000000146e+03
5.600000000000000117e-02 1.220170000000000005e-01 5.127229999999999954e+00 4.375789999999999935e+01 2.023230000000000018e+03
5.700000000000000205e-02 1.219405000000000072e-01 3.881143000000000232e+00 4.111950000000000216e+01 2.022289999999999964e+03
5.800000000000000294e-02 1.218705000000000066e-01 2.764168300000000134e+00 3.883590000000000231e+01 2.021429999999999836e+03
5.900000000000000383e-02 1.218095000000000011e-01 1.817446500000000187e+00 3.698615000000000208e+01 2.020674999999999955e+03
6.000000000000000472e-02 1.217599999999999932e-01 1.081290499999999932e+00 3.565070000000000050e+01 2.020045000000000073e+03
6.099999999999999867e-02 1.217229999999999979e-01 5.928765000000000285e-01 3.490655000000000285e+01 2.019579999999999927e+03
6.199999999999999956e-02 1.217009999999999897e-01 3.834954999999999892e-01 3.482065000000000055e+01 2.019295000000000073e+03
6.300000000000000044e-02 1.216964999999999991e-01 4.759299999999999642e-01 3.544190000000000396e+01 2.019215000000000146e+03
6.400000000000000133e-02 1.217094999999999982e-01 8.823877500000000262e-01 3.679510000000000502e+01 2.019355000000000018e+03
6.500000000000000222e-02 1.217415000000000025e-01 1.603312450000000000e+00 3.887650000000000006e+01 2.019719999999999800e+03
6.600000000000000311e-02 1.217924999999999980e-01 2.627226999999999979e+00 4.165279999999999916e+01 2.020319999999999936e+03
6.700000000000000400e-02 1.218609999999999971e-01 3.931550000000000100e+00 4.506305000000000405e+01 2.021134999999999991e+03
6.800000000000000488e-02 1.219454999999999983e-01 5.484169999999999767e+00 4.902309999999999945e+01 2.022154999999999973e+03
6.900000000000000577e-02 1.220455000000000012e-01 7.245559999999999334e+00 5.343130000000000024e+01 2.023355000000000018e+03
7.000000000000000666e-02 1.221569999999999878e-01 9.171129999999999782e+00 5.817600000000000193e+01 2.024710000000000036e+03
7.100000000000000755e-02 1.222779999999999978e-01 1.121386500000000019e+01 6.314205000000000467e+01 2.026190000000000055e+03
7.200000000000000844e-02 1.224059999999999870e-01 1.332650500000000093e+01 6.821765000000000612e+01 2.027755000000000109e+03
7.300000000000000933e-02 1.225375000000000075e-01 1.546399999999999864e+01 7.330035000000000878e+01 2.029365000000000009e+03
7.399999999999999634e-02 1.226700000000000013e-01 1.758559999999999945e+01 7.830169999999999675e+01 2.031009999999999991e+03
7.499999999999999722e-02 1.228025000000000089e-01 1.965640000000000143e+01 8.315149999999999864e+01 2.032644999999999982e+03
7.599999999999999811e-02 1.229314999999999991e-01 2.164864999999999995e+01 8.780010000000000048e+01 2.034255000000000109e+03
7.699999999999999900e-02 1.230569999999999997e-01 2.354285000000000139e+01 9.221965000000000146e+01 2.035819999999999936e+03
7.799999999999999989e-02 1.231774999999999953e-01 2.532740000000000080e+01 9.640299999999999159e+01 2.037329999999999927e+03
7.900000000000000078e-02 1.232930000000000137e-01 2.699869999999999948e+01 1.003628500000000088e+02 2.038779999999999973e+03
8.000000000000000167e-02 1.234034999999999993e-01 2.855969999999999942e+01 1.041275499999999994e+02 2.040175000000000182e+03
8.100000000000000255e-02 1.235094999999999943e-01 3.001885000000000048e+01 1.077355000000000018e+02 2.041514999999999873e+03
8.200000000000000344e-02 1.236119999999999997e-01 3.138814999999999955e+01 1.112305000000000064e+02 2.042804999999999836e+03
8.300000000000000433e-02 1.237120000000000025e-01 3.268155000000000143e+01 1.146589999999999918e+02 2.044075000000000045e+03
8.400000000000000522e-02 1.238100000000000034e-01 3.391300000000000381e+01 1.180610000000000070e+02 2.045319999999999936e+03
8.500000000000000611e-02 1.239080000000000042e-01 3.509494999999999720e+01 1.214689999999999941e+02 2.046550000000000182e+03
8.600000000000000699e-02 1.240049999999999902e-01 3.623749999999999716e+01 1.249039999999999964e+02 2.047785000000000082e+03
8.700000000000000788e-02 1.241025000000000045e-01 3.734720000000000084e+01 1.283759999999999764e+02 2.049019999999999982e+03
8.800000000000000877e-02 1.242009999999999920e-01 3.842665000000000219e+01 1.318810000000000002e+02 2.050269999999999982e+03
8.899999999999999578e-02 1.242995000000000072e-01 3.947455000000000069e+01 1.354035000000000082e+02 2.051514999999999873e+03
8.999999999999999667e-02 1.243979999999999947e-01 4.048609999999999332e+01 1.389184999999999945e+02 2.052769999999999982e+03
9.099999999999999756e-02 1.244965000000000099e-01 4.145310000000000628e+01 1.423915000000000077e+02 2.054019999999999982e+03
9.199999999999999845e-02 1.245930000000000093e-01 4.236475000000000080e+01 1.457839999999999918e+02 2.055250000000000000e+03
9.299999999999999933e-02 1.246875000000000067e-01 4.320859999999999701e+01 1.490525000000000091e+02 2.056444999999999709e+03
9.400000000000000022e-02 1.247784999999999866e-01 4.397119999999999607e+01 1.521544999999999845e+02 2.057610000000000127e+03
9.500000000000000111e-02 1.248650000000000038e-01 4.463884999999999792e+01 1.550480000000000018e+02 2.058720000000000255e+03
9.600000000000000200e-02 1.249454999999999871e-01 4.519839999999999947e+01 1.576949999999999932e+02 2.059755000000000109e+03
9.700000000000000289e-02 1.250205000000000066e-01 4.563815000000000310e+01 1.600625000000000000e+02 2.060715000000000146e+03
9.800000000000000377e-02 1.250880000000000047e-01 4.594825000000000159e+01 1.621234999999999786e+02 2.061585000000000036e+03
9.900000000000000466e-02 1.251474999999999949e-01 4.612134999999999962e+01 1.638589999999999804e+02 2.062355000000000018e+03
1.000000000000000056e-01 1.251980000000000037e-01 4.615309999999999491e+01 1.652580000000000098e+02 2.063014999999999873e+03
1.010000000000000064e-01 1.252405000000000046e-01 4.604260000000000019e+01 1.663174999999999955e+02 2.063565000000000055e+03
1.020000000000000073e-01 1.252734999999999821e-01 4.579214999999999947e+01 1.670455000000000041e+02 2.064010000000000218e+03
1.030000000000000082e-01 1.252985000000000071e-01 4.540755000000000052e+01 1.674549999999999841e+02 2.064340000000000146e+03
1.040000000000000091e-01 1.253150000000000097e-01 4.489804999999999779e+01 1.675704999999999814e+02 2.064559999999999945e+03
1.050000000000000100e-01 1.253230000000000177e-01 4.427575000000000216e+01 1.674194999999999993e+02 2.064680000000000291e+03
1.059999999999999970e-01 1.253245000000000053e-01 4.355525000000000091e+01 1.670389999999999873e+02 2.064710000000000036e+03
1.069999999999999979e-01 1.253195000000000003e-01 4.275294999999999845e+01 1.664655000000000200e+02 2.064654999999999745e+03
1.079999999999999988e-01 1.253090000000000037e-01 4.188649999999999807e+01 1.657415000000000020e+02 2.064534999999999854e+03
1.089999999999999997e-01 1.252945000000000031e-01 4.097395000000000209e+01 1.649069999999999823e+02 2.064355000000000018e+03
1.100000000000000006e-01 1.252764999999999851e-01 4.003314999999999912e+01 1.640010000000000048e+02 2.064130000000000109e+03
1.110000000000000014e-01 1.252559999999999785e-01 3.908084999999999809e+01 1.630610000000000070e+02 2.063875000000000000e+03
1.120000000000000023e-01 1.252340000000000120e-01 3.813250000000000028e+01 1.621179999999999950e+02 2.063599999999999909e+03
1.130000000000000032e-01 1.252119999999999900e-01 3.720130000000000337e+01 1.611995000000000005e+02 2.063319999999999709e+03
1.140000000000000041e-01 1.251889999999999947e-01 3.629824999999999591e+01 1.603255000000000052e+02 2.063034999999999854e+03
1.150000000000000050e-01 1.251674999999999871e-01 3.543160000000000309e+01 1.595105000000000075e+02 2.062750000000000000e+03
1.160000000000000059e-01 1.251464999999999939e-01 3.460665000000000191e+01 1.587624999999999886e+02 2.062485000000000127e+03
1.170000000000000068e-01 1.251275000000000026e-01 3.382600000000000051e+01 1.580815000000000055e+02 2.062235000000000127e+03
1.180000000000000077e-01 1.251089999999999980e-01 3.308934999999999604e+01 1.574629999999999939e+02 2.061994999999999891e+03
1.190000000000000085e-01 1.250919999999999810e-01 3.239374999999999716e+01 1.568954999999999984e+02 2.061780000000000200e+03
1.200000000000000094e-01 1.250759999999999927e-01 3.173420000000000130e+01 1.563640000000000043e+02 2.061569999999999709e+03
1.209999999999999964e-01 1.250610000000000055e-01 3.110344999999999871e+01 1.558495000000000061e+02 2.061369999999999891e+03
1.219999999999999973e-01 1.250459999999999905e-01 3.049305000000000021e+01 1.553294999999999959e+02 2.061175000000000182e+03
1.229999999999999982e-01 1.250310000000000032e-01 2.989365000000000094e+01 1.547810000000000059e+02 2.060980000000000018e+03
1.239999999999999991e-01 1.250145000000000006e-01 2.929540000000000077e+01 1.541809999999999832e+02 2.060769999999999982e+03
1.250000000000000000e-01 1.249974999999999975e-01 2.868874999999999886e+01 1.535084999999999980e+02 2.060550000000000182e+03
1.260000000000000009e-01 1.249780000000000058e-01 2.806490000000000151e+01 1.527429999999999950e+02 2.060304999999999836e+03
1.270000000000000018e-01 1.249570000000000125e-01 2.741619999999999990e+01 1.518700000000000045e+02 2.060029999999999745e+03
1.280000000000000027e-01 1.249325000000000019e-01 2.673679999999999879e+01 1.508779999999999859e+02 2.059720000000000255e+03
1.290000000000000036e-01 1.249050000000000021e-01 2.602270000000000039e+01 1.497620000000000005e+02 2.059375000000000000e+03
1.300000000000000044e-01 1.248744999999999994e-01 2.527230000000000132e+01 1.485210000000000150e+02 2.058989999999999782e+03
1.310000000000000053e-01 1.248409999999999936e-01 2.448639999999999972e+01 1.471620000000000061e+02 2.058565000000000055e+03
1.320000000000000062e-01 1.248049999999999993e-01 2.366814999999999714e+01 1.456965000000000146e+02 2.058105000000000018e+03
1.330000000000000071e-01 1.247655000000000014e-01 2.282294999999999874e+01 1.441410000000000196e+02 2.057614999999999782e+03
1.340000000000000080e-01 1.247240000000000015e-01 2.195839999999999748e+01 1.425175000000000125e+02 2.057090000000000146e+03
1.350000000000000089e-01 1.246810000000000002e-01 2.108364999999999867e+01 1.408519999999999754e+02 2.056539999999999964e+03
1.360000000000000098e-01 1.246365000000000112e-01 2.020924999999999727e+01 1.391715000000000089e+02 2.055985000000000127e+03
1.370000000000000107e-01 1.245920000000000083e-01 1.934644999999999726e+01 1.375054999999999836e+02 2.055414999999999964e+03
1.380000000000000115e-01 1.245469999999999910e-01 1.850680000000000192e+01 1.358820000000000050e+02 2.054849999999999909e+03
1.390000000000000124e-01 1.245040000000000036e-01 1.770149999999999935e+01 1.343294999999999959e+02 2.054295000000000073e+03
1.400000000000000133e-01 1.244619999999999893e-01 1.694105000000000061e+01 1.328725000000000023e+02 2.053765000000000327e+03
1.410000000000000142e-01 1.244220000000000048e-01 1.623465000000000202e+01 1.315314999999999941e+02 2.053260000000000218e+03
1.420000000000000151e-01 1.243854999999999961e-01 1.558974999999999866e+01 1.303234999999999957e+02 2.052789999999999964e+03
1.430000000000000160e-01 1.243519999999999903e-01 1.501215000000000188e+01 1.292605000000000075e+02 2.052360000000000127e+03
1.440000000000000169e-01 1.243215000000000015e-01 1.450539999999999985e+01 1.283480000000000132e+02 2.051974999999999909e+03
1.450000000000000178e-01 1.242955000000000032e-01 1.407099999999999973e+01 1.275879999999999939e+02 2.051635000000000218e+03
1.459999999999999909e-01 1.242729999999999946e-01 1.370834999999999937e+01 1.269755000000000109e+02 2.051349999999999909e+03
1.469999999999999918e-01 1.242544999999999900e-01 1.341505000000000081e+01 1.265039999999999907e+02 2.051105000000000018e+03
1.479999999999999927e-01 1.242395000000000027e-01 1.318679999999999986e+01 1.261604999999999990e+02 2.050909999999999854e+03
1.489999999999999936e-01 1.242280000000000051e-01 1.301800000000000068e+01 1.259314999999999998e+02 2.050755000000000109e+03
1.499999999999999944e-01 1.242195000000000105e-01 1.290204999999999913e+01 1.257990000000000066e+02 2.050639999999999873e+03
1.509999999999999953e-01 1.242135000000000045e-01 1.283135000000000048e+01 1.257469999999999999e+02 2.050559999999999945e+03
1.519999999999999962e-01 1.242095000000000005e-01 1.279809999999999981e+01 1.257555000000000121e+02 2.050505000000000109e+03
1.529999999999999971e-01 1.242074999999999985e-01 1.279415000000000013e+01 1.258085000000000093e+02 2.050475000000000364e+03
1.539999999999999980e-01 1.242069999999999841e-01 1.281159999999999854e+01 1.258889999999999958e+02 2.050460000000000036e+03
1.549999999999999989e-01 1.242069999999999980e-01 1.284304999999999986e+01 1.259814999999999969e+02 2.050465000000000146e+03
1.559999999999999998e-01 1.242074999999999985e-01 1.288165000000000049e+01 1.260724999999999909e+02 2.050469999999999800e+03
1.570000000000000007e-01 1.242090000000000000e-01 1.292129999999999868e+01 1.261514999999999986e+02 2.050480000000000018e+03
1.580000000000000016e-01 1.242100000000000010e-01 1.295690000000000097e+01 1.262094999999999914e+02 2.050485000000000127e+03
1.590000000000000024e-01 1.242100000000000010e-01 1.298434999999999917e+01 1.262394999999999925e+02 2.050494999999999891e+03
