# t [s], A [cm^2], U [cm/s], P [cPa], c [cm/s]
1.000000000000000021e-03 6.126279999999999504e-01 5.124650000000001426e-03 1.072164999999999964e+02 1.525670000000000073e+03
2.000000000000000042e-03 6.126175000000000370e-01 -2.366178999999999939e-03 1.071949999999999932e+02 1.525664999999999964e+03
3.000000000000000062e-03 6.126514999999999045e-01 5.169080000000000202e-02 1.072494999999999976e+02 1.525680000000000064e+03
4.000000000000000083e-03 6.127059999999999729e-01 1.440183499999999894e-01 1.073634999999999877e+02 1.525710000000000036e+03
5.000000000000000104e-03 6.127120000000000344e-01 1.663225000000000120e-01 1.073870000000000005e+02 1.525719999999999800e+03
6.000000000000000125e-03 6.126644999999999452e-01 1.009380000000000138e-01 1.072644999999999982e+02 1.525690000000000055e+03
7.000000000000000146e-03 6.126129999999999631e-01 2.656800000000003603e-02 1.070749999999999886e+02 1.525650000000000091e+03
8.000000000000000167e-03 6.125635000000000385e-01 -5.178800000000000070e-02 1.068404999999999916e+02 1.525595000000000027e+03
9.000000000000001055e-03 6.124789999999999957e-01 -2.000495000000000467e-01 1.064894999999999925e+02 1.525519999999999982e+03
1.000000000000000194e-02 6.123464999999999048e-01 -4.427800000000000624e-01 1.059729999999999990e+02 1.525400000000000091e+03
1.099999999999999936e-02 6.121619999999999839e-01 -7.835400000000000142e-01 1.052574999999999932e+02 1.525240000000000009e+03
1.200000000000000025e-02 6.119105000000000238e-01 -1.238529999999999909e+00 1.042944999999999993e+02 1.525025000000000091e+03
1.300000000000000114e-02 6.115835000000000576e-01 -1.806049999999999933e+00 1.030493500000000040e+02 1.524735000000000127e+03
1.400000000000000203e-02 6.112044999999999284e-01 -2.429320000000000146e+00 1.015560999999999865e+02 1.524380000000000109e+03
1.499999999999999944e-02 6.108180000000000831e-01 -3.004954999999999821e+00 9.992355000000000587e+01 1.523980000000000018e+03
1.600000000000000033e-02 6.104674999999999407e-01 -3.427066500000000016e+00 9.829014999999999702e+01 1.523565000000000055e+03
1.700000000000000122e-02 6.101784999999999570e-01 -3.628082000000000029e+00 9.676699999999999591e+01 1.523160000000000082e+03
1.800000000000000211e-02 6.099464999999999471e-01 -3.594255949999999977e+00 9.540694999999999482e+01 1.522779999999999973e+03
1.900000000000000300e-02 6.097515000000000018e-01 -3.357776349999999965e+00 9.419870000000000232e+01 1.522420000000000073e+03
2.000000000000000042e-02 6.095610000000000195e-01 -2.976693150000000010e+00 9.308474999999999966e+01 1.522079999999999927e+03
2.100000000000000130e-02 6.093480000000000008e-01 -2.512519499999999795e+00 9.198865000000000691e+01 1.521735000000000127e+03
2.200000000000000219e-02 6.090949999999999420e-01 -2.011979999999999880e+00 9.084210000000000207e+01 1.521384999999999991e+03
2.299999999999999961e-02 6.087989999999999791e-01 -1.496724999999999861e+00 8.960585000000000377e+01 1.521009999999999991e+03
2.400000000000000050e-02 6.084689999999999266e-01 -9.631499999999997286e-01 8.827774999999999750e+01 1.520615000000000009e+03
2.500000000000000139e-02 6.081229999999999691e-01 -3.914249999999999119e-01 8.688679999999999382e+01 1.520204999999999927e+03
2.600000000000000228e-02 6.077784999999999993e-01 2.403050000000002129e-01 8.547800000000000864e+01 1.519784999999999854e+03
2.700000000000000316e-02 6.074465000000000003e-01 9.422650000000003523e-01 8.409190000000000964e+01 1.519369999999999891e+03
2.800000000000000058e-02 6.071280000000000010e-01 1.704370000000000163e+00 8.274920000000000186e+01 1.518965000000000146e+03
2.900000000000000147e-02 6.068135000000000057e-01 2.494355000000000100e+00 8.144169999999999732e+01 1.518565000000000055e+03
3.000000000000000236e-02 6.064859999999999696e-01 3.262185000000000112e+00 8.013299999999999557e+01 1.518164999999999964e+03
3.099999999999999978e-02 6.061259999999999426e-01 3.949005000000000098e+00 7.876579999999999870e+01 1.517755000000000109e+03
3.200000000000000067e-02 6.057139999999999747e-01 4.498390000000000555e+00 7.727604999999999791e+01 1.517320000000000164e+03
3.300000000000000155e-02 6.052394999999999303e-01 4.867449999999999832e+00 7.560824999999999818e+01 1.516845000000000027e+03
3.400000000000000244e-02 6.046985000000000277e-01 5.035474999999999923e+00 7.373089999999999122e+01 1.516329999999999927e+03
3.500000000000000333e-02 6.041015000000000690e-01 5.007899999999999352e+00 7.164580000000000837e+01 1.515764999999999873e+03
3.600000000000000422e-02 6.034669999999999757e-01 4.814334999999999809e+00 6.939164999999999850e+01 1.515164999999999964e+03
3.700000000000000511e-02 6.028210000000000512e-01 4.502410000000000245e+00 6.703825000000000500e+01 1.514535000000000082e+03
3.799999999999999906e-02 6.021909999999999208e-01 4.128194999999999837e+00 6.467645000000000266e+01 1.513904999999999973e+03
3.899999999999999994e-02 6.016034999999999577e-01 3.747359999999999580e+00 6.240475000000000705e+01 1.513289999999999964e+03
4.000000000000000083e-02 6.010805000000000176e-01 3.407979999999999787e+00 6.031725000000000136e+01 1.512710000000000036e+03
4.100000000000000172e-02 6.006374999999999353e-01 3.146740000000000315e+00 5.849394999999999811e+01 1.512195000000000164e+03
4.200000000000000261e-02 6.002845000000001097e-01 2.987880000000000091e+00 5.699569999999999936e+01 1.511750000000000000e+03
4.300000000000000350e-02 6.000250000000000306e-01 2.944614999999999760e+00 5.586249999999999716e+01 1.511400000000000091e+03
4.400000000000000439e-02 5.998594999999999899e-01 3.022167500000000118e+00 5.511504999999999654e+01 1.511139999999999873e+03
4.499999999999999833e-02 5.997875000000000290e-01 3.221210000000000129e+00 5.475875000000000625e+01 1.510990000000000009e+03
4.599999999999999922e-02 5.998049999999999216e-01 3.541110000000000202e+00 5.478865000000000407e+01 1.510940000000000055e+03
4.700000000000000011e-02 5.999100000000000543e-01 3.982210000000000250e+00 5.519410000000000593e+01 1.510990000000000009e+03
4.800000000000000100e-02 6.000999999999999668e-01 4.546820000000000306e+00 5.596224999999999739e+01 1.511139999999999873e+03
4.900000000000000189e-02 6.003739999999999633e-01 5.238809999999999967e+00 5.708035000000000281e+01 1.511380000000000109e+03
5.000000000000000278e-02 6.007295000000000273e-01 6.062179999999999680e+00 5.853535000000000821e+01 1.511720000000000027e+03
5.100000000000000366e-02 6.011644999999999905e-01 7.019160000000000288e+00 6.031345000000000312e+01 1.512150000000000091e+03
5.200000000000000455e-02 6.016755000000000297e-01 8.108290000000000219e+00 6.239764999999999873e+01 1.512664999999999964e+03
5.300000000000000544e-02 6.022549999999999848e-01 9.322910000000000252e+00 6.476624999999999943e+01 1.513260000000000218e+03
5.399999999999999939e-02 6.028970000000000162e-01 1.065088000000000079e+01 6.739124999999999943e+01 1.513929999999999836e+03
5.500000000000000028e-02 6.035904999999999188e-01 1.207456499999999977e+01 7.023865000000000691e+01 1.514664999999999964e+03
5.600000000000000117e-02 6.043255000000000710e-01 1.357211500000000015e+01 7.326859999999999218e+01 1.515449999999999818e+03
5.700000000000000205e-02 6.050895000000000579e-01 1.511899499999999996e+01 7.643729999999999336e+01 1.516289999999999964e+03
5.800000000000000294e-02 6.058719999999999661e-01 1.668960500000000025e+01 7.969904999999999973e+01 1.517154999999999973e+03
5.900000000000000383e-02 6.066599999999999770e-01 1.825914500000000018e+01 8.300915000000000532e+01 1.518050000000000182e+03
6.000000000000000472e-02 6.074454999999999716e-01 1.980509999999999948e+01 8.632554999999999268e+01 1.518949999999999818e+03
6.099999999999999867e-02 6.082205000000000528e-01 2.130815000000000126e+01 8.961214999999999975e+01 1.519855000000000018e+03
6.199999999999999956e-02 6.089789999999999370e-01 2.275300000000000011e+01 9.283894999999999698e+01 1.520750000000000000e+03
6.300000000000000044e-02 6.097164999999999946e-01 2.412839999999999918e+01 9.598319999999999652e+01 1.521639999999999873e+03
6.400000000000000133e-02 6.104315000000000158e-01 2.542685000000000173e+01 9.903064999999999429e+01 1.522500000000000000e+03
6.500000000000000222e-02 6.111234999999999307e-01 2.664444999999999908e+01 1.019719499999999925e+02 1.523345000000000027e+03
6.600000000000000311e-02 6.117920000000000025e-01 2.777990000000000137e+01 1.048065500000000014e+02 1.524160000000000082e+03
6.700000000000000400e-02 6.124395000000000255e-01 2.883424999999999727e+01 1.075371499999999969e+02 1.524950000000000045e+03
6.800000000000000488e-02 6.130675000000000985e-01 2.980980000000000274e+01 1.101705000000000041e+02 1.525715000000000146e+03
6.900000000000000577e-02 6.136779999999999458e-01 3.071004999999999896e+01 1.127159999999999940e+02 1.526460000000000036e+03
7.000000000000000666e-02 6.142734999999999168e-01 3.153875000000000028e+01 1.151835000000000093e+02 1.527184999999999945e+03
7.100000000000000755e-02 6.148564999999999170e-01 3.229964999999999975e+01 1.175829999999999984e+02 1.527890000000000100e+03
7.200000000000000844e-02 6.154284999999999339e-01 3.299604999999999677e+01 1.199224999999999994e+02 1.528575000000000045e+03
7.300000000000000933e-02 6.159894999999999676e-01 3.363054999999999950e+01 1.222094999999999914e+02 1.529255000000000109e+03
7.399999999999999634e-02 6.165404999999999358e-01 3.420459999999999923e+01 1.244470000000000027e+02 1.529914999999999964e+03
7.499999999999999722e-02 6.170809999999999906e-01 3.471864999999999668e+01 1.266349999999999909e+02 1.530555000000000064e+03
7.599999999999999811e-02 6.176090000000000746e-01 3.517194999999999538e+01 1.287710000000000150e+02 1.531190000000000055e+03
7.699999999999999900e-02 6.181229999999999780e-01 3.556279999999999575e+01 1.308485000000000014e+02 1.531804999999999836e+03
7.799999999999999989e-02 6.186199999999999477e-01 3.588859999999999673e+01 1.328590000000000089e+02 1.532400000000000091e+03
7.900000000000000078e-02 6.190975000000000783e-01 3.614629999999999654e+01 1.347909999999999968e+02 1.532980000000000018e+03
8.000000000000000167e-02 6.195519999999999916e-01 3.633270000000000266e+01 1.366320000000000050e+02 1.533525000000000091e+03
8.100000000000000255e-02 6.199805000000000454e-01 3.644474999999999909e+01 1.383695000000000164e+02 1.534055000000000064e+03
8.200000000000000344e-02 6.203799999999999315e-01 3.647979999999999734e+01 1.399909999999999854e+02 1.534549999999999955e+03
8.300000000000000433e-02 6.207480000000000775e-01 3.643609999999999616e+01 1.414850000000000136e+02 1.535005000000000109e+03
8.400000000000000522e-02 6.210820000000000229e-01 3.631264999999999787e+01 1.428410000000000082e+02 1.535429999999999836e+03
8.500000000000000611e-02 6.213809999999999611e-01 3.610939999999999372e+01 1.440519999999999925e+02 1.535815000000000055e+03
8.600000000000000699e-02 6.216435000000000155e-01 3.582739999999999725e+01 1.451129999999999995e+02 1.536154999999999973e+03
8.700000000000000788e-02 6.218695000000000750e-01 3.546864999999999668e+01 1.460194999999999936e+02 1.536454999999999927e+03
8.800000000000000877e-02 6.220585000000000697e-01 3.503629999999999711e+01 1.467724999999999795e+02 1.536704999999999927e+03
8.899999999999999578e-02 6.222119999999999873e-01 3.453430000000000177e+01 1.473734999999999786e+02 1.536924999999999955e+03
8.999999999999999667e-02 6.223300000000000498e-01 3.396750000000000114e+01 1.478265000000000100e+02 1.537090000000000146e+03
9.099999999999999756e-02 6.224144999999999817e-01 3.334170000000000300e+01 1.481394999999999982e+02 1.537220000000000027e+03
9.199999999999999845e-02 6.224684999999999802e-01 3.266335000000000122e+01 1.483195000000000050e+02 1.537309999999999945e+03
9.299999999999999933e-02 6.224939999999999918e-01 3.193974999999999653e+01 1.483770000000000095e+02 1.537365000000000009e+03
9.400000000000000022e-02 6.224929999999999630e-01 3.117849999999999966e+01 1.483240000000000123e+02 1.537384999999999991e+03
9.500000000000000111e-02 6.224699999999999678e-01 3.038799999999999812e+01 1.481745000000000232e+02 1.537375000000000000e+03
9.600000000000000200e-02 6.224279999999999813e-01 2.957649999999999935e+01 1.479409999999999741e+02 1.537340000000000146e+03
9.700000000000000289e-02 6.223695000000000199e-01 2.875264999999999915e+01 1.476385000000000218e+02 1.537279999999999973e+03
9.800000000000000377e-02 6.222984999999999767e-01 2.792475000000000307e+01 1.472814999999999941e+02 1.537199999999999818e+03
9.900000000000000466e-02 6.222189999999999666e-01 2.710065000000000168e+01 1.468849999999999909e+02 1.537110000000000127e+03
1.000000000000000056e-01 6.221330000000000471e-01 2.628744999999999976e+01 1.464615000000000009e+02 1.537000000000000000e+03
1.010000000000000064e-01 6.220434999999999715e-01 2.549150000000000205e+01 1.460230000000000246e+02 1.536890000000000100e+03
1.020000000000000073e-01 6.219535000000000480e-01 2.471784999999999854e+01 1.455815000000000055e+02 1.536769999999999982e+03
1.030000000000000082e-01 6.218635000000000135e-01 2.397015000000000029e+01 1.451444999999999936e+02 1.536654999999999973e+03
1.040000000000000091e-01 6.217755000000000365e-01 2.325095000000000312e+01 1.447194999999999823e+02 1.536534999999999854e+03
1.050000000000000100e-01 6.216904999999999237e-01 2.256099999999999994e+01 1.443100000000000023e+02 1.536420000000000073e+03
1.059999999999999970e-01 6.216079999999999384e-01 2.189999999999999858e+01 1.439175000000000182e+02 1.536304999999999836e+03
1.069999999999999979e-01 6.215280000000000804e-01 2.126604999999999990e+01 1.435420000000000016e+02 1.536195000000000164e+03
1.079999999999999988e-01 6.214494999999999880e-01 2.065650000000000119e+01 1.431814999999999998e+02 1.536085000000000036e+03
1.089999999999999997e-01 6.213714999999999655e-01 2.006745000000000090e+01 1.428310000000000173e+02 1.535980000000000018e+03
1.100000000000000006e-01 6.212925000000000253e-01 1.949445000000000050e+01 1.424865000000000066e+02 1.535875000000000000e+03
1.110000000000000014e-01 6.212109999999999577e-01 1.893280000000000030e+01 1.421405000000000030e+02 1.535769999999999982e+03
1.120000000000000023e-01 6.211260000000000669e-01 1.837744999999999962e+01 1.417864999999999895e+02 1.535670000000000073e+03
1.130000000000000032e-01 6.210350000000000037e-01 1.782329999999999970e+01 1.414184999999999945e+02 1.535559999999999945e+03
1.140000000000000041e-01 6.209375000000000311e-01 1.726569999999999894e+01 1.410289999999999964e+02 1.535444999999999936e+03
1.150000000000000050e-01 6.208314999999999806e-01 1.670045000000000002e+01 1.406125000000000114e+02 1.535325000000000045e+03
1.160000000000000059e-01 6.207165000000000044e-01 1.612395000000000067e+01 1.401645000000000039e+02 1.535199999999999818e+03
1.170000000000000068e-01 6.205924999999999914e-01 1.553325000000000067e+01 1.396819999999999879e+02 1.535065000000000055e+03
1.180000000000000077e-01 6.204585000000000239e-01 1.492650000000000077e+01 1.391625000000000227e+02 1.534920000000000073e+03
1.190000000000000085e-01 6.203159999999999785e-01 1.430279999999999951e+01 1.386059999999999945e+02 1.534764999999999873e+03
1.200000000000000094e-01 6.201639999999999375e-01 1.366217499999999951e+01 1.380134999999999934e+02 1.534605000000000018e+03
1.209999999999999964e-01 6.200044999999999584e-01 1.300583999999999918e+01 1.373879999999999768e+02 1.534429999999999836e+03
1.219999999999999973e-01 6.198390000000000288e-01 1.233587999999999951e+01 1.367344999999999970e+02 1.534250000000000000e+03
1.229999999999999982e-01 6.196690000000000254e-01 1.165546499999999952e+01 1.360595000000000141e+02 1.534065000000000055e+03
1.239999999999999991e-01 6.194960000000000466e-01 1.096864000000000061e+01 1.353700000000000045e+02 1.533880000000000109e+03
1.250000000000000000e-01 6.193230000000000679e-01 1.028000499999999917e+01 1.346754999999999995e+02 1.533684999999999945e+03
1.260000000000000009e-01 6.191529999999999534e-01 9.594934999999999548e+00 1.339850000000000136e+02 1.533490000000000009e+03
1.270000000000000018e-01 6.189875000000000238e-01 8.918979999999999464e+00 1.333089999999999975e+02 1.533304999999999836e+03
1.280000000000000027e-01 6.188295000000000323e-01 8.258060000000000400e+00 1.326569999999999823e+02 1.533115000000000009e+03
1.290000000000000036e-01 6.186810000000000365e-01 7.617924999999999613e+00 1.320395000000000039e+02 1.532940000000000055e+03
1.300000000000000044e-01 6.185450000000000115e-01 7.004120000000000346e+00 1.314654999999999916e+02 1.532775000000000091e+03
1.310000000000000053e-01 6.184229999999999450e-01 6.421820000000000306e+00 1.309435000000000002e+02 1.532619999999999891e+03
1.320000000000000062e-01 6.183160000000000878e-01 5.875465000000000160e+00 1.304814999999999827e+02 1.532480000000000018e+03
1.330000000000000071e-01 6.182259999999999422e-01 5.368805000000000049e+00 1.300850000000000080e+02 1.532360000000000127e+03
1.340000000000000080e-01 6.181529999999999525e-01 4.904650000000000176e+00 1.297570000000000050e+02 1.532255000000000109e+03
1.350000000000000089e-01 6.180980000000000363e-01 4.484824999999999839e+00 1.295010000000000048e+02 1.532170000000000073e+03
1.360000000000000098e-01 6.180604999999999016e-01 4.110129999999999839e+00 1.293160000000000025e+02 1.532105000000000018e+03
1.370000000000000107e-01 6.180399999999999228e-01 3.780335000000000001e+00 1.292019999999999982e+02 1.532059999999999945e+03
1.380000000000000115e-01 6.180350000000000010e-01 3.494220000000000326e+00 1.291539999999999964e+02 1.532030000000000200e+03
1.390000000000000124e-01 6.180444999999999967e-01 3.249670000000000059e+00 1.291680000000000064e+02 1.532014999999999873e+03
1.400000000000000133e-01 6.180669999999999220e-01 3.043795000000000250e+00 1.292365000000000066e+02 1.532015000000000100e+03
1.410000000000000142e-01 6.180995000000000239e-01 2.873064999999999980e+00 1.293530000000000086e+02 1.532034999999999854e+03
1.420000000000000151e-01 6.181404999999999816e-01 2.733464999999999812e+00 1.295090000000000146e+02 1.532065000000000055e+03
1.430000000000000160e-01 6.181885000000000296e-01 2.620684999999999931e+00 1.296949999999999932e+02 1.532105000000000018e+03
1.440000000000000169e-01 6.182404999999999706e-01 2.530274999999999608e+00 1.299025000000000034e+02 1.532150000000000091e+03
1.450000000000000178e-01 6.182944999999999691e-01 2.457765000000000200e+00 1.301229999999999905e+02 1.532204999999999927e+03
1.459999999999999909e-01 6.183494999999999964e-01 2.398875000000000313e+00 1.303480000000000132e+02 1.532259999999999991e+03
1.469999999999999918e-01 6.184020000000000072e-01 2.349544999999999995e+00 1.305699999999999932e+02 1.532320000000000164e+03
1.479999999999999927e-01 6.184524999999999606e-01 2.306095000000000006e+00 1.307824999999999989e+02 1.532369999999999891e+03
1.489999999999999936e-01 6.184985000000000621e-01 2.265254999999999797e+00 1.309789999999999850e+02 1.532424999999999955e+03
1.499999999999999944e-01 6.185399999999999787e-01 2.224225000000000119e+00 1.311560000000000059e+02 1.532470000000000027e+03
1.509999999999999953e-01 6.185750000000000970e-01 2.180674999999999919e+00 1.313100000000000023e+02 1.532514999999999873e+03
1.519999999999999962e-01 6.186034999999999728e-01 2.132789999999999964e+00 1.314375000000000000e+02 1.532554999999999836e+03
1.529999999999999971e-01 6.186260000000000092e-01 2.079204999999999970e+00 1.315374999999999943e+02 1.532579999999999927e+03
1.539999999999999980e-01 6.186420000000000252e-01 2.019020000000000259e+00 1.316100000000000136e+02 1.532605000000000018e+03
1.549999999999999989e-01 6.186514999999999098e-01 1.951754999999999907e+00 1.316544999999999845e+02 1.532619999999999891e+03
1.559999999999999998e-01 6.186549999999999550e-01 1.877289999999999903e+00 1.316719999999999970e+02 1.532630000000000109e+03
1.570000000000000007e-01 6.186530000000000085e-01 1.795839999999999881e+00 1.316645000000000039e+02 1.532634999999999991e+03
1.580000000000000016e-01 6.186454999999999593e-01 1.707880000000000065e+00 1.316334999999999980e+02 1.532630000000000109e+03
1.590000000000000024e-01 6.186329999999999885e-01 1.614095000000000057e+00 1.315810000000000173e+02 1.532619999999999891e+03
