# t [s], A [cm^2], U [cm/s], P [cPa], c [cm/s]
1.000000000000000021e-03 1.627369999999999928e-01 1.992200000000000082e-01 1.028385000000000105e+02 1.920809999999999945e+03
2.000000000000000042e-03 1.627069999999999905e-01 1.650187499999999918e+00 9.999950000000001182e+01 1.920545000000000073e+03
3.000000000000000062e-03 1.626000000000000223e-01 3.490759999999999863e+00 9.610139999999999816e+01 1.919654999999999973e+03
4.000000000000000083e-03 1.624395000000000144e-01 5.558966999999999992e+00 9.157679999999999154e+01 1.918340000000000146e+03
5.000000000000000104e-03 1.622544999999999960e-01 7.796825000000000117e+00 8.717385000000000161e+01 1.916845000000000027e+03
6.000000000000000125e-03 1.620659999999999878e-01 1.009847999999999857e+01 8.334505000000000052e+01 1.915340000000000146e+03
7.000000000000000146e-03 1.618860000000000021e-01 1.229540000000000077e+01 8.012210000000000321e+01 1.913914999999999964e+03
8.000000000000000167e-03 1.617169999999999996e-01 1.424220500000000023e+01 7.730304999999999893e+01 1.912605000000000018e+03
9.000000000000001055e-03 1.615624999999999978e-01 1.590109999999999957e+01 7.477944999999999709e+01 1.911424999999999955e+03
1.000000000000000194e-02 1.614254999999999995e-01 1.730085000000000051e+01 7.259664999999999679e+01 1.910389999999999873e+03
1.099999999999999936e-02 1.613089999999999802e-01 1.846819999999999951e+01 7.080119999999999436e+01 1.909519999999999982e+03
1.200000000000000025e-02 1.612124999999999808e-01 1.941949999999999932e+01 6.938160000000000593e+01 1.908804999999999836e+03
1.300000000000000114e-02 1.611350000000000005e-01 2.016884999999999906e+01 6.829590000000000316e+01 1.908244999999999891e+03
1.400000000000000203e-02 1.610734999999999806e-01 2.072379999999999711e+01 6.747565000000000168e+01 1.907800000000000182e+03
1.499999999999999944e-02 1.610250000000000015e-01 2.109039999999999893e+01 6.683099999999998886e+01 1.907460000000000036e+03
1.600000000000000033e-02 1.609860000000000180e-01 2.129840000000000089e+01 6.630904999999999916e+01 1.907200000000000045e+03
1.700000000000000122e-02 1.609575000000000033e-01 2.142024999999999935e+01 6.596604999999999563e+01 1.907014999999999873e+03
1.800000000000000211e-02 1.609435000000000171e-01 2.155940000000000012e+01 6.597560000000000002e+01 1.906924999999999955e+03
1.900000000000000300e-02 1.609484999999999943e-01 2.181125000000000114e+01 6.654670000000000130e+01 1.906980000000000018e+03
2.000000000000000042e-02 1.609780000000000100e-01 2.222205000000000297e+01 6.780459999999999354e+01 1.907210000000000036e+03
2.100000000000000130e-02 1.610309999999999797e-01 2.276919999999999789e+01 6.970494999999999663e+01 1.907610000000000127e+03
2.200000000000000219e-02 1.611039999999999972e-01 2.337105000000000032e+01 7.202469999999999573e+01 1.908160000000000082e+03
2.299999999999999961e-02 1.611869999999999969e-01 2.391685000000000016e+01 7.442525000000000546e+01 1.908789999999999964e+03
2.400000000000000050e-02 1.612689999999999957e-01 2.430344999999999800e+01 7.655419999999999447e+01 1.909425000000000182e+03
2.500000000000000139e-02 1.613414999999999988e-01 2.446470000000000056e+01 7.814324999999999477e+01 1.909985000000000127e+03
2.600000000000000228e-02 1.613964999999999983e-01 2.438584999999999781e+01 7.907095000000001050e+01 1.910424999999999955e+03
2.700000000000000316e-02 1.614325000000000065e-01 2.409989999999999810e+01 7.937494999999999834e+01 1.910720000000000027e+03
2.800000000000000058e-02 1.614510000000000112e-01 2.367054999999999865e+01 7.921565000000001078e+01 1.910880000000000109e+03
2.900000000000000147e-02 1.614570000000000172e-01 2.316855000000000331e+01 7.880979999999999563e+01 1.910940000000000055e+03
3.000000000000000236e-02 1.614555000000000018e-01 2.264974999999999739e+01 7.835774999999999579e+01 1.910934999999999945e+03
3.099999999999999978e-02 1.614515000000000255e-01 2.214175000000000182e+01 7.798879999999999768e+01 1.910910000000000082e+03
3.200000000000000067e-02 1.614470000000000072e-01 2.164159999999999684e+01 7.773654999999999404e+01 1.910880000000000109e+03
3.300000000000000155e-02 1.614430000000000032e-01 2.112300000000000111e+01 7.754845000000000255e+01 1.910849999999999909e+03
3.400000000000000244e-02 1.614375000000000115e-01 2.055069999999999908e+01 7.731989999999998986e+01 1.910809999999999945e+03
3.500000000000000333e-02 1.614275000000000015e-01 1.989585000000000292e+01 7.694069999999999254e+01 1.910735000000000127e+03
3.600000000000000422e-02 1.614105000000000123e-01 1.914894999999999925e+01 7.634010000000000673e+01 1.910614999999999782e+03
3.700000000000000511e-02 1.613860000000000017e-01 1.832755000000000223e+01 7.551765000000000327e+01 1.910440000000000055e+03
3.799999999999999906e-02 1.613555000000000128e-01 1.747530000000000072e+01 7.455279999999999063e+01 1.910220000000000027e+03
3.899999999999999994e-02 1.613224999999999798e-01 1.665455000000000041e+01 7.359165000000000134e+01 1.909970000000000027e+03
4.000000000000000083e-02 1.612914999999999766e-01 1.593309999999999960e+01 7.281390000000000384e+01 1.909740000000000009e+03
4.100000000000000172e-02 1.612689999999999957e-01 1.536965000000000003e+01 7.239050000000000296e+01 1.909559999999999945e+03
4.200000000000000261e-02 1.612595000000000001e-01 1.500145000000000017e+01 7.244354999999998768e+01 1.909480000000000018e+03
4.300000000000000350e-02 1.612655000000000061e-01 1.483654999999999902e+01 7.301789999999999736e+01 1.909514999999999873e+03
4.400000000000000439e-02 1.612895000000000023e-01 1.485324999999999918e+01 7.407104999999999961e+01 1.909680000000000064e+03
4.499999999999999833e-02 1.613275000000000126e-01 1.500465000000000160e+01 7.548199999999999932e+01 1.909960000000000036e+03
4.599999999999999922e-02 1.613765000000000061e-01 1.522745000000000104e+01 7.707415000000000305e+01 1.910315000000000055e+03
4.700000000000000011e-02 1.614304999999999768e-01 1.545250000000000057e+01 7.864650000000000318e+01 1.910715000000000146e+03
4.800000000000000100e-02 1.614829999999999877e-01 1.561455000000000126e+01 8.000569999999999027e+01 1.911110000000000127e+03
4.900000000000000189e-02 1.615280000000000049e-01 1.566025000000000134e+01 8.099224999999999852e+01 1.911450000000000045e+03
5.000000000000000278e-02 1.615604999999999958e-01 1.555279999999999951e+01 8.149805000000000632e+01 1.911704999999999927e+03
5.100000000000000366e-02 1.615765000000000118e-01 1.527315000000000111e+01 8.147284999999999400e+01 1.911835000000000036e+03
5.200000000000000455e-02 1.615754999999999830e-01 1.481875000000000142e+01 8.092085000000000150e+01 1.911835000000000036e+03
5.300000000000000544e-02 1.615564999999999918e-01 1.419989999999999952e+01 7.988974999999999227e+01 1.911699999999999818e+03
5.399999999999999939e-02 1.615205000000000113e-01 1.343584999999999852e+01 7.845584999999999809e+01 1.911440000000000055e+03
5.500000000000000028e-02 1.614700000000000024e-01 1.255039999999999978e+01 7.670929999999999893e+01 1.911070000000000164e+03
5.600000000000000117e-02 1.614075000000000093e-01 1.156932000000000116e+01 7.474080000000000723e+01 1.910605000000000018e+03
5.700000000000000205e-02 1.613364999999999938e-01 1.051762499999999889e+01 7.263380000000000791e+01 1.910065000000000055e+03
5.800000000000000294e-02 1.612595000000000001e-01 9.419795000000000584e+00 7.046039999999999281e+01 1.909485000000000127e+03
5.900000000000000383e-02 1.611779999999999879e-01 8.299524999999999153e+00 6.828199999999999648e+01 1.908875000000000000e+03
6.000000000000000472e-02 1.610949999999999882e-01 7.180870000000000530e+00 6.615250000000000341e+01 1.908244999999999891e+03
6.099999999999999867e-02 1.610135000000000038e-01 6.089095000000000368e+00 6.412260000000000559e+01 1.907625000000000000e+03
6.199999999999999956e-02 1.609344999999999803e-01 5.051434999999999675e+00 6.224349999999999739e+01 1.907029999999999973e+03
6.300000000000000044e-02 1.608614999999999906e-01 4.097034999999999982e+00 6.056990000000000407e+01 1.906465000000000146e+03
6.400000000000000133e-02 1.607949999999999935e-01 3.256510000000000016e+00 5.916035000000000110e+01 1.905960000000000036e+03
6.500000000000000222e-02 1.607389999999999930e-01 2.560764999999999958e+00 5.807574999999999932e+01 1.905530000000000200e+03
6.600000000000000311e-02 1.606954999999999911e-01 2.039442999999999895e+00 5.737624999999999886e+01 1.905184999999999945e+03
6.700000000000000400e-02 1.606660000000000033e-01 1.719120500000000051e+00 5.711700000000000443e+01 1.904954999999999927e+03
6.800000000000000488e-02 1.606540000000000190e-01 1.621589999999999865e+00 5.734340000000000259e+01 1.904845000000000027e+03
6.900000000000000577e-02 1.606595000000000106e-01 1.762369999999999992e+00 5.808755000000000024e+01 1.904880000000000109e+03
7.000000000000000666e-02 1.606849999999999945e-01 2.149690000000000101e+00 5.936475000000000080e+01 1.905054999999999836e+03
7.100000000000000755e-02 1.607310000000000128e-01 2.783990000000000187e+00 6.117210000000000036e+01 1.905380000000000109e+03
7.200000000000000844e-02 1.607969999999999955e-01 3.657939999999999969e+00 6.348860000000000525e+01 1.905860000000000127e+03
7.300000000000000933e-02 1.608819999999999972e-01 4.756960000000000299e+00 6.627630000000000621e+01 1.906490000000000009e+03
7.399999999999999634e-02 1.609855000000000036e-01 6.060165000000000468e+00 6.948304999999999154e+01 1.907259999999999991e+03
7.499999999999999722e-02 1.611055000000000126e-01 7.541535000000000544e+00 7.304574999999999818e+01 1.908154999999999973e+03
7.599999999999999811e-02 1.612399999999999944e-01 9.171329999999999316e+00 7.689404999999999291e+01 1.909154999999999973e+03
7.699999999999999900e-02 1.613860000000000017e-01 1.091751000000000005e+01 8.095474999999999000e+01 1.910259999999999991e+03
7.799999999999999989e-02 1.615409999999999902e-01 1.274736000000000047e+01 8.515505000000000280e+01 1.911425000000000182e+03
7.900000000000000078e-02 1.617029999999999856e-01 1.462870000000000026e+01 8.942664999999999509e+01 1.912654999999999973e+03
8.000000000000000167e-02 1.618680000000000119e-01 1.653134999999999977e+01 9.370815000000000339e+01 1.913910000000000082e+03
8.100000000000000255e-02 1.620354999999999990e-01 1.842810000000000059e+01 9.794855000000001155e+01 1.915184999999999945e+03
8.200000000000000344e-02 1.622029999999999861e-01 2.029544999999999888e+01 1.021072000000000060e+02 1.916464999999999918e+03
8.300000000000000433e-02 1.623680000000000123e-01 2.211444999999999794e+01 1.061560000000000059e+02 1.917734999999999900e+03
8.400000000000000522e-02 1.625304999999999944e-01 2.387040000000000006e+01 1.100784999999999911e+02 1.918980000000000018e+03
8.500000000000000611e-02 1.626890000000000003e-01 2.555320000000000036e+01 1.138679999999999950e+02 1.920210000000000036e+03
8.600000000000000699e-02 1.628439999999999888e-01 2.715679999999999694e+01 1.175294999999999987e+02 1.921405000000000200e+03
8.700000000000000788e-02 1.629944999999999866e-01 2.867820000000000036e+01 1.210724999999999909e+02 1.922570000000000164e+03
8.800000000000000877e-02 1.631409999999999805e-01 3.011735000000000184e+01 1.245105000000000075e+02 1.923704999999999927e+03
8.899999999999999578e-02 1.632844999999999991e-01 3.147564999999999813e+01 1.278609999999999900e+02 1.924824999999999818e+03
8.999999999999999667e-02 1.634245000000000003e-01 3.275580000000000069e+01 1.311394999999999982e+02 1.925914999999999964e+03
9.099999999999999756e-02 1.635619999999999852e-01 3.396039999999999992e+01 1.343580000000000041e+02 1.926985000000000127e+03
9.199999999999999845e-02 1.636970000000000092e-01 3.509189999999999543e+01 1.375254999999999939e+02 1.928039999999999964e+03
9.299999999999999933e-02 1.638295000000000168e-01 3.615205000000000268e+01 1.406459999999999866e+02 1.929074999999999818e+03
9.400000000000000022e-02 1.639605000000000090e-01 3.714150000000000063e+01 1.437189999999999941e+02 1.930105000000000018e+03
9.500000000000000111e-02 1.640900000000000136e-01 3.805979999999999563e+01 1.467384999999999877e+02 1.931115000000000009e+03
9.600000000000000200e-02 1.642164999999999875e-01 3.890554999999999808e+01 1.496940000000000168e+02 1.932105000000000018e+03
9.700000000000000289e-02 1.643405000000000005e-01 3.967614999999999981e+01 1.525715000000000146e+02 1.933079999999999927e+03
9.800000000000000377e-02 1.644609999999999961e-01 4.036829999999999785e+01 1.553555000000000064e+02 1.934029999999999973e+03
9.900000000000000466e-02 1.645785000000000164e-01 4.097809999999999775e+01 1.580275000000000034e+02 1.934949999999999818e+03
1.000000000000000056e-01 1.646910000000000041e-01 4.150124999999999886e+01 1.605695000000000050e+02 1.935835000000000036e+03
1.010000000000000064e-01 1.647985000000000144e-01 4.193314999999999770e+01 1.629635000000000105e+02 1.936679999999999836e+03
1.020000000000000073e-01 1.648999999999999910e-01 4.226950000000000074e+01 1.651904999999999859e+02 1.937485000000000127e+03
1.030000000000000082e-01 1.649955000000000171e-01 4.250610000000000355e+01 1.672355000000000018e+02 1.938235000000000127e+03
1.040000000000000091e-01 1.650829999999999798e-01 4.263915000000000077e+01 1.690829999999999984e+02 1.938930000000000064e+03
1.050000000000000100e-01 1.651635000000000186e-01 4.266579999999999728e+01 1.707210000000000036e+02 1.939570000000000164e+03
1.059999999999999970e-01 1.652350000000000207e-01 4.258395000000000152e+01 1.721399999999999864e+02 1.940139999999999873e+03
1.069999999999999979e-01 1.652980000000000005e-01 4.239260000000000161e+01 1.733335000000000150e+02 1.940644999999999982e+03
1.079999999999999988e-01 1.653525000000000134e-01 4.209224999999999994e+01 1.742975000000000136e+02 1.941079999999999927e+03
1.089999999999999997e-01 1.653979999999999895e-01 4.168469999999999942e+01 1.750330000000000155e+02 1.941445000000000164e+03
1.100000000000000006e-01 1.654339999999999977e-01 4.117354999999999876e+01 1.755450000000000159e+02 1.941744999999999891e+03
1.110000000000000014e-01 1.654614999999999836e-01 4.056380000000000052e+01 1.758399999999999750e+02 1.941965000000000146e+03
1.120000000000000023e-01 1.654800000000000160e-01 3.986234999999999928e+01 1.759320000000000164e+02 1.942125000000000000e+03
1.130000000000000032e-01 1.654904999999999848e-01 3.907750000000000057e+01 1.758355000000000246e+02 1.942210000000000036e+03
1.140000000000000041e-01 1.654930000000000012e-01 3.821885000000000332e+01 1.755695000000000050e+02 1.942244999999999891e+03
1.150000000000000050e-01 1.654889999999999972e-01 3.729715000000000202e+01 1.751555000000000177e+02 1.942220000000000027e+03
1.160000000000000059e-01 1.654785000000000006e-01 3.632399999999999807e+01 1.746159999999999854e+02 1.942144999999999982e+03
1.170000000000000068e-01 1.654629999999999990e-01 3.531125000000000114e+01 1.739749999999999943e+02 1.942030000000000200e+03
1.180000000000000077e-01 1.654430000000000067e-01 3.427100000000000080e+01 1.732560000000000002e+02 1.941880000000000109e+03
1.190000000000000085e-01 1.654189999999999827e-01 3.321484999999999843e+01 1.724814999999999827e+02 1.941695000000000164e+03
1.200000000000000094e-01 1.653924999999999979e-01 3.215384999999999849e+01 1.716725000000000136e+02 1.941494999999999891e+03
1.209999999999999964e-01 1.653644999999999976e-01 3.109810000000000230e+01 1.708480000000000132e+02 1.941269999999999982e+03
1.219999999999999973e-01 1.653344999999999954e-01 3.005644999999999811e+01 1.700229999999999961e+02 1.941039999999999964e+03
1.229999999999999982e-01 1.653045000000000209e-01 2.903640000000000043e+01 1.692105000000000246e+02 1.940805000000000064e+03
1.239999999999999991e-01 1.652740000000000042e-01 2.804390000000000072e+01 1.684194999999999993e+02 1.940570000000000164e+03
1.250000000000000000e-01 1.652440000000000020e-01 2.708324999999999960e+01 1.676560000000000059e+02 1.940329999999999927e+03
1.260000000000000009e-01 1.652144999999999864e-01 2.615704999999999814e+01 1.669214999999999804e+02 1.940094999999999800e+03
1.270000000000000018e-01 1.651859999999999995e-01 2.526635000000000275e+01 1.662150000000000034e+02 1.939869999999999891e+03
1.280000000000000027e-01 1.651575000000000126e-01 2.441075000000000017e+01 1.655324999999999989e+02 1.939644999999999982e+03
1.290000000000000036e-01 1.651299999999999990e-01 2.358830000000000027e+01 1.648679999999999950e+02 1.939424999999999955e+03
1.300000000000000044e-01 1.651029999999999998e-01 2.279589999999999961e+01 1.642110000000000127e+02 1.939210000000000036e+03
1.310000000000000053e-01 1.650754999999999861e-01 2.202944999999999709e+01 1.635520000000000209e+02 1.938994999999999891e+03
1.320000000000000062e-01 1.650484999999999869e-01 2.128410000000000224e+01 1.628795000000000073e+02 1.938775000000000091e+03
1.330000000000000071e-01 1.650205000000000144e-01 2.055450000000000088e+01 1.621809999999999832e+02 1.938554999999999836e+03
1.340000000000000080e-01 1.649909999999999988e-01 1.983500000000000085e+01 1.614440000000000168e+02 1.938325000000000045e+03
1.350000000000000089e-01 1.649599999999999955e-01 1.912010000000000076e+01 1.606579999999999870e+02 1.938079999999999927e+03
1.360000000000000098e-01 1.649279999999999913e-01 1.840455000000000041e+01 1.598129999999999882e+02 1.937825000000000045e+03
1.370000000000000107e-01 1.648930000000000118e-01 1.768374999999999986e+01 1.588994999999999891e+02 1.937549999999999955e+03
1.380000000000000115e-01 1.648554999999999882e-01 1.695380000000000109e+01 1.579114999999999895e+02 1.937255000000000109e+03
1.390000000000000124e-01 1.648149999999999893e-01 1.621180000000000021e+01 1.568455000000000155e+02 1.936940000000000055e+03
1.400000000000000133e-01 1.647720000000000018e-01 1.545609999999999928e+01 1.557004999999999768e+02 1.936605000000000018e+03
1.410000000000000142e-01 1.647259999999999835e-01 1.468614999999999959e+01 1.544784999999999968e+02 1.936244999999999891e+03
1.420000000000000151e-01 1.646765000000000034e-01 1.390295000000000059e+01 1.531839999999999975e+02 1.935860000000000127e+03
1.430000000000000160e-01 1.646245000000000069e-01 1.310849999999999937e+01 1.518255000000000052e+02 1.935454999999999927e+03
1.440000000000000169e-01 1.645699999999999941e-01 1.230654000000000003e+01 1.504139999999999873e+02 1.935029999999999973e+03
1.450000000000000178e-01 1.645134999999999792e-01 1.150157499999999899e+01 1.489624999999999773e+02 1.934590000000000146e+03
1.459999999999999909e-01 1.644554999999999767e-01 1.069926500000000047e+01 1.474850000000000136e+02 1.934139999999999873e+03
1.469999999999999918e-01 1.643959999999999866e-01 9.906150000000000233e+00 1.460000000000000000e+02 1.933680000000000064e+03
1.479999999999999927e-01 1.643364999999999965e-01 9.129184999999999661e+00 1.445235000000000127e+02 1.933210000000000036e+03
1.489999999999999936e-01 1.642770000000000064e-01 8.375704999999999956e+00 1.430740000000000123e+02 1.932750000000000000e+03
1.499999999999999944e-01 1.642184999999999895e-01 7.652930000000000454e+00 1.416694999999999993e+02 1.932295000000000073e+03
1.509999999999999953e-01 1.641619999999999746e-01 6.967824999999999491e+00 1.403245000000000005e+02 1.931849999999999909e+03
1.519999999999999962e-01 1.641070000000000029e-01 6.326755000000000351e+00 1.390550000000000068e+02 1.931424999999999955e+03
1.529999999999999971e-01 1.640550000000000064e-01 5.735300000000000509e+00 1.378725000000000023e+02 1.931014999999999873e+03
1.539999999999999980e-01 1.640059999999999851e-01 5.197989999999999888e+00 1.367864999999999895e+02 1.930630000000000109e+03
1.549999999999999989e-01 1.639609999999999956e-01 4.718210000000000015e+00 1.358039999999999736e+02 1.930275000000000091e+03
1.559999999999999998e-01 1.639194999999999958e-01 4.298090000000000188e+00 1.349290000000000020e+02 1.929944999999999936e+03
1.570000000000000007e-01 1.638815000000000133e-01 3.938485000000000014e+00 1.341624999999999943e+02 1.929650000000000091e+03
1.580000000000000016e-01 1.638485000000000080e-01 3.638964999999999783e+00 1.335015000000000214e+02 1.929384999999999991e+03
1.590000000000000024e-01 1.638189999999999924e-01 3.397895000000000110e+00 1.329424999999999955e+02 1.929154999999999973e+03
