# t [s], A [cm^2], U [cm/s], P [cPa], c [cm/s]
1.000000000000000021e-03 7.184070000000000178e-01 6.230850000000003053e-03 9.846459999999999013e+01 1.721909999999999854e+03
2.000000000000000042e-03 7.183945000000000469e-01 -4.819610000000000213e-03 9.843365000000000009e+01 1.721904999999999973e+03
3.000000000000000062e-03 7.184414999999999552e-01 7.133519999999998751e-02 9.852174999999999727e+01 1.721925000000000182e+03
4.000000000000000083e-03 7.184965000000000934e-01 1.704643500000000145e-01 9.865430000000000632e+01 1.721954999999999927e+03
5.000000000000000104e-03 7.184805000000000774e-01 1.666404999999999970e-01 9.863009999999999877e+01 1.721949999999999818e+03
6.000000000000000125e-03 7.184154999999999847e-01 8.097099999999998743e-02 9.843574999999999875e+01 1.721909999999999854e+03
7.000000000000000146e-03 7.183640000000000025e-01 1.165600000000005521e-02 9.820144999999999413e+01 1.721860000000000127e+03
8.000000000000000167e-03 7.182954999999999757e-01 -9.550450000000004769e-02 9.788235000000000241e+01 1.721785000000000082e+03
9.000000000000001055e-03 7.181744999999999379e-01 -3.073100000000000831e-01 9.738129999999999598e+01 1.721680000000000064e+03
1.000000000000000194e-02 7.179919999999999636e-01 -6.370850000000000124e-01 9.664875000000000682e+01 1.721519999999999982e+03
1.099999999999999936e-02 7.177305000000000490e-01 -1.109930000000000083e+00 9.561535000000000650e+01 1.721295000000000073e+03
1.200000000000000025e-02 7.173775000000000013e-01 -1.735250000000000181e+00 9.422310000000000230e+01 1.720990000000000009e+03
1.300000000000000114e-02 7.169639999999999347e-01 -2.443159999999999776e+00 9.252195000000000391e+01 1.720610000000000127e+03
1.400000000000000203e-02 7.165544999999999831e-01 -3.096589999999999954e+00 9.068009999999999593e+01 1.720184999999999945e+03
1.499999999999999944e-02 7.162070000000000380e-01 -3.564327000000000023e+00 8.889619999999999322e+01 1.719750000000000000e+03
1.600000000000000033e-02 7.159425000000000372e-01 -3.779911000000000243e+00 8.730440000000000111e+01 1.719349999999999909e+03
1.700000000000000122e-02 7.157430000000000181e-01 -3.752639499999999906e+00 8.593475000000000819e+01 1.718974999999999909e+03
1.800000000000000211e-02 7.155694999999999695e-01 -3.543269000000000002e+00 8.472800000000000864e+01 1.718634999999999991e+03
1.900000000000000300e-02 7.153804999999999747e-01 -3.228064000000000267e+00 8.357994999999999663e+01 1.718304999999999836e+03
2.000000000000000042e-02 7.151494999999999935e-01 -2.867931999999999704e+00 8.239050000000000296e+01 1.717960000000000036e+03
2.100000000000000130e-02 7.148695000000000466e-01 -2.490939999999999710e+00 8.109989999999999100e+01 1.717599999999999909e+03
2.200000000000000219e-02 7.145524999999999238e-01 -2.090730000000000199e+00 7.970365000000001032e+01 1.717215000000000146e+03
2.299999999999999961e-02 7.142220000000000235e-01 -1.638985000000000136e+00 7.824394999999999811e+01 1.716815000000000055e+03
2.400000000000000050e-02 7.139005000000000489e-01 -1.105625000000000080e+00 7.678340000000000032e+01 1.716409999999999854e+03
2.500000000000000139e-02 7.135994999999999422e-01 -4.780400000000002425e-01 7.537439999999999429e+01 1.716009999999999991e+03
2.600000000000000228e-02 7.133164999999999090e-01 2.275800000000001155e-01 7.403475000000000250e+01 1.715625000000000000e+03
2.700000000000000316e-02 7.130354999999999333e-01 9.655100000000000904e-01 7.273730000000000473e+01 1.715255000000000109e+03
2.800000000000000058e-02 7.127300000000000857e-01 1.669135000000000257e+00 7.141535000000000366e+01 1.714875000000000000e+03
2.900000000000000147e-02 7.123744999999999106e-01 2.265770000000000284e+00 6.997984999999999900e+01 1.714474999999999909e+03
3.000000000000000236e-02 7.119469999999999965e-01 2.693740000000000023e+00 6.834494999999999720e+01 1.714039999999999964e+03
3.099999999999999978e-02 7.114405000000000312e-01 2.917300000000000004e+00 6.645335000000000036e+01 1.713550000000000182e+03
3.200000000000000067e-02 7.108634999999999815e-01 2.934934999999999850e+00 6.429625000000000057e+01 1.713005000000000109e+03
3.300000000000000155e-02 7.102399999999999824e-01 2.778574999999999573e+00 6.191979999999999507e+01 1.712409999999999854e+03
3.400000000000000244e-02 7.096025000000000249e-01 2.504105000000000025e+00 5.941684999999999661e+01 1.711789999999999964e+03
3.500000000000000333e-02 7.089860000000000051e-01 2.177624999999999922e+00 5.690935000000000343e+01 1.711154999999999973e+03
3.600000000000000422e-02 7.084230000000000249e-01 1.862019999999999786e+00 5.452559999999999718e+01 1.710545000000000073e+03
3.700000000000000511e-02 7.079355000000000508e-01 1.607369999999999521e+00 5.238174999999999670e+01 1.709985000000000127e+03
3.799999999999999906e-02 7.075384999999999591e-01 1.447294999999999998e+00 5.056929999999999836e+01 1.709500000000000000e+03
3.899999999999999994e-02 7.072395000000000209e-01 1.399800000000000155e+00 4.915019999999999811e+01 1.709099999999999909e+03
4.000000000000000083e-02 7.070385000000000142e-01 1.471419999999999950e+00 4.815850000000000364e+01 1.708804999999999836e+03
4.100000000000000172e-02 7.069345000000000212e-01 1.662793500000000035e+00 4.760719999999999885e+01 1.708610000000000127e+03
4.200000000000000261e-02 7.069255000000000955e-01 1.973905000000000021e+00 4.749585000000000434e+01 1.708525000000000091e+03
4.300000000000000350e-02 7.070085000000000397e-01 2.407709999999999795e+00 4.781855000000000189e+01 1.708550000000000182e+03
4.400000000000000439e-02 7.071860000000000923e-01 2.971454999999999735e+00 4.856960000000000122e+01 1.708684999999999945e+03
4.499999999999999833e-02 7.074584999999999901e-01 3.675568999999999864e+00 4.974510000000000076e+01 1.708934999999999945e+03
4.599999999999999922e-02 7.078275000000000539e-01 4.530854500000000229e+00 5.134205000000000041e+01 1.709284999999999854e+03
4.700000000000000011e-02 7.082924999999999915e-01 5.544925499999999730e+00 5.335474999999999568e+01 1.709750000000000000e+03
4.800000000000000100e-02 7.088499999999999801e-01 6.719141999999999726e+00 5.577040000000000219e+01 1.710309999999999945e+03
4.900000000000000189e-02 7.094934999999999992e-01 8.046454999999999913e+00 5.856595000000000084e+01 1.710974999999999909e+03
5.000000000000000278e-02 7.102129999999999832e-01 9.511169999999999902e+00 6.170600000000000307e+01 1.711730000000000018e+03
5.100000000000000366e-02 7.109950000000000436e-01 1.108977500000000127e+01 6.514310000000000400e+01 1.712569999999999936e+03
5.200000000000000455e-02 7.118249999999999300e-01 1.275312999999999874e+01 6.882009999999999650e+01 1.713470000000000027e+03
5.300000000000000544e-02 7.126859999999999307e-01 1.446927999999999948e+01 7.267369999999999663e+01 1.714425000000000182e+03
5.399999999999999939e-02 7.135655000000000747e-01 1.620600999999999914e+01 7.663884999999999081e+01 1.715424999999999955e+03
5.500000000000000028e-02 7.144479999999999720e-01 1.793334499999999920e+01 8.065350000000000819e+01 1.716440000000000055e+03
5.600000000000000117e-02 7.153229999999999311e-01 1.962545000000000073e+01 8.466204999999999359e+01 1.717470000000000027e+03
5.700000000000000205e-02 7.161815000000000264e-01 2.126150000000000162e+01 8.861789999999999168e+01 1.718500000000000000e+03
5.800000000000000294e-02 7.170189999999999619e-01 2.282584999999999908e+01 9.248629999999999995e+01 1.719514999999999873e+03
5.900000000000000383e-02 7.178309999999999969e-01 2.430794999999999817e+01 9.624154999999998950e+01 1.720505000000000109e+03
6.000000000000000472e-02 7.186164999999999914e-01 2.570139999999999958e+01 9.987024999999999864e+01 1.721474999999999909e+03
6.099999999999999867e-02 7.193749999999999867e-01 2.700319999999999965e+01 1.033669000000000011e+02 1.722409999999999854e+03
6.199999999999999956e-02 7.201085000000000402e-01 2.821270000000000167e+01 1.067313000000000045e+02 1.723319999999999936e+03
6.300000000000000044e-02 7.208179999999999588e-01 2.933084999999999809e+01 1.099699999999999989e+02 1.724195000000000164e+03
6.400000000000000133e-02 7.215055000000000218e-01 3.035945000000000249e+01 1.130919999999999987e+02 1.725049999999999955e+03
6.500000000000000222e-02 7.221729999999999539e-01 3.130030000000000001e+01 1.161040000000000134e+02 1.725875000000000000e+03
6.600000000000000311e-02 7.228215000000000057e-01 3.215500000000000114e+01 1.190150000000000006e+02 1.726674999999999955e+03
6.700000000000000400e-02 7.234510000000000662e-01 3.292439999999999856e+01 1.218305000000000007e+02 1.727450000000000045e+03
6.800000000000000488e-02 7.240615000000000245e-01 3.360840000000000316e+01 1.245509999999999877e+02 1.728200000000000045e+03
6.900000000000000577e-02 7.246515000000000040e-01 3.420609999999999928e+01 1.271765000000000043e+02 1.728925000000000182e+03
7.000000000000000666e-02 7.252190000000000580e-01 3.471599999999999397e+01 1.297005000000000052e+02 1.729625000000000000e+03
7.100000000000000755e-02 7.257625000000000881e-01 3.513609999999999900e+01 1.321159999999999854e+02 1.730295000000000073e+03
7.200000000000000844e-02 7.262790000000000079e-01 3.546464999999999890e+01 1.344130000000000109e+02 1.730940000000000055e+03
7.300000000000000933e-02 7.267660000000000231e-01 3.570035000000000025e+01 1.365799999999999841e+02 1.731550000000000182e+03
7.399999999999999634e-02 7.272214999999999652e-01 3.584255000000000280e+01 1.386074999999999875e+02 1.732119999999999891e+03
7.499999999999999722e-02 7.276434999999999986e-01 3.589170000000000016e+01 1.404850000000000136e+02 1.732654999999999973e+03
7.599999999999999811e-02 7.280299999999999550e-01 3.584914999999999452e+01 1.422059999999999889e+02 1.733150000000000091e+03
7.699999999999999900e-02 7.283809999999999452e-01 3.571724999999999994e+01 1.437634999999999934e+02 1.733605000000000018e+03
7.799999999999999989e-02 7.286954999999999405e-01 3.549925000000000352e+01 1.451539999999999964e+02 1.734014999999999873e+03
7.900000000000000078e-02 7.289735000000000520e-01 3.519865000000000066e+01 1.463765000000000214e+02 1.734385000000000218e+03
8.000000000000000167e-02 7.292140000000000288e-01 3.481985000000000241e+01 1.474304999999999950e+02 1.734700000000000045e+03
8.100000000000000255e-02 7.294184999999999697e-01 3.436749999999999972e+01 1.483179999999999836e+02 1.734974999999999909e+03
8.200000000000000344e-02 7.295880000000000143e-01 3.384669999999999845e+01 1.490424999999999898e+02 1.735210000000000036e+03
8.300000000000000433e-02 7.297225000000000517e-01 3.326324999999999932e+01 1.496095000000000255e+02 1.735394999999999982e+03
8.400000000000000522e-02 7.298245000000000982e-01 3.262345000000000539e+01 1.500260000000000105e+02 1.735545000000000073e+03
8.500000000000000611e-02 7.298955000000000304e-01 3.193465000000000131e+01 1.503009999999999877e+02 1.735655000000000200e+03
8.600000000000000699e-02 7.299390000000000045e-01 3.120459999999999923e+01 1.504465000000000146e+02 1.735724999999999909e+03
8.700000000000000788e-02 7.299569999999999670e-01 3.044215000000000160e+01 1.504755000000000109e+02 1.735764999999999873e+03
8.800000000000000877e-02 7.299539999999999917e-01 2.965650000000000119e+01 1.504025000000000034e+02 1.735775000000000091e+03
8.899999999999999578e-02 7.299325000000000951e-01 2.885715000000000074e+01 1.502439999999999998e+02 1.735755000000000109e+03
8.999999999999999667e-02 7.298970000000000180e-01 2.805349999999999966e+01 1.500165000000000077e+02 1.735715000000000146e+03
9.099999999999999756e-02 7.298514999999999864e-01 2.725430000000000064e+01 1.497379999999999995e+02 1.735659999999999854e+03
9.199999999999999845e-02 7.297979999999999468e-01 2.646734999999999971e+01 1.494225000000000136e+02 1.735590000000000146e+03
9.299999999999999933e-02 7.297405000000000141e-01 2.569919999999999760e+01 1.490854999999999961e+02 1.735514999999999873e+03
9.400000000000000022e-02 7.296804999999999541e-01 2.495454999999999757e+01 1.487384999999999877e+02 1.735429999999999836e+03
9.500000000000000111e-02 7.296199999999999353e-01 2.423649999999999949e+01 1.483894999999999982e+02 1.735340000000000146e+03
9.600000000000000200e-02 7.295584999999999987e-01 2.354625000000000057e+01 1.480455000000000041e+02 1.735250000000000000e+03
9.700000000000000289e-02 7.294979999999999798e-01 2.288299999999999912e+01 1.477085000000000150e+02 1.735154999999999973e+03
9.800000000000000377e-02 7.294365000000000432e-01 2.224479999999999791e+01 1.473770000000000095e+02 1.735069999999999936e+03
9.900000000000000466e-02 7.293734999999998969e-01 2.162790000000000035e+01 1.470494999999999948e+02 1.734974999999999909e+03
1.000000000000000056e-01 7.293079999999999563e-01 2.102799999999999869e+01 1.467189999999999941e+02 1.734889999999999873e+03
1.010000000000000064e-01 7.292374999999999829e-01 2.043979999999999819e+01 1.463799999999999955e+02 1.734789999999999964e+03
1.020000000000000073e-01 7.291604999999999892e-01 1.985784999999999911e+01 1.460240000000000009e+02 1.734695000000000164e+03
1.030000000000000082e-01 7.290754999999999875e-01 1.927659999999999840e+01 1.456435000000000173e+02 1.734589999999999918e+03
1.040000000000000091e-01 7.289814999999999490e-01 1.869069999999999965e+01 1.452309999999999945e+02 1.734485000000000127e+03
1.050000000000000100e-01 7.288765000000000382e-01 1.809540000000000148e+01 1.447794999999999845e+02 1.734359999999999900e+03
1.059999999999999970e-01 7.287599999999999634e-01 1.748669999999999902e+01 1.442844999999999800e+02 1.734235000000000127e+03
1.069999999999999979e-01 7.286319999999999464e-01 1.686144999999999783e+01 1.437415000000000020e+02 1.734090000000000146e+03
1.079999999999999988e-01 7.284914999999999585e-01 1.621764999999999901e+01 1.431494999999999891e+02 1.733940000000000055e+03
1.089999999999999997e-01 7.283405000000000573e-01 1.555460000000000065e+01 1.425089999999999861e+02 1.733775000000000091e+03
1.100000000000000006e-01 7.281789999999999097e-01 1.487270000000000181e+01 1.418229999999999791e+02 1.733594999999999800e+03
1.110000000000000014e-01 7.280090000000000172e-01 1.417368500000000076e+01 1.410969999999999800e+02 1.733414999999999964e+03
1.120000000000000023e-01 7.278320000000000345e-01 1.346048499999999848e+01 1.403385000000000105e+02 1.733214999999999918e+03
1.130000000000000032e-01 7.276510000000000478e-01 1.273705499999999979e+01 1.395554999999999950e+02 1.733019999999999982e+03
1.140000000000000041e-01 7.274685000000000734e-01 1.200838500000000053e+01 1.387599999999999909e+02 1.732809999999999945e+03
1.150000000000000050e-01 7.272870000000000168e-01 1.128009499999999932e+01 1.379630000000000223e+02 1.732599999999999909e+03
1.160000000000000059e-01 7.271099999999999230e-01 1.055824000000000140e+01 1.371779999999999973e+02 1.732400000000000091e+03
1.170000000000000068e-01 7.269399999999999196e-01 9.849104999999999777e+00 1.364159999999999968e+02 1.732194999999999936e+03
1.180000000000000077e-01 7.267790000000000639e-01 9.158889999999999532e+00 1.356899999999999977e+02 1.732005000000000109e+03
1.190000000000000085e-01 7.266304999999999570e-01 8.493409999999999016e+00 1.350110000000000241e+02 1.731820000000000164e+03
1.200000000000000094e-01 7.264960000000000306e-01 7.857934999999999448e+00 1.343880000000000052e+02 1.731650000000000091e+03
1.209999999999999964e-01 7.263770000000000504e-01 7.256920000000000925e+00 1.338299999999999841e+02 1.731494999999999891e+03
1.219999999999999973e-01 7.262750000000000039e-01 6.693864999999999732e+00 1.333414999999999964e+02 1.731360000000000127e+03
1.229999999999999982e-01 7.261889999999999734e-01 6.171160000000000423e+00 1.329259999999999877e+02 1.731235000000000127e+03
1.239999999999999991e-01 7.261204999999999465e-01 5.690044999999999575e+00 1.325850000000000080e+02 1.731134999999999991e+03
1.250000000000000000e-01 7.260679999999999357e-01 5.250655000000000072e+00 1.323160000000000025e+02 1.731049999999999955e+03
1.260000000000000009e-01 7.260305000000000231e-01 4.852039999999999687e+00 1.321159999999999854e+02 1.730984999999999900e+03
1.270000000000000018e-01 7.260060000000000402e-01 4.492295000000000371e+00 1.319784999999999968e+02 1.730934999999999945e+03
1.280000000000000027e-01 7.259934999999999583e-01 4.168750000000000178e+00 1.318960000000000150e+02 1.730904999999999973e+03
1.290000000000000036e-01 7.259904999999999831e-01 3.878110000000000390e+00 1.318605000000000018e+02 1.730880000000000109e+03
1.300000000000000044e-01 7.259940000000000282e-01 3.616680000000000117e+00 1.318625000000000114e+02 1.730869999999999891e+03
1.310000000000000053e-01 7.260040000000000937e-01 3.380535000000000068e+00 1.318919999999999959e+02 1.730865000000000009e+03
1.320000000000000062e-01 7.260165000000000646e-01 3.165715000000000057e+00 1.319399999999999977e+02 1.730869999999999891e+03
1.330000000000000071e-01 7.260299999999999532e-01 2.968339999999999979e+00 1.319970000000000141e+02 1.730880000000000109e+03
1.340000000000000080e-01 7.260435000000000638e-01 2.784745000000000026e+00 1.320550000000000068e+02 1.730889999999999873e+03
1.350000000000000089e-01 7.260545000000000471e-01 2.611570000000000391e+00 1.321064999999999827e+02 1.730894999999999982e+03
1.360000000000000098e-01 7.260630000000000139e-01 2.445795000000000385e+00 1.321460000000000150e+02 1.730905000000000200e+03
1.370000000000000107e-01 7.260664999999999480e-01 2.284799999999999720e+00 1.321675000000000182e+02 1.730910000000000082e+03
1.380000000000000115e-01 7.260660000000001002e-01 2.126374999999999904e+00 1.321684999999999945e+02 1.730910000000000082e+03
1.390000000000000124e-01 7.260590000000000099e-01 1.968750000000000000e+00 1.321449999999999818e+02 1.730900000000000091e+03
1.400000000000000133e-01 7.260469999999999979e-01 1.810570000000000235e+00 1.320964999999999918e+02 1.730884999999999991e+03
1.410000000000000142e-01 7.260290000000000354e-01 1.650924999999999976e+00 1.320210000000000150e+02 1.730869999999999891e+03
1.420000000000000151e-01 7.260060000000000402e-01 1.489310499999999982e+00 1.319189999999999827e+02 1.730845000000000027e+03
1.430000000000000160e-01 7.259770000000000945e-01 1.325636499999999884e+00 1.317920000000000016e+02 1.730815000000000055e+03
1.440000000000000169e-01 7.259424999999999351e-01 1.160180500000000059e+00 1.316415000000000077e+02 1.730775000000000091e+03
1.450000000000000178e-01 7.259050000000000225e-01 9.935390000000000610e-01 1.314689999999999941e+02 1.730735000000000127e+03
1.459999999999999909e-01 7.258625000000000771e-01 8.265655000000000641e-01 1.312780000000000200e+02 1.730684999999999945e+03
1.469999999999999918e-01 7.258169999999999344e-01 6.602863499999999108e-01 1.310715000000000146e+02 1.730634999999999991e+03
1.479999999999999927e-01 7.257694999999999563e-01 4.958209999999999562e-01 1.308509999999999991e+02 1.730579999999999927e+03
1.489999999999999936e-01 7.257199999999999207e-01 3.342804999999999804e-01 1.306204999999999927e+02 1.730519999999999982e+03
1.499999999999999944e-01 7.256690000000000085e-01 1.766734999999999833e-01 1.303820000000000050e+02 1.730460000000000036e+03
1.509999999999999953e-01 7.256164999999999976e-01 2.382950000000000346e-02 1.301380000000000052e+02 1.730394999999999982e+03
1.519999999999999962e-01 7.255635000000000279e-01 -1.236789999999999834e-01 1.298890000000000100e+02 1.730329999999999927e+03
1.529999999999999971e-01 7.255099999999999882e-01 -2.655775000000000219e-01 1.296365000000000123e+02 1.730264999999999873e+03
1.539999999999999980e-01 7.254549999999999610e-01 -4.019085000000000019e-01 1.293799999999999955e+02 1.730200000000000045e+03
1.549999999999999989e-01 7.253990000000000160e-01 -5.330385499999999999e-01 1.291185000000000116e+02 1.730130000000000109e+03
1.559999999999999998e-01 7.253415000000000834e-01 -6.595846499999999946e-01 1.288514999999999873e+02 1.730059999999999945e+03
1.570000000000000007e-01 7.252815000000000234e-01 -7.824050000000000171e-01 1.285759999999999934e+02 1.729985000000000127e+03
1.580000000000000016e-01 7.252190000000000580e-01 -9.024689999999999657e-01 1.282895000000000039e+02 1.729909999999999854e+03
1.590000000000000024e-01 7.251529999999999365e-01 -1.020792499999999992e+00 1.279894999999999925e+02 1.729829999999999927e+03
