# t [s], A [cm^2], U [cm/s], P [cPa], c [cm/s]
1.000000000000000021e-03 1.908205000000000040e-01 1.586484999999999979e-01 9.475355000000000416e+01 2.167750000000000000e+03
2.000000000000000042e-03 1.907854999999999968e-01 1.398576999999999959e+00 9.201524999999999466e+01 2.167444999999999709e+03
3.000000000000000062e-03 1.906760000000000121e-01 2.998181000000000207e+00 8.809709999999999752e+01 2.166539999999999964e+03
4.000000000000000083e-03 1.905195000000000083e-01 4.822699499999999695e+00 8.357210000000000605e+01 2.165264999999999873e+03
5.000000000000000104e-03 1.903455000000000008e-01 6.815559999999999619e+00 7.925565000000000282e+01 2.163854999999999563e+03
6.000000000000000125e-03 1.901745000000000241e-01 8.852135000000000531e+00 7.558269999999998845e+01 2.162489999999999782e+03
7.000000000000000146e-03 1.900129999999999875e-01 1.073706500000000119e+01 7.247379999999999711e+01 2.161220000000000255e+03
8.000000000000000167e-03 1.898630000000000040e-01 1.234572499999999984e+01 6.969185000000000230e+01 2.160069999999999709e+03
9.000000000000001055e-03 1.897290000000000088e-01 1.368171500000000052e+01 6.722230000000000416e+01 2.159055000000000291e+03
1.000000000000000194e-02 1.896144999999999914e-01 1.478174999999999883e+01 6.515950000000000841e+01 2.158194999999999709e+03
1.099999999999999936e-02 1.895200000000000218e-01 1.566634999999999955e+01 6.352915000000000134e+01 2.157500000000000000e+03
1.200000000000000025e-02 1.894454999999999889e-01 1.634769999999999968e+01 6.229074999999999562e+01 2.156954999999999927e+03
1.300000000000000114e-02 1.893869999999999998e-01 1.682659999999999911e+01 6.134975000000000023e+01 2.156539999999999964e+03
1.400000000000000203e-02 1.893400000000000083e-01 1.710110000000000241e+01 6.057070000000000221e+01 2.156210000000000036e+03
1.499999999999999944e-02 1.893015000000000114e-01 1.720635000000000048e+01 5.988200000000000500e+01 2.155944999999999709e+03
1.600000000000000033e-02 1.892725000000000102e-01 1.724245000000000161e+01 5.939900000000000091e+01 2.155755000000000109e+03
1.700000000000000122e-02 1.892610000000000126e-01 1.734799999999999898e+01 5.941290000000000049e+01 2.155680000000000291e+03
1.800000000000000211e-02 1.892745000000000122e-01 1.763445000000000107e+01 6.022674999999999557e+01 2.155789999999999964e+03
1.900000000000000300e-02 1.893174999999999997e-01 1.812979999999999947e+01 6.195680000000000121e+01 2.156109999999999673e+03
2.000000000000000042e-02 1.893869999999999998e-01 1.876614999999999966e+01 6.443215000000000714e+01 2.156635000000000218e+03
2.100000000000000130e-02 1.894740000000000035e-01 1.941145000000000209e+01 6.723994999999999322e+01 2.157289999999999964e+03
2.200000000000000219e-02 1.895640000000000103e-01 1.992439999999999856e+01 6.987530000000000996e+01 2.157980000000000018e+03
2.299999999999999961e-02 1.896439999999999793e-01 2.020374999999999943e+01 7.191280000000000427e+01 2.158599999999999909e+03
2.400000000000000050e-02 1.897039999999999837e-01 2.021574999999999989e+01 7.312960000000001060e+01 2.159085000000000036e+03
2.500000000000000139e-02 1.897409999999999930e-01 1.999260000000000304e+01 7.354034999999998945e+01 2.159390000000000327e+03
2.600000000000000228e-02 1.897584999999999966e-01 1.960909999999999798e+01 7.334754999999999825e+01 2.159534999999999854e+03
2.700000000000000316e-02 1.897604999999999986e-01 1.914809999999999945e+01 7.283660000000000423e+01 2.159565000000000055e+03
2.800000000000000058e-02 1.897544999999999926e-01 1.866995000000000005e+01 7.226239999999999952e+01 2.159534999999999854e+03
2.900000000000000147e-02 1.897459999999999980e-01 1.819585000000000008e+01 7.176794999999999902e+01 2.159470000000000255e+03
3.000000000000000236e-02 1.897365000000000024e-01 1.770799999999999841e+01 7.135750000000000171e+01 2.159399999999999636e+03
3.099999999999999978e-02 1.897249999999999770e-01 1.716444999999999865e+01 7.092439999999999145e+01 2.159310000000000400e+03
3.200000000000000067e-02 1.897075000000000011e-01 1.652175000000000082e+01 7.031579999999999586e+01 2.159184999999999945e+03
3.300000000000000155e-02 1.896809999999999885e-01 1.575730000000000075e+01 6.941044999999999732e+01 2.158989999999999782e+03
3.400000000000000244e-02 1.896444999999999936e-01 1.488434999999999953e+01 6.818149999999999977e+01 2.158725000000000364e+03
3.500000000000000333e-02 1.895994999999999764e-01 1.395480000000000054e+01 6.672544999999999504e+01 2.158394999999999982e+03
3.600000000000000422e-02 1.895505000000000106e-01 1.304950000000000010e+01 6.524805000000000632e+01 2.158025000000000091e+03
3.700000000000000511e-02 1.895054999999999934e-01 1.225854999999999961e+01 6.401285000000000025e+01 2.157679999999999836e+03
3.799999999999999906e-02 1.894715000000000149e-01 1.165850000000000009e+01 6.326905000000000712e+01 2.157414999999999964e+03
3.899999999999999994e-02 1.894554999999999989e-01 1.129390000000000072e+01 6.318424999999999869e+01 2.157279999999999745e+03
4.000000000000000083e-02 1.894600000000000173e-01 1.116774999999999984e+01 6.380105000000000359e+01 2.157295000000000073e+03
4.100000000000000172e-02 1.894855000000000012e-01 1.124279999999999902e+01 6.502819999999999823e+01 2.157475000000000364e+03
4.200000000000000261e-02 1.895280000000000020e-01 1.145175000000000054e+01 6.666440000000000055e+01 2.157779999999999745e+03
4.300000000000000350e-02 1.895804999999999851e-01 1.171219999999999928e+01 6.844480000000000075e+01 2.158164999999999964e+03
4.400000000000000439e-02 1.896349999999999980e-01 1.194225000000000136e+01 7.009505000000000052e+01 2.158574999999999818e+03
4.499999999999999833e-02 1.896835000000000049e-01 1.207365000000000066e+01 7.137960000000001060e+01 2.158944999999999709e+03
4.599999999999999922e-02 1.897194999999999854e-01 1.205910000000000082e+01 7.213469999999999516e+01 2.159225000000000364e+03
4.700000000000000011e-02 1.897395000000000054e-01 1.187490000000000023e+01 7.228140000000000498e+01 2.159385000000000218e+03
4.800000000000000100e-02 1.897400000000000198e-01 1.151774999999999949e+01 7.182030000000000314e+01 2.159394999999999982e+03
4.900000000000000189e-02 1.897220000000000018e-01 1.099976999999999983e+01 7.081229999999999336e+01 2.159275000000000091e+03
5.000000000000000278e-02 1.896864999999999801e-01 1.034132500000000121e+01 6.935355000000001269e+01 2.159010000000000218e+03
5.100000000000000366e-02 1.896359999999999990e-01 9.565889999999999560e+00 6.755129999999999768e+01 2.158639999999999873e+03
5.200000000000000455e-02 1.895745000000000069e-01 8.696390000000000953e+00 6.550589999999999691e+01 2.158170000000000073e+03
5.300000000000000544e-02 1.895029999999999770e-01 7.753790000000000404e+00 6.330185000000000173e+01 2.157644999999999982e+03
5.399999999999999939e-02 1.894259999999999833e-01 6.758060000000000400e+00 6.100749999999999318e+01 2.157055000000000291e+03
5.500000000000000028e-02 1.893449999999999855e-01 5.730105000000000004e+00 5.868044999999999334e+01 2.156444999999999709e+03
5.600000000000000117e-02 1.892614999999999992e-01 4.693884999999999863e+00 5.637644999999999840e+01 2.155815000000000055e+03
5.700000000000000205e-02 1.891789999999999861e-01 3.678119999999999834e+00 5.415765000000000384e+01 2.155190000000000055e+03
5.800000000000000294e-02 1.890999999999999903e-01 2.716824499999999976e+00 5.209794999999999732e+01 2.154585000000000036e+03
5.900000000000000383e-02 1.890264999999999862e-01 1.848603499999999844e+00 5.028410000000000224e+01 2.154019999999999982e+03
6.000000000000000472e-02 1.889624999999999777e-01 1.114728000000000163e+00 4.881279999999999575e+01 2.153529999999999745e+03
6.099999999999999867e-02 1.889115000000000100e-01 5.563910000000000800e-01 4.778374999999999773e+01 2.153135000000000218e+03
6.199999999999999956e-02 1.888770000000000171e-01 2.116124999999999812e-01 4.729120000000000346e+01 2.152855000000000018e+03
6.300000000000000044e-02 1.888610000000000011e-01 1.122471000000000024e-01 4.741509999999999536e+01 2.152720000000000255e+03
6.400000000000000133e-02 1.888684999999999947e-01 2.815575000000000161e-01 4.821309999999999718e+01 2.152755000000000109e+03
6.500000000000000222e-02 1.888984999999999970e-01 7.325614999999999766e-01 4.971550000000000580e+01 2.152970000000000255e+03
6.600000000000000311e-02 1.889540000000000108e-01 1.467302999999999802e+00 5.192255000000000109e+01 2.153364999999999782e+03
6.700000000000000400e-02 1.890339999999999798e-01 2.476989450000000037e+00 5.480490000000000350e+01 2.153949999999999818e+03
6.800000000000000488e-02 1.891375000000000139e-01 3.742907000000000206e+00 5.830664999999999765e+01 2.154715000000000146e+03
6.900000000000000577e-02 1.892630000000000146e-01 5.237964999999999982e+00 6.235030000000000427e+01 2.155649999999999636e+03
7.000000000000000666e-02 1.894075000000000064e-01 6.928609999999999935e+00 6.684255000000000280e+01 2.156734999999999673e+03
7.100000000000000755e-02 1.895680000000000143e-01 8.777169999999999916e+00 7.168200000000000216e+01 2.157939999999999600e+03
7.200000000000000844e-02 1.897415000000000074e-01 1.074391500000000121e+01 7.676539999999999964e+01 2.159250000000000000e+03
7.300000000000000933e-02 1.899234999999999951e-01 1.278958500000000065e+01 8.199469999999999459e+01 2.160635000000000218e+03
7.399999999999999634e-02 1.901120000000000032e-01 1.487719999999999843e+01 8.728225000000000477e+01 2.162064999999999600e+03
7.499999999999999722e-02 1.903035000000000143e-01 1.697339999999999804e+01 9.255529999999998836e+01 2.163529999999999745e+03
7.599999999999999811e-02 1.904955000000000120e-01 1.905000000000000071e+01 9.775719999999999743e+01 2.165005000000000109e+03
7.699999999999999900e-02 1.906864999999999810e-01 2.108399999999999963e+01 1.028502000000000010e+02 2.166470000000000255e+03
7.799999999999999989e-02 1.908750000000000169e-01 2.305760000000000076e+01 1.078114499999999936e+02 2.167920000000000073e+03
7.900000000000000078e-02 1.910590000000000066e-01 2.495775000000000077e+01 1.126320000000000050e+02 2.169349999999999909e+03
8.000000000000000167e-02 1.912395000000000067e-01 2.677540000000000120e+01 1.173125000000000000e+02 2.170750000000000000e+03
8.100000000000000255e-02 1.914160000000000028e-01 2.850430000000000064e+01 1.218580000000000041e+02 2.172119999999999891e+03
8.200000000000000344e-02 1.915880000000000083e-01 3.014000000000000057e+01 1.262770000000000010e+02 2.173460000000000036e+03
8.300000000000000433e-02 1.917560000000000098e-01 3.167940000000000111e+01 1.305769999999999982e+02 2.174765000000000327e+03
8.400000000000000522e-02 1.919200000000000073e-01 3.311995000000000289e+01 1.347599999999999909e+02 2.176045000000000073e+03
8.500000000000000611e-02 1.920800000000000007e-01 3.445924999999999727e+01 1.388260000000000218e+02 2.177295000000000073e+03
8.600000000000000699e-02 1.922355000000000036e-01 3.569525000000000148e+01 1.427715000000000032e+02 2.178519999999999982e+03
8.700000000000000788e-02 1.923860000000000015e-01 3.682595000000000596e+01 1.465865000000000009e+02 2.179699999999999818e+03
8.800000000000000877e-02 1.925330000000000097e-01 3.784949999999999903e+01 1.502624999999999886e+02 2.180855000000000018e+03
8.899999999999999578e-02 1.926740000000000119e-01 3.876449999999999818e+01 1.537875000000000227e+02 2.181965000000000146e+03
8.999999999999999667e-02 1.928095000000000225e-01 3.956974999999999909e+01 1.571499999999999773e+02 2.183034999999999854e+03
9.099999999999999756e-02 1.929389999999999994e-01 4.026415000000000077e+01 1.603374999999999773e+02 2.184055000000000291e+03
9.199999999999999845e-02 1.930624999999999980e-01 4.084669999999999845e+01 1.633389999999999986e+02 2.185029999999999745e+03
9.299999999999999933e-02 1.931784999999999752e-01 4.131640000000000157e+01 1.661410000000000196e+02 2.185949999999999818e+03
9.400000000000000022e-02 1.932875000000000010e-01 4.167215000000000202e+01 1.687319999999999993e+02 2.186809999999999945e+03
9.500000000000000111e-02 1.933885000000000187e-01 4.191254999999999598e+01 1.710995000000000061e+02 2.187610000000000127e+03
9.600000000000000200e-02 1.934815000000000007e-01 4.203629999999999711e+01 1.732300000000000182e+02 2.188350000000000364e+03
9.700000000000000289e-02 1.935649999999999871e-01 4.204240000000000066e+01 1.751129999999999995e+02 2.189014999999999873e+03
9.800000000000000377e-02 1.936390000000000056e-01 4.193035000000000423e+01 1.767370000000000232e+02 2.189614999999999782e+03
9.900000000000000466e-02 1.937039999999999873e-01 4.170054999999999978e+01 1.780950000000000273e+02 2.190130000000000109e+03
1.000000000000000056e-01 1.937590000000000146e-01 4.135484999999999900e+01 1.791829999999999927e+02 2.190574999999999818e+03
1.010000000000000064e-01 1.938040000000000040e-01 4.089700000000000557e+01 1.800029999999999859e+02 2.190940000000000055e+03
1.020000000000000073e-01 1.938389999999999835e-01 4.033234999999999815e+01 1.805614999999999952e+02 2.191224999999999909e+03
1.030000000000000082e-01 1.938650000000000095e-01 3.966854999999999620e+01 1.808720000000000141e+02 2.191440000000000055e+03
1.040000000000000091e-01 1.938809999999999978e-01 3.891505000000000081e+01 1.809529999999999745e+02 2.191574999999999818e+03
1.050000000000000100e-01 1.938890000000000058e-01 3.808299999999999841e+01 1.808285000000000196e+02 2.191644999999999982e+03
1.059999999999999970e-01 1.938894999999999924e-01 3.718500000000000227e+01 1.805250000000000057e+02 2.191659999999999854e+03
1.069999999999999979e-01 1.938825000000000132e-01 3.623439999999999372e+01 1.800740000000000123e+02 2.191614999999999782e+03
1.079999999999999988e-01 1.938710000000000155e-01 3.524490000000000123e+01 1.795060000000000002e+02 2.191529999999999745e+03
1.089999999999999997e-01 1.938544999999999852e-01 3.423004999999999853e+01 1.788514999999999873e+02 2.191405000000000200e+03
1.100000000000000006e-01 1.938345000000000207e-01 3.320279999999999632e+01 1.781390000000000100e+02 2.191255000000000109e+03
1.110000000000000014e-01 1.938114999999999977e-01 3.217504999999999882e+01 1.773940000000000055e+02 2.191079999999999927e+03
1.120000000000000023e-01 1.937875000000000014e-01 3.115694999999999837e+01 1.766374999999999886e+02 2.190890000000000327e+03
1.130000000000000032e-01 1.937625000000000042e-01 3.015735000000000099e+01 1.758870000000000005e+02 2.190694999999999709e+03
1.140000000000000041e-01 1.937369999999999925e-01 2.918280000000000030e+01 1.751539999999999964e+02 2.190494999999999891e+03
1.150000000000000050e-01 1.937119999999999953e-01 2.823789999999999978e+01 1.744445000000000050e+02 2.190295000000000073e+03
1.160000000000000059e-01 1.936869999999999981e-01 2.732520000000000238e+01 1.737605000000000075e+02 2.190100000000000364e+03
1.170000000000000068e-01 1.936624999999999874e-01 2.644525000000000148e+01 1.730985000000000014e+02 2.189900000000000091e+03
1.180000000000000077e-01 1.936384999999999912e-01 2.559655000000000058e+01 1.724519999999999982e+02 2.189710000000000036e+03
1.190000000000000085e-01 1.936140000000000083e-01 2.477615000000000123e+01 1.718095000000000141e+02 2.189515000000000327e+03
1.200000000000000094e-01 1.935904999999999987e-01 2.397954999999999970e+01 1.711564999999999941e+02 2.189324999999999818e+03
1.209999999999999964e-01 1.935655000000000014e-01 2.320129999999999981e+01 1.704780000000000086e+02 2.189130000000000109e+03
1.219999999999999973e-01 1.935395000000000032e-01 2.243520000000000181e+01 1.697580000000000098e+02 2.188920000000000073e+03
1.229999999999999982e-01 1.935115000000000030e-01 2.167484999999999928e+01 1.689805000000000064e+02 2.188699999999999818e+03
1.239999999999999991e-01 1.934819999999999873e-01 2.091394999999999982e+01 1.681299999999999955e+02 2.188465000000000146e+03
1.250000000000000000e-01 1.934489999999999821e-01 2.014670000000000272e+01 1.671924999999999955e+02 2.188204999999999927e+03
1.260000000000000009e-01 1.934130000000000016e-01 1.936814999999999998e+01 1.661594999999999800e+02 2.187925000000000182e+03
1.270000000000000018e-01 1.933739999999999903e-01 1.857450000000000045e+01 1.650230000000000246e+02 2.187619999999999891e+03
1.280000000000000027e-01 1.933305000000000162e-01 1.776344999999999885e+01 1.637814999999999941e+02 2.187279999999999745e+03
1.290000000000000036e-01 1.932840000000000114e-01 1.693414999999999893e+01 1.624354999999999905e+02 2.186914999999999964e+03
1.300000000000000044e-01 1.932335000000000025e-01 1.608755000000000024e+01 1.609909999999999854e+02 2.186519999999999982e+03
1.310000000000000053e-01 1.931795000000000040e-01 1.522619999999999862e+01 1.594585000000000150e+02 2.186100000000000364e+03
1.320000000000000062e-01 1.931225000000000025e-01 1.435449999999999982e+01 1.578534999999999968e+02 2.185654999999999745e+03
1.330000000000000071e-01 1.930630000000000124e-01 1.347789999999999999e+01 1.561924999999999955e+02 2.185190000000000055e+03
1.340000000000000080e-01 1.930014999999999925e-01 1.260330000000000084e+01 1.544960000000000093e+02 2.184715000000000146e+03
1.350000000000000089e-01 1.929389999999999994e-01 1.173837999999999937e+01 1.527860000000000014e+02 2.184225000000000364e+03
1.360000000000000098e-01 1.928755000000000053e-01 1.089106999999999914e+01 1.510860000000000127e+02 2.183730000000000018e+03
1.370000000000000107e-01 1.928130000000000122e-01 1.006964999999999932e+01 1.494170000000000016e+02 2.183239999999999782e+03
1.380000000000000115e-01 1.927510000000000057e-01 9.281859999999999999e+00 1.477994999999999948e+02 2.182760000000000218e+03
1.390000000000000124e-01 1.926910000000000012e-01 8.534819999999999851e+00 1.462524999999999977e+02 2.182284999999999854e+03
1.400000000000000133e-01 1.926329999999999987e-01 7.834704999999999586e+00 1.447909999999999968e+02 2.181835000000000036e+03
1.410000000000000142e-01 1.925784999999999858e-01 7.186395000000000088e+00 1.434269999999999925e+02 2.181400000000000091e+03
1.420000000000000151e-01 1.925275000000000181e-01 6.593494999999999884e+00 1.421670000000000016e+02 2.181000000000000000e+03
1.430000000000000160e-01 1.924795000000000256e-01 6.058164999999999800e+00 1.410165000000000077e+02 2.180619999999999891e+03
1.440000000000000169e-01 1.924354999999999816e-01 5.581189999999999429e+00 1.399745000000000061e+02 2.180275000000000091e+03
1.450000000000000178e-01 1.923954999999999971e-01 5.162020000000000053e+00 1.390389999999999873e+02 2.179954999999999927e+03
1.459999999999999909e-01 1.923584999999999878e-01 4.798920000000000741e+00 1.382055000000000007e+02 2.179664999999999964e+03
1.469999999999999918e-01 1.923259999999999970e-01 4.489114999999999966e+00 1.374644999999999868e+02 2.179404999999999745e+03
1.479999999999999927e-01 1.922959999999999947e-01 4.228950000000000209e+00 1.368079999999999927e+02 2.179170000000000073e+03
1.489999999999999936e-01 1.922699999999999965e-01 4.014064999999999550e+00 1.362250000000000227e+02 2.178954999999999927e+03
1.499999999999999944e-01 1.922460000000000002e-01 3.839599999999999902e+00 1.357035000000000196e+02 2.178765000000000327e+03
1.509999999999999953e-01 1.922240000000000060e-01 3.700299999999999923e+00 1.352340000000000089e+02 2.178590000000000146e+03
1.519999999999999962e-01 1.922045000000000003e-01 3.590740000000000265e+00 1.348034999999999854e+02 2.178434999999999945e+03
1.529999999999999971e-01 1.921864999999999823e-01 3.505419999999999980e+00 1.344014999999999986e+02 2.178289999999999964e+03
1.539999999999999980e-01 1.921689999999999787e-01 3.438954999999999984e+00 1.340174999999999841e+02 2.178149999999999636e+03
1.549999999999999989e-01 1.921535000000000049e-01 3.386185000000000223e+00 1.336415000000000077e+02 2.178025000000000091e+03
1.559999999999999998e-01 1.921370000000000022e-01 3.342319999999999958e+00 1.332644999999999982e+02 2.177900000000000091e+03
1.570000000000000007e-01 1.921215000000000006e-01 3.303065000000000140e+00 1.328795000000000073e+02 2.177775000000000091e+03
1.580000000000000016e-01 1.921059999999999990e-01 3.264730000000000132e+00 1.324809999999999945e+02 2.177650000000000091e+03
1.590000000000000024e-01 1.920894999999999964e-01 3.224305000000000199e+00 1.320635000000000048e+02 2.177524999999999636e+03
