# t [s], A [cm^2], U [cm/s], P [cPa], c [cm/s]
1.000000000000000021e-03 4.939575000000000493e-01 1.952450000000001407e-03 9.665765000000000384e+01 1.495804999999999836e+03
2.000000000000000042e-03 4.939529999999999754e-01 4.917224999999999027e-03 9.664085000000000036e+01 1.495804999999999836e+03
3.000000000000000062e-03 4.940014999999999823e-01 1.079941499999999832e-01 9.674009999999999820e+01 1.495829999999999927e+03
4.000000000000000083e-03 4.940385000000000471e-01 1.892387999999999848e-01 9.683910000000000196e+01 1.495860000000000127e+03
5.000000000000000104e-03 4.940185000000000271e-01 1.547063999999999939e-01 9.678274999999999295e+01 1.495849999999999909e+03
6.000000000000000125e-03 4.939715000000000078e-01 5.820300000000000473e-02 9.658664999999999168e+01 1.495805000000000064e+03
7.000000000000000146e-03 4.939225000000000421e-01 -5.022450000000000525e-02 9.630660000000000309e+01 1.495744999999999891e+03
8.000000000000000167e-03 4.938429999999999764e-01 -2.316599999999999770e-01 9.588100000000000023e+01 1.495654999999999973e+03
9.000000000000001055e-03 4.937104999999999966e-01 -5.352000000000000091e-01 9.522729999999999961e+01 1.495505000000000109e+03
1.000000000000000194e-02 4.935209999999999875e-01 -9.618049999999999100e-01 9.430459999999999354e+01 1.495295000000000073e+03
1.099999999999999936e-02 4.932644999999999946e-01 -1.518274999999999819e+00 9.306950000000000500e+01 1.495009999999999991e+03
1.200000000000000025e-02 4.929335000000000244e-01 -2.205000000000000071e+00 9.148539999999999850e+01 1.494630000000000109e+03
1.300000000000000114e-02 4.925414999999999655e-01 -2.967735000000000234e+00 8.958285000000000764e+01 1.494159999999999854e+03
1.400000000000000203e-02 4.921309999999999851e-01 -3.690224999999999866e+00 8.748890000000000100e+01 1.493630000000000109e+03
1.499999999999999944e-02 4.917500000000000204e-01 -4.238455000000000084e+00 8.538949999999999818e+01 1.493075000000000045e+03
1.600000000000000033e-02 4.914319999999999800e-01 -4.515264000000000166e+00 8.345844999999999914e+01 1.492539999999999964e+03
1.700000000000000122e-02 4.911845000000000239e-01 -4.489904999999999369e+00 8.180084999999999695e+01 1.492049999999999955e+03
1.800000000000000211e-02 4.909930000000000128e-01 -4.196448000000000178e+00 8.043200000000000216e+01 1.491610000000000127e+03
1.900000000000000300e-02 4.908285000000000009e-01 -3.711600499999999858e+00 7.928934999999999889e+01 1.491220000000000027e+03
2.000000000000000042e-02 4.906595000000000262e-01 -3.124693500000000235e+00 7.826519999999999300e+01 1.490860000000000127e+03
2.100000000000000130e-02 4.904644999999999699e-01 -2.509865500000000083e+00 7.724690000000001078e+01 1.490500000000000000e+03
2.200000000000000219e-02 4.902314999999999867e-01 -1.908399999999999874e+00 7.615155000000000030e+01 1.490134999999999991e+03
2.299999999999999961e-02 4.899654999999999427e-01 -1.326095000000000024e+00 7.494384999999999764e+01 1.489744999999999891e+03
2.400000000000000050e-02 4.896785000000000165e-01 -7.449050000000001504e-01 7.363304999999999723e+01 1.489335000000000036e+03
2.500000000000000139e-02 4.893830000000000124e-01 -1.421200000000002461e-01 7.225360000000000582e+01 1.488910000000000082e+03
2.600000000000000228e-02 4.890864999999999796e-01 4.915150000000001462e-01 7.083940000000001191e+01 1.488470000000000027e+03
2.700000000000000316e-02 4.887890000000000290e-01 1.141164999999999985e+00 6.940330000000000155e+01 1.488019999999999982e+03
2.800000000000000058e-02 4.884785000000000377e-01 1.766760000000000108e+00 6.792584999999999695e+01 1.487565000000000055e+03
2.900000000000000147e-02 4.881400000000000183e-01 2.310020000000000184e+00 6.635694999999999766e+01 1.487079999999999927e+03
3.000000000000000236e-02 4.877544999999999797e-01 2.706789999999999807e+00 6.462690000000000623e+01 1.486559999999999945e+03
3.099999999999999978e-02 4.873060000000000169e-01 2.901129999999999765e+00 6.266410000000000480e+01 1.485984999999999900e+03
3.200000000000000067e-02 4.867879999999999985e-01 2.858049999999999535e+00 6.041519999999999868e+01 1.485349999999999909e+03
3.300000000000000155e-02 4.862015000000000642e-01 2.571815000000000406e+00 5.786135000000000161e+01 1.484639999999999873e+03
3.400000000000000244e-02 4.855589999999999629e-01 2.068369999999999820e+00 5.502880000000000393e+01 1.483860000000000127e+03
3.500000000000000333e-02 4.848834999999999673e-01 1.400705000000000311e+00 5.198935000000000173e+01 1.483025000000000091e+03
3.600000000000000422e-02 4.842004999999999781e-01 6.403650000000000730e-01 4.885214999999999463e+01 1.482164999999999964e+03
3.700000000000000511e-02 4.835419999999999718e-01 -1.341499999999999915e-01 4.574975000000000591e+01 1.481295000000000073e+03
3.799999999999999906e-02 4.829345000000000443e-01 -8.473399999999999821e-01 4.282144999999999868e+01 1.480465000000000146e+03
3.899999999999999994e-02 4.824030000000000262e-01 -1.434995000000000243e+00 4.019789999999999708e+01 1.479694999999999936e+03
4.000000000000000083e-02 4.819649999999999768e-01 -1.848104999999999887e+00 3.798900000000000432e+01 1.479019999999999982e+03
4.100000000000000172e-02 4.816314999999999902e-01 -2.054160000000000430e+00 3.627679999999999438e+01 1.478464999999999918e+03
4.200000000000000261e-02 4.814105000000000190e-01 -2.035355000000000025e+00 3.511355000000000359e+01 1.478050000000000182e+03
4.300000000000000350e-02 4.813020000000000076e-01 -1.785411199999999976e+00 3.452280000000000371e+01 1.477779999999999973e+03
4.400000000000000439e-02 4.813045000000000240e-01 -1.305905000000000094e+00 3.450454999999999472e+01 1.477659999999999854e+03
4.499999999999999833e-02 4.814144999999999675e-01 -6.030300000000000660e-01 3.504104999999999848e+01 1.477700000000000045e+03
4.599999999999999922e-02 4.816249999999999698e-01 3.145350000000000090e-01 3.610199999999999676e+01 1.477880000000000109e+03
4.700000000000000011e-02 4.819299999999999695e-01 1.436404999999999710e+00 3.764969999999999573e+01 1.478210000000000036e+03
4.800000000000000100e-02 4.823214999999999586e-01 2.750199999999999534e+00 3.964139999999999731e+01 1.478659999999999854e+03
4.900000000000000189e-02 4.827915000000000401e-01 4.240540000000000198e+00 4.203050000000000352e+01 1.479235000000000127e+03
5.000000000000000278e-02 4.833294999999999675e-01 5.888079999999999536e+00 4.476695000000000135e+01 1.479914999999999964e+03
5.100000000000000366e-02 4.839260000000000228e-01 7.668641000000000929e+00 4.779684999999999917e+01 1.480695000000000164e+03
5.200000000000000455e-02 4.845679999999999987e-01 9.553466999999999487e+00 5.106250000000000000e+01 1.481539999999999964e+03
5.300000000000000544e-02 4.852434999999999943e-01 1.151009499999999974e+01 5.450345000000000084e+01 1.482454999999999927e+03
5.399999999999999939e-02 4.859399999999999831e-01 1.350370500000000007e+01 5.805760000000000787e+01 1.483414999999999964e+03
5.500000000000000028e-02 4.866449999999999942e-01 1.549928000000000061e+01 6.166400000000000148e+01 1.484404999999999973e+03
5.600000000000000117e-02 4.873465000000000158e-01 1.746343999999999852e+01 6.526515000000000555e+01 1.485409999999999854e+03
5.700000000000000205e-02 4.880360000000000253e-01 1.936645000000000039e+01 6.880984999999999729e+01 1.486414999999999964e+03
5.800000000000000294e-02 4.887050000000000005e-01 2.118359999999999843e+01 7.225560000000000116e+01 1.487405000000000200e+03
5.900000000000000383e-02 4.893485000000000196e-01 2.289594999999999914e+01 7.557014999999999816e+01 1.488375000000000000e+03
6.000000000000000472e-02 4.899624999999999675e-01 2.449110000000000298e+01 7.873269999999999413e+01 1.489309999999999945e+03
6.099999999999999867e-02 4.905479999999999841e-01 2.596265000000000001e+01 8.173390000000000555e+01 1.490210000000000036e+03
6.199999999999999956e-02 4.911044999999999994e-01 2.730995000000000061e+01 8.457500000000000284e+01 1.491075000000000045e+03
6.300000000000000044e-02 4.916359999999999619e-01 2.853719999999999857e+01 8.726679999999998927e+01 1.491900000000000091e+03
6.400000000000000133e-02 4.921455000000000135e-01 2.965245000000000175e+01 8.982760000000000389e+01 1.492695000000000164e+03
6.500000000000000222e-02 4.926385000000000347e-01 3.066685000000000372e+01 9.228145000000000664e+01 1.493464999999999918e+03
6.600000000000000311e-02 4.931194999999999884e-01 3.159335000000000093e+01 9.465565000000000850e+01 1.494204999999999927e+03
6.700000000000000400e-02 4.935960000000000347e-01 3.244610000000000127e+01 9.697960000000000491e+01 1.494934999999999945e+03
6.800000000000000488e-02 4.940714999999999968e-01 3.323930000000000007e+01 9.928114999999999668e+01 1.495650000000000091e+03
6.900000000000000577e-02 4.945510000000000184e-01 3.398655000000000115e+01 1.015868000000000109e+02 1.496365000000000009e+03
7.000000000000000666e-02 4.950384999999999924e-01 3.469979999999999620e+01 1.039176499999999947e+02 1.497085000000000036e+03
7.100000000000000755e-02 4.955370000000000053e-01 3.538904999999999745e+01 1.062909999999999968e+02 1.497809999999999945e+03
7.200000000000000844e-02 4.960470000000000157e-01 3.606135000000000446e+01 1.087164999999999964e+02 1.498549999999999955e+03
7.300000000000000933e-02 4.965684999999999683e-01 3.672064999999999912e+01 1.111970000000000027e+02 1.499300000000000182e+03
7.399999999999999634e-02 4.971010000000000151e-01 3.736754999999999427e+01 1.137274999999999920e+02 1.500065000000000055e+03
7.499999999999999722e-02 4.976410000000000000e-01 3.799925000000000352e+01 1.162974999999999994e+02 1.500840000000000146e+03
7.599999999999999811e-02 4.981835000000000013e-01 3.860989999999999611e+01 1.188875000000000028e+02 1.501619999999999891e+03
7.699999999999999900e-02 4.987250000000000294e-01 3.919084999999999752e+01 1.214740000000000038e+02 1.502400000000000091e+03
7.799999999999999989e-02 4.992580000000000351e-01 3.973165000000000191e+01 1.240289999999999964e+02 1.503180000000000064e+03
7.900000000000000078e-02 4.997759999999999980e-01 4.022060000000000457e+01 1.265204999999999984e+02 1.503934999999999945e+03
8.000000000000000167e-02 5.002744999999999553e-01 4.064525000000000432e+01 1.289165000000000134e+02 1.504675000000000182e+03
8.100000000000000255e-02 5.007459999999999134e-01 4.099360000000000070e+01 1.311875000000000000e+02 1.505380000000000109e+03
8.200000000000000344e-02 5.011844999999999217e-01 4.125469999999999970e+01 1.333029999999999973e+02 1.506045000000000073e+03
8.300000000000000433e-02 5.015864999999999352e-01 4.141915000000000191e+01 1.352379999999999995e+02 1.506660000000000082e+03
8.400000000000000522e-02 5.019474999999999909e-01 4.147950000000000159e+01 1.369714999999999918e+02 1.507230000000000018e+03
8.500000000000000611e-02 5.022645000000000026e-01 4.143094999999999573e+01 1.384895000000000209e+02 1.507735000000000127e+03
8.600000000000000699e-02 5.025365000000000526e-01 4.127134999999999820e+01 1.397824999999999989e+02 1.508180000000000064e+03
8.700000000000000788e-02 5.027630000000000710e-01 4.100114999999999554e+01 1.408470000000000084e+02 1.508559999999999945e+03
8.800000000000000877e-02 5.029449999999999754e-01 4.062380000000000280e+01 1.416870000000000118e+02 1.508869999999999891e+03
8.899999999999999578e-02 5.030844999999999345e-01 4.014524999999999721e+01 1.423110000000000070e+02 1.509125000000000000e+03
8.999999999999999667e-02 5.031840000000000757e-01 3.957380000000000564e+01 1.427330000000000041e+02 1.509320000000000164e+03
9.099999999999999756e-02 5.032480000000000286e-01 3.891984999999999673e+01 1.429710000000000036e+02 1.509454999999999927e+03
9.199999999999999845e-02 5.032799999999999496e-01 3.819549999999999557e+01 1.430480000000000018e+02 1.509539999999999964e+03
9.299999999999999933e-02 5.032855000000000523e-01 3.741405000000000314e+01 1.429884999999999877e+02 1.509579999999999927e+03
9.400000000000000022e-02 5.032689999999999664e-01 3.658944999999999936e+01 1.428170000000000073e+02 1.509585000000000036e+03
9.500000000000000111e-02 5.032360000000000166e-01 3.573610000000000042e+01 1.425614999999999952e+02 1.509550000000000182e+03
9.600000000000000200e-02 5.031919999999999726e-01 3.486800000000000210e+01 1.422470000000000141e+02 1.509505000000000109e+03
9.700000000000000289e-02 5.031414999999999083e-01 3.399830000000000041e+01 1.418990000000000009e+02 1.509430000000000064e+03
9.800000000000000377e-02 5.030879999999999797e-01 3.313925000000000409e+01 1.415389999999999873e+02 1.509355000000000018e+03
9.900000000000000466e-02 5.030354999999999688e-01 3.230119999999999436e+01 1.411865000000000236e+02 1.509269999999999982e+03
1.000000000000000056e-01 5.029869999999999619e-01 3.149264999999999759e+01 1.408574999999999875e+02 1.509184999999999945e+03
1.010000000000000064e-01 5.029449999999999754e-01 3.071990000000000265e+01 1.405625000000000000e+02 1.509110000000000127e+03
1.020000000000000073e-01 5.029099999999999682e-01 2.998695000000000022e+01 1.403095000000000141e+02 1.509034999999999854e+03
1.030000000000000082e-01 5.028819999999999402e-01 2.929545000000000243e+01 1.401009999999999991e+02 1.508970000000000027e+03
1.040000000000000091e-01 5.028615000000000723e-01 2.864480000000000004e+01 1.399354999999999905e+02 1.508920000000000073e+03
1.050000000000000100e-01 5.028464999999999741e-01 2.803225000000000122e+01 1.398079999999999927e+02 1.508875000000000000e+03
1.059999999999999970e-01 5.028359999999999497e-01 2.745335000000000036e+01 1.397099999999999795e+02 1.508840000000000146e+03
1.069999999999999979e-01 5.028270000000000239e-01 2.690184999999999960e+01 1.396304999999999836e+02 1.508805000000000064e+03
1.079999999999999988e-01 5.028175000000000283e-01 2.637089999999999890e+01 1.395554999999999950e+02 1.508775000000000091e+03
1.089999999999999997e-01 5.028034999999999588e-01 2.585245000000000104e+01 1.394710000000000036e+02 1.508744999999999891e+03
1.100000000000000006e-01 5.027835000000000498e-01 2.533849999999999980e+01 1.393619999999999948e+02 1.508704999999999927e+03
1.110000000000000014e-01 5.027539999999999232e-01 2.482114999999999938e+01 1.392150000000000034e+02 1.508659999999999854e+03
1.120000000000000023e-01 5.027125000000000066e-01 2.429310000000000258e+01 1.390159999999999911e+02 1.508599999999999909e+03
1.130000000000000032e-01 5.026580000000000492e-01 2.374780000000000157e+01 1.387545000000000073e+02 1.508529999999999973e+03
1.140000000000000041e-01 5.025880000000000347e-01 2.318009999999999948e+01 1.384209999999999923e+02 1.508440000000000055e+03
1.150000000000000050e-01 5.025014999999999343e-01 2.258619999999999806e+01 1.380090000000000146e+02 1.508324999999999818e+03
1.160000000000000059e-01 5.023980000000000112e-01 2.196390000000000242e+01 1.375165000000000077e+02 1.508190000000000055e+03
1.170000000000000068e-01 5.022794999999999899e-01 2.131279999999999930e+01 1.369435000000000002e+02 1.508034999999999854e+03
1.180000000000000077e-01 5.021444999999999936e-01 2.063410000000000011e+01 1.362939999999999827e+02 1.507859999999999900e+03
1.190000000000000085e-01 5.019964999999999566e-01 1.993099999999999739e+01 1.355734999999999957e+02 1.507659999999999854e+03
1.200000000000000094e-01 5.018365000000000187e-01 1.920785000000000053e+01 1.347925000000000182e+02 1.507440000000000055e+03
1.209999999999999964e-01 5.016680000000000028e-01 1.847075000000000244e+01 1.339624999999999773e+02 1.507215000000000146e+03
1.219999999999999973e-01 5.014925000000000077e-01 1.772674999999999912e+01 1.330974999999999966e+02 1.506970000000000027e+03
1.229999999999999982e-01 5.013144999999999962e-01 1.698369999999999891e+01 1.322129999999999939e+02 1.506720000000000027e+03
1.239999999999999991e-01 5.011364999999999847e-01 1.625035000000000096e+01 1.313255000000000052e+02 1.506465000000000146e+03
1.250000000000000000e-01 5.009620000000000184e-01 1.553529999999999944e+01 1.304509999999999934e+02 1.506210000000000036e+03
1.260000000000000009e-01 5.007945000000000313e-01 1.484720000000000084e+01 1.296065000000000111e+02 1.505960000000000036e+03
1.270000000000000018e-01 5.006364999999999288e-01 1.419420500000000018e+01 1.288059999999999832e+02 1.505724999999999909e+03
1.280000000000000027e-01 5.004910000000000192e-01 1.358377000000000123e+01 1.280645000000000095e+02 1.505494999999999891e+03
1.290000000000000036e-01 5.003594999999999571e-01 1.302217500000000072e+01 1.273914999999999935e+02 1.505284999999999854e+03
1.300000000000000044e-01 5.002439999999999110e-01 1.251459499999999991e+01 1.267975000000000136e+02 1.505095000000000027e+03
1.310000000000000053e-01 5.001455000000000206e-01 1.206461999999999968e+01 1.262890000000000015e+02 1.504930000000000064e+03
1.320000000000000062e-01 5.000645000000000229e-01 1.167446999999999946e+01 1.258689999999999998e+02 1.504784999999999854e+03
1.330000000000000071e-01 5.000019999999999465e-01 1.134462999999999866e+01 1.255380000000000109e+02 1.504664999999999964e+03
1.340000000000000080e-01 4.999554999999999971e-01 1.107423000000000002e+01 1.252939999999999969e+02 1.504569999999999936e+03
1.350000000000000089e-01 4.999255000000000226e-01 1.086085500000000081e+01 1.251324999999999932e+02 1.504500000000000000e+03
1.360000000000000098e-01 4.999099999999999655e-01 1.070083999999999946e+01 1.250469999999999970e+02 1.504445000000000164e+03
1.370000000000000107e-01 4.999069999999999903e-01 1.058953999999999951e+01 1.250279999999999916e+02 1.504414999999999964e+03
1.380000000000000115e-01 4.999139999999999695e-01 1.052136499999999941e+01 1.250660000000000025e+02 1.504404999999999973e+03
1.390000000000000124e-01 4.999299999999999855e-01 1.049014000000000024e+01 1.251500000000000057e+02 1.504409999999999854e+03
1.400000000000000133e-01 4.999514999999999931e-01 1.048936499999999938e+01 1.252680000000000007e+02 1.504420000000000073e+03
1.410000000000000142e-01 4.999774999999999636e-01 1.051243000000000016e+01 1.254089999999999918e+02 1.504445000000000164e+03
1.420000000000000151e-01 5.000054999999999916e-01 1.055287000000000042e+01 1.255619999999999976e+02 1.504469999999999800e+03
1.430000000000000160e-01 5.000329999999999497e-01 1.060444500000000012e+01 1.257175000000000011e+02 1.504505000000000109e+03
1.440000000000000169e-01 5.000584999999999614e-01 1.066150999999999982e+01 1.258659999999999997e+02 1.504535000000000082e+03
1.450000000000000178e-01 5.000815000000000676e-01 1.071904999999999930e+01 1.260010000000000048e+02 1.504570000000000164e+03
1.459999999999999909e-01 5.000999999999999890e-01 1.077273500000000084e+01 1.261154999999999973e+02 1.504595000000000027e+03
1.469999999999999918e-01 5.001134999999999886e-01 1.081903000000000148e+01 1.262065000000000055e+02 1.504619999999999891e+03
1.479999999999999927e-01 5.001219999999999555e-01 1.085528500000000030e+01 1.262700000000000102e+02 1.504639999999999873e+03
1.489999999999999936e-01 5.001255000000000006e-01 1.087969000000000008e+01 1.263054999999999950e+02 1.504650000000000091e+03
1.499999999999999944e-01 5.001235000000000541e-01 1.089111499999999921e+01 1.263135000000000048e+02 1.504654999999999973e+03
1.509999999999999953e-01 5.001165000000000749e-01 1.088936499999999974e+01 1.262950000000000017e+02 1.504650000000000091e+03
1.519999999999999962e-01 5.001050000000000217e-01 1.087471500000000013e+01 1.262530000000000001e+02 1.504644999999999982e+03
1.529999999999999971e-01 5.000899999999999235e-01 1.084827999999999903e+01 1.261914999999999907e+02 1.504630000000000109e+03
1.539999999999999980e-01 5.000724999999999199e-01 1.081134499999999932e+01 1.261129999999999995e+02 1.504610000000000127e+03
1.549999999999999989e-01 5.000529999999999697e-01 1.076589000000000063e+01 1.260229999999999961e+02 1.504590000000000146e+03
1.559999999999999998e-01 5.000329999999999497e-01 1.071394000000000091e+01 1.259259999999999877e+02 1.504565000000000055e+03
1.570000000000000007e-01 5.000124999999999709e-01 1.065774500000000025e+01 1.258259999999999934e+02 1.504534999999999854e+03
1.580000000000000016e-01 4.999924999999999509e-01 1.059956000000000031e+01 1.257284999999999968e+02 1.504514999999999873e+03
1.590000000000000024e-01 4.999744999999999884e-01 1.054164000000000101e+01 1.256364999999999981e+02 1.504490000000000009e+03
