# t [s], A [cm^2], U [cm/s], P [cPa], c [cm/s]
1.000000000000000021e-03 5.411179999999999879e-01 3.709000000000003960e-03 9.598955000000000837e+01 1.458125000000000000e+03
2.000000000000000042e-03 5.411095000000000210e-01 -1.878380000000000024e-03 9.597059999999999036e+01 1.458119999999999891e+03
3.000000000000000062e-03 5.411409999999999831e-01 5.520355000000000401e-02 9.602199999999999136e+01 1.458134999999999991e+03
4.000000000000000083e-03 5.411905000000000188e-01 1.470141999999999838e-01 9.612784999999999513e+01 1.458164999999999964e+03
5.000000000000000104e-03 5.411960000000000104e-01 1.676070000000000060e-01 9.614950000000000330e+01 1.458170000000000073e+03
6.000000000000000125e-03 5.411550000000000527e-01 1.042250000000000121e-01 9.603865000000000407e+01 1.458150000000000091e+03
7.000000000000000146e-03 5.411090000000000622e-01 2.605750000000001121e-02 9.585710000000000264e+01 1.458105000000000018e+03
8.000000000000000167e-03 5.410614999999999730e-01 -5.926150000000002249e-02 9.562560000000000571e+01 1.458055000000000064e+03
9.000000000000001055e-03 5.409829999999999917e-01 -2.115810000000000191e-01 9.528130000000000166e+01 1.457974999999999909e+03
1.000000000000000194e-02 5.408604999999999663e-01 -4.563550000000000662e-01 9.477590000000000714e+01 1.457855000000000018e+03
1.099999999999999936e-02 5.406904999999999628e-01 -7.945399999999999130e-01 9.408174999999999955e+01 1.457694999999999936e+03
1.200000000000000025e-02 5.404625000000000679e-01 -1.237985000000000113e+00 9.315930000000000177e+01 1.457470000000000027e+03
1.300000000000000114e-02 5.401674999999999116e-01 -1.789635000000000087e+00 9.197495000000000687e+01 1.457184999999999945e+03
1.400000000000000203e-02 5.398189999999999378e-01 -2.407650000000000290e+00 9.054704999999999870e+01 1.456824999999999818e+03
1.499999999999999944e-02 5.394520000000000426e-01 -3.003064999999999873e+00 8.896235000000000070e+01 1.456420000000000073e+03
1.600000000000000033e-02 5.391080000000000316e-01 -3.473119999999999763e+00 8.734749999999999659e+01 1.455990000000000009e+03
1.700000000000000122e-02 5.388159999999999616e-01 -3.740588000000000246e+00 8.582095000000001050e+01 1.455569999999999936e+03
1.800000000000000211e-02 5.385815000000000463e-01 -3.775310499999999791e+00 8.445589999999999975e+01 1.455170000000000073e+03
1.900000000000000300e-02 5.383930000000000105e-01 -3.594107000000000163e+00 8.326689999999999259e+01 1.454799999999999955e+03
2.000000000000000042e-02 5.382259999999999822e-01 -3.246385499999999702e+00 8.221719999999999118e+01 1.454460000000000036e+03
2.100000000000000130e-02 5.380530000000000035e-01 -2.794337499999999697e+00 8.123910000000000764e+01 1.454130000000000109e+03
2.200000000000000219e-02 5.378534999999999844e-01 -2.293892500000000112e+00 8.025864999999998872e+01 1.453805000000000064e+03
2.299999999999999961e-02 5.376170000000000115e-01 -1.780990000000000073e+00 7.921824999999999761e+01 1.453464999999999918e+03
2.400000000000000050e-02 5.373449999999999616e-01 -1.266184999999999894e+00 7.809114999999999895e+01 1.453105000000000018e+03
2.500000000000000139e-02 5.370489999999999986e-01 -7.386750000000001926e-01 7.688329999999999131e+01 1.452720000000000027e+03
2.600000000000000228e-02 5.367435000000000400e-01 -1.774550000000001404e-01 7.562465000000000259e+01 1.452329999999999927e+03
2.700000000000000316e-02 5.364415000000000155e-01 4.351050000000000750e-01 7.435290000000000532e+01 1.451930000000000064e+03
2.800000000000000058e-02 5.361479999999999579e-01 1.102295000000000025e+00 7.309700000000000841e+01 1.451529999999999973e+03
2.900000000000000147e-02 5.358614999999999906e-01 1.807534999999999892e+00 7.186504999999999654e+01 1.451134999999999991e+03
3.000000000000000236e-02 5.355710000000000193e-01 2.515019999999999811e+00 7.063965000000000316e+01 1.450740000000000009e+03
3.099999999999999978e-02 5.352600000000000691e-01 3.175384999999999458e+00 6.938044999999999618e+01 1.450345000000000027e+03
3.200000000000000067e-02 5.349120000000000541e-01 3.734644999999999992e+00 6.803249999999999886e+01 1.449924999999999955e+03
3.300000000000000155e-02 5.345124999999999460e-01 4.144404999999999895e+00 6.653905000000000314e+01 1.449469999999999800e+03
3.400000000000000244e-02 5.340529999999999999e-01 4.371245000000000047e+00 6.485490000000000066e+01 1.448974999999999909e+03
3.500000000000000333e-02 5.335330000000000350e-01 4.403369999999999784e+00 6.295855000000000246e+01 1.448434999999999945e+03
3.600000000000000422e-02 5.329639999999999933e-01 4.252750000000000696e+00 6.085979999999999990e+01 1.447840000000000146e+03
3.700000000000000511e-02 5.323620000000000019e-01 3.952825000000000255e+00 5.860054999999999836e+01 1.447204999999999927e+03
3.799999999999999906e-02 5.317505000000000148e-01 3.552250000000000352e+00 5.625019999999999953e+01 1.446545000000000073e+03
3.899999999999999994e-02 5.311544999999999739e-01 3.106694999999999762e+00 5.389620000000000033e+01 1.445880000000000109e+03
4.000000000000000083e-02 5.305974999999999442e-01 2.671055000000000401e+00 5.163275000000000148e+01 1.445235000000000127e+03
4.100000000000000172e-02 5.300989999999999869e-01 2.293019999999999836e+00 4.955025000000000546e+01 1.444625000000000000e+03
4.200000000000000261e-02 5.296750000000000069e-01 2.009789999999999743e+00 4.772684999999999889e+01 1.444075000000000045e+03
4.300000000000000350e-02 5.293345000000000411e-01 1.846775000000000055e+00 4.622330000000000183e+01 1.443605000000000018e+03
4.400000000000000439e-02 5.290825000000000111e-01 1.818625000000000158e+00 4.508079999999999643e+01 1.443224999999999909e+03
4.499999999999999833e-02 5.289209999999999745e-01 1.931569999999999787e+00 4.432224999999999682e+01 1.442949999999999818e+03
4.599999999999999922e-02 5.288485000000000547e-01 2.186437999999999882e+00 4.395459999999999923e+01 1.442775000000000091e+03
4.700000000000000011e-02 5.288629999999999720e-01 2.581450000000000244e+00 4.397350000000000136e+01 1.442710000000000036e+03
4.800000000000000100e-02 5.289610000000000145e-01 3.114449999999999719e+00 4.436690000000000111e+01 1.442750000000000000e+03
4.900000000000000189e-02 5.291390000000000260e-01 3.784070000000000267e+00 4.511899999999999977e+01 1.442894999999999982e+03
5.000000000000000278e-02 5.293944999999999901e-01 4.589794999999999625e+00 4.621250000000000568e+01 1.443134999999999991e+03
5.100000000000000366e-02 5.297250000000000014e-01 5.531114999999999782e+00 4.762930000000000064e+01 1.443474999999999909e+03
5.200000000000000455e-02 5.301259999999999861e-01 6.606184999999999974e+00 4.935030000000000427e+01 1.443904999999999973e+03
5.300000000000000544e-02 5.305929999999999813e-01 7.810310000000000308e+00 5.135475000000000279e+01 1.444420000000000073e+03
5.399999999999999939e-02 5.311209999999999543e-01 9.134845000000000326e+00 5.361834999999999241e+01 1.445009999999999991e+03
5.500000000000000028e-02 5.317024999999999668e-01 1.056670999999999871e+01 5.611320000000000618e+01 1.445675000000000182e+03
5.600000000000000117e-02 5.323284999999999823e-01 1.208851999999999904e+01 5.880665000000000475e+01 1.446400000000000091e+03
5.700000000000000205e-02 5.329904999999999227e-01 1.367936999999999870e+01 6.166239999999999810e+01 1.447180000000000064e+03
5.800000000000000294e-02 5.336779999999999857e-01 1.531598499999999952e+01 6.464130000000000109e+01 1.448005000000000109e+03
5.900000000000000383e-02 5.343815000000000648e-01 1.697449500000000100e+01 6.770315000000000794e+01 1.448860000000000127e+03
6.000000000000000472e-02 5.350920000000000121e-01 1.863145000000000095e+01 7.080885000000000673e+01 1.449740000000000009e+03
6.099999999999999867e-02 5.358009999999999717e-01 2.026575000000000060e+01 7.392194999999999538e+01 1.450630000000000109e+03
6.199999999999999956e-02 5.365020000000000344e-01 2.185904999999999987e+01 7.701099999999999568e+01 1.451525000000000091e+03
6.300000000000000044e-02 5.371894999999999865e-01 2.339685000000000059e+01 8.005010000000000048e+01 1.452409999999999854e+03
6.400000000000000133e-02 5.378619999999999512e-01 2.486854999999999905e+01 8.302025000000000432e+01 1.453289999999999964e+03
6.500000000000000222e-02 5.385159999999999947e-01 2.626729999999999876e+01 8.590935000000000343e+01 1.454150000000000091e+03
6.600000000000000311e-02 5.391525000000000345e-01 2.758980000000000032e+01 8.871184999999999832e+01 1.454994999999999891e+03
6.700000000000000400e-02 5.397715000000000707e-01 2.883565000000000111e+01 9.142814999999998804e+01 1.455820000000000164e+03
6.800000000000000488e-02 5.403755000000000086e-01 3.000689999999999813e+01 9.406309999999999150e+01 1.456619999999999891e+03
6.900000000000000577e-02 5.409659999999999469e-01 3.110725000000000051e+01 9.662630000000000052e+01 1.457409999999999854e+03
7.000000000000000666e-02 5.415470000000000006e-01 3.214175000000000182e+01 9.912930000000000064e+01 1.458179999999999836e+03
7.100000000000000755e-02 5.421205000000000052e-01 3.311599999999999966e+01 1.015843500000000006e+02 1.458934999999999945e+03
7.200000000000000844e-02 5.426900000000000057e-01 3.403569999999999851e+01 1.040051500000000004e+02 1.459679999999999836e+03
7.300000000000000933e-02 5.432574999999999488e-01 3.490644999999999953e+01 1.064034499999999923e+02 1.460420000000000073e+03
7.399999999999999634e-02 5.438240000000000851e-01 3.573279999999999745e+01 1.087899999999999920e+02 1.461154999999999973e+03
7.499999999999999722e-02 5.443919999999999870e-01 3.651845000000000141e+01 1.111709999999999923e+02 1.461889999999999873e+03
7.599999999999999811e-02 5.449614999999999876e-01 3.726565000000000083e+01 1.135515000000000043e+02 1.462625000000000000e+03
7.699999999999999900e-02 5.455320000000000169e-01 3.797504999999999598e+01 1.159319999999999879e+02 1.463349999999999909e+03
7.799999999999999989e-02 5.461015000000000175e-01 3.864580000000000126e+01 1.183079999999999927e+02 1.464079999999999927e+03
7.900000000000000078e-02 5.466685000000000016e-01 3.927535000000000309e+01 1.206730000000000018e+02 1.464805000000000064e+03
8.000000000000000167e-02 5.472299999999999942e-01 3.985985000000000156e+01 1.230159999999999911e+02 1.465529999999999973e+03
8.100000000000000255e-02 5.477819999999999911e-01 4.039440000000000452e+01 1.253229999999999933e+02 1.466244999999999891e+03
8.200000000000000344e-02 5.483210000000000583e-01 4.087340000000000373e+01 1.275785000000000053e+02 1.466940000000000055e+03
8.300000000000000433e-02 5.488425000000000109e-01 4.129084999999999894e+01 1.297649999999999864e+02 1.467619999999999891e+03
8.400000000000000522e-02 5.493424999999999558e-01 4.164079999999999870e+01 1.318665000000000020e+02 1.468279999999999973e+03
8.500000000000000611e-02 5.498180000000000289e-01 4.191785000000000139e+01 1.338650000000000091e+02 1.468910000000000082e+03
8.600000000000000699e-02 5.502650000000000041e-01 4.211719999999999686e+01 1.357460000000000093e+02 1.469514999999999873e+03
8.700000000000000788e-02 5.506805000000000172e-01 4.223510000000000275e+01 1.374950000000000045e+02 1.470075000000000045e+03
8.800000000000000877e-02 5.510629999999999695e-01 4.226895000000000380e+01 1.391020000000000039e+02 1.470595000000000027e+03
8.899999999999999578e-02 5.514099999999999557e-01 4.221744999999999948e+01 1.405579999999999927e+02 1.471075000000000045e+03
8.999999999999999667e-02 5.517205000000000581e-01 4.208065000000000566e+01 1.418580000000000041e+02 1.471514999999999873e+03
9.099999999999999756e-02 5.519950000000000134e-01 4.186005000000000109e+01 1.429995000000000118e+02 1.471900000000000091e+03
9.199999999999999845e-02 5.522329999999999739e-01 4.155835000000000434e+01 1.439834999999999923e+02 1.472244999999999891e+03
9.299999999999999933e-02 5.524359999999999271e-01 4.117964999999999520e+01 1.448140000000000214e+02 1.472545000000000073e+03
9.400000000000000022e-02 5.526054999999999717e-01 4.072929999999999495e+01 1.454970000000000141e+02 1.472795000000000073e+03
9.500000000000000111e-02 5.527444999999999720e-01 4.021370000000000289e+01 1.460420000000000016e+02 1.473010000000000218e+03
9.600000000000000200e-02 5.528539999999999566e-01 3.964020000000000010e+01 1.464590000000000032e+02 1.473180000000000064e+03
9.700000000000000289e-02 5.529379999999999296e-01 3.901699999999999591e+01 1.467615000000000123e+02 1.473319999999999936e+03
9.800000000000000377e-02 5.529994999999999772e-01 3.835275000000000034e+01 1.469625000000000057e+02 1.473414999999999964e+03
9.900000000000000466e-02 5.530414999999999637e-01 3.765659999999999741e+01 1.470780000000000030e+02 1.473490000000000009e+03
1.000000000000000056e-01 5.530675000000000452e-01 3.693764999999999787e+01 1.471225000000000023e+02 1.473534999999999854e+03
1.010000000000000064e-01 5.530820000000000736e-01 3.620490000000000208e+01 1.471105000000000018e+02 1.473565000000000055e+03
1.020000000000000073e-01 5.530865000000000364e-01 3.546685000000000088e+01 1.470575000000000045e+02 1.473575000000000045e+03
1.030000000000000082e-01 5.530855000000000077e-01 3.473120000000000118e+01 1.469764999999999873e+02 1.473570000000000164e+03
1.040000000000000091e-01 5.530804999999999749e-01 3.400495000000000090e+01 1.468799999999999955e+02 1.473565000000000055e+03
1.050000000000000100e-01 5.530740000000000656e-01 3.329364999999999952e+01 1.467769999999999868e+02 1.473545000000000073e+03
1.059999999999999970e-01 5.530680000000000041e-01 3.260159999999999769e+01 1.466769999999999925e+02 1.473525000000000091e+03
1.069999999999999979e-01 5.530629999999999713e-01 3.193175000000000097e+01 1.465849999999999795e+02 1.473500000000000000e+03
1.079999999999999988e-01 5.530595000000000372e-01 3.128560000000000230e+01 1.465040000000000191e+02 1.473480000000000018e+03
1.089999999999999997e-01 5.530574999999999797e-01 3.066310000000000002e+01 1.464345000000000141e+02 1.473465000000000146e+03
1.100000000000000006e-01 5.530564999999999509e-01 3.006315000000000026e+01 1.463765000000000214e+02 1.473444999999999936e+03
1.110000000000000014e-01 5.530555000000000332e-01 2.948315000000000197e+01 1.463255000000000052e+02 1.473430000000000064e+03
1.120000000000000023e-01 5.530530000000000168e-01 2.891975000000000051e+01 1.462760000000000105e+02 1.473410000000000082e+03
1.130000000000000032e-01 5.530485000000000539e-01 2.836890000000000001e+01 1.462230000000000132e+02 1.473394999999999982e+03
1.140000000000000041e-01 5.530384999999999884e-01 2.782584999999999908e+01 1.461575000000000273e+02 1.473375000000000000e+03
1.150000000000000050e-01 5.530224999999999724e-01 2.728585000000000349e+01 1.460724999999999909e+02 1.473349999999999909e+03
1.160000000000000059e-01 5.529979999999999896e-01 2.674390000000000001e+01 1.459599999999999795e+02 1.473315000000000055e+03
1.170000000000000068e-01 5.529634999999999412e-01 2.619539999999999935e+01 1.458120000000000118e+02 1.473275000000000091e+03
1.180000000000000077e-01 5.529184999999999794e-01 2.563615000000000066e+01 1.456225000000000023e+02 1.473220000000000027e+03
1.190000000000000085e-01 5.528610000000000468e-01 2.506255000000000166e+01 1.453849999999999909e+02 1.473150000000000091e+03
1.200000000000000094e-01 5.527904999999999625e-01 2.447180000000000177e+01 1.450964999999999918e+02 1.473070000000000164e+03
1.209999999999999964e-01 5.527070000000000594e-01 2.386195000000000022e+01 1.447529999999999859e+02 1.472974999999999909e+03
1.219999999999999973e-01 5.526100000000000456e-01 2.323225000000000051e+01 1.443555000000000064e+02 1.472869999999999891e+03
1.229999999999999982e-01 5.525005000000000610e-01 2.258265000000000100e+01 1.439035000000000082e+02 1.472740000000000009e+03
1.239999999999999991e-01 5.523789999999999534e-01 2.191465000000000174e+01 1.434000000000000057e+02 1.472599999999999909e+03
1.250000000000000000e-01 5.522475000000000023e-01 2.123039999999999949e+01 1.428509999999999991e+02 1.472445000000000164e+03
1.260000000000000009e-01 5.521065000000000556e-01 2.053314999999999912e+01 1.422620000000000005e+02 1.472279999999999973e+03
1.270000000000000018e-01 5.519594999999999363e-01 1.982710000000000150e+01 1.416409999999999911e+02 1.472099999999999909e+03
1.280000000000000027e-01 5.518075000000000063e-01 1.911720000000000041e+01 1.409970000000000141e+02 1.471920000000000073e+03
1.290000000000000036e-01 5.516539999999999777e-01 1.840879999999999939e+01 1.403400000000000034e+02 1.471730000000000018e+03
1.300000000000000044e-01 5.515004999999999491e-01 1.770789999999999864e+01 1.396814999999999998e+02 1.471539999999999964e+03
1.310000000000000053e-01 5.513510000000000355e-01 1.702055000000000007e+01 1.390310000000000059e+02 1.471345000000000027e+03
1.320000000000000062e-01 5.512065000000000436e-01 1.635280000000000200e+01 1.384014999999999986e+02 1.471159999999999854e+03
1.330000000000000071e-01 5.510699999999999488e-01 1.571059999999999945e+01 1.378015000000000043e+02 1.470980000000000018e+03
1.340000000000000080e-01 5.509439999999999893e-01 1.509939999999999927e+01 1.372409999999999854e+02 1.470805000000000064e+03
1.350000000000000089e-01 5.508294999999999719e-01 1.452400000000000091e+01 1.367284999999999968e+02 1.470644999999999982e+03
1.360000000000000098e-01 5.507290000000000241e-01 1.398860000000000170e+01 1.362724999999999795e+02 1.470500000000000000e+03
1.370000000000000107e-01 5.506429999999999936e-01 1.349647500000000022e+01 1.358759999999999764e+02 1.470369999999999891e+03
1.380000000000000115e-01 5.505720000000000613e-01 1.304986999999999853e+01 1.355450000000000159e+02 1.470255000000000109e+03
1.390000000000000124e-01 5.505169999999999231e-01 1.265009500000000031e+01 1.352810000000000059e+02 1.470159999999999854e+03
1.400000000000000133e-01 5.504769999999999941e-01 1.229741999999999891e+01 1.350829999999999984e+02 1.470089999999999918e+03
1.410000000000000142e-01 5.504514999999999825e-01 1.199110999999999905e+01 1.349504999999999768e+02 1.470035000000000082e+03
1.420000000000000151e-01 5.504404999999999992e-01 1.172945500000000152e+01 1.348795000000000073e+02 1.469990000000000009e+03
1.430000000000000160e-01 5.504415000000000280e-01 1.150990499999999983e+01 1.348654999999999973e+02 1.469969999999999800e+03
1.440000000000000169e-01 5.504539999999999988e-01 1.132938500000000026e+01 1.349029999999999916e+02 1.469965000000000146e+03
1.450000000000000178e-01 5.504759999999999653e-01 1.118403499999999973e+01 1.349844999999999970e+02 1.469974999999999909e+03
1.459999999999999909e-01 5.505059999999999398e-01 1.106971500000000042e+01 1.351024999999999920e+02 1.469994999999999891e+03
1.469999999999999918e-01 5.505409999999999471e-01 1.098204499999999939e+01 1.352500000000000000e+02 1.470019999999999982e+03
1.479999999999999927e-01 5.505809999999999871e-01 1.091654499999999928e+01 1.354194999999999993e+02 1.470054999999999836e+03
1.489999999999999936e-01 5.506229999999999736e-01 1.086881999999999948e+01 1.356019999999999754e+02 1.470099999999999909e+03
1.499999999999999944e-01 5.506659999999999888e-01 1.083464000000000027e+01 1.357920000000000016e+02 1.470144999999999982e+03
1.509999999999999953e-01 5.507090000000000041e-01 1.081011499999999970e+01 1.359825000000000159e+02 1.470194999999999936e+03
1.519999999999999962e-01 5.507500000000000728e-01 1.079168999999999912e+01 1.361684999999999945e+02 1.470244999999999891e+03
1.529999999999999971e-01 5.507889999999999731e-01 1.077634499999999917e+01 1.363449999999999989e+02 1.470289999999999964e+03
1.539999999999999980e-01 5.508245000000000502e-01 1.076136999999999944e+01 1.365095000000000027e+02 1.470335000000000036e+03
1.549999999999999989e-01 5.508564999999999712e-01 1.074474000000000018e+01 1.366580000000000155e+02 1.470380000000000109e+03
1.559999999999999998e-01 5.508849999999999580e-01 1.072480000000000011e+01 1.367909999999999968e+02 1.470420000000000073e+03
1.570000000000000007e-01 5.509094999999999409e-01 1.070035000000000025e+01 1.369069999999999823e+02 1.470454999999999927e+03
1.580000000000000016e-01 5.509304999999999897e-01 1.067072999999999894e+01 1.370054999999999836e+02 1.470484999999999900e+03
1.590000000000000024e-01 5.509479999999999933e-01 1.063558000000000092e+01 1.370879999999999939e+02 1.470509999999999991e+03
