# t [s], A [cm^2], U [cm/s], P [cPa], c [cm/s]
1.000000000000000021e-03 1.437394999999999923e-01 2.396625000000000005e-01 9.167539999999999623e+01 1.835764999999999873e+03
2.000000000000000042e-03 1.437145000000000228e-01 1.629425000000000123e+00 8.899819999999999709e+01 1.835529999999999973e+03
3.000000000000000062e-03 1.436244999999999883e-01 3.356636500000000023e+00 8.541785000000000139e+01 1.834699999999999818e+03
4.000000000000000083e-03 1.434894999999999921e-01 5.282840850000000366e+00 8.134624999999999773e+01 1.833480000000000018e+03
5.000000000000000104e-03 1.433329999999999882e-01 7.361349999999999838e+00 7.744819999999999993e+01 1.832085000000000036e+03
6.000000000000000125e-03 1.431735000000000091e-01 9.497695000000000221e+00 7.410060000000000002e+01 1.830670000000000073e+03
7.000000000000000146e-03 1.430204999999999949e-01 1.154006000000000043e+01 7.129770000000000607e+01 1.829329999999999927e+03
8.000000000000000167e-03 1.428754999999999886e-01 1.336060499999999962e+01 6.883684999999999832e+01 1.828085000000000036e+03
9.000000000000001055e-03 1.427419999999999800e-01 1.492894500000000058e+01 6.661105000000000587e+01 1.826950000000000045e+03
1.000000000000000194e-02 1.426224999999999854e-01 1.627414999999999878e+01 6.465989999999999327e+01 1.825944999999999936e+03
1.099999999999999936e-02 1.425179999999999780e-01 1.742000000000000171e+01 6.302474999999999739e+01 1.825079999999999927e+03
1.200000000000000025e-02 1.424300000000000010e-01 1.837749999999999773e+01 6.169089999999999918e+01 1.824360000000000127e+03
1.300000000000000114e-02 1.423564999999999969e-01 1.915719999999999956e+01 6.061945000000000050e+01 1.823760000000000218e+03
1.400000000000000203e-02 1.422964999999999924e-01 1.976610000000000156e+01 5.975750000000000028e+01 1.823279999999999973e+03
1.499999999999999944e-02 1.422470000000000123e-01 2.020884999999999820e+01 5.903605000000000302e+01 1.822884999999999991e+03
1.600000000000000033e-02 1.422054999999999847e-01 2.050714999999999932e+01 5.840840000000000032e+01 1.822565000000000055e+03
1.700000000000000122e-02 1.421720000000000206e-01 2.071894999999999953e+01 5.791339999999999577e+01 1.822309999999999945e+03
1.800000000000000211e-02 1.421485000000000110e-01 2.093420000000000059e+01 5.769570000000000221e+01 1.822140000000000100e+03
1.900000000000000300e-02 1.421410000000000173e-01 2.124385000000000190e+01 5.794885000000000019e+01 1.822090000000000146e+03
2.000000000000000042e-02 1.421530000000000016e-01 2.170185000000000031e+01 5.881354999999999933e+01 1.822200000000000045e+03
2.100000000000000130e-02 1.421870000000000078e-01 2.230130000000000123e+01 6.029075000000000273e+01 1.822480000000000018e+03
2.200000000000000219e-02 1.422390000000000043e-01 2.297639999999999816e+01 6.221589999999999776e+01 1.822914999999999964e+03
2.299999999999999961e-02 1.423034999999999994e-01 2.362525000000000119e+01 6.429914999999999736e+01 1.823460000000000036e+03
2.400000000000000050e-02 1.423705000000000109e-01 2.414239999999999853e+01 6.620924999999999727e+01 1.824025000000000091e+03
2.500000000000000139e-02 1.424314999999999887e-01 2.444919999999999760e+01 6.766519999999999868e+01 1.824550000000000182e+03
2.600000000000000228e-02 1.424789999999999945e-01 2.451229999999999976e+01 6.850540000000000873e+01 1.824965000000000146e+03
2.700000000000000316e-02 1.425099999999999978e-01 2.434684999999999988e+01 6.871549999999999159e+01 1.825244999999999891e+03
2.800000000000000058e-02 1.425235000000000252e-01 2.400534999999999997e+01 6.841130000000001132e+01 1.825380000000000109e+03
2.900000000000000147e-02 1.425230000000000108e-01 2.355750000000000099e+01 6.778804999999999836e+01 1.825390000000000100e+03
3.000000000000000236e-02 1.425140000000000018e-01 2.306869999999999976e+01 6.705405000000000371e+01 1.825325000000000045e+03
3.099999999999999978e-02 1.425000000000000155e-01 2.258314999999999984e+01 6.637260000000000559e+01 1.825215000000000146e+03
3.200000000000000067e-02 1.424860000000000015e-01 2.211670000000000158e+01 6.582634999999999081e+01 1.825099999999999909e+03
3.300000000000000155e-02 1.424730000000000163e-01 2.165874999999999773e+01 6.541094999999999970e+01 1.824994999999999891e+03
3.400000000000000244e-02 1.424610000000000043e-01 2.118230000000000146e+01 6.505564999999999998e+01 1.824894999999999982e+03
3.500000000000000333e-02 1.424475000000000047e-01 2.065709999999999980e+01 6.465944999999999254e+01 1.824785000000000082e+03
3.600000000000000422e-02 1.424314999999999887e-01 2.006280000000000285e+01 6.413230000000000075e+01 1.824650000000000091e+03
3.700000000000000511e-02 1.424099999999999810e-01 1.939860000000000184e+01 6.342914999999999992e+01 1.824480000000000018e+03
3.799999999999999906e-02 1.423834999999999962e-01 1.868739999999999668e+01 6.257035000000000480e+01 1.824264999999999873e+03
3.899999999999999994e-02 1.423530000000000073e-01 1.797310000000000230e+01 6.164225000000000421e+01 1.824014999999999873e+03
4.000000000000000083e-02 1.423220000000000041e-01 1.731244999999999834e+01 6.077994999999999948e+01 1.823759999999999991e+03
4.100000000000000172e-02 1.422944999999999904e-01 1.676340000000000074e+01 6.013689999999999714e+01 1.823529999999999973e+03
4.200000000000000261e-02 1.422754999999999992e-01 1.637274999999999991e+01 5.984900000000000375e+01 1.823359999999999900e+03
4.300000000000000350e-02 1.422680000000000056e-01 1.616639999999999944e+01 6.000324999999999420e+01 1.823289999999999964e+03
4.400000000000000439e-02 1.422740000000000116e-01 1.614414999999999978e+01 6.061755000000000138e+01 1.823329999999999927e+03
4.499999999999999833e-02 1.422944999999999904e-01 1.627969999999999828e+01 6.163540000000000418e+01 1.823494999999999891e+03
4.599999999999999922e-02 1.423280000000000101e-01 1.652524999999999977e+01 6.293580000000000041e+01 1.823755000000000109e+03
4.700000000000000011e-02 1.423689999999999956e-01 1.681965000000000288e+01 6.435444999999999993e+01 1.824089999999999918e+03
4.800000000000000100e-02 1.424139999999999850e-01 1.709725000000000250e+01 6.570965000000001055e+01 1.824454999999999927e+03
4.900000000000000189e-02 1.424559999999999993e-01 1.729690000000000083e+01 6.682965000000000089e+01 1.824809999999999945e+03
5.000000000000000278e-02 1.424920000000000075e-01 1.736834999999999951e+01 6.757419999999999050e+01 1.825110000000000127e+03
5.100000000000000366e-02 1.425155000000000172e-01 1.727674999999999983e+01 6.784880000000001132e+01 1.825315000000000055e+03
5.200000000000000455e-02 1.425250000000000128e-01 1.700404999999999944e+01 6.761055000000000348e+01 1.825400000000000091e+03
5.300000000000000544e-02 1.425180000000000058e-01 1.654769999999999897e+01 6.686490000000000578e+01 1.825349999999999909e+03
5.399999999999999939e-02 1.424940000000000095e-01 1.591840000000000011e+01 6.565735000000000809e+01 1.825159999999999854e+03
5.500000000000000028e-02 1.424549999999999983e-01 1.513595000000000113e+01 6.406094999999999118e+01 1.824845000000000027e+03
5.600000000000000117e-02 1.424024999999999874e-01 1.422615000000000052e+01 6.216325000000000500e+01 1.824410000000000082e+03
5.700000000000000205e-02 1.423384999999999789e-01 1.321734999999999971e+01 6.005519999999999925e+01 1.823884999999999991e+03
5.800000000000000294e-02 1.422660000000000036e-01 1.213860000000000028e+01 5.782334999999999781e+01 1.823284999999999854e+03
5.900000000000000383e-02 1.421879999999999811e-01 1.101840499999999956e+01 5.554524999999999579e+01 1.822634999999999991e+03
6.000000000000000472e-02 1.421060000000000101e-01 9.884565000000000268e+00 5.328875000000000028e+01 1.821954999999999927e+03
6.099999999999999867e-02 1.420239999999999836e-01 8.764385000000000758e+00 5.111350000000000193e+01 1.821264999999999873e+03
6.199999999999999956e-02 1.419435000000000002e-01 7.685310000000000308e+00 4.907379999999999853e+01 1.820595000000000027e+03
6.300000000000000044e-02 1.418659999999999921e-01 6.675215000000000565e+00 4.722149999999999892e+01 1.819944999999999936e+03
6.400000000000000133e-02 1.417954999999999910e-01 5.762510000000000687e+00 4.560804999999999865e+01 1.819349999999999909e+03
6.500000000000000222e-02 1.417320000000000246e-01 4.975744999999999862e+00 4.428544999999999732e+01 1.818819999999999936e+03
6.600000000000000311e-02 1.416789999999999994e-01 4.342810000000000059e+00 4.330530000000000257e+01 1.818369999999999891e+03
6.700000000000000400e-02 1.416379999999999861e-01 3.889720000000000066e+00 4.271679999999999922e+01 1.818019999999999982e+03
6.800000000000000488e-02 1.416109999999999869e-01 3.639305000000000234e+00 4.256390000000000384e+01 1.817779999999999973e+03
6.900000000000000577e-02 1.416000000000000036e-01 3.609815000000000218e+00 4.288165000000000049e+01 1.817674999999999955e+03
7.000000000000000666e-02 1.416054999999999953e-01 3.813775000000000137e+00 4.369355000000000189e+01 1.817704999999999927e+03
7.100000000000000755e-02 1.416295000000000193e-01 4.257130000000000081e+00 4.500889999999999702e+01 1.817889999999999873e+03
7.200000000000000844e-02 1.416715000000000058e-01 4.938884999999999970e+00 4.682159999999999656e+01 1.818220000000000027e+03
7.300000000000000933e-02 1.417315000000000103e-01 5.851084999999999425e+00 4.911019999999999897e+01 1.818710000000000036e+03
7.399999999999999634e-02 1.418099999999999916e-01 6.979319999999999524e+00 5.183885000000000076e+01 1.819345000000000027e+03
7.499999999999999722e-02 1.419044999999999890e-01 8.303535000000000110e+00 5.495945000000000391e+01 1.820115000000000009e+03
7.599999999999999811e-02 1.420144999999999880e-01 9.799025000000000318e+00 5.841450000000000387e+01 1.821019999999999982e+03
7.699999999999999900e-02 1.421375000000000000e-01 1.143782999999999994e+01 6.214024999999999466e+01 1.822039999999999964e+03
7.799999999999999989e-02 1.422720000000000096e-01 1.318979999999999819e+01 6.606974999999999909e+01 1.823155000000000200e+03
7.900000000000000078e-02 1.424150000000000138e-01 1.502410000000000068e+01 7.013665000000000305e+01 1.824349999999999909e+03
8.000000000000000167e-02 1.425644999999999829e-01 1.691039999999999921e+01 7.427760000000000673e+01 1.825599999999999909e+03
8.100000000000000255e-02 1.427185000000000259e-01 1.881985000000000241e+01 7.843514999999999304e+01 1.826889999999999873e+03
8.200000000000000344e-02 1.428745000000000154e-01 2.072659999999999769e+01 8.256010000000000559e+01 1.828200000000000045e+03
8.300000000000000433e-02 1.430315000000000059e-01 2.260790000000000077e+01 8.661275000000000546e+01 1.829525000000000091e+03
8.400000000000000522e-02 1.431870000000000087e-01 2.444539999999999935e+01 9.056395000000000550e+01 1.830840000000000146e+03
8.500000000000000611e-02 1.433400000000000230e-01 2.622504999999999953e+01 9.439580000000000837e+01 1.832139999999999873e+03
8.600000000000000699e-02 1.434900000000000064e-01 2.793739999999999668e+01 9.810099999999999909e+01 1.833420000000000073e+03
8.700000000000000788e-02 1.436365000000000003e-01 2.957720000000000127e+01 1.016815499999999872e+02 1.834670000000000073e+03
8.800000000000000877e-02 1.437795000000000045e-01 3.114320000000000022e+01 1.051484000000000094e+02 1.835885000000000218e+03
8.899999999999999578e-02 1.439189999999999914e-01 3.263734999999999786e+01 1.085180000000000007e+02 1.837085000000000036e+03
8.999999999999999667e-02 1.440555000000000030e-01 3.406394999999999840e+01 1.118100000000000023e+02 1.838250000000000000e+03
9.099999999999999756e-02 1.441894999999999982e-01 3.542895000000000039e+01 1.150465000000000089e+02 1.839400000000000091e+03
9.199999999999999845e-02 1.443214999999999915e-01 3.673890000000000100e+01 1.182485000000000070e+02 1.840530000000000200e+03
9.299999999999999933e-02 1.444519999999999971e-01 3.800045000000000073e+01 1.214339999999999975e+02 1.841659999999999854e+03
9.400000000000000022e-02 1.445815000000000017e-01 3.921925000000000239e+01 1.246175000000000068e+02 1.842775000000000091e+03
9.500000000000000111e-02 1.447114999999999929e-01 4.039974999999999739e+01 1.278060000000000116e+02 1.843889999999999873e+03
9.600000000000000200e-02 1.448404999999999831e-01 4.154455000000000098e+01 1.310040000000000191e+02 1.845009999999999991e+03
9.700000000000000289e-02 1.449699999999999878e-01 4.265444999999999709e+01 1.342065000000000055e+02 1.846125000000000000e+03
9.800000000000000377e-02 1.450994999999999924e-01 4.372830000000000439e+01 1.374055000000000177e+02 1.847239999999999782e+03
9.900000000000000466e-02 1.452284999999999826e-01 4.476295000000000357e+01 1.405860000000000127e+02 1.848360000000000127e+03
1.000000000000000056e-01 1.453564999999999996e-01 4.575350000000000250e+01 1.437295000000000016e+02 1.849470000000000027e+03
1.010000000000000064e-01 1.454830000000000012e-01 4.669379999999999598e+01 1.468145000000000095e+02 1.850565000000000055e+03
1.020000000000000073e-01 1.456080000000000152e-01 4.757645000000000124e+01 1.498180000000000121e+02 1.851639999999999873e+03
1.030000000000000082e-01 1.457289999999999974e-01 4.839334999999999809e+01 1.527150000000000034e+02 1.852700000000000045e+03
1.040000000000000091e-01 1.458464999999999900e-01 4.913604999999999734e+01 1.554809999999999945e+02 1.853715000000000146e+03
1.050000000000000100e-01 1.459594999999999920e-01 4.979614999999999725e+01 1.580920000000000130e+02 1.854700000000000045e+03
1.059999999999999970e-01 1.460660000000000014e-01 5.036574999999999847e+01 1.605269999999999868e+02 1.855630000000000109e+03
1.069999999999999979e-01 1.461664999999999770e-01 5.083755000000000024e+01 1.627665000000000077e+02 1.856510000000000218e+03
1.079999999999999988e-01 1.462600000000000011e-01 5.120539999999999736e+01 1.647939999999999827e+02 1.857324999999999818e+03
1.089999999999999997e-01 1.463455000000000172e-01 5.146444999999999936e+01 1.665980000000000132e+02 1.858075000000000045e+03
1.100000000000000006e-01 1.464229999999999976e-01 5.161149999999999949e+01 1.681694999999999993e+02 1.858755000000000109e+03
1.110000000000000014e-01 1.464914999999999967e-01 5.164504999999999768e+01 1.695039999999999907e+02 1.859365000000000009e+03
1.120000000000000023e-01 1.465509999999999868e-01 5.156569999999999965e+01 1.706025000000000205e+02 1.859890000000000100e+03
1.130000000000000032e-01 1.466020000000000101e-01 5.137569999999999482e+01 1.714689999999999941e+02 1.860340000000000146e+03
1.140000000000000041e-01 1.466439999999999966e-01 5.107954999999999757e+01 1.721125000000000114e+02 1.860715000000000146e+03
1.150000000000000050e-01 1.466775000000000162e-01 5.068365000000000009e+01 1.725455000000000041e+02 1.861019999999999982e+03
1.160000000000000059e-01 1.467025000000000134e-01 5.019590000000000174e+01 1.727860000000000014e+02 1.861250000000000000e+03
1.170000000000000068e-01 1.467200000000000171e-01 4.962590000000000146e+01 1.728525000000000205e+02 1.861409999999999854e+03
1.180000000000000077e-01 1.467304999999999859e-01 4.898425000000000296e+01 1.727674999999999841e+02 1.861514999999999873e+03
1.190000000000000085e-01 1.467350000000000043e-01 4.828255000000000052e+01 1.725540000000000020e+02 1.861559999999999945e+03
1.200000000000000094e-01 1.467344999999999899e-01 4.753279999999999461e+01 1.722359999999999900e+02 1.861559999999999945e+03
1.209999999999999964e-01 1.467289999999999983e-01 4.674694999999999823e+01 1.718369999999999891e+02 1.861519999999999982e+03
1.219999999999999973e-01 1.467200000000000171e-01 4.593680000000000518e+01 1.713810000000000002e+02 1.861444999999999936e+03
1.229999999999999982e-01 1.467074999999999907e-01 4.511339999999999861e+01 1.708874999999999886e+02 1.861345000000000027e+03
1.239999999999999991e-01 1.466934999999999767e-01 4.428690000000000282e+01 1.703754999999999882e+02 1.861224999999999909e+03
1.250000000000000000e-01 1.466780000000000028e-01 4.346604999999999563e+01 1.698609999999999900e+02 1.861094999999999800e+03
1.260000000000000009e-01 1.466620000000000146e-01 4.265834999999999866e+01 1.693559999999999945e+02 1.860950000000000045e+03
1.270000000000000018e-01 1.466449999999999976e-01 4.186950000000000216e+01 1.688695000000000164e+02 1.860804999999999836e+03
1.280000000000000027e-01 1.466279999999999806e-01 4.110370000000000346e+01 1.684060000000000059e+02 1.860660000000000082e+03
1.290000000000000036e-01 1.466120000000000201e-01 4.036325000000000074e+01 1.679679999999999893e+02 1.860519999999999982e+03
1.300000000000000044e-01 1.465965000000000185e-01 3.964900000000000091e+01 1.675544999999999902e+02 1.860380000000000109e+03
1.310000000000000053e-01 1.465805000000000025e-01 3.896009999999999707e+01 1.671599999999999966e+02 1.860240000000000009e+03
1.320000000000000062e-01 1.465655000000000152e-01 3.829439999999999600e+01 1.667775000000000034e+02 1.860110000000000127e+03
1.330000000000000071e-01 1.465505000000000002e-01 3.764835000000000065e+01 1.663975000000000080e+02 1.859974999999999909e+03
1.340000000000000080e-01 1.465354999999999852e-01 3.701765000000000327e+01 1.660099999999999909e+02 1.859845000000000027e+03
1.350000000000000089e-01 1.465199999999999836e-01 3.639714999999999634e+01 1.656025000000000205e+02 1.859704999999999927e+03
1.360000000000000098e-01 1.465035000000000087e-01 3.578119999999999834e+01 1.651624999999999943e+02 1.859559999999999945e+03
1.370000000000000107e-01 1.464860000000000051e-01 3.516410000000000480e+01 1.646779999999999973e+02 1.859405000000000200e+03
1.380000000000000115e-01 1.464670000000000138e-01 3.454030000000000200e+01 1.641370000000000005e+02 1.859235000000000127e+03
1.390000000000000124e-01 1.464455000000000062e-01 3.390449999999999875e+01 1.635300000000000011e+02 1.859049999999999955e+03
1.400000000000000133e-01 1.464219999999999966e-01 3.325215000000000032e+01 1.628485000000000014e+02 1.858849999999999909e+03
1.410000000000000142e-01 1.463955000000000117e-01 3.257945000000000135e+01 1.620869999999999891e+02 1.858615000000000009e+03
1.420000000000000151e-01 1.463659999999999961e-01 3.188374999999999915e+01 1.612404999999999973e+02 1.858360000000000127e+03
1.430000000000000160e-01 1.463339999999999919e-01 3.116359999999999886e+01 1.603084999999999809e+02 1.858085000000000036e+03
1.440000000000000169e-01 1.462984999999999980e-01 3.041864999999999952e+01 1.592934999999999945e+02 1.857775000000000091e+03
1.450000000000000178e-01 1.462600000000000011e-01 2.965019999999999811e+01 1.581999999999999886e+02 1.857445000000000164e+03
1.459999999999999909e-01 1.462185000000000012e-01 2.886054999999999993e+01 1.570355000000000132e+02 1.857085000000000036e+03
1.469999999999999918e-01 1.461744999999999850e-01 2.805349999999999966e+01 1.558109999999999786e+02 1.856704999999999927e+03
1.479999999999999927e-01 1.461280000000000079e-01 2.723375000000000057e+01 1.545384999999999991e+02 1.856304999999999836e+03
1.489999999999999936e-01 1.460795000000000010e-01 2.640729999999999933e+01 1.532330000000000041e+02 1.855889999999999873e+03
1.499999999999999944e-01 1.460299999999999931e-01 2.558064999999999856e+01 1.519099999999999966e+02 1.855460000000000036e+03
1.509999999999999953e-01 1.459795000000000120e-01 2.476100000000000279e+01 1.505869999999999891e+02 1.855019999999999982e+03
1.519999999999999962e-01 1.459285000000000165e-01 2.395595000000000141e+01 1.492805000000000177e+02 1.854579999999999927e+03
1.529999999999999971e-01 1.458780000000000077e-01 2.317280000000000229e+01 1.480074999999999932e+02 1.854144999999999982e+03
1.539999999999999980e-01 1.458284999999999998e-01 2.241894999999999882e+01 1.467844999999999800e+02 1.853720000000000027e+03
1.549999999999999989e-01 1.457804999999999795e-01 2.170110000000000028e+01 1.456250000000000000e+02 1.853299999999999955e+03
1.559999999999999998e-01 1.457350000000000034e-01 2.102534999999999954e+01 1.445420000000000016e+02 1.852905000000000200e+03
1.570000000000000007e-01 1.456919999999999882e-01 2.039679999999999893e+01 1.435469999999999970e+02 1.852525000000000091e+03
1.580000000000000016e-01 1.456510000000000027e-01 1.981954999999999956e+01 1.426460000000000150e+02 1.852174999999999955e+03
1.590000000000000024e-01 1.456145000000000078e-01 1.929635000000000034e+01 1.418455000000000155e+02 1.851855000000000018e+03
