# t [s], A [cm^2], U [cm/s], P [cPa], c [cm/s]
1.000000000000000021e-03 1.903805000000000081e-01 3.035680000000000045e-01 1.027415000000000020e+02 2.134059999999999945e+03
2.000000000000000042e-03 1.903294999999999848e-01 1.872527499999999900e+00 9.928174999999998818e+01 2.133650000000000091e+03
3.000000000000000062e-03 1.901889999999999969e-01 3.827575500000000019e+00 9.444800000000000750e+01 2.132585000000000036e+03
4.000000000000000083e-03 1.899965000000000126e-01 6.034857000000000582e+00 8.915819999999999368e+01 2.131139999999999873e+03
5.000000000000000104e-03 1.897900000000000142e-01 8.411970000000000169e+00 8.439419999999999789e+01 2.129595000000000255e+03
6.000000000000000125e-03 1.895904999999999951e-01 1.076285500000000184e+01 8.047569999999998913e+01 2.128130000000000109e+03
7.000000000000000146e-03 1.894045000000000034e-01 1.285362999999999900e+01 7.712715000000000032e+01 2.126789999999999964e+03
8.000000000000000167e-03 1.892334999999999989e-01 1.460175499999999893e+01 7.411475000000000080e+01 2.125579999999999927e+03
9.000000000000001055e-03 1.890850000000000031e-01 1.605055000000000121e+01 7.151385000000000502e+01 2.124539999999999964e+03
1.000000000000000194e-02 1.889595000000000025e-01 1.723704999999999998e+01 6.940619999999999834e+01 2.123675000000000182e+03
1.099999999999999936e-02 1.888579999999999981e-01 1.817974999999999852e+01 6.776484999999999559e+01 2.122985000000000127e+03
1.200000000000000025e-02 1.887785000000000157e-01 1.889345000000000141e+01 6.651529999999999632e+01 2.122445000000000164e+03
1.300000000000000114e-02 1.887154999999999805e-01 1.938065000000000282e+01 6.553185000000000571e+01 2.122034999999999854e+03
1.400000000000000203e-02 1.886645000000000127e-01 1.965854999999999819e+01 6.468630000000000280e+01 2.121704999999999927e+03
1.499999999999999944e-02 1.886240000000000139e-01 1.981109999999999971e+01 6.401135000000000730e+01 2.121449999999999818e+03
1.600000000000000033e-02 1.885999999999999899e-01 1.999244999999999806e+01 6.378739999999999810e+01 2.121305000000000291e+03
1.700000000000000122e-02 1.886030000000000206e-01 2.035784999999999911e+01 6.440630000000000166e+01 2.121335000000000036e+03
1.800000000000000211e-02 1.886410000000000031e-01 2.097704999999999842e+01 6.610269999999999868e+01 2.121599999999999909e+03
1.900000000000000300e-02 1.887130000000000196e-01 2.179230000000000089e+01 6.875669999999999504e+01 2.122100000000000364e+03
2.000000000000000042e-02 1.888084999999999902e-01 2.264379999999999882e+01 7.189180000000000348e+01 2.122765000000000327e+03
2.100000000000000130e-02 1.889109999999999956e-01 2.333820000000000050e+01 7.484969999999999857e+01 2.123489999999999782e+03
2.200000000000000219e-02 1.890005000000000157e-01 2.372424999999999784e+01 7.703549999999999898e+01 2.124135000000000218e+03
2.299999999999999961e-02 1.890645000000000242e-01 2.374159999999999826e+01 7.811684999999999945e+01 2.124605000000000018e+03
2.400000000000000050e-02 1.890959999999999863e-01 2.342875000000000085e+01 7.810314999999999941e+01 2.124849999999999909e+03
2.500000000000000139e-02 1.890985000000000027e-01 2.289359999999999928e+01 7.728925000000000978e+01 2.124894999999999982e+03
2.600000000000000228e-02 1.890820000000000001e-01 2.226254999999999740e+01 7.610374999999999091e+01 2.124795000000000073e+03
2.700000000000000316e-02 1.890560000000000018e-01 2.163244999999999862e+01 7.493440000000001078e+01 2.124619999999999891e+03
2.800000000000000058e-02 1.890295000000000170e-01 2.104295000000000115e+01 7.400064999999999316e+01 2.124440000000000055e+03
2.900000000000000147e-02 1.890060000000000073e-01 2.047525000000000261e+01 7.331220000000000425e+01 2.124275000000000091e+03
3.000000000000000236e-02 1.889844999999999997e-01 1.987369999999999948e+01 7.271240000000000236e+01 2.124119999999999891e+03
3.099999999999999978e-02 1.889589999999999881e-01 1.917835000000000178e+01 7.197794999999999277e+01 2.123944999999999709e+03
3.200000000000000067e-02 1.889259999999999828e-01 1.835709999999999908e+01 7.093189999999999884e+01 2.123720000000000255e+03
3.300000000000000155e-02 1.888819999999999943e-01 1.742614999999999981e+01 6.953235000000000809e+01 2.123420000000000073e+03
3.400000000000000244e-02 1.888289999999999969e-01 1.645325000000000060e+01 6.790794999999999959e+01 2.123055000000000291e+03
3.500000000000000333e-02 1.887734999999999830e-01 1.554230000000000089e+01 6.633095000000000141e+01 2.122670000000000073e+03
3.600000000000000422e-02 1.887250000000000039e-01 1.480574999999999974e+01 6.513890000000000668e+01 2.122324999999999818e+03
3.700000000000000511e-02 1.886924999999999852e-01 1.433319999999999972e+01 6.463275000000000148e+01 2.122090000000000146e+03
3.799999999999999906e-02 1.886849999999999916e-01 1.416675000000000040e+01 6.498645000000000493e+01 2.122019999999999982e+03
3.899999999999999994e-02 1.887044999999999972e-01 1.429080000000000084e+01 6.619534999999999059e+01 2.122140000000000327e+03
4.000000000000000083e-02 1.887490000000000001e-01 1.463615000000000066e+01 6.807550000000000523e+01 2.122434999999999945e+03
4.100000000000000172e-02 1.888119999999999798e-01 1.509670000000000023e+01 7.030725000000001046e+01 2.122855000000000018e+03
4.200000000000000261e-02 1.888829999999999953e-01 1.555109999999999992e+01 7.250639999999999930e+01 2.123345000000000255e+03
4.300000000000000350e-02 1.889500000000000068e-01 1.588540000000000063e+01 7.430150000000000432e+01 2.123815000000000055e+03
4.400000000000000439e-02 1.890020000000000033e-01 1.600969999999999871e+01 7.539724999999999966e+01 2.124179999999999836e+03
4.499999999999999833e-02 1.890304999999999902e-01 1.586785000000000068e+01 7.561394999999998845e+01 2.124394999999999982e+03
4.599999999999999922e-02 1.890310000000000046e-01 1.543934999999999924e+01 7.489789999999999281e+01 2.124409999999999854e+03
4.700000000000000011e-02 1.890014999999999890e-01 1.473404999999999987e+01 7.330634999999999479e+01 2.124215000000000146e+03
4.800000000000000100e-02 1.889434999999999865e-01 1.378399999999999892e+01 7.097575000000000500e+01 2.123824999999999818e+03
4.900000000000000189e-02 1.888615000000000155e-01 1.263349999999999973e+01 6.808395000000000152e+01 2.123264999999999873e+03
5.000000000000000278e-02 1.887599999999999834e-01 1.133131000000000022e+01 6.481629999999999825e+01 2.122559999999999945e+03
5.100000000000000366e-02 1.886454999999999937e-01 9.925254999999999939e+00 6.134205000000000041e+01 2.121764999999999873e+03
5.200000000000000455e-02 1.885219999999999951e-01 8.460214999999999819e+00 5.780349999999999966e+01 2.120899999999999636e+03
5.300000000000000544e-02 1.883949999999999791e-01 6.978275000000000006e+00 5.431634999999999991e+01 2.120015000000000327e+03
5.399999999999999939e-02 1.882685000000000053e-01 5.520639999999999326e+00 5.097735000000000127e+01 2.119125000000000000e+03
5.500000000000000028e-02 1.881460000000000077e-01 4.129395999999999844e+00 4.787470000000000425e+01 2.118260000000000218e+03
5.600000000000000117e-02 1.880310000000000037e-01 2.848546499999999870e+00 4.509645000000000437e+01 2.117454999999999927e+03
5.700000000000000205e-02 1.879279999999999839e-01 1.723787000000000180e+00 4.273505000000000109e+01 2.116725000000000364e+03
5.800000000000000294e-02 1.878400000000000070e-01 8.008450000000001401e-01 4.088684999999999548e+01 2.116099999999999909e+03
5.900000000000000383e-02 1.877710000000000212e-01 1.227150000000000185e-01 3.964574999999999960e+01 2.115605000000000018e+03
6.000000000000000472e-02 1.877245000000000164e-01 -2.736199999999999743e-01 3.909539999999999793e+01 2.115260000000000218e+03
6.099999999999999867e-02 1.877030000000000087e-01 -3.604344999999999910e-01 3.929899999999999949e+01 2.115090000000000146e+03
6.199999999999999956e-02 1.877090000000000147e-01 -1.217989999999999906e-01 4.029160000000000252e+01 2.115110000000000127e+03
6.300000000000000044e-02 1.877435000000000076e-01 4.449370000000000269e-01 4.207450000000000045e+01 2.115335000000000036e+03
6.400000000000000133e-02 1.878064999999999873e-01 1.328855000000000119e+00 4.461379999999999768e+01 2.115750000000000000e+03
6.500000000000000222e-02 1.878965000000000218e-01 2.506341500000000000e+00 4.784244999999999948e+01 2.116364999999999782e+03
6.600000000000000311e-02 1.880120000000000124e-01 3.942886500000000183e+00 5.166554999999999609e+01 2.117150000000000091e+03
6.700000000000000400e-02 1.881490000000000107e-01 5.595534999999999926e+00 5.596760000000000446e+01 2.118090000000000146e+03
6.800000000000000488e-02 1.883035000000000125e-01 7.415684999999999860e+00 6.062115000000000009e+01 2.119164999999999964e+03
6.900000000000000577e-02 1.884720000000000006e-01 9.352180000000000604e+00 6.549545000000000528e+01 2.120329999999999927e+03
7.000000000000000666e-02 1.886484999999999967e-01 1.135398499999999977e+01 7.046450000000000102e+01 2.121569999999999709e+03
7.100000000000000755e-02 1.888305000000000122e-01 1.337323499999999932e+01 7.541499999999999204e+01 2.122845000000000255e+03
7.200000000000000844e-02 1.890125000000000000e-01 1.536744999999999983e+01 8.025185000000000457e+01 2.124130000000000109e+03
7.300000000000000933e-02 1.891924999999999857e-01 1.730134999999999934e+01 8.490330000000000155e+01 2.125399999999999636e+03
7.399999999999999634e-02 1.893674999999999942e-01 1.914860000000000184e+01 8.932284999999998831e+01 2.126639999999999873e+03
7.499999999999999722e-02 1.895350000000000090e-01 2.089180000000000348e+01 9.349014999999999986e+01 2.127835000000000036e+03
7.599999999999999811e-02 1.896955000000000169e-01 2.252260000000000062e+01 9.740890000000000271e+01 2.128974999999999909e+03
7.699999999999999900e-02 1.898480000000000167e-01 2.404074999999999918e+01 1.011033000000000044e+02 2.130065000000000055e+03
7.799999999999999989e-02 1.899939999999999962e-01 2.545260000000000034e+01 1.046121499999999997e+02 2.131114999999999782e+03
7.900000000000000078e-02 1.901335000000000108e-01 2.676899999999999835e+01 1.079830000000000041e+02 2.132114999999999782e+03
8.000000000000000167e-02 1.902689999999999937e-01 2.800359999999999872e+01 1.112660000000000053e+02 2.133085000000000036e+03
8.100000000000000255e-02 1.904009999999999869e-01 2.917074999999999818e+01 1.145074999999999932e+02 2.134039999999999964e+03
8.200000000000000344e-02 1.905320000000000069e-01 3.028379999999999939e+01 1.177454999999999927e+02 2.134980000000000018e+03
8.300000000000000433e-02 1.906629999999999991e-01 3.135369999999999990e+01 1.210080000000000098e+02 2.135920000000000073e+03
8.400000000000000522e-02 1.907940000000000191e-01 3.238830000000000098e+01 1.243070000000000022e+02 2.136864999999999782e+03
8.500000000000000611e-02 1.909254999999999980e-01 3.339154999999999518e+01 1.276440000000000055e+02 2.137809999999999945e+03
8.600000000000000699e-02 1.910585000000000200e-01 3.436369999999999436e+01 1.310054999999999836e+02 2.138769999999999982e+03
8.700000000000000788e-02 1.911920000000000008e-01 3.530114999999999981e+01 1.343695000000000164e+02 2.139724999999999909e+03
8.800000000000000877e-02 1.913245000000000084e-01 3.619724999999999682e+01 1.377030000000000030e+02 2.140675000000000182e+03
8.899999999999999578e-02 1.914555000000000007e-01 3.704250000000000398e+01 1.409680000000000177e+02 2.141619999999999891e+03
8.999999999999999667e-02 1.915840000000000043e-01 3.782569999999999766e+01 1.441239999999999952e+02 2.142545000000000073e+03
9.099999999999999756e-02 1.917074999999999751e-01 3.853409999999999513e+01 1.471260000000000048e+02 2.143439999999999600e+03
9.199999999999999845e-02 1.918254999999999821e-01 3.915479999999999450e+01 1.499339999999999975e+02 2.144289999999999964e+03
9.299999999999999933e-02 1.919359999999999955e-01 3.967494999999999550e+01 1.525074999999999932e+02 2.145090000000000146e+03
9.400000000000000022e-02 1.920374999999999999e-01 4.008290000000000219e+01 1.548125000000000000e+02 2.145829999999999927e+03
9.500000000000000111e-02 1.921289999999999942e-01 4.036865000000000236e+01 1.568209999999999980e+02 2.146494999999999891e+03
9.600000000000000200e-02 1.922099999999999920e-01 4.052469999999999573e+01 1.585115000000000123e+02 2.147079999999999927e+03
9.700000000000000289e-02 1.922789999999999777e-01 4.054639999999999844e+01 1.598709999999999809e+02 2.147590000000000146e+03
9.800000000000000377e-02 1.923350000000000060e-01 4.043254999999999910e+01 1.608969999999999914e+02 2.148005000000000109e+03
9.900000000000000466e-02 1.923795000000000088e-01 4.018549999999999756e+01 1.615949999999999989e+02 2.148335000000000036e+03
1.000000000000000056e-01 1.924119999999999997e-01 3.981130000000000280e+01 1.619809999999999945e+02 2.148574999999999818e+03
1.010000000000000064e-01 1.924325000000000063e-01 3.931929999999999836e+01 1.620799999999999841e+02 2.148735000000000127e+03
1.020000000000000073e-01 1.924420000000000019e-01 3.872209999999999752e+01 1.619220000000000255e+02 2.148815000000000055e+03
1.030000000000000082e-01 1.924420000000000019e-01 3.803470000000000084e+01 1.615455000000000041e+02 2.148824999999999818e+03
1.040000000000000091e-01 1.924335000000000073e-01 3.727389999999999759e+01 1.609909999999999854e+02 2.148775000000000091e+03
1.050000000000000100e-01 1.924180000000000057e-01 3.645749999999999602e+01 1.603015000000000043e+02 2.148670000000000073e+03
1.059999999999999970e-01 1.923980000000000135e-01 3.560354999999999848e+01 1.595194999999999936e+02 2.148529999999999745e+03
1.069999999999999979e-01 1.923734999999999751e-01 3.472950000000000159e+01 1.586845000000000141e+02 2.148355000000000018e+03
1.079999999999999988e-01 1.923460000000000170e-01 3.385155000000000314e+01 1.578319999999999936e+02 2.148164999999999964e+03
1.089999999999999997e-01 1.923179999999999890e-01 3.298395000000000010e+01 1.569929999999999950e+02 2.147965000000000146e+03
1.100000000000000006e-01 1.922889999999999877e-01 3.213855000000000217e+01 1.561904999999999859e+02 2.147755000000000109e+03
1.110000000000000014e-01 1.922610000000000152e-01 3.132469999999999999e+01 1.554415000000000191e+02 2.147555000000000291e+03
1.120000000000000023e-01 1.922345000000000026e-01 3.054849999999999710e+01 1.547560000000000002e+02 2.147360000000000127e+03
1.130000000000000032e-01 1.922095000000000053e-01 2.981325000000000003e+01 1.541349999999999909e+02 2.147180000000000291e+03
1.140000000000000041e-01 1.921865000000000101e-01 2.911899999999999977e+01 1.535745000000000005e+02 2.147014999999999873e+03
1.150000000000000050e-01 1.921650000000000025e-01 2.846330000000000027e+01 1.530620000000000118e+02 2.146855000000000018e+03
1.160000000000000059e-01 1.921450000000000102e-01 2.784094999999999942e+01 1.525819999999999936e+02 2.146710000000000036e+03
1.170000000000000068e-01 1.921259999999999912e-01 2.724474999999999980e+01 1.521129999999999995e+02 2.146564999999999600e+03
1.180000000000000077e-01 1.921065000000000134e-01 2.666615000000000180e+01 1.516310000000000002e+02 2.146425000000000182e+03
1.190000000000000085e-01 1.920864999999999934e-01 2.609544999999999959e+01 1.511114999999999782e+02 2.146275000000000091e+03
1.200000000000000094e-01 1.920644999999999991e-01 2.552255000000000251e+01 1.505289999999999964e+02 2.146119999999999891e+03
1.209999999999999964e-01 1.920410000000000172e-01 2.493784999999999741e+01 1.498609999999999900e+02 2.145949999999999818e+03
1.219999999999999973e-01 1.920140000000000180e-01 2.433245000000000147e+01 1.490869999999999891e+02 2.145750000000000000e+03
1.229999999999999982e-01 1.919825000000000004e-01 2.369915000000000305e+01 1.481915000000000191e+02 2.145529999999999745e+03
1.239999999999999991e-01 1.919474999999999931e-01 2.303239999999999910e+01 1.471645000000000039e+02 2.145275000000000091e+03
1.250000000000000000e-01 1.919069999999999943e-01 2.232914999999999850e+01 1.460020000000000095e+02 2.144984999999999673e+03
1.260000000000000009e-01 1.918624999999999914e-01 2.158885000000000076e+01 1.447074999999999818e+02 2.144670000000000073e+03
1.270000000000000018e-01 1.918130000000000113e-01 2.081349999999999767e+01 1.432895000000000039e+02 2.144315000000000055e+03
1.280000000000000027e-01 1.917584999999999984e-01 2.000789999999999935e+01 1.417655000000000030e+02 2.143930000000000291e+03
1.290000000000000036e-01 1.917004999999999959e-01 1.917900000000000205e+01 1.401560000000000059e+02 2.143515000000000327e+03
1.300000000000000044e-01 1.916394999999999904e-01 1.833614999999999995e+01 1.384884999999999877e+02 2.143079999999999927e+03
1.310000000000000053e-01 1.915764999999999829e-01 1.749005000000000010e+01 1.367934999999999945e+02 2.142630000000000109e+03
1.320000000000000062e-01 1.915125000000000022e-01 1.665259999999999962e+01 1.351025000000000205e+02 2.142175000000000182e+03
1.330000000000000071e-01 1.914490000000000081e-01 1.583619999999999983e+01 1.334484999999999957e+02 2.141710000000000036e+03
1.340000000000000080e-01 1.913860000000000006e-01 1.505320000000000036e+01 1.318634999999999877e+02 2.141265000000000327e+03
1.350000000000000089e-01 1.913259999999999961e-01 1.431514999999999915e+01 1.303760000000000048e+02 2.140829999999999927e+03
1.360000000000000098e-01 1.912694999999999812e-01 1.363224999999999909e+01 1.290104999999999791e+02 2.140425000000000182e+03
1.370000000000000107e-01 1.912169999999999981e-01 1.301319999999999943e+01 1.277874999999999943e+02 2.140045000000000073e+03
1.380000000000000115e-01 1.911694999999999922e-01 1.246464999999999890e+01 1.267210000000000036e+02 2.139699999999999818e+03
1.390000000000000124e-01 1.911275000000000057e-01 1.199085000000000001e+01 1.258200000000000074e+02 2.139395000000000437e+03
1.400000000000000133e-01 1.910914999999999975e-01 1.159384999999999977e+01 1.250869999999999891e+02 2.139130000000000109e+03
1.410000000000000142e-01 1.910614999999999952e-01 1.127341999999999977e+01 1.245180000000000007e+02 2.138909999999999854e+03
1.420000000000000151e-01 1.910374999999999990e-01 1.102720000000000056e+01 1.241059999999999945e+02 2.138734999999999673e+03
1.430000000000000160e-01 1.910189999999999944e-01 1.085094499999999940e+01 1.238379999999999939e+02 2.138595000000000255e+03
1.440000000000000169e-01 1.910060000000000091e-01 1.073888499999999979e+01 1.236980000000000075e+02 2.138494999999999891e+03
1.450000000000000178e-01 1.909974999999999867e-01 1.068397500000000022e+01 1.236689999999999969e+02 2.138430000000000291e+03
1.459999999999999909e-01 1.909939999999999971e-01 1.067832999999999899e+01 1.237315000000000111e+02 2.138400000000000091e+03
1.469999999999999918e-01 1.909929999999999961e-01 1.071349999999999980e+01 1.238654999999999973e+02 2.138385000000000218e+03
1.479999999999999927e-01 1.909954999999999847e-01 1.078105000000000047e+01 1.240525000000000091e+02 2.138400000000000091e+03
1.489999999999999936e-01 1.909994999999999887e-01 1.087245000000000061e+01 1.242740000000000009e+02 2.138425000000000182e+03
1.499999999999999944e-01 1.910054999999999947e-01 1.097970000000000113e+01 1.245134999999999934e+02 2.138465000000000146e+03
1.509999999999999953e-01 1.910125000000000017e-01 1.109550000000000125e+01 1.247560000000000002e+02 2.138515000000000327e+03
1.519999999999999962e-01 1.910199999999999954e-01 1.121325000000000038e+01 1.249894999999999925e+02 2.138559999999999945e+03
1.529999999999999971e-01 1.910275000000000167e-01 1.132744999999999891e+01 1.252040000000000077e+02 2.138614999999999782e+03
1.539999999999999980e-01 1.910340000000000094e-01 1.143359999999999843e+01 1.253925000000000125e+02 2.138659999999999854e+03
1.549999999999999989e-01 1.910405000000000020e-01 1.152820000000000000e+01 1.255504999999999995e+02 2.138704999999999927e+03
1.559999999999999998e-01 1.910454999999999792e-01 1.160904999999999987e+01 1.256754999999999995e+02 2.138744999999999891e+03
1.570000000000000007e-01 1.910494999999999832e-01 1.167484999999999928e+01 1.257674999999999983e+02 2.138779999999999745e+03
1.580000000000000016e-01 1.910530000000000006e-01 1.172544999999999860e+01 1.258284999999999911e+02 2.138800000000000182e+03
1.590000000000000024e-01 1.910554999999999892e-01 1.176144999999999996e+01 1.258624999999999972e+02 2.138815000000000055e+03
