# t [s], A [cm^2], U [cm/s], P [cPa], c [cm/s]
1.000000000000000021e-03 1.406344999999999956e-01 4.473930000000000407e-01 9.625919999999999277e+01 1.809289999999999964e+03
2.000000000000000042e-03 1.406040000000000068e-01 2.125429500000000083e+00 9.290834999999999866e+01 1.808970000000000027e+03
3.000000000000000062e-03 1.405029999999999890e-01 4.111526500000000084e+00 8.866999999999998749e+01 1.807954999999999927e+03
4.000000000000000083e-03 1.403564999999999952e-01 6.286698499999999967e+00 8.422200000000000841e+01 1.806509999999999991e+03
5.000000000000000104e-03 1.401914999999999967e-01 8.589644999999999087e+00 8.028565000000000396e+01 1.804884999999999991e+03
6.000000000000000125e-03 1.400259999999999838e-01 1.088260500000000164e+01 7.709040000000000248e+01 1.803275000000000091e+03
7.000000000000000146e-03 1.398675000000000057e-01 1.299887999999999977e+01 7.444904999999999973e+01 1.801750000000000000e+03
8.000000000000000167e-03 1.397180000000000089e-01 1.485129500000000036e+01 7.212484999999999502e+01 1.800335000000000036e+03
9.000000000000001055e-03 1.395810000000000106e-01 1.645100000000000051e+01 7.007294999999999163e+01 1.799054999999999836e+03
1.000000000000000194e-02 1.394595000000000140e-01 1.782965000000000089e+01 6.833674999999999500e+01 1.797930000000000064e+03
1.099999999999999936e-02 1.393544999999999923e-01 1.899905000000000044e+01 6.690290000000000248e+01 1.796970000000000027e+03
1.200000000000000025e-02 1.392645000000000133e-01 1.996605000000000274e+01 6.571585000000000321e+01 1.796154999999999973e+03
1.300000000000000114e-02 1.391884999999999928e-01 2.074130000000000251e+01 6.472169999999999845e+01 1.795474999999999909e+03
1.400000000000000203e-02 1.391240000000000254e-01 2.133520000000000039e+01 6.386655000000000371e+01 1.794904999999999973e+03
1.499999999999999944e-02 1.390695000000000126e-01 2.176849999999999952e+01 6.311029999999999518e+01 1.794429999999999836e+03
1.600000000000000033e-02 1.390234999999999943e-01 2.209179999999999922e+01 6.248114999999999952e+01 1.794034999999999854e+03
1.700000000000000122e-02 1.389874999999999861e-01 2.239034999999999798e+01 6.211220000000000141e+01 1.793730000000000018e+03
1.800000000000000211e-02 1.389664999999999928e-01 2.275939999999999941e+01 6.220275000000000176e+01 1.793559999999999945e+03
1.900000000000000300e-02 1.389644999999999908e-01 2.326464999999999961e+01 6.291655000000000086e+01 1.793559999999999945e+03
2.000000000000000042e-02 1.389854999999999841e-01 2.391254999999999953e+01 6.428130000000000166e+01 1.793755000000000109e+03
2.100000000000000130e-02 1.390270000000000117e-01 2.464560000000000173e+01 6.614645000000000152e+01 1.794139999999999873e+03
2.200000000000000219e-02 1.390839999999999854e-01 2.536229999999999762e+01 6.821659999999999968e+01 1.794664999999999964e+03
2.299999999999999961e-02 1.391469999999999929e-01 2.595064999999999955e+01 7.013840000000000430e+01 1.795255000000000109e+03
2.400000000000000050e-02 1.392070000000000252e-01 2.632075000000000031e+01 7.160165000000000646e+01 1.795824999999999818e+03
2.500000000000000139e-02 1.392565000000000053e-01 2.642750000000000199e+01 7.241825000000000045e+01 1.796289999999999964e+03
2.600000000000000228e-02 1.392889999999999961e-01 2.627665000000000006e+01 7.255695000000000050e+01 1.796615000000000009e+03
2.700000000000000316e-02 1.393035000000000245e-01 2.591530000000000200e+01 7.212829999999999586e+01 1.796775000000000091e+03
2.800000000000000058e-02 1.393030000000000102e-01 2.541300000000000026e+01 7.133254999999999768e+01 1.796785000000000082e+03
2.900000000000000147e-02 1.392915000000000125e-01 2.483964999999999890e+01 7.039105000000000700e+01 1.796694999999999936e+03
3.000000000000000236e-02 1.392734999999999945e-01 2.424824999999999875e+01 6.948449999999999704e+01 1.796545000000000073e+03
3.099999999999999978e-02 1.392539999999999889e-01 2.366604999999999848e+01 6.871559999999999491e+01 1.796369999999999891e+03
3.200000000000000067e-02 1.392349999999999977e-01 2.309544999999999959e+01 6.810155000000000314e+01 1.796195000000000164e+03
3.300000000000000155e-02 1.392169999999999797e-01 2.252199999999999847e+01 6.759309999999999263e+01 1.796039999999999964e+03
3.400000000000000244e-02 1.391999999999999904e-01 2.192595000000000027e+01 6.710900000000000887e+01 1.795884999999999991e+03
3.500000000000000333e-02 1.391820000000000002e-01 2.129410000000000025e+01 6.657415000000000305e+01 1.795719999999999800e+03
3.600000000000000422e-02 1.391614999999999935e-01 2.062765000000000271e+01 6.595059999999999434e+01 1.795539999999999964e+03
3.700000000000000511e-02 1.391384999999999983e-01 1.994599999999999795e+01 6.525395000000000323e+01 1.795335000000000036e+03
3.799999999999999906e-02 1.391139999999999877e-01 1.928460000000000107e+01 6.455325000000000557e+01 1.795110000000000127e+03
3.899999999999999994e-02 1.390905000000000058e-01 1.868815000000000026e+01 6.395510000000000161e+01 1.794894999999999982e+03
4.000000000000000083e-02 1.390704999999999858e-01 1.820109999999999673e+01 6.357720000000000482e+01 1.794714999999999918e+03
4.100000000000000172e-02 1.390575000000000006e-01 1.785804999999999865e+01 6.351859999999999928e+01 1.794595000000000027e+03
4.200000000000000261e-02 1.390549999999999842e-01 1.767514999999999858e+01 6.383415000000000106e+01 1.794559999999999945e+03
4.300000000000000350e-02 1.390629999999999922e-01 1.764645000000000152e+01 6.451860000000000639e+01 1.794630000000000109e+03
4.400000000000000439e-02 1.390834999999999988e-01 1.774394999999999811e+01 6.550419999999999732e+01 1.794804999999999836e+03
4.499999999999999833e-02 1.391120000000000134e-01 1.792105000000000103e+01 6.667005000000000337e+01 1.795059999999999945e+03
4.599999999999999922e-02 1.391470000000000207e-01 1.811995000000000289e+01 6.786090000000000089e+01 1.795375000000000000e+03
4.700000000000000011e-02 1.391840000000000022e-01 1.827904999999999802e+01 6.891094999999999970e+01 1.795704999999999927e+03
4.800000000000000100e-02 1.392170000000000074e-01 1.834104999999999919e+01 6.966649999999999920e+01 1.796005000000000109e+03
4.900000000000000189e-02 1.392419999999999769e-01 1.825865000000000293e+01 7.000495000000000800e+01 1.796235000000000127e+03
5.000000000000000278e-02 1.392550000000000177e-01 1.799880000000000280e+01 6.984704999999999586e+01 1.796360000000000127e+03
5.100000000000000366e-02 1.392534999999999745e-01 1.754415000000000191e+01 6.916055000000000064e+01 1.796349999999999909e+03
5.200000000000000455e-02 1.392349999999999977e-01 1.689260000000000161e+01 6.795824999999999250e+01 1.796180000000000064e+03
5.300000000000000544e-02 1.391994999999999760e-01 1.605534999999999712e+01 6.629000000000000625e+01 1.795860000000000127e+03
5.399999999999999939e-02 1.391479999999999939e-01 1.505395000000000039e+01 6.423234999999999673e+01 1.795400000000000091e+03
5.500000000000000028e-02 1.390824999999999978e-01 1.391734999999999900e+01 6.187760000000000105e+01 1.794800000000000182e+03
5.600000000000000117e-02 1.390049999999999897e-01 1.267919000000000018e+01 5.932415000000000305e+01 1.794095000000000027e+03
5.700000000000000205e-02 1.389185000000000003e-01 1.137564500000000045e+01 5.666955000000000098e+01 1.793309999999999945e+03
5.800000000000000294e-02 1.388260000000000050e-01 1.004377500000000012e+01 5.400610000000000355e+01 1.792470000000000027e+03
5.900000000000000383e-02 1.387309999999999932e-01 8.720895000000000508e+00 5.141884999999999906e+01 1.791599999999999909e+03
6.000000000000000472e-02 1.386364999999999958e-01 7.443730000000000402e+00 4.898555000000000348e+01 1.790735000000000127e+03
6.099999999999999867e-02 1.385445000000000149e-01 6.248295000000000599e+00 4.677750000000000341e+01 1.789900000000000091e+03
6.199999999999999956e-02 1.384589999999999987e-01 5.169375000000000497e+00 4.486025000000000063e+01 1.789110000000000127e+03
6.300000000000000044e-02 1.383820000000000050e-01 4.240009999999999835e+00 4.329410000000000025e+01 1.788400000000000091e+03
6.400000000000000133e-02 1.383159999999999945e-01 3.490695000000000103e+00 4.213369999999999749e+01 1.787789999999999964e+03
6.500000000000000222e-02 1.382629999999999970e-01 2.948444999999999983e+00 4.142640000000000100e+01 1.787295000000000073e+03
6.600000000000000311e-02 1.382255000000000011e-01 2.635660000000000114e+00 4.121074999999999733e+01 1.786945000000000164e+03
6.700000000000000400e-02 1.382045000000000079e-01 2.569099999999999717e+00 4.151385000000000502e+01 1.786739999999999782e+03
6.800000000000000488e-02 1.382025000000000059e-01 2.758905000000000385e+00 4.234955000000000069e+01 1.786700000000000045e+03
6.900000000000000577e-02 1.382190000000000085e-01 3.207989999999999675e+00 4.371640000000000015e+01 1.786839999999999918e+03
7.000000000000000666e-02 1.382545000000000024e-01 3.911730000000000373e+00 4.559744999999999493e+01 1.787150000000000091e+03
7.100000000000000755e-02 1.383094999999999741e-01 4.858140000000000569e+00 4.796009999999999707e+01 1.787634999999999991e+03
7.200000000000000844e-02 1.383830000000000060e-01 6.028439999999999799e+00 5.075785000000000480e+01 1.788289999999999964e+03
7.300000000000000933e-02 1.384734999999999994e-01 7.398004999999999498e+00 5.393234999999999957e+01 1.789099999999999909e+03
7.399999999999999634e-02 1.385790000000000077e-01 8.937590000000000146e+00 5.741684999999999661e+01 1.790054999999999836e+03
7.499999999999999722e-02 1.386975000000000013e-01 1.061466500000000046e+01 6.113919999999999533e+01 1.791130000000000109e+03
7.599999999999999811e-02 1.388274999999999926e-01 1.239504499999999965e+01 6.502590000000000714e+01 1.792304999999999836e+03
7.699999999999999900e-02 1.389650000000000052e-01 1.424424999999999919e+01 6.900534999999999286e+01 1.793565000000000055e+03
7.799999999999999989e-02 1.391089999999999827e-01 1.612880000000000180e+01 7.301099999999999568e+01 1.794880000000000109e+03
7.900000000000000078e-02 1.392565000000000053e-01 1.801770000000000138e+01 7.698390000000000555e+01 1.796235000000000127e+03
8.000000000000000167e-02 1.394050000000000011e-01 1.988309999999999889e+01 8.087465000000000259e+01 1.797605000000000018e+03
8.100000000000000255e-02 1.395529999999999826e-01 2.170139999999999958e+01 8.464484999999999104e+01 1.798974999999999909e+03
8.200000000000000344e-02 1.396989999999999899e-01 2.345364999999999966e+01 8.826770000000000493e+01 1.800325000000000045e+03
8.300000000000000433e-02 1.398409999999999931e-01 2.512604999999999933e+01 9.172830000000000439e+01 1.801650000000000091e+03
8.400000000000000522e-02 1.399795000000000067e-01 2.670980000000000132e+01 9.502285000000000537e+01 1.802934999999999945e+03
8.500000000000000611e-02 1.401129999999999876e-01 2.820100000000000051e+01 9.815789999999999793e+01 1.804184999999999945e+03
8.600000000000000699e-02 1.402415000000000189e-01 2.960034999999999883e+01 1.011483000000000061e+02 1.805389999999999873e+03
8.700000000000000788e-02 1.403654999999999764e-01 3.091219999999999857e+01 1.040165499999999952e+02 1.806550000000000182e+03
8.800000000000000877e-02 1.404849999999999988e-01 3.214419999999999789e+01 1.067879999999999967e+02 1.807680000000000064e+03
8.899999999999999578e-02 1.406014999999999904e-01 3.330594999999999573e+01 1.094929999999999950e+02 1.808780000000000200e+03
8.999999999999999667e-02 1.407150000000000067e-01 3.440834999999999866e+01 1.121595000000000084e+02 1.809849999999999909e+03
9.099999999999999756e-02 1.408274999999999944e-01 3.546249999999999858e+01 1.148135000000000048e+02 1.810914999999999964e+03
9.199999999999999845e-02 1.409384999999999943e-01 3.647899999999999920e+01 1.174795000000000016e+02 1.811965000000000146e+03
9.299999999999999933e-02 1.410489999999999799e-01 3.746680000000000632e+01 1.201724999999999994e+02 1.813009999999999991e+03
9.400000000000000022e-02 1.411604999999999943e-01 3.843295000000000528e+01 1.229039999999999964e+02 1.814070000000000164e+03
9.500000000000000111e-02 1.412729999999999819e-01 3.938195000000000334e+01 1.256779999999999973e+02 1.815130000000000109e+03
9.600000000000000200e-02 1.413860000000000117e-01 4.031550000000000011e+01 1.284884999999999877e+02 1.816200000000000045e+03
9.700000000000000289e-02 1.415005000000000013e-01 4.123265000000000668e+01 1.313259999999999934e+02 1.817284999999999854e+03
9.800000000000000377e-02 1.416149999999999909e-01 4.212955000000000183e+01 1.341730000000000018e+02 1.818375000000000000e+03
9.900000000000000466e-02 1.417304999999999815e-01 4.299980000000000047e+01 1.370064999999999884e+02 1.819465000000000146e+03
1.000000000000000056e-01 1.418444999999999845e-01 4.383530000000000371e+01 1.397989999999999782e+02 1.820549999999999955e+03
1.010000000000000064e-01 1.419580000000000009e-01 4.462595000000000312e+01 1.425229999999999961e+02 1.821625000000000000e+03
1.020000000000000073e-01 1.420690000000000008e-01 4.536100000000000421e+01 1.451465000000000032e+02 1.822684999999999945e+03
1.030000000000000082e-01 1.421764999999999834e-01 4.602904999999999802e+01 1.476405000000000030e+02 1.823710000000000036e+03
1.040000000000000091e-01 1.422795000000000032e-01 4.661889999999999645e+01 1.499755000000000109e+02 1.824695000000000164e+03
1.050000000000000100e-01 1.423774999999999902e-01 4.712000000000000455e+01 1.521260000000000048e+02 1.825634999999999991e+03
1.059999999999999970e-01 1.424684999999999979e-01 4.752285000000000537e+01 1.540699999999999932e+02 1.826509999999999991e+03
1.069999999999999979e-01 1.425529999999999853e-01 4.781954999999999956e+01 1.557889999999999873e+02 1.827315000000000055e+03
1.079999999999999988e-01 1.426295000000000202e-01 4.800404999999999944e+01 1.572705000000000268e+02 1.828050000000000182e+03
1.089999999999999997e-01 1.426975000000000049e-01 4.807240000000000180e+01 1.585054999999999836e+02 1.828704999999999927e+03
1.100000000000000006e-01 1.427559999999999940e-01 4.802299999999999613e+01 1.594929999999999950e+02 1.829275000000000091e+03
1.110000000000000014e-01 1.428055000000000019e-01 4.785665000000000191e+01 1.602344999999999970e+02 1.829755000000000109e+03
1.120000000000000023e-01 1.428460000000000008e-01 4.757645000000000124e+01 1.607379999999999995e+02 1.830150000000000091e+03
1.130000000000000032e-01 1.428774999999999906e-01 4.718779999999999575e+01 1.610165000000000077e+02 1.830465000000000146e+03
1.140000000000000041e-01 1.428999999999999992e-01 4.669814999999999827e+01 1.610860000000000127e+02 1.830690000000000055e+03
1.150000000000000050e-01 1.429144999999999999e-01 4.611690000000000111e+01 1.609675000000000011e+02 1.830835000000000036e+03
1.160000000000000059e-01 1.429214999999999791e-01 4.545499999999999829e+01 1.606829999999999927e+02 1.830909999999999854e+03
1.170000000000000068e-01 1.429210000000000202e-01 4.472459999999999525e+01 1.602579999999999814e+02 1.830914999999999964e+03
1.180000000000000077e-01 1.429150000000000142e-01 4.393845000000000312e+01 1.597194999999999823e+02 1.830865000000000009e+03
1.190000000000000085e-01 1.429035000000000166e-01 4.310985000000000156e+01 1.590919999999999845e+02 1.830765000000000100e+03
1.200000000000000094e-01 1.428880000000000150e-01 4.225199999999999534e+01 1.584025000000000034e+02 1.830619999999999891e+03
1.209999999999999964e-01 1.428685000000000094e-01 4.137749999999999773e+01 1.576734999999999900e+02 1.830445000000000164e+03
1.219999999999999973e-01 1.428470000000000018e-01 4.049819999999999709e+01 1.569279999999999973e+02 1.830240000000000009e+03
1.229999999999999982e-01 1.428234999999999921e-01 3.962460000000000093e+01 1.561845000000000141e+02 1.830019999999999982e+03
1.239999999999999991e-01 1.427990000000000093e-01 3.876590000000000202e+01 1.554574999999999818e+02 1.829789999999999964e+03
1.250000000000000000e-01 1.427744999999999986e-01 3.792940000000000111e+01 1.547590000000000146e+02 1.829555000000000064e+03
1.260000000000000009e-01 1.427495000000000014e-01 3.712064999999999770e+01 1.540970000000000084e+02 1.829325000000000045e+03
1.270000000000000018e-01 1.427260000000000195e-01 3.634329999999999927e+01 1.534744999999999777e+02 1.829090000000000146e+03
1.280000000000000027e-01 1.427025000000000099e-01 3.559900000000000375e+01 1.528915000000000077e+02 1.828865000000000009e+03
1.290000000000000036e-01 1.426794999999999869e-01 3.488774999999999693e+01 1.523449999999999989e+02 1.828650000000000091e+03
1.300000000000000044e-01 1.426580000000000070e-01 3.420759999999999934e+01 1.518269999999999982e+02 1.828440000000000055e+03
1.310000000000000053e-01 1.426375000000000004e-01 3.355545000000000044e+01 1.513285000000000196e+02 1.828240000000000009e+03
1.320000000000000062e-01 1.426169999999999938e-01 3.292669999999999675e+01 1.508385000000000105e+02 1.828045000000000073e+03
1.330000000000000071e-01 1.425970000000000015e-01 3.231605000000000416e+01 1.503439999999999941e+02 1.827849999999999909e+03
1.340000000000000080e-01 1.425764999999999949e-01 3.171724999999999994e+01 1.498310000000000173e+02 1.827650000000000091e+03
1.350000000000000089e-01 1.425555000000000017e-01 3.112409999999999854e+01 1.492864999999999895e+02 1.827444999999999936e+03
1.360000000000000098e-01 1.425339999999999940e-01 3.053000000000000114e+01 1.486965000000000146e+02 1.827235000000000127e+03
1.370000000000000107e-01 1.425099999999999978e-01 2.992904999999999660e+01 1.480504999999999995e+02 1.827009999999999991e+03
1.380000000000000115e-01 1.424850000000000005e-01 2.931544999999999845e+01 1.473375000000000057e+02 1.826769999999999982e+03
1.390000000000000124e-01 1.424575000000000147e-01 2.868469999999999942e+01 1.465494999999999948e+02 1.826505000000000109e+03
1.400000000000000133e-01 1.424274999999999847e-01 2.803294999999999959e+01 1.456814999999999998e+02 1.826215000000000146e+03
1.410000000000000142e-01 1.423939999999999928e-01 2.735784999999999911e+01 1.447314999999999827e+02 1.825905000000000200e+03
1.420000000000000151e-01 1.423584999999999989e-01 2.665820000000000078e+01 1.436995000000000005e+02 1.825559999999999945e+03
1.430000000000000160e-01 1.423194999999999877e-01 2.593424999999999869e+01 1.425889999999999986e+02 1.825190000000000055e+03
1.440000000000000169e-01 1.422780000000000156e-01 2.518775000000000119e+01 1.414060000000000059e+02 1.824795000000000073e+03
1.450000000000000178e-01 1.422335000000000127e-01 2.442180000000000106e+01 1.401610000000000014e+02 1.824375000000000000e+03
1.459999999999999909e-01 1.421864999999999934e-01 2.364070000000000249e+01 1.388654999999999973e+02 1.823934999999999945e+03
1.469999999999999918e-01 1.421375000000000000e-01 2.285004999999999953e+01 1.375330000000000155e+02 1.823465000000000146e+03
1.479999999999999927e-01 1.420874999999999777e-01 2.205619999999999692e+01 1.361804999999999950e+02 1.822990000000000009e+03
1.489999999999999936e-01 1.420354999999999812e-01 2.126630000000000109e+01 1.348240000000000123e+02 1.822500000000000000e+03
1.499999999999999944e-01 1.419834999999999847e-01 2.048809999999999931e+01 1.334805000000000064e+02 1.822009999999999991e+03
1.509999999999999953e-01 1.419310000000000016e-01 1.972925000000000040e+01 1.321684999999999945e+02 1.821514999999999873e+03
1.519999999999999962e-01 1.418800000000000061e-01 1.899755000000000038e+01 1.309039999999999964e+02 1.821025000000000091e+03
1.529999999999999971e-01 1.418300000000000116e-01 1.830030000000000001e+01 1.297025000000000148e+02 1.820545000000000073e+03
1.539999999999999980e-01 1.417815000000000047e-01 1.764409999999999812e+01 1.285780000000000030e+02 1.820089999999999918e+03
1.549999999999999989e-01 1.417355000000000143e-01 1.703484999999999872e+01 1.275420000000000016e+02 1.819654999999999973e+03
1.559999999999999998e-01 1.416924999999999990e-01 1.647749999999999915e+01 1.266045000000000016e+02 1.819240000000000009e+03
1.570000000000000007e-01 1.416530000000000011e-01 1.597560000000000002e+01 1.257704999999999984e+02 1.818865000000000009e+03
1.580000000000000016e-01 1.416165000000000063e-01 1.553154999999999930e+01 1.250449999999999875e+02 1.818519999999999982e+03
1.590000000000000024e-01 1.415839999999999876e-01 1.514649999999999963e+01 1.244274999999999949e+02 1.818204999999999927e+03
