# t [s], A [cm^2], U [cm/s], P [cPa], c [cm/s]
1.000000000000000021e-03 4.510720000000000285e-01 1.612550000000004258e-03 9.095990000000000464e+01 1.431985000000000127e+03
2.000000000000000042e-03 4.510669999999999957e-01 1.570615000000000032e-03 9.094480000000000075e+01 1.431980000000000018e+03
3.000000000000000062e-03 4.511020000000000030e-01 7.846480000000000121e-02 9.101245000000000118e+01 1.431994999999999891e+03
4.000000000000000083e-03 4.511405000000000554e-01 1.631264500000000062e-01 9.111050000000000182e+01 1.432029999999999973e+03
5.000000000000000104e-03 4.511365000000000514e-01 1.593100000000000072e-01 9.110564999999999714e+01 1.432029999999999973e+03
6.000000000000000125e-03 4.511034999999999906e-01 8.776100000000000567e-02 9.098064999999999714e+01 1.432010000000000218e+03
7.000000000000000146e-03 4.510674999999999546e-01 4.807999999999978957e-03 9.078555000000000064e+01 1.431965000000000146e+03
8.000000000000000167e-03 4.510204999999999909e-01 -1.094045000000000711e-01 9.050759999999999650e+01 1.431900000000000091e+03
9.000000000000001055e-03 4.509380000000000055e-01 -3.079899999999999860e-01 9.008064999999999145e+01 1.431795000000000073e+03
1.000000000000000194e-02 4.508124999999999494e-01 -6.064650000000000318e-01 8.946020000000000039e+01 1.431639999999999873e+03
1.099999999999999936e-02 4.506394999999999706e-01 -1.007155000000000022e+00 8.861529999999999063e+01 1.431429999999999836e+03
1.200000000000000025e-02 4.504110000000000058e-01 -1.517989999999999728e+00 8.750999999999999091e+01 1.431144999999999982e+03
1.300000000000000114e-02 4.501249999999999973e-01 -2.126374999999999904e+00 8.613044999999999618e+01 1.430784999999999854e+03
1.400000000000000203e-02 4.497995000000000188e-01 -2.774249999999999883e+00 8.452039999999999509e+01 1.430349999999999909e+03
1.499999999999999944e-02 4.494660000000000322e-01 -3.367355000000000320e+00 8.278480000000000416e+01 1.429865000000000009e+03
1.600000000000000033e-02 4.491579999999999462e-01 -3.809675000000000367e+00 8.105649999999999977e+01 1.429365000000000009e+03
1.700000000000000122e-02 4.488949999999999885e-01 -4.036421500000000329e+00 7.945195000000001073e+01 1.428875000000000000e+03
1.800000000000000211e-02 4.486819999999999697e-01 -4.029178049999999622e+00 7.804019999999999868e+01 1.428425000000000182e+03
1.900000000000000300e-02 4.485074999999999479e-01 -3.812657000000000185e+00 7.683240000000000691e+01 1.428005000000000109e+03
2.000000000000000042e-02 4.483535000000000159e-01 -3.439816500000000055e+00 7.579034999999998945e+01 1.427625000000000000e+03
2.100000000000000130e-02 4.481994999999999729e-01 -2.972806149999999814e+00 7.484610000000000696e+01 1.427264999999999873e+03
2.200000000000000219e-02 4.480295000000000250e-01 -2.465328000000000408e+00 7.392584999999999695e+01 1.426920000000000073e+03
2.299999999999999961e-02 4.478355000000000530e-01 -1.950905000000000111e+00 7.297129999999999939e+01 1.426565000000000055e+03
2.400000000000000050e-02 4.476175000000000015e-01 -1.439659999999999940e+00 7.195179999999999154e+01 1.426200000000000045e+03
2.500000000000000139e-02 4.473830000000000306e-01 -9.237150000000000638e-01 7.086565000000000225e+01 1.425815000000000055e+03
2.600000000000000228e-02 4.471404999999999963e-01 -3.881600000000002826e-01 6.973124999999998863e+01 1.425429999999999836e+03
2.700000000000000316e-02 4.468969999999999887e-01 1.771700000000002717e-01 6.857229999999999848e+01 1.425025000000000091e+03
2.800000000000000058e-02 4.466545000000000099e-01 7.690200000000000369e-01 6.740460000000000207e+01 1.424625000000000000e+03
2.900000000000000147e-02 4.464084999999999859e-01 1.367355000000000320e+00 6.622634999999999650e+01 1.424210000000000036e+03
3.000000000000000236e-02 4.461509999999999643e-01 1.937405000000000044e+00 6.501574999999999704e+01 1.423789999999999964e+03
3.099999999999999978e-02 4.458704999999999474e-01 2.435745000000000271e+00 6.373434999999999917e+01 1.423355000000000018e+03
3.200000000000000067e-02 4.455550000000000344e-01 2.818725000000000591e+00 6.233599999999999852e+01 1.422889999999999873e+03
3.300000000000000155e-02 4.451970000000000094e-01 3.051280000000000214e+00 6.077769999999999584e+01 1.422384999999999991e+03
3.400000000000000244e-02 4.447929999999999939e-01 3.114180000000000614e+00 5.903154999999999575e+01 1.421835000000000036e+03
3.500000000000000333e-02 4.443449999999999900e-01 3.008470000000000422e+00 5.709364999999999668e+01 1.421230000000000018e+03
3.600000000000000422e-02 4.438650000000000095e-01 2.755930000000000213e+00 5.498935000000000173e+01 1.420589999999999918e+03
3.700000000000000511e-02 4.433685000000000542e-01 2.396065000000000111e+00 5.277255000000000251e+01 1.419914999999999964e+03
3.799999999999999906e-02 4.428739999999999899e-01 1.980184999999999640e+00 5.052070000000000505e+01 1.419224999999999909e+03
3.899999999999999994e-02 4.424024999999999763e-01 1.564464999999999772e+00 4.832595000000000596e+01 1.418539999999999964e+03
4.000000000000000083e-02 4.419739999999999780e-01 1.203420000000000378e+00 4.628575000000000017e+01 1.417894999999999982e+03
4.100000000000000172e-02 4.416050000000000253e-01 9.447799999999997311e-01 4.449285000000000423e+01 1.417309999999999945e+03
4.200000000000000261e-02 4.413099999999999801e-01 8.265199999999999214e-01 4.302824999999999989e+01 1.416804999999999836e+03
4.300000000000000350e-02 4.410990000000000189e-01 8.758899999999998354e-01 4.195629999999999882e+01 1.416409999999999854e+03
4.400000000000000439e-02 4.409775000000000222e-01 1.110105000000000119e+00 4.132264999999999588e+01 1.416130000000000109e+03
4.499999999999999833e-02 4.409490000000000354e-01 1.538146000000000013e+00 4.115439999999999543e+01 1.415985000000000127e+03
4.599999999999999922e-02 4.410144999999999760e-01 2.162954999999999739e+00 4.146250000000000568e+01 1.415974999999999909e+03
4.700000000000000011e-02 4.411715000000000497e-01 2.983501500000000028e+00 4.224459999999999837e+01 1.416105000000000018e+03
4.800000000000000100e-02 4.414180000000000326e-01 3.996310499999999877e+00 4.348864999999999981e+01 1.416385000000000218e+03
4.900000000000000189e-02 4.417510000000000048e-01 5.196103650000000407e+00 4.517515000000000214e+01 1.416795000000000073e+03
5.000000000000000278e-02 4.421660000000000035e-01 6.575885999999999676e+00 4.727944999999999709e+01 1.417340000000000146e+03
5.100000000000000366e-02 4.426579999999999959e-01 8.126267000000000351e+00 4.977255000000000251e+01 1.418014999999999873e+03
5.200000000000000455e-02 4.432200000000000029e-01 9.834694999999999965e+00 5.262129999999999797e+01 1.418804999999999836e+03
5.300000000000000544e-02 4.438444999999999752e-01 1.168496999999999986e+01 5.578844999999999743e+01 1.419694999999999936e+03
5.399999999999999939e-02 4.445244999999999891e-01 1.365679000000000087e+01 5.923260000000000502e+01 1.420684999999999945e+03
5.500000000000000028e-02 4.452490000000000059e-01 1.572602999999999973e+01 6.290825000000000244e+01 1.421764999999999873e+03
5.600000000000000117e-02 4.460095000000000587e-01 1.786555999999999855e+01 6.676664999999999850e+01 1.422904999999999973e+03
5.700000000000000205e-02 4.467939999999999690e-01 2.004627999999999943e+01 7.075719999999999743e+01 1.424105000000000018e+03
5.800000000000000294e-02 4.475939999999999919e-01 2.223839999999999861e+01 7.482895000000000607e+01 1.425344999999999800e+03
5.900000000000000383e-02 4.483985000000000332e-01 2.441300000000000026e+01 7.893245000000000289e+01 1.426609999999999900e+03
6.000000000000000472e-02 4.491990000000000149e-01 2.654335000000000377e+01 8.302199999999999136e+01 1.427884999999999991e+03
6.099999999999999867e-02 4.499879999999999436e-01 2.860580000000000211e+01 8.705695000000000050e+01 1.429164999999999964e+03
6.199999999999999956e-02 4.507605000000000084e-01 3.058075000000000188e+01 9.100370000000000914e+01 1.430424999999999955e+03
6.300000000000000044e-02 4.515109999999999957e-01 3.245279999999999632e+01 9.483574999999999022e+01 1.431664999999999964e+03
6.400000000000000133e-02 4.522370000000000001e-01 3.421115000000000350e+01 9.853530000000000655e+01 1.432880000000000109e+03
6.500000000000000222e-02 4.529369999999999785e-01 3.584929999999999950e+01 1.020914500000000089e+02 1.434059999999999945e+03
6.600000000000000311e-02 4.536109999999999864e-01 3.736480000000000246e+01 1.055015999999999963e+02 1.435200000000000045e+03
6.700000000000000400e-02 4.542610000000000259e-01 3.875849999999999795e+01 1.087701500000000010e+02 1.436309999999999945e+03
6.800000000000000488e-02 4.548885000000000289e-01 4.003425000000000011e+01 1.119050000000000011e+02 1.437380000000000109e+03
6.900000000000000577e-02 4.554954999999999976e-01 4.119809999999999661e+01 1.149199999999999875e+02 1.438414999999999964e+03
7.000000000000000666e-02 4.560859999999999914e-01 4.225769999999999982e+01 1.178315000000000055e+02 1.439420000000000073e+03
7.100000000000000755e-02 4.566624999999999712e-01 4.322155000000000058e+01 1.206550000000000011e+02 1.440394999999999982e+03
7.200000000000000844e-02 4.572289999999999965e-01 4.409860000000000468e+01 1.234094999999999942e+02 1.441349999999999909e+03
7.300000000000000933e-02 4.577869999999999440e-01 4.489754999999999541e+01 1.261099999999999994e+02 1.442279999999999973e+03
7.399999999999999634e-02 4.583395000000000108e-01 4.562619999999999720e+01 1.287704999999999984e+02 1.443204999999999927e+03
7.499999999999999722e-02 4.588880000000000181e-01 4.629115000000000180e+01 1.314000000000000057e+02 1.444110000000000127e+03
7.599999999999999811e-02 4.594329999999999803e-01 4.689744999999999919e+01 1.340054999999999836e+02 1.445014999999999873e+03
7.699999999999999900e-02 4.599745000000000084e-01 4.744834999999999781e+01 1.365885000000000105e+02 1.445900000000000091e+03
7.799999999999999989e-02 4.605110000000000037e-01 4.794505000000000194e+01 1.391459999999999866e+02 1.446785000000000082e+03
7.900000000000000078e-02 4.610409999999999786e-01 4.838710000000000377e+01 1.416705000000000041e+02 1.447655000000000200e+03
8.000000000000000167e-02 4.615620000000000278e-01 4.877235000000000298e+01 1.441500000000000057e+02 1.448514999999999873e+03
8.100000000000000255e-02 4.620704999999999951e-01 4.909709999999999752e+01 1.465709999999999980e+02 1.449349999999999909e+03
8.200000000000000344e-02 4.625624999999999876e-01 4.935685000000000144e+01 1.489159999999999968e+02 1.450164999999999964e+03
8.300000000000000433e-02 4.630350000000000299e-01 4.954645000000000010e+01 1.511664999999999850e+02 1.450949999999999818e+03
8.400000000000000522e-02 4.634840000000000071e-01 4.966069999999999851e+01 1.533034999999999854e+02 1.451704999999999927e+03
8.500000000000000611e-02 4.639060000000000406e-01 4.969464999999999577e+01 1.553100000000000023e+02 1.452414999999999964e+03
8.600000000000000699e-02 4.642974999999999741e-01 4.964410000000000167e+01 1.571675000000000182e+02 1.453085000000000036e+03
8.700000000000000788e-02 4.646560000000000135e-01 4.950580000000000069e+01 1.588625000000000114e+02 1.453704999999999927e+03
8.800000000000000877e-02 4.649794999999999900e-01 4.927774999999999750e+01 1.603840000000000146e+02 1.454269999999999982e+03
8.899999999999999578e-02 4.652665000000000273e-01 4.895950000000000557e+01 1.617239999999999895e+02 1.454775000000000091e+03
8.999999999999999667e-02 4.655164999999999997e-01 4.855195000000000505e+01 1.628779999999999859e+02 1.455224999999999909e+03
9.099999999999999756e-02 4.657290000000000041e-01 4.805774999999999864e+01 1.638455000000000155e+02 1.455615000000000009e+03
9.199999999999999845e-02 4.659050000000000136e-01 4.748099999999999454e+01 1.646299999999999955e+02 1.455940000000000055e+03
9.299999999999999933e-02 4.660465000000000302e-01 4.682730000000000103e+01 1.652379999999999995e+02 1.456214999999999918e+03
9.400000000000000022e-02 4.661545000000000272e-01 4.610354999999999848e+01 1.656804999999999950e+02 1.456429999999999836e+03
9.500000000000000111e-02 4.662325000000000497e-01 4.531770000000000209e+01 1.659689999999999941e+02 1.456595000000000027e+03
9.600000000000000200e-02 4.662824999999999886e-01 4.447879999999999967e+01 1.661189999999999998e+02 1.456710000000000036e+03
9.700000000000000289e-02 4.663085000000000147e-01 4.359619999999999607e+01 1.661474999999999795e+02 1.456775000000000091e+03
9.800000000000000377e-02 4.663134999999999919e-01 4.268004999999999427e+01 1.660715000000000146e+02 1.456804999999999836e+03
9.900000000000000466e-02 4.663010000000000210e-01 4.174034999999999940e+01 1.659110000000000014e+02 1.456804999999999836e+03
1.000000000000000056e-01 4.662749999999999950e-01 4.078699999999999903e+01 1.656820000000000164e+02 1.456769999999999982e+03
1.010000000000000064e-01 4.662390000000000145e-01 3.982935000000000514e+01 1.654044999999999845e+02 1.456719999999999800e+03
1.020000000000000073e-01 4.661954999999999849e-01 3.887615000000000265e+01 1.650935000000000059e+02 1.456654999999999973e+03
1.030000000000000082e-01 4.661475000000000479e-01 3.793515000000000015e+01 1.647649999999999864e+02 1.456570000000000164e+03
1.040000000000000091e-01 4.660980000000000123e-01 3.701275000000000404e+01 1.644309999999999832e+02 1.456480000000000018e+03
1.050000000000000100e-01 4.660480000000000178e-01 3.611430000000000007e+01 1.641030000000000086e+02 1.456390000000000100e+03
1.059999999999999970e-01 4.660000000000000253e-01 3.524340000000000117e+01 1.637889999999999873e+02 1.456295000000000073e+03
1.069999999999999979e-01 4.659544999999999382e-01 3.440220000000000056e+01 1.634939999999999998e+02 1.456200000000000045e+03
1.079999999999999988e-01 4.659115000000000339e-01 3.359140000000000015e+01 1.632210000000000036e+02 1.456110000000000127e+03
1.089999999999999997e-01 4.658714999999999939e-01 3.281000000000000227e+01 1.629694999999999823e+02 1.456025000000000091e+03
1.100000000000000006e-01 4.658344999999999847e-01 3.205590000000000117e+01 1.627379999999999995e+02 1.455945000000000164e+03
1.110000000000000014e-01 4.657979999999999898e-01 3.132560000000000144e+01 1.625210000000000150e+02 1.455865000000000009e+03
1.120000000000000023e-01 4.657614999999999950e-01 3.061469999999999914e+01 1.623120000000000118e+02 1.455795000000000073e+03
1.130000000000000032e-01 4.657234999999999570e-01 2.991799999999999926e+01 1.621034999999999968e+02 1.455715000000000146e+03
1.140000000000000041e-01 4.656819999999999848e-01 2.922984999999999900e+01 1.618865000000000123e+02 1.455639999999999873e+03
1.150000000000000050e-01 4.656360000000000499e-01 2.854429999999999978e+01 1.616514999999999986e+02 1.455565000000000055e+03
1.160000000000000059e-01 4.655829999999999691e-01 2.785559999999999903e+01 1.613890000000000100e+02 1.455470000000000027e+03
1.170000000000000068e-01 4.655214999999999770e-01 2.715814999999999912e+01 1.610900000000000034e+02 1.455375000000000000e+03
1.180000000000000077e-01 4.654500000000000304e-01 2.644699999999999918e+01 1.607464999999999975e+02 1.455264999999999873e+03
1.190000000000000085e-01 4.653680000000000039e-01 2.571770000000000067e+01 1.603519999999999754e+02 1.455139999999999873e+03
1.200000000000000094e-01 4.652740000000000209e-01 2.496719999999999828e+01 1.599004999999999939e+02 1.455000000000000000e+03
1.209999999999999964e-01 4.651669999999999972e-01 2.419290000000000163e+01 1.593890000000000100e+02 1.454845000000000027e+03
1.219999999999999973e-01 4.650480000000000169e-01 2.339379999999999882e+01 1.588154999999999859e+02 1.454664999999999964e+03
1.229999999999999982e-01 4.649170000000000247e-01 2.256994999999999862e+01 1.581814999999999998e+02 1.454470000000000027e+03
1.239999999999999991e-01 4.647740000000000204e-01 2.172254999999999825e+01 1.574884999999999877e+02 1.454259999999999991e+03
1.250000000000000000e-01 4.646209999999999507e-01 2.085399999999999920e+01 1.567409999999999854e+02 1.454025000000000091e+03
1.260000000000000009e-01 4.644584999999999964e-01 1.996785000000000210e+01 1.559459999999999980e+02 1.453779999999999973e+03
1.270000000000000018e-01 4.642890000000000073e-01 1.906855000000000189e+01 1.551114999999999782e+02 1.453519999999999982e+03
1.280000000000000027e-01 4.641140000000000265e-01 1.816134999999999877e+01 1.542454999999999927e+02 1.453250000000000000e+03
1.290000000000000036e-01 4.639355000000000007e-01 1.725225000000000009e+01 1.533594999999999970e+02 1.452974999999999909e+03
1.300000000000000044e-01 4.637560000000000016e-01 1.634750000000000014e+01 1.524639999999999986e+02 1.452684999999999945e+03
1.310000000000000053e-01 4.635774999999999757e-01 1.545375500000000102e+01 1.515699999999999932e+02 1.452400000000000091e+03
1.320000000000000062e-01 4.634015000000000217e-01 1.457761999999999958e+01 1.506885000000000048e+02 1.452115000000000009e+03
1.330000000000000071e-01 4.632315000000000182e-01 1.372533999999999921e+01 1.498294999999999959e+02 1.451839999999999918e+03
1.340000000000000080e-01 4.630684999999999940e-01 1.290291000000000032e+01 1.490039999999999907e+02 1.451565000000000055e+03
1.350000000000000089e-01 4.629145000000000065e-01 1.211552000000000007e+01 1.482189999999999941e+02 1.451305000000000064e+03
1.360000000000000098e-01 4.627700000000000147e-01 1.136769999999999925e+01 1.474819999999999993e+02 1.451054999999999836e+03
1.370000000000000107e-01 4.626365000000000061e-01 1.066288499999999928e+01 1.467989999999999782e+02 1.450815000000000055e+03
1.380000000000000115e-01 4.625139999999999807e-01 1.000364000000000075e+01 1.461719999999999970e+02 1.450594999999999800e+03
1.390000000000000124e-01 4.624030000000000085e-01 9.391420000000000101e+00 1.456039999999999850e+02 1.450394999999999982e+03
1.400000000000000133e-01 4.623040000000000482e-01 8.826560000000000628e+00 1.450935000000000059e+02 1.450210000000000036e+03
1.410000000000000142e-01 4.622159999999999602e-01 8.308479999999999421e+00 1.446394999999999982e+02 1.450045000000000073e+03
1.420000000000000151e-01 4.621369999999999645e-01 7.835630000000000095e+00 1.442375000000000114e+02 1.449890000000000100e+03
1.430000000000000160e-01 4.620679999999999787e-01 7.405560000000000365e+00 1.438829999999999814e+02 1.449755000000000109e+03
1.440000000000000169e-01 4.620060000000000278e-01 7.015295000000000059e+00 1.435699999999999932e+02 1.449634999999999991e+03
1.450000000000000178e-01 4.619505000000000416e-01 6.661260000000000403e+00 1.432909999999999968e+02 1.449519999999999982e+03
1.459999999999999909e-01 4.618995000000000184e-01 6.339554999999999829e+00 1.430394999999999754e+02 1.449420000000000073e+03
1.469999999999999918e-01 4.618520000000000403e-01 6.046115000000000350e+00 1.428079999999999927e+02 1.449325000000000045e+03
1.479999999999999927e-01 4.618069999999999675e-01 5.776854999999999407e+00 1.425894999999999868e+02 1.449235000000000127e+03
1.489999999999999936e-01 4.617625000000000202e-01 5.527804999999999858e+00 1.423770000000000095e+02 1.449150000000000091e+03
1.499999999999999944e-01 4.617175000000000029e-01 5.295239999999999725e+00 1.421639999999999873e+02 1.449069999999999936e+03
1.509999999999999953e-01 4.616715000000000124e-01 5.075765000000000526e+00 1.419465000000000146e+02 1.448985000000000127e+03
1.519999999999999962e-01 4.616230000000000055e-01 4.866399999999999615e+00 1.417194999999999823e+02 1.448904999999999973e+03
1.529999999999999971e-01 4.615724999999999967e-01 4.664595000000000269e+00 1.414800000000000182e+02 1.448820000000000164e+03
1.539999999999999980e-01 4.615185000000000537e-01 4.468270000000000408e+00 1.412259999999999991e+02 1.448730000000000018e+03
1.549999999999999989e-01 4.614614999999999689e-01 4.275809999999999889e+00 1.409569999999999936e+02 1.448639999999999873e+03
1.559999999999999998e-01 4.614015000000000200e-01 4.086030000000000051e+00 1.406715000000000089e+02 1.448545000000000073e+03
1.570000000000000007e-01 4.613384999999999847e-01 3.898170000000000357e+00 1.403704999999999927e+02 1.448440000000000055e+03
1.580000000000000016e-01 4.612730000000000441e-01 3.711809999999999832e+00 1.400554999999999950e+02 1.448340000000000146e+03
1.590000000000000024e-01 4.612049999999999761e-01 3.526860000000000106e+00 1.397284999999999968e+02 1.448230000000000018e+03
