# t [s], A [cm^2], U [cm/s], P [cPa], c [cm/s]
1.000000000000000021e-03 5.452314999999999801e-01 3.714450000000001084e-03 9.037045000000000528e+01 1.629045000000000073e+03
2.000000000000000042e-03 5.452255000000000296e-01 3.630964999999999887e-03 9.034550000000000125e+01 1.629039999999999964e+03
3.000000000000000062e-03 5.452819999999999334e-01 1.257454000000000072e-01 9.047475000000000023e+01 1.629075000000000045e+03
4.000000000000000083e-03 5.453154999999999530e-01 2.121307500000000068e-01 9.057894999999999186e+01 1.629099999999999909e+03
5.000000000000000104e-03 5.452770000000000117e-01 1.534484999999999877e-01 9.046274999999999977e+01 1.629074999999999818e+03
6.000000000000000125e-03 5.452144999999999353e-01 3.729150000000003295e-02 9.018765000000000498e+01 1.629014999999999873e+03
7.000000000000000146e-03 5.451515000000000111e-01 -9.315949999999995068e-02 8.982165000000000532e+01 1.628920000000000073e+03
8.000000000000000167e-03 5.450405000000000388e-01 -3.372199999999999642e-01 8.924864999999999782e+01 1.628775000000000091e+03
9.000000000000001055e-03 5.448669999999999902e-01 -7.275650000000000173e-01 8.838800000000000523e+01 1.628559999999999945e+03
1.000000000000000194e-02 5.446280000000000010e-01 -1.264524999999999899e+00 8.719495000000000573e+01 1.628259999999999991e+03
1.099999999999999936e-02 5.443020000000000636e-01 -1.973829999999999973e+00 8.559414999999999907e+01 1.627849999999999909e+03
1.200000000000000025e-02 5.438910000000000133e-01 -2.832705000000000251e+00 8.356470000000000198e+01 1.627320000000000164e+03
1.300000000000000114e-02 5.434440000000000381e-01 -3.709585000000000132e+00 8.124299999999999500e+01 1.626694999999999936e+03
1.400000000000000203e-02 5.430325000000000291e-01 -4.412552999999999948e+00 7.889504999999999768e+01 1.626035000000000082e+03
1.499999999999999944e-02 5.427115000000000133e-01 -4.789433999999999969e+00 7.678855000000000075e+01 1.625414999999999964e+03
1.600000000000000033e-02 5.424925000000000441e-01 -4.790704999999999991e+00 7.507909999999999684e+01 1.624869999999999891e+03
1.700000000000000122e-02 5.423480000000000523e-01 -4.470559999999999867e+00 7.376860000000000639e+01 1.624414999999999964e+03
1.800000000000000211e-02 5.422285000000000021e-01 -3.947670000000000012e+00 7.273260000000000502e+01 1.624025000000000091e+03
1.900000000000000300e-02 5.420864999999999156e-01 -3.352285000000000181e+00 7.178555000000000064e+01 1.623660000000000082e+03
2.000000000000000042e-02 5.418910000000000116e-01 -2.779628999999999905e+00 7.075639999999999930e+01 1.623284999999999854e+03
2.100000000000000130e-02 5.416364999999999652e-01 -2.264263000000000137e+00 6.954680000000000462e+01 1.622875000000000000e+03
2.200000000000000219e-02 5.413410000000000721e-01 -1.783555000000000224e+00 6.815104999999999791e+01 1.622420000000000073e+03
2.299999999999999961e-02 5.410304999999999698e-01 -1.285595000000000265e+00 6.663380000000000791e+01 1.621934999999999945e+03
2.400000000000000050e-02 5.407284999999999453e-01 -7.255649999999997934e-01 6.508220000000000027e+01 1.621440000000000055e+03
2.500000000000000139e-02 5.404430000000000067e-01 -9.371499999999999275e-02 6.355740000000000123e+01 1.620934999999999945e+03
2.600000000000000228e-02 5.401644999999999364e-01 5.737100000000001643e-01 6.206305000000000405e+01 1.620444999999999936e+03
2.700000000000000316e-02 5.398699999999999610e-01 1.200704999999999911e+00 6.053794999999999504e+01 1.619940000000000055e+03
2.800000000000000058e-02 5.395280000000000076e-01 1.690000000000000169e+00 5.887165000000000248e+01 1.619400000000000091e+03
2.900000000000000147e-02 5.391104999999999370e-01 1.947815000000000296e+00 5.693484999999999729e+01 1.618799999999999955e+03
3.000000000000000236e-02 5.385989999999999389e-01 1.908269999999999911e+00 5.461874999999999858e+01 1.618110000000000127e+03
3.099999999999999978e-02 5.379920000000000258e-01 1.551239999999999952e+00 5.186984999999999957e+01 1.617304999999999836e+03
3.200000000000000067e-02 5.373069999999999791e-01 9.083800000000001873e-01 4.871200000000000330e+01 1.616405000000000200e+03
3.300000000000000155e-02 5.365754999999999830e-01 5.599000000000042832e-02 4.524849999999999994e+01 1.615409999999999854e+03
3.400000000000000244e-02 5.358395000000000241e-01 -9.020000000000001350e-01 4.164459999999999695e+01 1.614369999999999891e+03
3.500000000000000333e-02 5.351400000000000601e-01 -1.854425000000000434e+00 3.809955000000000069e+01 1.613335000000000036e+03
3.600000000000000422e-02 5.345155000000000323e-01 -2.700974999999999682e+00 3.481449999999999534e+01 1.612345000000000027e+03
3.700000000000000511e-02 5.339939999999999687e-01 -3.363685000000000258e+00 3.196605000000000274e+01 1.611460000000000036e+03
3.799999999999999906e-02 5.335929999999999840e-01 -3.791840000000000543e+00 2.968854999999999933e+01 1.610714999999999918e+03
3.899999999999999994e-02 5.333204999999999751e-01 -3.960400600000000271e+00 2.806634999999999991e+01 1.610144999999999982e+03
4.000000000000000083e-02 5.331774999999999709e-01 -3.864630000000000010e+00 2.713540000000000063e+01 1.609755000000000109e+03
4.100000000000000172e-02 5.331580000000000208e-01 -3.512640000000000207e+00 2.689140000000000086e+01 1.609570000000000164e+03
4.200000000000000261e-02 5.332540000000000058e-01 -2.918340000000000156e+00 2.730205000000000126e+01 1.609569999999999936e+03
4.300000000000000350e-02 5.334569999999999590e-01 -2.096295000000000019e+00 2.831889999999999930e+01 1.609750000000000000e+03
4.400000000000000439e-02 5.337579999999999547e-01 -1.059525000000000050e+00 2.988719999999999999e+01 1.610105000000000018e+03
4.499999999999999833e-02 5.341479999999999562e-01 1.798999999999999488e-01 3.195094999999999885e+01 1.610615000000000009e+03
4.599999999999999922e-02 5.346189999999999554e-01 1.608375000000000110e+00 3.445425000000000182e+01 1.611265000000000100e+03
4.700000000000000011e-02 5.351604999999999279e-01 3.207750000000000323e+00 3.733979999999999677e+01 1.612039999999999964e+03
4.800000000000000100e-02 5.357604999999999729e-01 4.953174999999999883e+00 4.054619999999999891e+01 1.612920000000000073e+03
4.900000000000000189e-02 5.364065000000000083e-01 6.812260000000000204e+00 4.400624999999999432e+01 1.613889999999999873e+03
5.000000000000000278e-02 5.370835000000000470e-01 8.746525999999999357e+00 4.764724999999999966e+01 1.614925000000000182e+03
5.100000000000000366e-02 5.377754999999999619e-01 1.071353000000000044e+01 5.139300000000000068e+01 1.616010000000000218e+03
5.200000000000000455e-02 5.384685000000000166e-01 1.267049499999999895e+01 5.516765000000000185e+01 1.617115000000000009e+03
5.300000000000000544e-02 5.391494999999999482e-01 1.457768999999999870e+01 5.890079999999999671e+01 1.618224999999999909e+03
5.399999999999999939e-02 5.398080000000000656e-01 1.640128999999999948e+01 6.253180000000000405e+01 1.619319999999999936e+03
5.500000000000000028e-02 5.404360000000000275e-01 1.811570000000000036e+01 6.601394999999999413e+01 1.620389999999999873e+03
5.600000000000000117e-02 5.410304999999999698e-01 1.970400000000000063e+01 6.931690000000000396e+01 1.621425000000000182e+03
5.700000000000000205e-02 5.415909999999999336e-01 2.115854999999999819e+01 7.242709999999999582e+01 1.622409999999999854e+03
5.800000000000000294e-02 5.421190000000000175e-01 2.247964999999999947e+01 7.534735000000000582e+01 1.623345000000000027e+03
5.900000000000000383e-02 5.426195000000000324e-01 2.367414999999999736e+01 7.809444999999999482e+01 1.624235000000000127e+03
6.000000000000000472e-02 5.430979999999999697e-01 2.475415000000000276e+01 8.069579999999999131e+01 1.625085000000000036e+03
6.099999999999999867e-02 5.435615000000000308e-01 2.573509999999999920e+01 8.318694999999999595e+01 1.625900000000000091e+03
6.199999999999999956e-02 5.440175000000000427e-01 2.663459999999999894e+01 8.560720000000000596e+01 1.626690000000000055e+03
6.300000000000000044e-02 5.444735000000000547e-01 2.747084999999999866e+01 8.799709999999998900e+01 1.627474999999999909e+03
6.400000000000000133e-02 5.449355000000000171e-01 2.826174999999999926e+01 9.039504999999999768e+01 1.628255000000000109e+03
6.500000000000000222e-02 5.454090000000000327e-01 2.902344999999999686e+01 9.283485000000000298e+01 1.629034999999999854e+03
6.600000000000000311e-02 5.458990000000000231e-01 2.976950000000000074e+01 9.534315000000000850e+01 1.629839999999999918e+03
6.700000000000000400e-02 5.464070000000000871e-01 3.050965000000000060e+01 9.793770000000000664e+01 1.630660000000000082e+03
6.800000000000000488e-02 5.469334999999999614e-01 3.124954999999999927e+01 1.006254999999999882e+02 1.631509999999999991e+03
6.900000000000000577e-02 5.474780000000000202e-01 3.198995000000000033e+01 1.034036499999999990e+02 1.632380000000000109e+03
7.000000000000000666e-02 5.480349999999999389e-01 3.272670000000000101e+01 1.062560000000000002e+02 1.633275000000000091e+03
7.100000000000000755e-02 5.485999999999999766e-01 3.345125000000000171e+01 1.091580000000000013e+02 1.634184999999999945e+03
7.200000000000000844e-02 5.491654999999999731e-01 3.415125000000000455e+01 1.120765000000000100e+02 1.635105000000000018e+03
7.300000000000000933e-02 5.497235000000000316e-01 3.481179999999999808e+01 1.149699999999999989e+02 1.636014999999999873e+03
7.399999999999999634e-02 5.502664999999999917e-01 3.541635000000000133e+01 1.177964999999999947e+02 1.636920000000000073e+03
7.499999999999999722e-02 5.507850000000000801e-01 3.594825000000000159e+01 1.205105000000000075e+02 1.637784999999999854e+03
7.599999999999999811e-02 5.512719999999999843e-01 3.639159999999999684e+01 1.230699999999999932e+02 1.638619999999999891e+03
7.699999999999999900e-02 5.517214999999999758e-01 3.673274999999999579e+01 1.254375000000000000e+02 1.639394999999999982e+03
7.799999999999999989e-02 5.521270000000000344e-01 3.696070000000000277e+01 1.275814999999999912e+02 1.640110000000000127e+03
7.900000000000000078e-02 5.524854999999999627e-01 3.706775000000000375e+01 1.294769999999999754e+02 1.640755000000000109e+03
8.000000000000000167e-02 5.527944999999999665e-01 3.705004999999999882e+01 1.311115000000000066e+02 1.641324999999999818e+03
8.100000000000000255e-02 5.530545000000000044e-01 3.690765000000000384e+01 1.324784999999999968e+02 1.641815000000000055e+03
8.200000000000000344e-02 5.532650000000000068e-01 3.664430000000000121e+01 1.335810000000000173e+02 1.642230000000000018e+03
8.300000000000000433e-02 5.534305000000000474e-01 3.626740000000000208e+01 1.344314999999999998e+02 1.642559999999999945e+03
8.400000000000000522e-02 5.535535000000000316e-01 3.578744999999999976e+01 1.350484999999999900e+02 1.642825000000000045e+03
8.500000000000000611e-02 5.536389999999999922e-01 3.521764999999999901e+01 1.354575000000000102e+02 1.643014999999999873e+03
8.600000000000000699e-02 5.536935000000000606e-01 3.457314999999999827e+01 1.356879999999999882e+02 1.643144999999999982e+03
8.700000000000000788e-02 5.537225000000000064e-01 3.387059999999999604e+01 1.357729999999999961e+02 1.643235000000000127e+03
8.800000000000000877e-02 5.537320000000000020e-01 3.312720000000000198e+01 1.357464999999999975e+02 1.643275000000000091e+03
8.899999999999999578e-02 5.537290000000000267e-01 3.236025000000000063e+01 1.356430000000000007e+02 1.643289999999999964e+03
8.999999999999999667e-02 5.537189999999999612e-01 3.158605000000000018e+01 1.354945000000000164e+02 1.643275000000000091e+03
9.099999999999999756e-02 5.537060000000000315e-01 3.081969999999999743e+01 1.353310000000000173e+02 1.643250000000000000e+03
9.199999999999999845e-02 5.536959999999999660e-01 3.007395000000000351e+01 1.351769999999999925e+02 1.643224999999999909e+03
9.299999999999999933e-02 5.536915000000000031e-01 2.935934999999999917e+01 1.350534999999999854e+02 1.643194999999999936e+03
9.400000000000000022e-02 5.536950000000000482e-01 2.868325000000000102e+01 1.349745000000000061e+02 1.643180000000000064e+03
9.500000000000000111e-02 5.537069999999999492e-01 2.805015000000000214e+01 1.349484999999999957e+02 1.643174999999999955e+03
9.600000000000000200e-02 5.537289999999999157e-01 2.746144999999999925e+01 1.349780000000000086e+02 1.643179999999999836e+03
9.700000000000000289e-02 5.537579999999999725e-01 2.691559999999999775e+01 1.350589999999999975e+02 1.643200000000000045e+03
9.800000000000000377e-02 5.537940000000000085e-01 2.640840000000000032e+01 1.351834999999999809e+02 1.643230000000000018e+03
9.900000000000000466e-02 5.538325000000000609e-01 2.593350000000000222e+01 1.353380000000000223e+02 1.643269999999999982e+03
1.000000000000000056e-01 5.538720000000000310e-01 2.548264999999999958e+01 1.355065000000000168e+02 1.643315000000000055e+03
1.010000000000000064e-01 5.539080000000000670e-01 2.504639999999999844e+01 1.356694999999999993e+02 1.643360000000000127e+03
1.020000000000000073e-01 5.539370000000000127e-01 2.461485000000000056e+01 1.358084999999999809e+02 1.643394999999999982e+03
1.030000000000000082e-01 5.539560000000000040e-01 2.417790000000000106e+01 1.359025000000000034e+02 1.643424999999999955e+03
1.040000000000000091e-01 5.539604999999999668e-01 2.372590000000000288e+01 1.359334999999999809e+02 1.643434999999999945e+03
1.050000000000000100e-01 5.539494999999999836e-01 2.325039999999999907e+01 1.358860000000000241e+02 1.643424999999999955e+03
1.059999999999999970e-01 5.539190000000000502e-01 2.274445000000000050e+01 1.357459999999999809e+02 1.643394999999999982e+03
1.069999999999999979e-01 5.538689999999999447e-01 2.220295000000000130e+01 1.355045000000000073e+02 1.643329999999999927e+03
1.079999999999999988e-01 5.537989999999999302e-01 2.162304999999999922e+01 1.351580000000000155e+02 1.643235000000000127e+03
1.089999999999999997e-01 5.537085000000000479e-01 2.100430000000000064e+01 1.347044999999999959e+02 1.643115000000000009e+03
1.100000000000000006e-01 5.535999999999999810e-01 2.034850000000000136e+01 1.341510000000000105e+02 1.642960000000000036e+03
1.110000000000000014e-01 5.534744999999999804e-01 1.966004999999999825e+01 1.335060000000000002e+02 1.642779999999999973e+03
1.120000000000000023e-01 5.533360000000000500e-01 1.894545000000000101e+01 1.327835000000000036e+02 1.642575000000000045e+03
1.130000000000000032e-01 5.531869999999999843e-01 1.821320000000000050e+01 1.320009999999999764e+02 1.642345000000000027e+03
1.140000000000000041e-01 5.530325000000000379e-01 1.747305000000000064e+01 1.311785000000000139e+02 1.642105000000000018e+03
1.150000000000000050e-01 5.528754999999999642e-01 1.673604999999999876e+01 1.303394999999999868e+02 1.641855000000000018e+03
1.160000000000000059e-01 5.527219999999999356e-01 1.601375000000000171e+01 1.295055000000000121e+02 1.641605000000000018e+03
1.170000000000000068e-01 5.525750000000000384e-01 1.531755000000000067e+01 1.287009999999999934e+02 1.641355000000000018e+03
1.180000000000000077e-01 5.524390000000000134e-01 1.465845000000000020e+01 1.279480000000000075e+02 1.641119999999999891e+03
1.190000000000000085e-01 5.523175000000000168e-01 1.404636500000000154e+01 1.272644999999999982e+02 1.640900000000000091e+03
1.200000000000000094e-01 5.522130000000000649e-01 1.348963499999999982e+01 1.266690000000000111e+02 1.640704999999999927e+03
1.209999999999999964e-01 5.521279999999999522e-01 1.299488500000000002e+01 1.261730000000000018e+02 1.640534999999999854e+03
1.219999999999999973e-01 5.520639999999999992e-01 1.256649499999999975e+01 1.257854999999999990e+02 1.640400000000000091e+03
1.229999999999999982e-01 5.520205000000000251e-01 1.220679999999999943e+01 1.255115000000000123e+02 1.640289999999999964e+03
1.239999999999999991e-01 5.519975000000000298e-01 1.191572000000000031e+01 1.253490000000000038e+02 1.640214999999999918e+03
1.250000000000000000e-01 5.519939999999999847e-01 1.169116999999999962e+01 1.252950000000000017e+02 1.640175000000000182e+03
1.260000000000000009e-01 5.520079999999999432e-01 1.152908499999999847e+01 1.253400000000000034e+02 1.640160000000000082e+03
1.270000000000000018e-01 5.520374999999999588e-01 1.142375000000000007e+01 1.254729999999999990e+02 1.640174999999999955e+03
1.280000000000000027e-01 5.520800000000000152e-01 1.136829999999999963e+01 1.256800000000000068e+02 1.640210000000000036e+03
1.290000000000000036e-01 5.521314999999999973e-01 1.135464999999999947e+01 1.259459999999999980e+02 1.640275000000000091e+03
1.300000000000000044e-01 5.521894999999999998e-01 1.137450000000000117e+01 1.262535000000000025e+02 1.640344999999999800e+03
1.310000000000000053e-01 5.522515000000000063e-01 1.141920000000000002e+01 1.265870000000000033e+02 1.640434999999999945e+03
1.320000000000000062e-01 5.523145000000000415e-01 1.148045000000000115e+01 1.269319999999999879e+02 1.640525000000000091e+03
1.330000000000000071e-01 5.523759999999999781e-01 1.155020000000000024e+01 1.272725000000000080e+02 1.640619999999999891e+03
1.340000000000000080e-01 5.524335000000000218e-01 1.162134999999999962e+01 1.275974999999999966e+02 1.640710000000000036e+03
1.350000000000000089e-01 5.524854999999999627e-01 1.168764999999999965e+01 1.278965000000000032e+02 1.640800000000000182e+03
1.360000000000000098e-01 5.525309999999999944e-01 1.174399999999999977e+01 1.281624999999999943e+02 1.640880000000000109e+03
1.370000000000000107e-01 5.525695000000000467e-01 1.178635000000000055e+01 1.283890000000000100e+02 1.640950000000000045e+03
1.380000000000000115e-01 5.525999999999999801e-01 1.181189999999999962e+01 1.285740000000000123e+02 1.641014999999999873e+03
1.390000000000000124e-01 5.526225000000000165e-01 1.181895000000000095e+01 1.287164999999999964e+02 1.641059999999999945e+03
1.400000000000000133e-01 5.526385000000000325e-01 1.180705000000000027e+01 1.288185000000000002e+02 1.641099999999999909e+03
1.410000000000000142e-01 5.526480000000000281e-01 1.177655000000000030e+01 1.288834999999999980e+02 1.641125000000000000e+03
1.420000000000000151e-01 5.526515000000000732e-01 1.172896499999999875e+01 1.289155000000000086e+02 1.641144999999999982e+03
1.430000000000000160e-01 5.526510000000000034e-01 1.166625499999999960e+01 1.289205000000000041e+02 1.641154999999999973e+03
1.440000000000000169e-01 5.526474999999999582e-01 1.159110000000000085e+01 1.289055000000000177e+02 1.641159999999999854e+03
1.450000000000000178e-01 5.526415000000000077e-01 1.150656500000000015e+01 1.288770000000000095e+02 1.641154999999999973e+03
1.459999999999999909e-01 5.526349999999999874e-01 1.141599000000000075e+01 1.288414999999999964e+02 1.641150000000000091e+03
1.469999999999999918e-01 5.526299999999999546e-01 1.132257500000000050e+01 1.288070000000000164e+02 1.641144999999999982e+03
1.479999999999999927e-01 5.526259999999999506e-01 1.122944999999999993e+01 1.287769999999999868e+02 1.641134999999999991e+03
1.489999999999999936e-01 5.526244999999999630e-01 1.113954000000000022e+01 1.287579999999999814e+02 1.641139999999999873e+03
1.499999999999999944e-01 5.526259999999999506e-01 1.105522000000000027e+01 1.287540000000000191e+02 1.641134999999999991e+03
1.509999999999999953e-01 5.526309999999999834e-01 1.097835500000000053e+01 1.287674999999999841e+02 1.641139999999999873e+03
1.519999999999999962e-01 5.526394999999999502e-01 1.091018000000000043e+01 1.287984999999999900e+02 1.641150000000000091e+03
1.529999999999999971e-01 5.526514999999999622e-01 1.085148999999999830e+01 1.288480000000000132e+02 1.641164999999999964e+03
1.539999999999999980e-01 5.526670000000000194e-01 1.080230500000000049e+01 1.289155000000000086e+02 1.641180000000000064e+03
1.549999999999999989e-01 5.526845000000000230e-01 1.076215499999999992e+01 1.289970000000000141e+02 1.641204999999999927e+03
1.559999999999999998e-01 5.527045000000000430e-01 1.073018000000000072e+01 1.290905000000000200e+02 1.641235000000000127e+03
1.570000000000000007e-01 5.527250000000000218e-01 1.070513000000000048e+01 1.291920000000000073e+02 1.641264999999999873e+03
1.580000000000000016e-01 5.527465000000000295e-01 1.068553499999999978e+01 1.292980000000000018e+02 1.641295000000000073e+03
1.590000000000000024e-01 5.527674999999999672e-01 1.066972499999999968e+01 1.294030000000000200e+02 1.641325000000000045e+03
