# t [s], A [cm^2], U [cm/s], P [cPa], c [cm/s]
1.000000000000000021e-03 1.448224999999999929e-01 3.692071999999999576e-01 8.584860000000000468e+01 2.050904999999999745e+03
2.000000000000000042e-03 1.447844999999999827e-01 1.826964999999999728e+00 8.259944999999999027e+01 2.050440000000000055e+03
3.000000000000000062e-03 1.446835000000000204e-01 3.585933499999999885e+00 7.824969999999999004e+01 2.049265000000000327e+03
4.000000000000000083e-03 1.445489999999999831e-01 5.554027500000000117e+00 7.373449999999999704e+01 2.047700000000000045e+03
5.000000000000000104e-03 1.444064999999999932e-01 7.657495000000000829e+00 6.988649999999999807e+01 2.046070000000000164e+03
6.000000000000000125e-03 1.442710000000000103e-01 9.700720000000000454e+00 6.683459999999999468e+01 2.044529999999999973e+03
7.000000000000000146e-03 1.441445000000000087e-01 1.148004500000000050e+01 6.421134999999999593e+01 2.043125000000000000e+03
8.000000000000000167e-03 1.440279999999999894e-01 1.295773000000000152e+01 6.182370000000000232e+01 2.041849999999999909e+03
9.000000000000001055e-03 1.439265000000000128e-01 1.418994999999999962e+01 5.977655000000000030e+01 2.040759999999999991e+03
1.000000000000000194e-02 1.438415000000000110e-01 1.520384999999999920e+01 5.812265000000000015e+01 2.039845000000000027e+03
1.099999999999999936e-02 1.437714999999999965e-01 1.601065000000000182e+01 5.681215000000000259e+01 2.039110000000000127e+03
1.200000000000000025e-02 1.437150000000000094e-01 1.662265000000000015e+01 5.577770000000000294e+01 2.038525000000000091e+03
1.300000000000000114e-02 1.436689999999999912e-01 1.704044999999999987e+01 5.491384999999999650e+01 2.038050000000000182e+03
1.400000000000000203e-02 1.436304999999999943e-01 1.728229999999999933e+01 5.412169999999999703e+01 2.037664999999999964e+03
1.499999999999999944e-02 1.435985000000000178e-01 1.743765000000000143e+01 5.347615000000000407e+01 2.037349999999999909e+03
1.600000000000000033e-02 1.435784999999999978e-01 1.766539999999999822e+01 5.330049999999999955e+01 2.037160000000000082e+03
1.700000000000000122e-02 1.435799999999999854e-01 1.811625000000000085e+01 5.400379999999999825e+01 2.037190000000000055e+03
1.800000000000000211e-02 1.436100000000000154e-01 1.884149999999999991e+01 5.579310000000000258e+01 2.037509999999999991e+03
1.900000000000000300e-02 1.436665000000000025e-01 1.975515000000000043e+01 5.848134999999999906e+01 2.038110000000000127e+03
2.000000000000000042e-02 1.437415000000000220e-01 2.066665000000000063e+01 6.151234999999999786e+01 2.038914999999999964e+03
2.100000000000000130e-02 1.438185000000000158e-01 2.136050000000000182e+01 6.416849999999999454e+01 2.039750000000000000e+03
2.200000000000000219e-02 1.438820000000000099e-01 2.167735000000000056e+01 6.584014999999999418e+01 2.040460000000000036e+03
2.299999999999999961e-02 1.439210000000000211e-01 2.156524999999999892e+01 6.623250000000000171e+01 2.040909999999999854e+03
2.400000000000000050e-02 1.439300000000000024e-01 2.108429999999999893e+01 6.543399999999999750e+01 2.041039999999999964e+03
2.500000000000000139e-02 1.439139999999999864e-01 2.036990000000000123e+01 6.383639999999999759e+01 2.040894999999999982e+03
2.600000000000000228e-02 1.438810000000000089e-01 1.957484999999999786e+01 6.195649999999999835e+01 2.040565000000000055e+03
2.700000000000000316e-02 1.438424999999999843e-01 1.881615000000000038e+01 6.024244999999999806e+01 2.040154999999999973e+03
2.800000000000000058e-02 1.438065000000000038e-01 1.814489999999999981e+01 5.893984999999999985e+01 2.039764999999999873e+03
2.900000000000000147e-02 1.437765000000000015e-01 1.754579999999999984e+01 5.805454999999999899e+01 2.039434999999999945e+03
3.000000000000000236e-02 1.437519999999999909e-01 1.696024999999999849e+01 5.740670000000000073e+01 2.039170000000000073e+03
3.099999999999999978e-02 1.437289999999999957e-01 1.632085000000000008e+01 5.673915000000000219e+01 2.038920000000000073e+03
3.200000000000000067e-02 1.437025000000000108e-01 1.558494999999999919e+01 5.583729999999999905e+01 2.038639999999999873e+03
3.300000000000000155e-02 1.436695000000000055e-01 1.475645000000000095e+01 5.462024999999999864e+01 2.038289999999999964e+03
3.400000000000000244e-02 1.436310000000000087e-01 1.389069999999999894e+01 5.317865000000000464e+01 2.037880000000000109e+03
3.500000000000000333e-02 1.435894999999999810e-01 1.308164999999999978e+01 5.175195000000000078e+01 2.037440000000000055e+03
3.600000000000000422e-02 1.435514999999999985e-01 1.243560000000000088e+01 5.065434999999999377e+01 2.037029999999999973e+03
3.700000000000000511e-02 1.435255000000000003e-01 1.204054999999999964e+01 5.017665000000000219e+01 2.036735000000000127e+03
3.799999999999999906e-02 1.435170000000000057e-01 1.194150000000000134e+01 5.049609999999999843e+01 2.036625000000000000e+03
3.899999999999999994e-02 1.435285000000000033e-01 1.212695000000000078e+01 5.162095000000000056e+01 2.036730000000000018e+03
4.000000000000000083e-02 1.435599999999999932e-01 1.253095000000000070e+01 5.338304999999999723e+01 2.037050000000000182e+03
4.100000000000000172e-02 1.436060000000000114e-01 1.304705000000000048e+01 5.547455000000000069e+01 2.037525000000000091e+03
4.200000000000000261e-02 1.436589999999999812e-01 1.354959999999999987e+01 5.751440000000000197e+01 2.038085000000000036e+03
4.300000000000000350e-02 1.437085000000000168e-01 1.391605000000000025e+01 5.912359999999999616e+01 2.038615000000000009e+03
4.400000000000000439e-02 1.437464999999999993e-01 1.404609999999999914e+01 5.999155000000000371e+01 2.039029999999999973e+03
4.499999999999999833e-02 1.437650000000000039e-01 1.387335000000000029e+01 5.992000000000000171e+01 2.039240000000000009e+03
4.599999999999999922e-02 1.437585000000000113e-01 1.336960000000000015e+01 5.884000000000000341e+01 2.039184999999999945e+03
4.700000000000000011e-02 1.437265000000000070e-01 1.254230000000000089e+01 5.680249999999999488e+01 2.038855000000000018e+03
4.800000000000000100e-02 1.436689999999999912e-01 1.142689500000000002e+01 5.395085000000000264e+01 2.038250000000000000e+03
4.900000000000000189e-02 1.435889999999999944e-01 1.007723499999999994e+01 5.048385000000000389e+01 2.037404999999999973e+03
5.000000000000000278e-02 1.434914999999999941e-01 8.556464999999999321e+00 4.662010000000000076e+01 2.036365000000000009e+03
5.100000000000000366e-02 1.433820000000000094e-01 6.930110000000000881e+00 4.257019999999999982e+01 2.035190000000000055e+03
5.200000000000000455e-02 1.432650000000000035e-01 5.261614999999999931e+00 3.852060000000000173e+01 2.033944999999999936e+03
5.300000000000000544e-02 1.431465000000000098e-01 3.610838499999999840e+00 3.462810000000000343e+01 2.032675000000000182e+03
5.399999999999999939e-02 1.430310000000000192e-01 2.034035000000000259e+00 3.102335000000000065e+01 2.031424999999999955e+03
5.500000000000000028e-02 1.429219999999999935e-01 5.845999999999997865e-01 2.781770000000000209e+01 2.030250000000000000e+03
5.600000000000000117e-02 1.428234999999999921e-01 -6.863550000000000484e-01 2.511054999999999993e+01 2.029179999999999836e+03
5.700000000000000205e-02 1.427380000000000038e-01 -1.730373500000000009e+00 2.299360000000000070e+01 2.028259999999999991e+03
5.800000000000000294e-02 1.426705000000000056e-01 -2.502965000000000106e+00 2.155144999999999911e+01 2.027514999999999873e+03
5.900000000000000383e-02 1.426215000000000122e-01 -2.965860000000000163e+00 2.085790000000000077e+01 2.026969999999999800e+03
6.000000000000000472e-02 1.425949999999999995e-01 -3.089700000000000113e+00 2.096945000000000192e+01 2.026670000000000073e+03
6.099999999999999867e-02 1.425925000000000109e-01 -2.856625000000000192e+00 2.191839999999999833e+01 2.026615000000000009e+03
6.199999999999999956e-02 1.426144999999999774e-01 -2.262164999999999981e+00 2.370629999999999882e+01 2.026824999999999818e+03
6.300000000000000044e-02 1.426614999999999966e-01 -1.316097999999999990e+00 2.630124999999999957e+01 2.027300000000000182e+03
6.400000000000000133e-02 1.427324999999999844e-01 -4.205999999999998629e-02 2.963750000000000284e+01 2.028039999999999964e+03
6.500000000000000222e-02 1.428260000000000085e-01 1.524049999999999905e+00 3.361975000000000335e+01 2.029014999999999873e+03
6.600000000000000311e-02 1.429394999999999971e-01 3.336468500000000059e+00 3.812955000000000183e+01 2.030215000000000146e+03
6.700000000000000400e-02 1.430694999999999883e-01 5.342615000000000336e+00 4.303385000000000105e+01 2.031595000000000027e+03
6.800000000000000488e-02 1.432125000000000203e-01 7.486254999999999882e+00 4.819429999999999836e+01 2.033119999999999891e+03
6.900000000000000577e-02 1.433645000000000058e-01 9.710609999999999076e+00 5.347525000000000261e+01 2.034744999999999891e+03
7.000000000000000666e-02 1.435220000000000107e-01 1.196112499999999912e+01 5.875164999999999793e+01 2.036440000000000055e+03
7.100000000000000755e-02 1.436804999999999888e-01 1.418796500000000194e+01 6.391474999999999795e+01 2.038160000000000082e+03
7.200000000000000844e-02 1.438380000000000214e-01 1.634825000000000017e+01 6.887685000000000457e+01 2.039865000000000009e+03
7.300000000000000933e-02 1.439910000000000079e-01 1.840729999999999933e+01 7.357429999999999382e+01 2.041534999999999854e+03
7.399999999999999634e-02 1.441379999999999884e-01 2.034029999999999916e+01 7.796915000000001328e+01 2.043139999999999873e+03
7.499999999999999722e-02 1.442780000000000173e-01 2.213244999999999862e+01 8.204955000000001064e+01 2.044675000000000182e+03
7.599999999999999811e-02 1.444090000000000096e-01 2.377919999999999945e+01 8.582820000000000960e+01 2.046119999999999891e+03
7.699999999999999900e-02 1.445329999999999948e-01 2.528549999999999898e+01 8.933969999999999345e+01 2.047490000000000009e+03
7.799999999999999989e-02 1.446494999999999864e-01 2.666420000000000101e+01 9.263589999999999236e+01 2.048780000000000200e+03
7.900000000000000078e-02 1.447605000000000142e-01 2.793479999999999919e+01 9.578050000000000352e+01 2.050009999999999764e+03
8.000000000000000167e-02 1.448670000000000235e-01 2.912055000000000149e+01 9.884324999999999761e+01 2.051190000000000055e+03
8.100000000000000255e-02 1.449710000000000165e-01 3.024654999999999916e+01 1.018926999999999907e+02 2.052349999999999909e+03
8.200000000000000344e-02 1.450740000000000085e-01 3.133729999999999905e+01 1.049909999999999997e+02 2.053500000000000000e+03
8.300000000000000433e-02 1.451790000000000025e-01 3.241445000000000221e+01 1.081875000000000000e+02 2.054659999999999854e+03
8.400000000000000522e-02 1.452855000000000119e-01 3.349504999999999910e+01 1.115174999999999983e+02 2.055850000000000364e+03
8.500000000000000611e-02 1.453959999999999975e-01 3.459059999999999491e+01 1.149969999999999999e+02 2.057069999999999709e+03
8.600000000000000699e-02 1.455095000000000138e-01 3.570609999999999928e+01 1.186235000000000070e+02 2.058335000000000036e+03
8.700000000000000788e-02 1.456274999999999931e-01 3.683970000000000056e+01 1.223764999999999930e+02 2.059640000000000327e+03
8.800000000000000877e-02 1.457479999999999887e-01 3.798349999999999937e+01 1.262194999999999965e+02 2.060980000000000018e+03
8.899999999999999578e-02 1.458714999999999873e-01 3.912404999999999688e+01 1.301024999999999920e+02 2.062349999999999909e+03
8.999999999999999667e-02 1.459949999999999859e-01 4.024354999999999905e+01 1.339664999999999964e+02 2.063724999999999909e+03
9.099999999999999756e-02 1.461179999999999979e-01 4.132115000000000293e+01 1.377475000000000023e+02 2.065094999999999800e+03
9.199999999999999845e-02 1.462384999999999935e-01 4.233435000000000059e+01 1.413804999999999836e+02 2.066440000000000055e+03
9.299999999999999933e-02 1.463544999999999985e-01 4.326044999999999874e+01 1.448015000000000043e+02 2.067734999999999673e+03
9.400000000000000022e-02 1.464644999999999975e-01 4.407800000000000296e+01 1.479549999999999841e+02 2.068970000000000255e+03
9.500000000000000111e-02 1.465664999999999885e-01 4.476774999999999949e+01 1.507920000000000016e+02 2.070119999999999891e+03
9.600000000000000200e-02 1.466594999999999982e-01 4.531395000000000550e+01 1.532740000000000009e+02 2.071164999999999964e+03
9.700000000000000289e-02 1.467419999999999836e-01 4.570499999999999829e+01 1.553765000000000214e+02 2.072099999999999909e+03
9.800000000000000377e-02 1.468134999999999857e-01 4.593394999999999584e+01 1.570860000000000127e+02 2.072909999999999854e+03
9.900000000000000466e-02 1.468730000000000036e-01 4.599894999999999357e+01 1.584025000000000034e+02 2.073590000000000146e+03
1.000000000000000056e-01 1.469205000000000094e-01 4.590305000000000035e+01 1.593375000000000057e+02 2.074144999999999982e+03
1.010000000000000064e-01 1.469570000000000043e-01 4.565409999999999968e+01 1.599155000000000086e+02 2.074569999999999709e+03
1.020000000000000073e-01 1.469830000000000025e-01 4.526449999999999818e+01 1.601689999999999827e+02 2.074864999999999782e+03
1.030000000000000082e-01 1.469989999999999908e-01 4.475005000000000166e+01 1.601384999999999934e+02 2.075059999999999945e+03
1.040000000000000091e-01 1.470049999999999968e-01 4.412959999999999638e+01 1.598704999999999927e+02 2.075150000000000091e+03
1.050000000000000100e-01 1.470044999999999824e-01 4.342405000000000115e+01 1.594144999999999754e+02 2.075149999999999636e+03
1.059999999999999970e-01 1.469975000000000032e-01 4.265515000000000612e+01 1.588220000000000027e+02 2.075079999999999927e+03
1.069999999999999979e-01 1.469854999999999912e-01 4.184475000000000477e+01 1.581410000000000196e+02 2.074954999999999927e+03
1.079999999999999988e-01 1.469705000000000039e-01 4.101399999999999579e+01 1.574184999999999945e+02 2.074789999999999964e+03
1.089999999999999997e-01 1.469530000000000003e-01 4.018219999999999459e+01 1.566945000000000050e+02 2.074605000000000018e+03
1.100000000000000006e-01 1.469349999999999823e-01 3.936634999999999707e+01 1.560039999999999907e+02 2.074400000000000091e+03
1.110000000000000014e-01 1.469169999999999920e-01 3.858060000000000400e+01 1.553735000000000070e+02 2.074199999999999818e+03
1.120000000000000023e-01 1.469000000000000028e-01 3.783570000000000277e+01 1.548210000000000264e+02 2.074015000000000327e+03
1.130000000000000032e-01 1.468840000000000146e-01 3.713859999999999673e+01 1.543584999999999923e+02 2.073835000000000036e+03
1.140000000000000041e-01 1.468710000000000016e-01 3.649284999999999712e+01 1.539855000000000018e+02 2.073684999999999945e+03
1.150000000000000050e-01 1.468595000000000039e-01 3.589809999999999945e+01 1.536965000000000146e+02 2.073555000000000291e+03
1.160000000000000059e-01 1.468504999999999949e-01 3.535079999999999956e+01 1.534775000000000205e+02 2.073445000000000164e+03
1.170000000000000068e-01 1.468424999999999869e-01 3.484430000000000405e+01 1.533084999999999809e+02 2.073355000000000018e+03
1.180000000000000077e-01 1.468359999999999943e-01 3.436945000000000050e+01 1.531634999999999991e+02 2.073274999999999636e+03
1.190000000000000085e-01 1.468304999999999749e-01 3.391530000000000200e+01 1.530160000000000196e+02 2.073210000000000036e+03
1.200000000000000094e-01 1.468244999999999967e-01 3.346975000000000477e+01 1.528340000000000032e+02 2.073135000000000218e+03
1.209999999999999964e-01 1.468174999999999897e-01 3.302020000000000266e+01 1.525879999999999939e+02 2.073055000000000291e+03
1.219999999999999973e-01 1.468085000000000084e-01 3.255429999999999779e+01 1.522509999999999764e+02 2.072949999999999818e+03
1.229999999999999982e-01 1.467970000000000108e-01 3.206080000000000041e+01 1.517969999999999970e+02 2.072820000000000164e+03
1.239999999999999991e-01 1.467819999999999958e-01 3.153000000000000114e+01 1.512055000000000007e+02 2.072650000000000091e+03
1.250000000000000000e-01 1.467630000000000046e-01 3.095455000000000112e+01 1.504635000000000105e+02 2.072439999999999600e+03
1.260000000000000009e-01 1.467400000000000093e-01 3.032955000000000112e+01 1.495640000000000214e+02 2.072185000000000400e+03
1.270000000000000018e-01 1.467120000000000091e-01 2.965329999999999799e+01 1.485074999999999932e+02 2.071875000000000000e+03
1.280000000000000027e-01 1.466799999999999771e-01 2.892699999999999960e+01 1.473015000000000043e+02 2.071514999999999873e+03
1.290000000000000036e-01 1.466430000000000233e-01 2.815500000000000114e+01 1.459615000000000009e+02 2.071114999999999782e+03
1.300000000000000044e-01 1.466024999999999967e-01 2.734450000000000003e+01 1.445099999999999909e+02 2.070659999999999854e+03
1.310000000000000053e-01 1.465584999999999805e-01 2.650525000000000020e+01 1.429739999999999895e+02 2.070170000000000073e+03
1.320000000000000062e-01 1.465119999999999756e-01 2.564889999999999759e+01 1.413854999999999791e+02 2.069654999999999745e+03
1.330000000000000071e-01 1.464634999999999965e-01 2.478880000000000194e+01 1.397789999999999964e+02 2.069119999999999891e+03
1.340000000000000080e-01 1.464150000000000174e-01 2.393880000000000052e+01 1.381899999999999977e+02 2.068574999999999818e+03
1.350000000000000089e-01 1.463659999999999961e-01 2.311299999999999955e+01 1.366524999999999750e+02 2.068029999999999745e+03
1.360000000000000098e-01 1.463185000000000180e-01 2.232495000000000118e+01 1.351995000000000005e+02 2.067500000000000000e+03
1.370000000000000107e-01 1.462729999999999864e-01 2.158704999999999785e+01 1.338600000000000136e+02 2.066994999999999891e+03
1.380000000000000115e-01 1.462309999999999999e-01 2.090984999999999872e+01 1.326569999999999823e+02 2.066519999999999982e+03
1.390000000000000124e-01 1.461925000000000030e-01 2.030199999999999960e+01 1.316089999999999804e+02 2.066090000000000146e+03
1.400000000000000133e-01 1.461585000000000245e-01 1.976950000000000074e+01 1.307280000000000086e+02 2.065710000000000036e+03
1.410000000000000142e-01 1.461294999999999955e-01 1.931589999999999918e+01 1.300190000000000055e+02 2.065375000000000000e+03
1.420000000000000151e-01 1.461049999999999849e-01 1.894225000000000136e+01 1.294815000000000111e+02 2.065100000000000364e+03
1.430000000000000160e-01 1.460855000000000070e-01 1.864695000000000036e+01 1.291090000000000089e+02 2.064869999999999891e+03
1.440000000000000169e-01 1.460710000000000064e-01 1.842620000000000147e+01 1.288899999999999864e+02 2.064704999999999927e+03
1.450000000000000178e-01 1.460609999999999964e-01 1.827420000000000044e+01 1.288084999999999809e+02 2.064585000000000036e+03
1.459999999999999909e-01 1.460555000000000048e-01 1.818345000000000056e+01 1.288455000000000155e+02 2.064514999999999873e+03
1.469999999999999918e-01 1.460529999999999884e-01 1.814535000000000053e+01 1.289795000000000016e+02 2.064485000000000127e+03
1.479999999999999927e-01 1.460544999999999760e-01 1.815050000000000097e+01 1.291899999999999977e+02 2.064494999999999891e+03
1.489999999999999936e-01 1.460579999999999934e-01 1.818894999999999840e+01 1.294524999999999864e+02 2.064525000000000091e+03
1.499999999999999944e-01 1.460635000000000128e-01 1.825094999999999956e+01 1.297470000000000141e+02 2.064585000000000036e+03
1.509999999999999953e-01 1.460699999999999776e-01 1.832710000000000150e+01 1.300540000000000020e+02 2.064654999999999745e+03
1.519999999999999962e-01 1.460774999999999990e-01 1.840850000000000009e+01 1.303539999999999850e+02 2.064730000000000018e+03
1.529999999999999971e-01 1.460849999999999926e-01 1.848750000000000071e+01 1.306330000000000098e+02 2.064810000000000400e+03
1.539999999999999980e-01 1.460925000000000140e-01 1.855734999999999957e+01 1.308785000000000025e+02 2.064894999999999982e+03
1.549999999999999989e-01 1.460990000000000066e-01 1.861270000000000024e+01 1.310819999999999936e+02 2.064965000000000146e+03
1.559999999999999998e-01 1.461045000000000260e-01 1.864965000000000117e+01 1.312364999999999782e+02 2.065029999999999745e+03
1.570000000000000007e-01 1.461089999999999889e-01 1.866574999999999918e+01 1.313410000000000082e+02 2.065074999999999818e+03
1.580000000000000016e-01 1.461119999999999919e-01 1.865984999999999872e+01 1.313950000000000102e+02 2.065109999999999673e+03
1.590000000000000024e-01 1.461139999999999939e-01 1.863220000000000098e+01 1.314014999999999986e+02 2.065140000000000327e+03
