# t [s], A [cm^2], U [cm/s], P [cPa], c [cm/s]
1.000000000000000021e-03 7.846025000000000915e-01 5.379899999999999960e-03 1.064484999999999957e+02 1.589325000000000045e+03
2.000000000000000042e-03 7.845895000000000508e-01 -2.993285000000000043e-03 1.064254999999999995e+02 1.589320000000000164e+03
3.000000000000000062e-03 7.846349999999999714e-01 5.644709999999999311e-02 1.064890000000000043e+02 1.589335000000000036e+03
4.000000000000000083e-03 7.847014999999999407e-01 1.499976500000000101e-01 1.066090000000000089e+02 1.589369999999999891e+03
5.000000000000000104e-03 7.847024999999999695e-01 1.660925000000000040e-01 1.066225000000000023e+02 1.589375000000000000e+03
6.000000000000000125e-03 7.846394999999999342e-01 9.661599999999999355e-02 1.064834999999999923e+02 1.589345000000000027e+03
7.000000000000000146e-03 7.845785000000000675e-01 2.618999999999999106e-02 1.062849999999999966e+02 1.589300000000000182e+03
8.000000000000000167e-03 7.845145000000000035e-01 -5.572199999999999376e-02 1.060345000000000084e+02 1.589234999999999900e+03
9.000000000000001055e-03 7.844029999999999614e-01 -2.167290000000000050e-01 1.056519999999999868e+02 1.589144999999999982e+03
1.000000000000000194e-02 7.842294999999999128e-01 -4.776749999999999607e-01 1.050884999999999962e+02 1.589009999999999991e+03
1.099999999999999936e-02 7.839844999999999731e-01 -8.488850000000000007e-01 1.043015000000000043e+02 1.588824999999999818e+03
1.200000000000000025e-02 7.836469999999999825e-01 -1.349544999999999995e+00 1.032321499999999901e+02 1.588565000000000055e+03
1.300000000000000114e-02 7.832175000000000109e-01 -1.963270000000000071e+00 1.018612499999999983e+02 1.588230000000000018e+03
1.400000000000000203e-02 7.827399999999999913e-01 -2.608960000000000168e+00 1.002576999999999998e+02 1.587825000000000045e+03
1.499999999999999944e-02 7.822765000000000413e-01 -3.168590000000000018e+00 9.856130000000000280e+01 1.587380000000000109e+03
1.600000000000000033e-02 7.818784999999999208e-01 -3.540907499999999875e+00 9.691995000000000005e+01 1.586940000000000055e+03
1.700000000000000122e-02 7.815615000000000201e-01 -3.677404999999999813e+00 9.543090000000000828e+01 1.586514999999999873e+03
1.800000000000000211e-02 7.813090000000000312e-01 -3.586993500000000168e+00 9.411769999999999925e+01 1.586119999999999891e+03
1.900000000000000300e-02 7.810835000000000417e-01 -3.318839500000000164e+00 9.293989999999999441e+01 1.585750000000000000e+03
2.000000000000000042e-02 7.808464999999999989e-01 -2.937240100000000353e+00 9.182095000000001050e+01 1.585389999999999873e+03
2.100000000000000130e-02 7.805670000000000108e-01 -2.498622999999999816e+00 9.068035000000000423e+01 1.585014999999999873e+03
2.200000000000000219e-02 7.802344999999999420e-01 -2.036379999999999857e+00 8.946160000000000423e+01 1.584634999999999991e+03
2.299999999999999961e-02 7.798555000000000348e-01 -1.556370000000000031e+00 8.814635000000001241e+01 1.584215000000000146e+03
2.400000000000000050e-02 7.794480000000000297e-01 -1.043145000000000211e+00 8.675430000000000064e+01 1.583784999999999854e+03
2.500000000000000139e-02 7.790360000000000618e-01 -4.735300000000002285e-01 8.532890000000000441e+01 1.583345000000000027e+03
2.600000000000000228e-02 7.786355000000000359e-01 1.682549999999998214e-01 8.391644999999999754e+01 1.582904999999999973e+03
2.700000000000000316e-02 7.782530000000000836e-01 8.792450000000000543e-01 8.254664999999999964e+01 1.582465000000000146e+03
2.800000000000000058e-02 7.778804999999999747e-01 1.633389999999999898e+00 8.122034999999999627e+01 1.582039999999999964e+03
2.900000000000000147e-02 7.774989999999999402e-01 2.384179999999999744e+00 7.990684999999999150e+01 1.581619999999999891e+03
3.000000000000000236e-02 7.770840000000001080e-01 3.072914999999999619e+00 7.855035000000000878e+01 1.581190000000000055e+03
3.099999999999999978e-02 7.766104999999999814e-01 3.640075000000000394e+00 7.708355000000000246e+01 1.580740000000000009e+03
3.200000000000000067e-02 7.760610000000000008e-01 4.037399999999999878e+00 7.544419999999999504e+01 1.580244999999999891e+03
3.300000000000000155e-02 7.754305000000000225e-01 4.237644999999999662e+00 7.359244999999999948e+01 1.579710000000000036e+03
3.400000000000000244e-02 7.747269999999999435e-01 4.239969999999999573e+00 7.152260000000001128e+01 1.579115000000000009e+03
3.500000000000000333e-02 7.739730000000000221e-01 4.068995000000001028e+00 6.926730000000000587e+01 1.578485000000000127e+03
3.600000000000000422e-02 7.731974999999999820e-01 3.768674999999999553e+00 6.689345000000000141e+01 1.577820000000000164e+03
3.700000000000000511e-02 7.724355000000000526e-01 3.392809999999999437e+00 6.449084999999999468e+01 1.577144999999999982e+03
3.799999999999999906e-02 7.717180000000000151e-01 2.995529999999999582e+00 6.215865000000000862e+01 1.576480000000000018e+03
3.899999999999999994e-02 7.710719999999999796e-01 2.623920000000000474e+00 5.999170000000000158e+01 1.575860000000000127e+03
4.000000000000000083e-02 7.705159999999999787e-01 2.313509999999999955e+00 5.807059999999999889e+01 1.575289999999999964e+03
4.100000000000000172e-02 7.700614999999999544e-01 2.087735000000000340e+00 5.645615000000000094e+01 1.574795000000000073e+03
4.200000000000000261e-02 7.697134999999999394e-01 1.959265000000000034e+00 5.518805000000000405e+01 1.574394999999999982e+03
4.300000000000000350e-02 7.694719999999999338e-01 1.933275000000000077e+00 5.428679999999999950e+01 1.574085000000000036e+03
4.400000000000000439e-02 7.693345000000000322e-01 2.011085000000000012e+00 5.375804999999999723e+01 1.573880000000000109e+03
4.499999999999999833e-02 7.692995000000000250e-01 2.193410000000000082e+00 5.359785000000000110e+01 1.573779999999999973e+03
4.599999999999999922e-02 7.693640000000000478e-01 2.482504999999999740e+00 5.379749999999999943e+01 1.573780000000000200e+03
4.700000000000000011e-02 7.695260000000000433e-01 2.882905000000000051e+00 5.434704999999999586e+01 1.573880000000000109e+03
4.800000000000000100e-02 7.697855000000000114e-01 3.400703999999999727e+00 5.523675000000000068e+01 1.574079999999999927e+03
4.900000000000000189e-02 7.701409999999999645e-01 4.041846999999999746e+00 5.645655000000000001e+01 1.574365000000000009e+03
5.000000000000000278e-02 7.705889999999999684e-01 4.809989499999999474e+00 5.799495000000000289e+01 1.574755000000000109e+03
5.100000000000000366e-02 7.711265000000000480e-01 5.704530000000000101e+00 5.983635000000000304e+01 1.575230000000000018e+03
5.200000000000000455e-02 7.717454999999999732e-01 6.719316499999999692e+00 6.195935000000000059e+01 1.575785000000000082e+03
5.300000000000000544e-02 7.724364999999999704e-01 7.842349999999999710e+00 6.433549999999999613e+01 1.576424999999999955e+03
5.399999999999999939e-02 7.731869999999999576e-01 9.056224999999999525e+00 6.692940000000000111e+01 1.577119999999999891e+03
5.500000000000000028e-02 7.739834999999999354e-01 1.033945499999999917e+01 6.969984999999999786e+01 1.577880000000000109e+03
5.600000000000000117e-02 7.748114999999999863e-01 1.166813499999999948e+01 7.260175000000000978e+01 1.578679999999999836e+03
5.700000000000000205e-02 7.756574999999999998e-01 1.301795500000000061e+01 7.558884999999999366e+01 1.579514999999999873e+03
5.800000000000000294e-02 7.765089999999998938e-01 1.436585000000000001e+01 7.861645000000000039e+01 1.580369999999999891e+03
5.900000000000000383e-02 7.773554999999999771e-01 1.569148500000000013e+01 8.164410000000000878e+01 1.581230000000000018e+03
6.000000000000000472e-02 7.781879999999999908e-01 1.697804999999999964e+01 8.463730000000001041e+01 1.582099999999999909e+03
6.099999999999999867e-02 7.790010000000000545e-01 1.821290000000000120e+01 8.756929999999999836e+01 1.582954999999999927e+03
6.199999999999999956e-02 7.797899999999999832e-01 1.938725000000000165e+01 9.042119999999999891e+01 1.583795000000000073e+03
6.300000000000000044e-02 7.805549999999999988e-01 2.049615000000000009e+01 9.318120000000000402e+01 1.584615000000000009e+03
6.400000000000000133e-02 7.812954999999999206e-01 2.153739999999999810e+01 9.584539999999999793e+01 1.585409999999999854e+03
6.500000000000000222e-02 7.820124999999999993e-01 2.251140000000000185e+01 9.841564999999999941e+01 1.586190000000000055e+03
6.600000000000000311e-02 7.827089999999999881e-01 2.342004999999999981e+01 1.008967999999999989e+02 1.586940000000000055e+03
6.700000000000000400e-02 7.833870000000000555e-01 2.426599999999999824e+01 1.032971000000000004e+02 1.587670000000000073e+03
6.800000000000000488e-02 7.840494999999999548e-01 2.505245000000000033e+01 1.056273500000000070e+02 1.588384999999999991e+03
6.900000000000000577e-02 7.846990000000000354e-01 2.578219999999999956e+01 1.078954999999999984e+02 1.589075000000000045e+03
7.000000000000000666e-02 7.853360000000000340e-01 2.645755000000000123e+01 1.101099999999999994e+02 1.589759999999999991e+03
7.100000000000000755e-02 7.859625000000000083e-01 2.707990000000000208e+01 1.122770000000000010e+02 1.590420000000000073e+03
7.200000000000000844e-02 7.865774999999999295e-01 2.764949999999999974e+01 1.143985000000000127e+02 1.591075000000000045e+03
7.300000000000000933e-02 7.871805000000000607e-01 2.816554999999999964e+01 1.164735000000000014e+02 1.591710000000000036e+03
7.399999999999999634e-02 7.877695000000000114e-01 2.862614999999999910e+01 1.184985000000000070e+02 1.592335000000000036e+03
7.499999999999999722e-02 7.883409999999999584e-01 2.902864999999999895e+01 1.204654999999999916e+02 1.592940000000000055e+03
7.599999999999999811e-02 7.888930000000000664e-01 2.936980000000000146e+01 1.223654999999999973e+02 1.593530000000000200e+03
7.699999999999999900e-02 7.894214999999999982e-01 2.964614999999999867e+01 1.241864999999999952e+02 1.594099999999999909e+03
7.799999999999999989e-02 7.899225000000000829e-01 2.985439999999999827e+01 1.259164999999999992e+02 1.594639999999999873e+03
7.900000000000000078e-02 7.903929999999999012e-01 2.999159999999999826e+01 1.275430000000000064e+02 1.595154999999999973e+03
8.000000000000000167e-02 7.908294999999999630e-01 3.005564999999999998e+01 1.290540000000000020e+02 1.595634999999999991e+03
8.100000000000000255e-02 7.912295000000000300e-01 3.004500000000000171e+01 1.304395000000000095e+02 1.596079999999999927e+03
8.200000000000000344e-02 7.915905000000000857e-01 2.995935000000000059e+01 1.316904999999999859e+02 1.596490000000000009e+03
8.300000000000000433e-02 7.919119999999999493e-01 2.979905000000000115e+01 1.328015000000000043e+02 1.596855000000000018e+03
8.400000000000000522e-02 7.921920000000000073e-01 2.956559999999999988e+01 1.337665000000000077e+02 1.597184999999999945e+03
8.500000000000000611e-02 7.924314999999999554e-01 2.926135000000000019e+01 1.345854999999999961e+02 1.597464999999999918e+03
8.600000000000000699e-02 7.926295000000000979e-01 2.888949999999999818e+01 1.352584999999999980e+02 1.597710000000000036e+03
8.700000000000000788e-02 7.927880000000000482e-01 2.845409999999999684e+01 1.357869999999999777e+02 1.597905000000000200e+03
8.800000000000000877e-02 7.929079999999999462e-01 2.796005000000000251e+01 1.361770000000000209e+02 1.598059999999999945e+03
8.899999999999999578e-02 7.929904999999999315e-01 2.741300000000000026e+01 1.364350000000000023e+02 1.598174999999999955e+03
8.999999999999999667e-02 7.930395000000000083e-01 2.681920000000000215e+01 1.365690000000000168e+02 1.598255000000000109e+03
9.099999999999999756e-02 7.930574999999999708e-01 2.618574999999999875e+01 1.365900000000000034e+02 1.598295000000000073e+03
9.199999999999999845e-02 7.930475000000000163e-01 2.552020000000000266e+01 1.365090000000000146e+02 1.598304999999999836e+03
9.299999999999999933e-02 7.930135000000000378e-01 2.483044999999999902e+01 1.363394999999999868e+02 1.598279999999999973e+03
9.400000000000000022e-02 7.929595000000000393e-01 2.412464999999999904e+01 1.360944999999999823e+02 1.598240000000000009e+03
9.500000000000000111e-02 7.928884999999999961e-01 2.341089999999999804e+01 1.357884999999999991e+02 1.598170000000000073e+03
9.600000000000000200e-02 7.928055000000000518e-01 2.269695000000000107e+01 1.354354999999999905e+02 1.598085000000000036e+03
9.700000000000000289e-02 7.927139999999999187e-01 2.199009999999999820e+01 1.350489999999999782e+02 1.597985000000000127e+03
9.800000000000000377e-02 7.926159999999999872e-01 2.129664999999999964e+01 1.346419999999999959e+02 1.597880000000000109e+03
9.900000000000000466e-02 7.925155000000000394e-01 2.062190000000000012e+01 1.342245000000000061e+02 1.597764999999999873e+03
1.000000000000000056e-01 7.924154999999999394e-01 1.996985000000000099e+01 1.338070000000000164e+02 1.597650000000000091e+03
1.010000000000000064e-01 7.923154999999999504e-01 1.934325000000000117e+01 1.333960000000000150e+02 1.597529999999999973e+03
1.020000000000000073e-01 7.922184999999999366e-01 1.874324999999999974e+01 1.329970000000000141e+02 1.597410000000000082e+03
1.030000000000000082e-01 7.921234999999999804e-01 1.816969999999999885e+01 1.326119999999999948e+02 1.597295000000000073e+03
1.040000000000000091e-01 7.920309999999999295e-01 1.762129999999999797e+01 1.322415000000000020e+02 1.597180000000000064e+03
1.050000000000000100e-01 7.919395000000000184e-01 1.709550000000000125e+01 1.318840000000000146e+02 1.597070000000000164e+03
1.059999999999999970e-01 7.918479999999999963e-01 1.658895000000000053e+01 1.315370000000000061e+02 1.596960000000000036e+03
1.069999999999999979e-01 7.917560000000000153e-01 1.609769999999999968e+01 1.311945000000000050e+02 1.596849999999999909e+03
1.079999999999999988e-01 7.916615000000000180e-01 1.561730000000000018e+01 1.308520000000000039e+02 1.596744999999999891e+03
1.089999999999999997e-01 7.915620000000000989e-01 1.514324999999999832e+01 1.305040000000000191e+02 1.596634999999999991e+03
1.100000000000000006e-01 7.914574999999999250e-01 1.467094999999999949e+01 1.301440000000000055e+02 1.596529999999999973e+03
1.110000000000000014e-01 7.913455000000000350e-01 1.419625000000000092e+01 1.297674999999999841e+02 1.596409999999999854e+03
1.120000000000000023e-01 7.912259999999999849e-01 1.371544999999999881e+01 1.293689999999999998e+02 1.596289999999999964e+03
1.130000000000000032e-01 7.910980000000000789e-01 1.322532999999999959e+01 1.289449999999999932e+02 1.596164999999999964e+03
1.140000000000000041e-01 7.909604999999999553e-01 1.272358000000000011e+01 1.284939999999999998e+02 1.596029999999999973e+03
1.150000000000000050e-01 7.908140000000000169e-01 1.220872999999999919e+01 1.280149999999999864e+02 1.595890000000000100e+03
1.160000000000000059e-01 7.906595000000000706e-01 1.168019500000000122e+01 1.275089999999999861e+02 1.595740000000000009e+03
1.170000000000000068e-01 7.904979999999999229e-01 1.113846500000000006e+01 1.269774999999999920e+02 1.595590000000000146e+03
1.180000000000000077e-01 7.903310000000000057e-01 1.058488000000000007e+01 1.264250000000000114e+02 1.595424999999999955e+03
1.190000000000000085e-01 7.901599999999999735e-01 1.002181500000000014e+01 1.258580000000000041e+02 1.595259999999999991e+03
1.200000000000000094e-01 7.899879999999999125e-01 9.452490000000000947e+00 1.252824999999999989e+02 1.595094999999999800e+03
1.209999999999999964e-01 7.898169999999999913e-01 8.880805000000000504e+00 1.247069999999999936e+02 1.594930000000000064e+03
1.219999999999999973e-01 7.896499999999999631e-01 8.311284999999999812e+00 1.241405000000000030e+02 1.594759999999999991e+03
1.229999999999999982e-01 7.894905000000000950e-01 7.748949999999999783e+00 1.235925000000000011e+02 1.594599999999999909e+03
1.239999999999999991e-01 7.893400000000000416e-01 7.199010000000000353e+00 1.230725000000000051e+02 1.594445000000000164e+03
1.250000000000000000e-01 7.892025000000000290e-01 6.666674999999999685e+00 1.225904999999999916e+02 1.594299999999999955e+03
1.260000000000000009e-01 7.890800000000000036e-01 6.157015000000000349e+00 1.221560000000000059e+02 1.594164999999999964e+03
1.270000000000000018e-01 7.889749999999999819e-01 5.674735000000000085e+00 1.217770000000000010e+02 1.594045000000000073e+03
1.280000000000000027e-01 7.888889999999999514e-01 5.223990000000000578e+00 1.214594999999999914e+02 1.593945000000000164e+03
1.290000000000000036e-01 7.888235000000000108e-01 4.808205000000000062e+00 1.212104999999999961e+02 1.593860000000000127e+03
1.300000000000000044e-01 7.887794999999999668e-01 4.429964999999999264e+00 1.210330000000000013e+02 1.593795000000000073e+03
1.310000000000000053e-01 7.887575000000000003e-01 4.090934999999999988e+00 1.209290000000000020e+02 1.593750000000000000e+03
1.320000000000000062e-01 7.887565000000000826e-01 3.791799999999999837e+00 1.208985000000000127e+02 1.593730000000000018e+03
1.330000000000000071e-01 7.887759999999999216e-01 3.532270000000000021e+00 1.209399999999999977e+02 1.593724999999999909e+03
1.340000000000000080e-01 7.888140000000000152e-01 3.311130000000000351e+00 1.210490000000000066e+02 1.593744999999999891e+03
1.350000000000000089e-01 7.888699999999999601e-01 3.126319999999999766e+00 1.212199999999999989e+02 1.593775000000000091e+03
1.360000000000000098e-01 7.889410000000000034e-01 2.975060000000000038e+00 1.214470000000000027e+02 1.593829999999999927e+03
1.370000000000000107e-01 7.890245000000000175e-01 2.853995000000000282e+00 1.217210000000000036e+02 1.593894999999999982e+03
1.380000000000000115e-01 7.891179999999999861e-01 2.759344999999999715e+00 1.220344999999999942e+02 1.593974999999999909e+03
1.390000000000000124e-01 7.892194999999999627e-01 2.687065000000000037e+00 1.223774999999999977e+02 1.594069999999999936e+03
1.400000000000000133e-01 7.893255000000000132e-01 2.633010000000000073e+00 1.227404999999999973e+02 1.594164999999999964e+03
1.410000000000000142e-01 7.894339999999999691e-01 2.593069999999999986e+00 1.231154999999999973e+02 1.594269999999999982e+03
1.420000000000000151e-01 7.895419999999999661e-01 2.563290000000000290e+00 1.234935000000000116e+02 1.594369999999999891e+03
1.430000000000000160e-01 7.896484999999999754e-01 2.539979999999999905e+00 1.238670000000000044e+02 1.594480000000000018e+03
1.440000000000000169e-01 7.897509999999999808e-01 2.519785000000000164e+00 1.242284999999999968e+02 1.594579999999999927e+03
1.450000000000000178e-01 7.898484999999999534e-01 2.499750000000000139e+00 1.245724999999999909e+02 1.594679999999999836e+03
1.459999999999999909e-01 7.899389999999999468e-01 2.477335000000000065e+00 1.248934999999999889e+02 1.594775000000000091e+03
1.469999999999999918e-01 7.900224999999999609e-01 2.450474999999999959e+00 1.251889999999999930e+02 1.594865000000000009e+03
1.479999999999999927e-01 7.900975000000000081e-01 2.417514999999999858e+00 1.254549999999999983e+02 1.594944999999999936e+03
1.489999999999999936e-01 7.901635000000000186e-01 2.377270000000000216e+00 1.256910000000000025e+02 1.595019999999999982e+03
1.499999999999999944e-01 7.902215000000000211e-01 2.328959999999999919e+00 1.258944999999999936e+02 1.595085000000000036e+03
1.509999999999999953e-01 7.902700000000000280e-01 2.272190000000000154e+00 1.260664999999999907e+02 1.595144999999999982e+03
1.519999999999999962e-01 7.903109999999999857e-01 2.206934999999999647e+00 1.262069999999999936e+02 1.595190000000000055e+03
1.529999999999999971e-01 7.903430000000000177e-01 2.133449999999999847e+00 1.263180000000000121e+02 1.595230000000000018e+03
1.539999999999999980e-01 7.903679999999999595e-01 2.052294999999999980e+00 1.263994999999999891e+02 1.595259999999999991e+03
1.549999999999999989e-01 7.903854999999999631e-01 1.964204999999999979e+00 1.264550000000000125e+02 1.595285000000000082e+03
1.559999999999999998e-01 7.903959999999999875e-01 1.870090000000000030e+00 1.264849999999999994e+02 1.595295000000000073e+03
1.570000000000000007e-01 7.904009999999999092e-01 1.770955000000000057e+00 1.264925000000000068e+02 1.595305000000000064e+03
1.580000000000000016e-01 7.904005000000000614e-01 1.667854999999999865e+00 1.264795000000000016e+02 1.595309999999999945e+03
1.590000000000000024e-01 7.903949999999999587e-01 1.561844999999999928e+00 1.264474999999999909e+02 1.595300000000000182e+03
