# t [s], A [cm^2], U [cm/s], P [cPa], c [cm/s]
1.000000000000000021e-03 2.084145000000000025e-01 1.778965000000000130e-01 1.022681499999999915e+02 2.000940000000000055e+03
2.000000000000000042e-03 2.083769999999999789e-01 1.566038999999999959e+00 9.945914999999999395e+01 2.000644999999999982e+03
3.000000000000000062e-03 2.082455000000000001e-01 3.339253499999999875e+00 9.554345000000000709e+01 1.999695000000000164e+03
4.000000000000000083e-03 2.080504999999999993e-01 5.340727000000000224e+00 9.098660000000000991e+01 1.998304999999999836e+03
5.000000000000000104e-03 2.078274999999999983e-01 7.511669999999999625e+00 8.656300000000000239e+01 1.996744999999999891e+03
6.000000000000000125e-03 2.076029999999999820e-01 9.740700000000000358e+00 8.273265000000000668e+01 1.995180000000000064e+03
7.000000000000000146e-03 2.073900000000000188e-01 1.185141499999999937e+01 7.950954999999999018e+01 1.993720000000000027e+03
8.000000000000000167e-03 2.071910000000000140e-01 1.370110000000000028e+01 7.668424999999999159e+01 1.992375000000000000e+03
9.000000000000001055e-03 2.070095000000000129e-01 1.526110000000000078e+01 7.416964999999999009e+01 1.991174999999999955e+03
1.000000000000000194e-02 2.068514999999999937e-01 1.656194999999999951e+01 7.202429999999999666e+01 1.990139999999999873e+03
1.099999999999999936e-02 2.067184999999999995e-01 1.762924999999999898e+01 7.029014999999999702e+01 1.989279999999999973e+03
1.200000000000000025e-02 2.066105000000000025e-01 1.847939999999999827e+01 6.895014999999999361e+01 1.988590000000000146e+03
1.300000000000000114e-02 2.065250000000000141e-01 1.912434999999999974e+01 6.795099999999999341e+01 1.988049999999999955e+03
1.400000000000000203e-02 2.064590000000000036e-01 1.956734999999999758e+01 6.720250000000000057e+01 1.987639999999999873e+03
1.499999999999999944e-02 2.064064999999999928e-01 1.981799999999999784e+01 6.660420000000000584e+01 1.987329999999999927e+03
1.600000000000000033e-02 2.063655000000000073e-01 1.992269999999999897e+01 6.613020000000000209e+01 1.987094999999999800e+03
1.700000000000000122e-02 2.063389999999999946e-01 1.997560000000000002e+01 6.589610000000000412e+01 1.986944999999999936e+03
1.800000000000000211e-02 2.063320000000000154e-01 2.009169999999999945e+01 6.612780000000000769e+01 1.986920000000000073e+03
1.900000000000000300e-02 2.063534999999999953e-01 2.035810000000000031e+01 6.703990000000000293e+01 1.987074999999999818e+03
2.000000000000000042e-02 2.064060000000000061e-01 2.079530000000000101e+01 6.870420000000000016e+01 1.987420000000000073e+03
2.100000000000000130e-02 2.064880000000000049e-01 2.134975000000000023e+01 7.098570000000000846e+01 1.987954999999999927e+03
2.200000000000000219e-02 2.065894999999999815e-01 2.191635000000000133e+01 7.357144999999999868e+01 1.988625000000000000e+03
2.299999999999999961e-02 2.066975000000000062e-01 2.237729999999999819e+01 7.606969999999999743e+01 1.989340000000000146e+03
2.400000000000000050e-02 2.067984999999999962e-01 2.264039999999999964e+01 7.812884999999999991e+01 1.990019999999999982e+03
2.500000000000000139e-02 2.068804999999999950e-01 2.266300000000000026e+01 7.953159999999999741e+01 1.990585000000000036e+03
2.600000000000000228e-02 2.069394999999999984e-01 2.245664999999999978e+01 8.023569999999999425e+01 1.991000000000000000e+03
2.700000000000000316e-02 2.069750000000000201e-01 2.207450000000000045e+01 8.035609999999999786e+01 1.991255000000000109e+03
2.800000000000000058e-02 2.069904999999999939e-01 2.158745000000000047e+01 8.010285000000000366e+01 1.991380000000000109e+03
2.900000000000000147e-02 2.069949999999999846e-01 2.105944999999999823e+01 7.970050000000000523e+01 1.991414999999999964e+03
3.000000000000000236e-02 2.069924999999999959e-01 2.052935000000000088e+01 7.931829999999999359e+01 1.991409999999999854e+03
3.099999999999999978e-02 2.069885000000000197e-01 2.000410000000000110e+01 7.902975000000000705e+01 1.991384999999999991e+03
3.200000000000000067e-02 2.069845000000000157e-01 1.946354999999999791e+01 7.881024999999999636e+01 1.991360000000000127e+03
3.300000000000000155e-02 2.069774999999999809e-01 1.887349999999999994e+01 7.856614999999999327e+01 1.991315000000000055e+03
3.400000000000000244e-02 2.069654999999999967e-01 1.820219999999999771e+01 7.818295000000000528e+01 1.991240000000000009e+03
3.500000000000000333e-02 2.069449999999999901e-01 1.743515000000000015e+01 7.757564999999999600e+01 1.991115000000000009e+03
3.600000000000000422e-02 2.069154999999999744e-01 1.658474999999999966e+01 7.672790000000000532e+01 1.990925000000000182e+03
3.700000000000000511e-02 2.068774999999999920e-01 1.569154999999999944e+01 7.570844999999999914e+01 1.990679999999999836e+03
3.799999999999999906e-02 2.068349999999999911e-01 1.481750000000000078e+01 7.466159999999999286e+01 1.990410000000000082e+03
3.899999999999999994e-02 2.067944999999999922e-01 1.403245000000000076e+01 7.377474999999999739e+01 1.990140000000000100e+03
4.000000000000000083e-02 2.067640000000000033e-01 1.339920000000000044e+01 7.323284999999999911e+01 1.989934999999999945e+03
4.100000000000000172e-02 2.067479999999999873e-01 1.295925000000000082e+01 7.317374999999999829e+01 1.989825000000000045e+03
4.200000000000000261e-02 2.067529999999999923e-01 1.272504999999999953e+01 7.365514999999999191e+01 1.989840000000000146e+03
4.300000000000000350e-02 2.067780000000000173e-01 1.267764999999999986e+01 7.464220000000000255e+01 1.989990000000000009e+03
4.400000000000000439e-02 2.068220000000000058e-01 1.277224999999999966e+01 7.601475000000000648e+01 1.990264999999999873e+03
4.499999999999999833e-02 2.068794999999999940e-01 1.294630000000000081e+01 7.759215000000000373e+01 1.990630000000000109e+03
4.599999999999999922e-02 2.069429999999999881e-01 1.313119999999999976e+01 7.916644999999999754e+01 1.991045000000000073e+03
4.700000000000000011e-02 2.070049999999999946e-01 1.326229999999999976e+01 8.053700000000000614e+01 1.991450000000000045e+03
4.800000000000000100e-02 2.070580000000000198e-01 1.328675000000000139e+01 8.153870000000000573e+01 1.991799999999999955e+03
4.900000000000000189e-02 2.070964999999999889e-01 1.316819999999999879e+01 8.206024999999999636e+01 1.992055000000000064e+03
5.000000000000000278e-02 2.071155000000000079e-01 1.288814999999999955e+01 8.205039999999999623e+01 1.992195000000000164e+03
5.100000000000000366e-02 2.071129999999999916e-01 1.244369999999999976e+01 8.151374999999998749e+01 1.992184999999999945e+03
5.200000000000000455e-02 2.070899999999999963e-01 1.184430000000000049e+01 8.049805000000000632e+01 1.992039999999999964e+03
5.300000000000000544e-02 2.070464999999999944e-01 1.110708500000000143e+01 7.907869999999999777e+01 1.991765000000000100e+03
5.399999999999999939e-02 2.069860000000000033e-01 1.025337499999999835e+01 7.734270000000000778e+01 1.991375000000000000e+03
5.500000000000000028e-02 2.069114999999999982e-01 9.305329999999999657e+00 7.537614999999999554e+01 1.990889999999999873e+03
5.600000000000000117e-02 2.068260000000000098e-01 8.284790000000000987e+00 7.325655000000000427e+01 1.990329999999999927e+03
5.700000000000000205e-02 2.067324999999999857e-01 7.212920000000000442e+00 7.105019999999998959e+01 1.989719999999999800e+03
5.800000000000000294e-02 2.066334999999999977e-01 6.111095000000000610e+00 6.881399999999999295e+01 1.989069999999999936e+03
5.900000000000000383e-02 2.065325000000000077e-01 5.001699999999999591e+00 6.659929999999999950e+01 1.988404999999999973e+03
6.000000000000000472e-02 2.064314999999999900e-01 3.909365000000000201e+00 6.445660000000000878e+01 1.987735000000000127e+03
6.099999999999999867e-02 2.063329999999999886e-01 2.861391499999999866e+00 6.243970000000000198e+01 1.987085000000000036e+03
6.199999999999999956e-02 2.062404999999999933e-01 1.887621000000000215e+00 6.060759999999999792e+01 1.986469999999999800e+03
6.300000000000000044e-02 2.061554999999999915e-01 1.019565000000000055e+00 5.902415000000000589e+01 1.985904999999999973e+03
6.400000000000000133e-02 2.060819999999999874e-01 2.889649999999999164e-01 5.775544999999999618e+01 1.985414999999999964e+03
6.500000000000000222e-02 2.060230000000000117e-01 -2.740749999999999575e-01 5.686610000000000298e+01 1.985009999999999991e+03
6.600000000000000311e-02 2.059810000000000252e-01 -6.430709999999999482e-01 5.641340000000000288e+01 1.984724999999999909e+03
6.700000000000000400e-02 2.059590000000000032e-01 -7.969530000000000225e-01 5.644304999999999950e+01 1.984559999999999945e+03
6.800000000000000488e-02 2.059584999999999888e-01 -7.215015000000000178e-01 5.698479999999999990e+01 1.984545000000000073e+03
6.900000000000000577e-02 2.059805000000000108e-01 -4.102474999999999872e-01 5.804949999999999477e+01 1.984674999999999955e+03
7.000000000000000666e-02 2.060265000000000013e-01 1.351900000000000324e-01 5.962839999999999918e+01 1.984954999999999927e+03
7.100000000000000755e-02 2.060950000000000004e-01 9.054025000000001100e-01 6.169364999999999810e+01 1.985384999999999991e+03
7.200000000000000844e-02 2.061860000000000082e-01 1.883886000000000172e+00 6.420050000000000523e+01 1.985965000000000146e+03
7.300000000000000933e-02 2.062970000000000081e-01 3.048252000000000184e+00 6.709069999999999823e+01 1.986680000000000064e+03
7.399999999999999634e-02 2.064254999999999840e-01 4.371599999999999930e+00 7.029650000000000887e+01 1.987509999999999991e+03
7.499999999999999722e-02 2.065684999999999882e-01 5.824119999999999742e+00 7.374519999999999698e+01 1.988445000000000164e+03
7.599999999999999811e-02 2.067235000000000045e-01 7.374655000000000626e+00 7.736365000000000691e+01 1.989454999999999927e+03
7.699999999999999900e-02 2.068869999999999876e-01 8.992414999999999381e+00 8.108234999999999104e+01 1.990535000000000082e+03
7.799999999999999989e-02 2.070565000000000044e-01 1.064816499999999877e+01 8.483920000000000528e+01 1.991644999999999982e+03
7.900000000000000078e-02 2.072289999999999965e-01 1.231551999999999936e+01 8.858199999999999363e+01 1.992789999999999964e+03
8.000000000000000167e-02 2.074020000000000030e-01 1.397175000000000011e+01 9.227045000000001096e+01 1.993934999999999945e+03
8.100000000000000255e-02 2.075740000000000085e-01 1.559834999999999994e+01 9.587664999999999793e+01 1.995079999999999927e+03
8.200000000000000344e-02 2.077439999999999842e-01 1.718104999999999905e+01 9.938589999999999236e+01 1.996215000000000146e+03
8.300000000000000433e-02 2.079104999999999981e-01 1.870984999999999943e+01 1.027924500000000023e+02 1.997329999999999927e+03
8.400000000000000522e-02 2.080735000000000223e-01 2.017830000000000013e+01 1.061009999999999991e+02 1.998420000000000073e+03
8.500000000000000611e-02 2.082330000000000014e-01 2.158299999999999841e+01 1.093220000000000027e+02 1.999494999999999891e+03
8.600000000000000699e-02 2.083889999999999909e-01 2.292264999999999731e+01 1.124694999999999965e+02 2.000545000000000073e+03
8.700000000000000788e-02 2.085430000000000061e-01 2.419749999999999801e+01 1.155575000000000045e+02 2.001585000000000036e+03
8.800000000000000877e-02 2.086939999999999906e-01 2.540825000000000244e+01 1.185995000000000061e+02 2.002610000000000127e+03
8.899999999999999578e-02 2.088435000000000152e-01 2.655594999999999928e+01 1.216055000000000064e+02 2.003615000000000009e+03
8.999999999999999667e-02 2.089910000000000101e-01 2.764104999999999990e+01 1.245805000000000007e+02 2.004615000000000009e+03
9.099999999999999756e-02 2.091370000000000173e-01 2.866340000000000288e+01 1.275250000000000057e+02 2.005610000000000127e+03
9.199999999999999845e-02 2.092820000000000236e-01 2.962205000000000155e+01 1.304350000000000023e+02 2.006595000000000027e+03
9.299999999999999933e-02 2.094250000000000000e-01 3.051510000000000034e+01 1.333015000000000043e+02 2.007565000000000055e+03
9.400000000000000022e-02 2.095660000000000023e-01 3.133984999999999843e+01 1.361125000000000114e+02 2.008519999999999982e+03
9.500000000000000111e-02 2.097040000000000015e-01 3.209309999999999974e+01 1.388520000000000039e+02 2.009460000000000036e+03
9.600000000000000200e-02 2.098389999999999977e-01 3.277084999999999582e+01 1.415045000000000073e+02 2.010384999999999991e+03
9.700000000000000289e-02 2.099695000000000034e-01 3.336899999999999977e+01 1.440500000000000114e+02 2.011275000000000091e+03
9.800000000000000377e-02 2.100950000000000040e-01 3.388299999999999557e+01 1.464714999999999918e+02 2.012134999999999991e+03
9.900000000000000466e-02 2.102150000000000130e-01 3.430849999999999511e+01 1.487514999999999930e+02 2.012954999999999927e+03
1.000000000000000056e-01 2.103285000000000016e-01 3.464119999999999777e+01 1.508714999999999975e+02 2.013730000000000018e+03
1.010000000000000064e-01 2.104344999999999966e-01 3.487694999999999368e+01 1.528160000000000025e+02 2.014454999999999927e+03
1.020000000000000073e-01 2.105319999999999969e-01 3.501239999999999952e+01 1.545709999999999980e+02 2.015130000000000109e+03
1.030000000000000082e-01 2.106210000000000027e-01 3.504469999999999885e+01 1.561250000000000000e+02 2.015744999999999891e+03
1.040000000000000091e-01 2.107005000000000128e-01 3.497209999999999752e+01 1.574675000000000011e+02 2.016295000000000073e+03
1.050000000000000100e-01 2.107700000000000129e-01 3.479404999999999859e+01 1.585930000000000177e+02 2.016780000000000200e+03
1.059999999999999970e-01 2.108295000000000030e-01 3.451139999999999475e+01 1.594985000000000070e+02 2.017195000000000164e+03
1.069999999999999979e-01 2.108790000000000109e-01 3.412669999999999959e+01 1.601864999999999952e+02 2.017545000000000073e+03
1.079999999999999988e-01 2.109179999999999944e-01 3.364395000000000380e+01 1.606614999999999895e+02 2.017820000000000164e+03
1.089999999999999997e-01 2.109475000000000100e-01 3.306909999999999883e+01 1.609334999999999809e+02 2.018025000000000091e+03
1.100000000000000006e-01 2.109675000000000022e-01 3.240959999999999752e+01 1.610165000000000077e+02 2.018174999999999955e+03
1.110000000000000014e-01 2.109775000000000122e-01 3.167440000000000211e+01 1.609279999999999973e+02 2.018250000000000000e+03
1.120000000000000023e-01 2.109800000000000009e-01 3.087374999999999758e+01 1.606879999999999882e+02 2.018284999999999854e+03
1.130000000000000032e-01 2.109754999999999825e-01 3.001859999999999928e+01 1.603185000000000002e+02 2.018255000000000109e+03
1.140000000000000041e-01 2.109644999999999992e-01 2.912065000000000126e+01 1.598430000000000177e+02 2.018190000000000055e+03
1.150000000000000050e-01 2.109480000000000244e-01 2.819160000000000110e+01 1.592855000000000132e+02 2.018085000000000036e+03
1.160000000000000059e-01 2.109270000000000034e-01 2.724295000000000044e+01 1.586675000000000182e+02 2.017944999999999936e+03
1.170000000000000068e-01 2.109024999999999928e-01 2.628569999999999851e+01 1.580104999999999791e+02 2.017784999999999854e+03
1.180000000000000077e-01 2.108760000000000079e-01 2.532979999999999876e+01 1.573324999999999818e+02 2.017605000000000018e+03
1.190000000000000085e-01 2.108484999999999943e-01 2.438419999999999987e+01 1.566499999999999773e+02 2.017420000000000073e+03
1.200000000000000094e-01 2.108194999999999930e-01 2.345629999999999882e+01 1.559750000000000227e+02 2.017224999999999909e+03
1.209999999999999964e-01 2.107900000000000051e-01 2.255219999999999914e+01 1.553160000000000025e+02 2.017025000000000091e+03
1.219999999999999973e-01 2.107610000000000039e-01 2.167624999999999957e+01 1.546784999999999854e+02 2.016824999999999818e+03
1.229999999999999982e-01 2.107324999999999893e-01 2.083129999999999882e+01 1.540645000000000095e+02 2.016630000000000109e+03
1.239999999999999991e-01 2.107045000000000168e-01 2.001849999999999952e+01 1.534720000000000084e+02 2.016440000000000055e+03
1.250000000000000000e-01 2.106770000000000032e-01 1.923760000000000048e+01 1.528975000000000080e+02 2.016244999999999891e+03
1.260000000000000009e-01 2.106500000000000039e-01 1.848704999999999998e+01 1.523335000000000150e+02 2.016055000000000064e+03
1.270000000000000018e-01 2.106230000000000047e-01 1.776395000000000124e+01 1.517704999999999984e+02 2.015869999999999891e+03
1.280000000000000027e-01 2.105960000000000054e-01 1.706470000000000198e+01 1.511990000000000123e+02 2.015680000000000064e+03
1.290000000000000036e-01 2.105680000000000052e-01 1.638485000000000014e+01 1.506070000000000277e+02 2.015494999999999891e+03
1.300000000000000044e-01 2.105390000000000039e-01 1.571959999999999980e+01 1.499839999999999804e+02 2.015295000000000073e+03
1.310000000000000053e-01 2.105090000000000017e-01 1.506395000000000017e+01 1.493185000000000002e+02 2.015079999999999927e+03
1.320000000000000062e-01 2.104759999999999964e-01 1.441310000000000002e+01 1.485989999999999895e+02 2.014855000000000018e+03
1.330000000000000071e-01 2.104409999999999892e-01 1.376259999999999906e+01 1.478190000000000168e+02 2.014619999999999891e+03
1.340000000000000080e-01 2.104030000000000067e-01 1.310865000000000080e+01 1.469700000000000273e+02 2.014360000000000127e+03
1.350000000000000089e-01 2.103619999999999934e-01 1.244829999999999970e+01 1.460480000000000018e+02 2.014079999999999927e+03
1.360000000000000098e-01 2.103174999999999906e-01 1.177965000000000018e+01 1.450525000000000091e+02 2.013779999999999973e+03
1.370000000000000107e-01 2.102700000000000125e-01 1.110200500000000012e+01 1.439834999999999923e+02 2.013460000000000036e+03
1.380000000000000115e-01 2.102185000000000026e-01 1.041591000000000022e+01 1.428475000000000250e+02 2.013109999999999900e+03
1.390000000000000124e-01 2.101649999999999907e-01 9.723274999999999224e+00 1.416505000000000223e+02 2.012744999999999891e+03
1.400000000000000133e-01 2.101084999999999758e-01 9.027155000000000484e+00 1.404035000000000082e+02 2.012359999999999900e+03
1.410000000000000142e-01 2.100489999999999857e-01 8.331870000000000331e+00 1.391189999999999998e+02 2.011960000000000036e+03
1.420000000000000151e-01 2.099884999999999946e-01 7.642659999999999343e+00 1.378134999999999764e+02 2.011549999999999955e+03
1.430000000000000160e-01 2.099264999999999881e-01 6.965589999999999726e+00 1.365029999999999859e+02 2.011130000000000109e+03
1.440000000000000169e-01 2.098639999999999950e-01 6.307224999999999859e+00 1.352044999999999959e+02 2.010710000000000036e+03
1.450000000000000178e-01 2.098025000000000029e-01 5.674389999999999823e+00 1.339365000000000236e+02 2.010289999999999964e+03
1.459999999999999909e-01 2.097424999999999984e-01 5.073850000000000193e+00 1.327160000000000082e+02 2.009880000000000109e+03
1.469999999999999918e-01 2.096844999999999959e-01 4.512029999999999319e+00 1.315579999999999927e+02 2.009490000000000009e+03
1.479999999999999927e-01 2.096284999999999954e-01 3.994734999999999925e+00 1.304774999999999920e+02 2.009105000000000018e+03
1.489999999999999936e-01 2.095764999999999989e-01 3.526945000000000441e+00 1.294859999999999900e+02 2.008750000000000000e+03
1.499999999999999944e-01 2.095285000000000064e-01 3.112589999999999968e+00 1.285914999999999964e+02 2.008420000000000073e+03
1.509999999999999953e-01 2.094840000000000035e-01 2.754455000000000098e+00 1.277994999999999948e+02 2.008115000000000009e+03
1.519999999999999962e-01 2.094449999999999923e-01 2.454094999999999693e+00 1.271145000000000067e+02 2.007845000000000027e+03
1.529999999999999971e-01 2.094099999999999850e-01 2.211815000000000087e+00 1.265349999999999966e+02 2.007609999999999900e+03
1.539999999999999980e-01 2.093805000000000249e-01 2.026710000000000012e+00 1.260579999999999927e+02 2.007400000000000091e+03
1.549999999999999989e-01 2.093550000000000133e-01 1.896740000000000093e+00 1.256795000000000044e+02 2.007224999999999909e+03
1.559999999999999998e-01 2.093340000000000201e-01 1.818854999999999889e+00 1.253900000000000006e+02 2.007074999999999818e+03
1.570000000000000007e-01 2.093170000000000031e-01 1.789140000000000175e+00 1.251820000000000022e+02 2.006960000000000036e+03
1.580000000000000016e-01 2.093045000000000044e-01 1.802970000000000184e+00 1.250444999999999993e+02 2.006865000000000009e+03
1.590000000000000024e-01 2.092950000000000088e-01 1.855180000000000051e+00 1.249669999999999987e+02 2.006795000000000073e+03
