# t [s], A [cm^2], U [cm/s], P [cPa], c [cm/s]
1.000000000000000021e-03 5.376760000000000428e-01 4.739000000000000157e-03 9.824660000000000082e+01 1.533684999999999945e+03
2.000000000000000042e-03 5.376670000000000060e-01 -3.327119999999999817e-03 9.822325000000000728e+01 1.533674999999999955e+03
3.000000000000000062e-03 5.376994999999999969e-01 5.898734999999999395e-02 9.828430000000000177e+01 1.533700000000000045e+03
4.000000000000000083e-03 5.377469999999999750e-01 1.555899000000000032e-01 9.840030000000000143e+01 1.533730000000000018e+03
5.000000000000000104e-03 5.377475000000000449e-01 1.719880000000000020e-01 9.841194999999999027e+01 1.533735000000000127e+03
6.000000000000000125e-03 5.376999999999999558e-01 9.697000000000000064e-02 9.826959999999999695e+01 1.533704999999999927e+03
7.000000000000000146e-03 5.376530000000000475e-01 1.691749999999997423e-02 9.806220000000000425e+01 1.533644999999999982e+03
8.000000000000000167e-03 5.376030000000000530e-01 -7.600649999999997686e-02 9.779930000000000234e+01 1.533575000000000045e+03
9.000000000000001055e-03 5.375174999999999814e-01 -2.513599999999999168e-01 9.740090000000000714e+01 1.533470000000000027e+03
1.000000000000000194e-02 5.373885000000000467e-01 -5.259999999999999121e-01 9.682255000000000678e+01 1.533309999999999945e+03
1.099999999999999936e-02 5.372105000000000352e-01 -9.030049999999999466e-01 9.603190000000000737e+01 1.533099999999999909e+03
1.200000000000000025e-02 5.369690000000000296e-01 -1.402724999999999778e+00 9.497415000000000873e+01 1.532809999999999945e+03
1.300000000000000114e-02 5.366589999999999971e-01 -2.020059999999999967e+00 9.361820000000000164e+01 1.532430000000000064e+03
1.400000000000000203e-02 5.363065000000000193e-01 -2.683809999999999807e+00 9.201709999999999923e+01 1.531974999999999909e+03
1.499999999999999944e-02 5.359579999999999345e-01 -3.273444999999999716e+00 9.030729999999999791e+01 1.531470000000000027e+03
1.600000000000000033e-02 5.356575000000000086e-01 -3.673941999999999819e+00 8.864895000000001346e+01 1.530960000000000036e+03
1.700000000000000122e-02 5.354235000000000522e-01 -3.820893449999999802e+00 8.716110000000000468e+01 1.530474999999999909e+03
1.800000000000000211e-02 5.352474999999999872e-01 -3.713902999999999732e+00 8.588634999999999309e+01 1.530034999999999854e+03
1.900000000000000300e-02 5.351040000000000241e-01 -3.403382000000000129e+00 8.479214999999999236e+01 1.529634999999999991e+03
2.000000000000000042e-02 5.349589999999999623e-01 -2.964609999999999967e+00 8.379540000000000077e+01 1.529255000000000109e+03
2.100000000000000130e-02 5.347850000000000659e-01 -2.470441999999999805e+00 8.279734999999999445e+01 1.528875000000000000e+03
2.200000000000000219e-02 5.345665000000000555e-01 -1.970284999999999842e+00 8.171729999999999450e+01 1.528480000000000018e+03
2.299999999999999961e-02 5.343040000000000012e-01 -1.480140000000000233e+00 8.051579999999999870e+01 1.528045000000000073e+03
2.400000000000000050e-02 5.340114999999999723e-01 -9.857000000000000206e-01 7.920045000000000357e+01 1.527590000000000146e+03
2.500000000000000139e-02 5.337064999999999726e-01 -4.561500000000000554e-01 7.781489999999999441e+01 1.527110000000000127e+03
2.600000000000000228e-02 5.334079999999999933e-01 1.377649999999999153e-01 7.641665000000000418e+01 1.526615000000000009e+03
2.700000000000000316e-02 5.331259999999999888e-01 8.081650000000002443e-01 7.505344999999999800e+01 1.526130000000000109e+03
2.800000000000000058e-02 5.328589999999999716e-01 1.541564999999999852e+00 7.374524999999999864e+01 1.525654999999999973e+03
2.900000000000000147e-02 5.325950000000000406e-01 2.298664999999999736e+00 7.247674999999999557e+01 1.525195000000000164e+03
3.000000000000000236e-02 5.323169999999999291e-01 3.021009999999999973e+00 7.119944999999999879e+01 1.524730000000000018e+03
3.099999999999999978e-02 5.320030000000000037e-01 3.642349999999999532e+00 6.984329999999999927e+01 1.524250000000000000e+03
3.200000000000000067e-02 5.316359999999999975e-01 4.102075000000000138e+00 6.833320000000000505e+01 1.523730000000000018e+03
3.300000000000000155e-02 5.312060000000000670e-01 4.357999999999999652e+00 6.660880000000000223e+01 1.523154999999999973e+03
3.400000000000000244e-02 5.307120000000000726e-01 4.395099999999999341e+00 6.464064999999999372e+01 1.522519999999999982e+03
3.500000000000000333e-02 5.301660000000000261e-01 4.228904999999999248e+00 6.244084999999999752e+01 1.521824999999999818e+03
3.600000000000000422e-02 5.295889999999999764e-01 3.901065000000000005e+00 6.006320000000000192e+01 1.521074999999999818e+03
3.700000000000000511e-02 5.290070000000000050e-01 3.470804999999999918e+00 5.759515000000000384e+01 1.520295000000000073e+03
3.799999999999999906e-02 5.284474999999999589e-01 3.003495000000000470e+00 5.514395000000000380e+01 1.519514999999999873e+03
3.899999999999999994e-02 5.279355000000000020e-01 2.560595000000000176e+00 5.282094999999999629e+01 1.518764999999999873e+03
4.000000000000000083e-02 5.274894999999999445e-01 2.192520000000000024e+00 5.072794999999999987e+01 1.518065000000000055e+03
4.100000000000000172e-02 5.271234999999999671e-01 1.935130000000000017e+00 4.894780000000000086e+01 1.517460000000000036e+03
4.200000000000000261e-02 5.268435000000000201e-01 1.809749999999999970e+00 4.753940000000000055e+01 1.516954999999999927e+03
4.300000000000000350e-02 5.266530000000000378e-01 1.825444999999999984e+00 4.653705000000000069e+01 1.516565000000000055e+03
4.400000000000000439e-02 5.265489999999999338e-01 1.982852000000000059e+00 4.595360000000000156e+01 1.516305000000000064e+03
4.499999999999999833e-02 5.265294999999999837e-01 2.278329999999999966e+00 4.578535000000000110e+01 1.516174999999999955e+03
4.599999999999999922e-02 5.265895000000000437e-01 2.707594999999999974e+00 4.601839999999999975e+01 1.516170000000000073e+03
4.700000000000000011e-02 5.267264999999999864e-01 3.268135000000000012e+00 4.663389999999999702e+01 1.516295000000000073e+03
4.800000000000000100e-02 5.269365000000000299e-01 3.959929999999999950e+00 4.761234999999999928e+01 1.516534999999999854e+03
4.900000000000000189e-02 5.272179999999999644e-01 4.784745000000000026e+00 4.893515000000000015e+01 1.516894999999999982e+03
5.000000000000000278e-02 5.275680000000000369e-01 5.744221000000000465e+00 5.058459999999999468e+01 1.517355000000000018e+03
5.100000000000000366e-02 5.279835000000000500e-01 6.837654999999999816e+00 5.254210000000000491e+01 1.517924999999999955e+03
5.200000000000000455e-02 5.284610000000000696e-01 8.059919999999999973e+00 5.478594999999999970e+01 1.518595000000000027e+03
5.300000000000000544e-02 5.289930000000000465e-01 9.400339999999999918e+00 5.728960000000000008e+01 1.519345000000000027e+03
5.399999999999999939e-02 5.295714999999999728e-01 1.084249999999999936e+01 6.002015000000000100e+01 1.520180000000000064e+03
5.500000000000000028e-02 5.301869999999999639e-01 1.236482000000000170e+01 6.293900000000000716e+01 1.521085000000000036e+03
5.600000000000000117e-02 5.308299999999999130e-01 1.394225499999999940e+01 6.600265000000000271e+01 1.522045000000000073e+03
5.700000000000000205e-02 5.314894999999999481e-01 1.554806500000000113e+01 6.916509999999999536e+01 1.523039999999999964e+03
5.800000000000000294e-02 5.321550000000000447e-01 1.715587500000000176e+01 7.238024999999998954e+01 1.524070000000000164e+03
5.900000000000000383e-02 5.328184999999999727e-01 1.874149999999999849e+01 7.560519999999999641e+01 1.525115000000000009e+03
6.000000000000000472e-02 5.334729999999999750e-01 2.028419999999999845e+01 7.880189999999998918e+01 1.526159999999999854e+03
6.099999999999999867e-02 5.341124999999999901e-01 2.176769999999999783e+01 8.193970000000000198e+01 1.527199999999999818e+03
6.199999999999999956e-02 5.347345000000000015e-01 2.318025000000000091e+01 8.499590000000000600e+01 1.528219999999999800e+03
6.300000000000000044e-02 5.353364999999999929e-01 2.451464999999999961e+01 8.795635000000000048e+01 1.529220000000000027e+03
6.400000000000000133e-02 5.359190000000000342e-01 2.576760000000000161e+01 9.081465000000000032e+01 1.530190000000000055e+03
6.500000000000000222e-02 5.364835000000000020e-01 2.693914999999999793e+01 9.357160000000000366e+01 1.531139999999999873e+03
6.600000000000000311e-02 5.370304999999999662e-01 2.803164999999999907e+01 9.623304999999999154e+01 1.532059999999999945e+03
6.700000000000000400e-02 5.375639999999999308e-01 2.904934999999999690e+01 9.880960000000000321e+01 1.532950000000000045e+03
6.800000000000000488e-02 5.380854999999999944e-01 2.999739999999999895e+01 1.013133499999999998e+02 1.533824999999999818e+03
6.900000000000000577e-02 5.385990000000000499e-01 3.088135000000000119e+01 1.037592500000000086e+02 1.534675000000000182e+03
7.000000000000000666e-02 5.391059999999999741e-01 3.170674999999999955e+01 1.061597000000000008e+02 1.535514999999999873e+03
7.100000000000000755e-02 5.396090000000000053e-01 3.247830000000000439e+01 1.085264999999999986e+02 1.536345000000000027e+03
7.200000000000000844e-02 5.401084999999999914e-01 3.319984999999999786e+01 1.108694999999999879e+02 1.537154999999999973e+03
7.300000000000000933e-02 5.406064999999999898e-01 3.387389999999999901e+01 1.131930000000000121e+02 1.537965000000000146e+03
7.399999999999999634e-02 5.411015000000000130e-01 3.450119999999999720e+01 1.154989999999999952e+02 1.538769999999999982e+03
7.499999999999999722e-02 5.415925000000000322e-01 3.508095000000000141e+01 1.177845000000000084e+02 1.539565000000000055e+03
7.599999999999999811e-02 5.420774999999999899e-01 3.561074999999999591e+01 1.200409999999999968e+02 1.540355000000000018e+03
7.699999999999999900e-02 5.425535000000000219e-01 3.608669999999999334e+01 1.222595000000000027e+02 1.541130000000000109e+03
7.799999999999999989e-02 5.430169999999999719e-01 3.650395000000000323e+01 1.244235000000000042e+02 1.541884999999999991e+03
7.900000000000000078e-02 5.434650000000000869e-01 3.685715000000000430e+01 1.265180000000000007e+02 1.542625000000000000e+03
8.000000000000000167e-02 5.438925000000000010e-01 3.714054999999999751e+01 1.285244999999999891e+02 1.543335000000000036e+03
8.100000000000000255e-02 5.442964999999999609e-01 3.734884999999999877e+01 1.304250000000000114e+02 1.544014999999999873e+03
8.200000000000000344e-02 5.446739999999999915e-01 3.747724999999999795e+01 1.322024999999999864e+02 1.544655000000000200e+03
8.300000000000000433e-02 5.450215000000000476e-01 3.752205000000000013e+01 1.338430000000000177e+02 1.545255000000000109e+03
8.400000000000000522e-02 5.453375000000000306e-01 3.748080000000000211e+01 1.353325000000000102e+02 1.545795000000000073e+03
8.500000000000000611e-02 5.456189999999999651e-01 3.735224999999999795e+01 1.366619999999999777e+02 1.546295000000000073e+03
8.600000000000000699e-02 5.458655000000000035e-01 3.713674999999999926e+01 1.378249999999999886e+02 1.546740000000000009e+03
8.700000000000000788e-02 5.460774999999999935e-01 3.683615000000000350e+01 1.388185000000000002e+02 1.547130000000000109e+03
8.800000000000000877e-02 5.462545000000000872e-01 3.645354999999999990e+01 1.396435000000000173e+02 1.547465000000000146e+03
8.899999999999999578e-02 5.463980000000000503e-01 3.599370000000000402e+01 1.403029999999999973e+02 1.547735000000000127e+03
8.999999999999999667e-02 5.465090000000000225e-01 3.546249999999999858e+01 1.408050000000000068e+02 1.547960000000000036e+03
9.099999999999999756e-02 5.465900000000000203e-01 3.486700000000000443e+01 1.411585000000000036e+02 1.548134999999999991e+03
9.199999999999999845e-02 5.466444999999999776e-01 3.421535000000000082e+01 1.413764999999999930e+02 1.548255000000000109e+03
9.299999999999999933e-02 5.466739999999999933e-01 3.351639999999999731e+01 1.414725000000000250e+02 1.548335000000000036e+03
9.400000000000000022e-02 5.466824999999999601e-01 3.277974999999999994e+01 1.414615000000000009e+02 1.548375000000000000e+03
9.500000000000000111e-02 5.466735000000000344e-01 3.201520000000000010e+01 1.413614999999999782e+02 1.548380000000000109e+03
9.600000000000000200e-02 5.466505000000000392e-01 3.123280000000000101e+01 1.411889999999999930e+02 1.548355000000000018e+03
9.700000000000000289e-02 5.466165000000000607e-01 3.044209999999999994e+01 1.409610000000000127e+02 1.548304999999999836e+03
9.800000000000000377e-02 5.465754999999999919e-01 2.965234999999999843e+01 1.406940000000000168e+02 1.548244999999999891e+03
9.900000000000000466e-02 5.465299999999999603e-01 2.887180000000000035e+01 1.404025000000000034e+02 1.548164999999999964e+03
1.000000000000000056e-01 5.464820000000000233e-01 2.810754999999999626e+01 1.401009999999999991e+02 1.548079999999999927e+03
1.010000000000000064e-01 5.464345000000000452e-01 2.736525000000000318e+01 1.398004999999999995e+02 1.547990000000000009e+03
1.020000000000000073e-01 5.463890000000000136e-01 2.664925000000000210e+01 1.395090000000000146e+02 1.547894999999999982e+03
1.030000000000000082e-01 5.463455000000000394e-01 2.596199999999999974e+01 1.392330000000000041e+02 1.547799999999999955e+03
1.040000000000000091e-01 5.463044999999999707e-01 2.530434999999999945e+01 1.389755000000000109e+02 1.547715000000000146e+03
1.050000000000000100e-01 5.462670000000000581e-01 2.467555000000000121e+01 1.387365000000000066e+02 1.547634999999999991e+03
1.059999999999999970e-01 5.462309999999999111e-01 2.407350000000000279e+01 1.385135000000000218e+02 1.547549999999999955e+03
1.069999999999999979e-01 5.461955000000000560e-01 2.349465000000000003e+01 1.383025000000000091e+02 1.547474999999999909e+03
1.079999999999999988e-01 5.461590000000000611e-01 2.293469999999999942e+01 1.380969999999999800e+02 1.547400000000000091e+03
1.089999999999999997e-01 5.461200000000000498e-01 2.238864999999999839e+01 1.378884999999999934e+02 1.547324999999999818e+03
1.100000000000000006e-01 5.460774999999999935e-01 2.185089999999999932e+01 1.376700000000000159e+02 1.547240000000000009e+03
1.110000000000000014e-01 5.460279999999999578e-01 2.131595000000000084e+01 1.374309999999999832e+02 1.547159999999999854e+03
1.120000000000000023e-01 5.459714999999999430e-01 2.077830000000000155e+01 1.371650000000000205e+02 1.547065000000000055e+03
1.130000000000000032e-01 5.459055000000000435e-01 2.023300000000000054e+01 1.368620000000000232e+02 1.546964999999999918e+03
1.140000000000000041e-01 5.458294999999999675e-01 1.967575000000000074e+01 1.365169999999999959e+02 1.546849999999999909e+03
1.150000000000000050e-01 5.457429999999999781e-01 1.910285000000000011e+01 1.361240000000000236e+02 1.546720000000000027e+03
1.160000000000000059e-01 5.456440000000000179e-01 1.851200000000000045e+01 1.356800000000000068e+02 1.546574999999999818e+03
1.170000000000000068e-01 5.455339999999999634e-01 1.790165000000000006e+01 1.351840000000000259e+02 1.546420000000000073e+03
1.180000000000000077e-01 5.454134999999999955e-01 1.727165000000000106e+01 1.346360000000000241e+02 1.546239999999999782e+03
1.190000000000000085e-01 5.452825000000000033e-01 1.662304999999999922e+01 1.340389999999999873e+02 1.546049999999999955e+03
1.200000000000000094e-01 5.451424999999999743e-01 1.595805000000000007e+01 1.333990000000000009e+02 1.545839999999999918e+03
1.209999999999999964e-01 5.449960000000000360e-01 1.527999999999999936e+01 1.327220000000000084e+02 1.545619999999999891e+03
1.219999999999999973e-01 5.448439999999999950e-01 1.459327500000000022e+01 1.320165000000000077e+02 1.545389999999999873e+03
1.229999999999999982e-01 5.446900000000000075e-01 1.390305999999999997e+01 1.312939999999999827e+02 1.545154999999999973e+03
1.239999999999999991e-01 5.445355000000000611e-01 1.321524499999999946e+01 1.305639999999999930e+02 1.544914999999999964e+03
1.250000000000000000e-01 5.443830000000000613e-01 1.253609499999999954e+01 1.298394999999999868e+02 1.544674999999999955e+03
1.260000000000000009e-01 5.442354999999999832e-01 1.187204499999999996e+01 1.291324999999999932e+02 1.544434999999999945e+03
1.270000000000000018e-01 5.440954999999999542e-01 1.122951499999999925e+01 1.284534999999999911e+02 1.544204999999999927e+03
1.280000000000000027e-01 5.439644999999999619e-01 1.061459500000000133e+01 1.278154999999999859e+02 1.543990000000000009e+03
1.290000000000000036e-01 5.438454999999999817e-01 1.003286500000000103e+01 1.272265000000000015e+02 1.543779999999999973e+03
1.300000000000000044e-01 5.437395000000000422e-01 9.489074999999999704e+00 1.266964999999999861e+02 1.543595000000000027e+03
1.310000000000000053e-01 5.436480000000000201e-01 8.987249999999999517e+00 1.262319999999999993e+02 1.543430000000000064e+03
1.320000000000000062e-01 5.435714999999999852e-01 8.530290000000000816e+00 1.258375000000000057e+02 1.543275000000000091e+03
1.330000000000000071e-01 5.435105000000000075e-01 8.119894999999999641e+00 1.255165000000000077e+02 1.543150000000000091e+03
1.340000000000000080e-01 5.434649999999999759e-01 7.756790000000000518e+00 1.252690000000000055e+02 1.543049999999999955e+03
1.350000000000000089e-01 5.434345000000000425e-01 7.440535000000000565e+00 1.250930000000000035e+02 1.542969999999999800e+03
1.360000000000000098e-01 5.434174999999999978e-01 7.169629999999999725e+00 1.249860000000000042e+02 1.542920000000000073e+03
1.370000000000000107e-01 5.434134999999999938e-01 6.941654999999999021e+00 1.249429999999999978e+02 1.542880000000000109e+03
1.380000000000000115e-01 5.434204999999999730e-01 6.753404999999999880e+00 1.249560000000000031e+02 1.542869999999999891e+03
1.390000000000000124e-01 5.434369999999999479e-01 6.601060000000000372e+00 1.250190000000000055e+02 1.542869999999999891e+03
1.400000000000000133e-01 5.434609999999999719e-01 6.480349999999999611e+00 1.251229999999999905e+02 1.542889999999999873e+03
1.410000000000000142e-01 5.434915000000000163e-01 6.386744999999999450e+00 1.252590000000000003e+02 1.542920000000000073e+03
1.420000000000000151e-01 5.435254999999999947e-01 6.315649999999999764e+00 1.254189999999999969e+02 1.542960000000000036e+03
1.430000000000000160e-01 5.435619999999999896e-01 6.262525000000000119e+00 1.255935000000000059e+02 1.543000000000000000e+03
1.440000000000000169e-01 5.435995000000000132e-01 6.223035000000000316e+00 1.257764999999999986e+02 1.543049999999999955e+03
1.450000000000000178e-01 5.436364999999999670e-01 6.193175000000000097e+00 1.259590000000000032e+02 1.543105000000000018e+03
1.459999999999999909e-01 5.436714999999999742e-01 6.169315000000000104e+00 1.261370000000000005e+02 1.543159999999999854e+03
1.469999999999999918e-01 5.437039999999999651e-01 6.148284999999999556e+00 1.263034999999999997e+02 1.543210000000000036e+03
1.479999999999999927e-01 5.437340000000000506e-01 6.127394999999999925e+00 1.264560000000000031e+02 1.543255000000000109e+03
1.489999999999999936e-01 5.437600000000000211e-01 6.104424999999999990e+00 1.265914999999999964e+02 1.543299999999999955e+03
1.499999999999999944e-01 5.437814999999999177e-01 6.077650000000000219e+00 1.267074999999999960e+02 1.543339999999999918e+03
1.509999999999999953e-01 5.437994999999999912e-01 6.045790000000000219e+00 1.268040000000000020e+02 1.543375000000000000e+03
1.519999999999999962e-01 5.438134999999999497e-01 6.007995000000000196e+00 1.268804999999999978e+02 1.543405000000000200e+03
1.529999999999999971e-01 5.438239999999999741e-01 5.963794999999999291e+00 1.269369999999999976e+02 1.543424999999999955e+03
1.539999999999999980e-01 5.438304999999999945e-01 5.913095000000000212e+00 1.269749999999999943e+02 1.543444999999999936e+03
1.549999999999999989e-01 5.438340000000000396e-01 5.856059999999999377e+00 1.269969999999999999e+02 1.543454999999999927e+03
1.559999999999999998e-01 5.438344999999999985e-01 5.793150000000000688e+00 1.270030000000000001e+02 1.543460000000000036e+03
1.570000000000000007e-01 5.438324999999999410e-01 5.725014999999999965e+00 1.269964999999999975e+02 1.543460000000000036e+03
1.580000000000000016e-01 5.438290000000000068e-01 5.652474999999999916e+00 1.269784999999999968e+02 1.543460000000000036e+03
1.590000000000000024e-01 5.438235000000000152e-01 5.576449999999999463e+00 1.269519999999999982e+02 1.543454999999999927e+03
