# t [s], A [cm^2], U [cm/s], P [cPa], c [cm/s]
1.000000000000000021e-03 1.413909999999999889e-01 3.551309000000000271e-01 9.292454999999999643e+01 2.019660000000000082e+03
2.000000000000000042e-03 1.413515000000000188e-01 1.910563500000000081e+00 8.960079999999999245e+01 2.019170000000000073e+03
3.000000000000000062e-03 1.412454999999999961e-01 3.806360999999999883e+00 8.507540000000000191e+01 2.017914999999999964e+03
4.000000000000000083e-03 1.411005000000000176e-01 5.927948500000000287e+00 8.025389999999998736e+01 2.016220000000000027e+03
5.000000000000000104e-03 1.409460000000000157e-01 8.200424999999999187e+00 7.602779999999999916e+01 2.014425000000000182e+03
6.000000000000000125e-03 1.407984999999999931e-01 1.043347999999999942e+01 7.263009999999999877e+01 2.012730000000000018e+03
7.000000000000000146e-03 1.406604999999999939e-01 1.240569999999999951e+01 6.974640000000000839e+01 2.011174999999999955e+03
8.000000000000000167e-03 1.405339999999999923e-01 1.404816999999999894e+01 6.713795000000000357e+01 2.009779999999999973e+03
9.000000000000001055e-03 1.404229999999999923e-01 1.541244999999999976e+01 6.488155000000000427e+01 2.008575000000000045e+03
1.000000000000000194e-02 1.403294999999999959e-01 1.653509999999999991e+01 6.305235000000000412e+01 2.007565000000000055e+03
1.099999999999999936e-02 1.402535000000000032e-01 1.743240000000000123e+01 6.161719999999999686e+01 2.006750000000000000e+03
1.200000000000000025e-02 1.401930000000000121e-01 1.812415000000000020e+01 6.052120000000000033e+01 2.006115000000000009e+03
1.300000000000000114e-02 1.401455000000000062e-01 1.861664999999999992e+01 5.967425000000000068e+01 2.005625000000000000e+03
1.400000000000000203e-02 1.401065000000000227e-01 1.891590000000000060e+01 5.895279999999999632e+01 2.005235000000000127e+03
1.499999999999999944e-02 1.400750000000000051e-01 1.908375000000000199e+01 5.834420000000000073e+01 2.004924999999999955e+03
1.600000000000000033e-02 1.400540000000000118e-01 1.926004999999999967e+01 5.807524999999999693e+01 2.004724999999999909e+03
1.700000000000000122e-02 1.400514999999999954e-01 1.960824999999999818e+01 5.853394999999999726e+01 2.004715000000000146e+03
1.800000000000000211e-02 1.400755000000000194e-01 2.022259999999999991e+01 6.001460000000000150e+01 2.004974999999999909e+03
1.900000000000000300e-02 1.401274999999999882e-01 2.106739999999999924e+01 6.248255000000000337e+01 2.005539999999999964e+03
2.000000000000000042e-02 1.402014999999999789e-01 2.198564999999999969e+01 6.551824999999999477e+01 2.006339999999999918e+03
2.100000000000000130e-02 1.402829999999999910e-01 2.276320000000000121e+01 6.845734999999999104e+01 2.007230000000000018e+03
2.200000000000000219e-02 1.403564999999999952e-01 2.321255000000000024e+01 7.063835000000000264e+01 2.008049999999999955e+03
2.299999999999999961e-02 1.404079999999999773e-01 2.323750000000000071e+01 7.163490000000000180e+01 2.008644999999999982e+03
2.400000000000000050e-02 1.404310000000000003e-01 2.285715000000000074e+01 7.138280000000000314e+01 2.008930000000000064e+03
2.500000000000000139e-02 1.404265000000000096e-01 2.218529999999999802e+01 7.016190000000000282e+01 2.008909999999999854e+03
2.600000000000000228e-02 1.404015000000000124e-01 2.137910000000000110e+01 6.845740000000000691e+01 2.008660000000000082e+03
2.700000000000000316e-02 1.403669999999999918e-01 2.058020000000000138e+01 6.676834999999999809e+01 2.008299999999999955e+03
2.800000000000000058e-02 1.403329999999999855e-01 1.987245000000000061e+01 6.544254999999999711e+01 2.007930000000000064e+03
2.900000000000000147e-02 1.403050000000000130e-01 1.926735000000000042e+01 6.459239999999999782e+01 2.007625000000000000e+03
3.000000000000000236e-02 1.402849999999999930e-01 1.871694999999999709e+01 6.410660000000000025e+01 2.007394999999999982e+03
3.099999999999999978e-02 1.402689999999999770e-01 1.814519999999999911e+01 6.373519999999999186e+01 2.007220000000000027e+03
3.200000000000000067e-02 1.402519999999999878e-01 1.748404999999999987e+01 6.320789999999999509e+01 2.007034999999999854e+03
3.300000000000000155e-02 1.402289999999999925e-01 1.670374999999999943e+01 6.234444999999999482e+01 2.006789999999999964e+03
3.400000000000000244e-02 1.401979999999999893e-01 1.582845000000000013e+01 6.112689999999999912e+01 2.006460000000000036e+03
3.500000000000000333e-02 1.401600000000000068e-01 1.493399999999999928e+01 5.971294999999999931e+01 2.006059999999999945e+03
3.600000000000000422e-02 1.401209999999999956e-01 1.412829999999999941e+01 5.839130000000000109e+01 2.005630000000000109e+03
3.700000000000000511e-02 1.400885000000000047e-01 1.352110000000000056e+01 5.749424999999999386e+01 2.005269999999999982e+03
3.799999999999999906e-02 1.400695000000000134e-01 1.319364999999999988e+01 5.729739999999999611e+01 2.005049999999999955e+03
3.899999999999999994e-02 1.400695000000000134e-01 1.317614999999999981e+01 5.793774999999999409e+01 2.005034999999999854e+03
4.000000000000000083e-02 1.400914999999999799e-01 1.343970000000000020e+01 5.937279999999999802e+01 2.005244999999999891e+03
4.100000000000000172e-02 1.401320000000000066e-01 1.390240000000000009e+01 6.138830000000000098e+01 2.005674999999999955e+03
4.200000000000000261e-02 1.401860000000000051e-01 1.444689999999999941e+01 6.364610000000000412e+01 2.006244999999999891e+03
4.300000000000000350e-02 1.402444999999999942e-01 1.494340000000000046e+01 6.575515000000000043e+01 2.006869999999999891e+03
4.400000000000000439e-02 1.402970000000000050e-01 1.527120000000000033e+01 6.734604999999999109e+01 2.007440000000000055e+03
4.499999999999999833e-02 1.403349999999999875e-01 1.533660000000000068e+01 6.813185000000000002e+01 2.007865000000000009e+03
4.599999999999999922e-02 1.403514999999999902e-01 1.508275000000000077e+01 6.794554999999999723e+01 2.008055000000000064e+03
4.700000000000000011e-02 1.403415000000000079e-01 1.449164999999999992e+01 6.674989999999999668e+01 2.007969999999999800e+03
4.800000000000000100e-02 1.403059999999999863e-01 1.357979999999999876e+01 6.462245000000000061e+01 2.007590000000000146e+03
4.900000000000000189e-02 1.402444999999999942e-01 1.238964499999999980e+01 6.172494999999999976e+01 2.006940000000000055e+03
5.000000000000000278e-02 1.401620000000000088e-01 1.097924500000000059e+01 5.826515000000000555e+01 2.006059999999999945e+03
5.100000000000000366e-02 1.400635000000000074e-01 9.413425000000000153e+00 5.446170000000000044e+01 2.005000000000000000e+03
5.200000000000000455e-02 1.399539999999999951e-01 7.757080000000000197e+00 5.051850000000000307e+01 2.003815000000000055e+03
5.300000000000000544e-02 1.398395000000000055e-01 6.071515000000000661e+00 4.661079999999999757e+01 2.002565000000000055e+03
5.399999999999999939e-02 1.397235000000000005e-01 4.413905499999999371e+00 4.288264999999999816e+01 2.001315000000000055e+03
5.500000000000000028e-02 1.396114999999999995e-01 2.837507000000000001e+00 3.945204999999999984e+01 2.000090000000000146e+03
5.600000000000000117e-02 1.395065000000000055e-01 1.393244999999999845e+00 3.641935000000000144e+01 1.998944999999999936e+03
5.700000000000000205e-02 1.394130000000000091e-01 1.303650000000000642e-01 3.387545000000000073e+01 1.997920000000000073e+03
5.800000000000000294e-02 1.393329999999999846e-01 -9.036950000000001371e-01 3.190675000000000239e+01 1.997034999999999854e+03
5.900000000000000383e-02 1.392700000000000049e-01 -1.664746950000000059e+00 3.059519999999999840e+01 1.996335000000000036e+03
6.000000000000000472e-02 1.392260000000000164e-01 -2.114190000000000236e+00 3.001429999999999865e+01 1.995840000000000146e+03
6.099999999999999867e-02 1.392045000000000088e-01 -2.221954999999999902e+00 3.022240000000000038e+01 1.995579999999999927e+03
6.199999999999999956e-02 1.392059999999999964e-01 -1.969234999999999847e+00 3.125459999999999994e+01 1.995579999999999927e+03
6.300000000000000044e-02 1.392329999999999957e-01 -1.350621450000000001e+00 3.311650000000000205e+01 1.995840000000000146e+03
6.400000000000000133e-02 1.392845000000000055e-01 -3.750200000000000200e-01 3.578009999999999735e+01 1.996375000000000000e+03
6.500000000000000222e-02 1.393604999999999983e-01 9.346599999999999353e-01 3.918394999999999584e+01 1.997164999999999964e+03
6.600000000000000311e-02 1.394584999999999853e-01 2.543029999999999902e+00 4.323664999999999736e+01 1.998204999999999927e+03
6.700000000000000400e-02 1.395770000000000066e-01 4.404670999999999559e+00 4.782330000000000325e+01 1.999470000000000027e+03
6.800000000000000488e-02 1.397114999999999885e-01 6.467119999999999536e+00 5.281400000000000006e+01 2.000914999999999964e+03
6.900000000000000577e-02 1.398594999999999977e-01 8.673854999999999649e+00 5.807264999999999588e+01 2.002509999999999991e+03
7.000000000000000666e-02 1.400164999999999882e-01 1.096754999999999924e+01 6.346474999999999511e+01 2.004220000000000027e+03
7.100000000000000755e-02 1.401789999999999980e-01 1.329244999999999877e+01 6.886499999999999488e+01 2.005984999999999900e+03
7.200000000000000844e-02 1.403435000000000099e-01 1.559690000000000154e+01 7.416245000000000687e+01 2.007784999999999854e+03
7.300000000000000933e-02 1.405064999999999786e-01 1.783525000000000205e+01 7.926494999999999891e+01 2.009575000000000045e+03
7.399999999999999634e-02 1.406644999999999979e-01 1.996954999999999814e+01 8.410224999999999795e+01 2.011325000000000045e+03
7.499999999999999722e-02 1.408165000000000111e-01 2.197094999999999843e+01 8.862774999999999181e+01 2.013009999999999991e+03
7.599999999999999811e-02 1.409604999999999886e-01 2.382015000000000171e+01 9.281924999999999670e+01 2.014610000000000127e+03
7.699999999999999900e-02 1.410959999999999992e-01 2.550809999999999889e+01 9.667949999999999022e+01 2.016119999999999891e+03
7.799999999999999989e-02 1.412220000000000142e-01 2.703529999999999944e+01 1.002313000000000045e+02 2.017539999999999964e+03
7.900000000000000078e-02 1.413405000000000078e-01 2.841089999999999804e+01 1.035176999999999907e+02 2.018865000000000009e+03
8.000000000000000167e-02 1.414509999999999934e-01 2.965119999999999933e+01 1.065960000000000036e+02 2.020109999999999900e+03
8.100000000000000255e-02 1.415560000000000151e-01 3.077735000000000198e+01 1.095294999999999987e+02 2.021289999999999964e+03
8.200000000000000344e-02 1.416565000000000185e-01 3.181354999999999933e+01 1.123850000000000051e+02 2.022429999999999836e+03
8.300000000000000433e-02 1.417545000000000055e-01 3.278430000000000177e+01 1.152259999999999991e+02 2.023539999999999964e+03
8.400000000000000522e-02 1.418520000000000059e-01 3.371224999999999739e+01 1.181050000000000040e+02 2.024634999999999991e+03
8.500000000000000611e-02 1.419500000000000206e-01 3.461664999999999992e+01 1.210619999999999976e+02 2.025740000000000009e+03
8.600000000000000699e-02 1.420500000000000096e-01 3.551144999999999641e+01 1.241210000000000093e+02 2.026869999999999891e+03
8.700000000000000788e-02 1.421520000000000006e-01 3.640489999999999782e+01 1.272864999999999895e+02 2.028019999999999982e+03
8.800000000000000877e-02 1.422569999999999946e-01 3.729860000000000042e+01 1.305465000000000089e+02 2.029195000000000164e+03
8.899999999999999578e-02 1.423634999999999762e-01 3.818834999999999980e+01 1.338729999999999905e+02 2.030400000000000091e+03
8.999999999999999667e-02 1.424719999999999875e-01 3.906394999999999840e+01 1.372250000000000227e+02 2.031619999999999891e+03
9.099999999999999756e-02 1.425804999999999989e-01 3.991114999999999924e+01 1.405489999999999782e+02 2.032845000000000027e+03
9.199999999999999845e-02 1.426874999999999949e-01 4.071189999999999998e+01 1.437880000000000109e+02 2.034054999999999836e+03
9.299999999999999933e-02 1.427919999999999745e-01 4.144634999999999536e+01 1.468814999999999884e+02 2.035235000000000127e+03
9.400000000000000022e-02 1.428915000000000046e-01 4.209380000000000166e+01 1.497700000000000102e+02 2.036365000000000009e+03
9.500000000000000111e-02 1.429854999999999876e-01 4.263439999999999941e+01 1.523990000000000009e+02 2.037425000000000182e+03
9.600000000000000200e-02 1.430710000000000037e-01 4.304999999999999716e+01 1.547214999999999918e+02 2.038404999999999973e+03
9.700000000000000289e-02 1.431474999999999831e-01 4.332529999999999859e+01 1.566999999999999886e+02 2.039284999999999854e+03
9.800000000000000377e-02 1.432134999999999936e-01 4.344875000000000398e+01 1.583064999999999998e+02 2.040045000000000073e+03
9.900000000000000466e-02 1.432689999999999797e-01 4.341294999999999504e+01 1.595269999999999868e+02 2.040679999999999836e+03
1.000000000000000056e-01 1.433125000000000093e-01 4.321535000000000082e+01 1.603575000000000159e+02 2.041184999999999945e+03
1.010000000000000064e-01 1.433444999999999858e-01 4.285800000000000409e+01 1.608079999999999927e+02 2.041559999999999945e+03
1.020000000000000073e-01 1.433645000000000058e-01 4.234765000000000157e+01 1.608979999999999961e+02 2.041804999999999836e+03
1.030000000000000082e-01 1.433730000000000004e-01 4.169550000000000267e+01 1.606564999999999941e+02 2.041920000000000073e+03
1.040000000000000091e-01 1.433719999999999994e-01 4.091644999999999754e+01 1.601225000000000023e+02 2.041925000000000182e+03
1.050000000000000100e-01 1.433625000000000038e-01 4.002870000000000061e+01 1.593385000000000105e+02 2.041820000000000164e+03
1.059999999999999970e-01 1.433435000000000126e-01 3.905254999999999654e+01 1.583530000000000086e+02 2.041625000000000000e+03
1.069999999999999979e-01 1.433190000000000019e-01 3.800979999999999848e+01 1.572175000000000011e+02 2.041360000000000127e+03
1.079999999999999988e-01 1.432895000000000141e-01 3.692295000000000016e+01 1.559809999999999945e+02 2.041030000000000200e+03
1.089999999999999997e-01 1.432555000000000078e-01 3.581380000000000052e+01 1.546910000000000025e+02 2.040655000000000200e+03
1.100000000000000006e-01 1.432194999999999996e-01 3.470315000000000083e+01 1.533919999999999959e+02 2.040250000000000000e+03
1.110000000000000014e-01 1.431824999999999903e-01 3.360984999999999445e+01 1.521225000000000023e+02 2.039840000000000146e+03
1.120000000000000023e-01 1.431459999999999955e-01 3.255020000000000380e+01 1.509139999999999873e+02 2.039420000000000073e+03
1.130000000000000032e-01 1.431100000000000150e-01 3.153750000000000142e+01 1.497914999999999850e+02 2.039019999999999982e+03
1.140000000000000041e-01 1.430770000000000097e-01 3.058140000000000214e+01 1.487715000000000032e+02 2.038634999999999991e+03
1.150000000000000050e-01 1.430450000000000055e-01 2.968830000000000169e+01 1.478620000000000232e+02 2.038280000000000200e+03
1.160000000000000059e-01 1.430170000000000052e-01 2.886054999999999993e+01 1.470635000000000048e+02 2.037954999999999927e+03
1.170000000000000068e-01 1.429914999999999936e-01 2.809720000000000084e+01 1.463679999999999950e+02 2.037655000000000200e+03
1.180000000000000077e-01 1.429679999999999840e-01 2.739395000000000024e+01 1.457605000000000075e+02 2.037389999999999873e+03
1.190000000000000085e-01 1.429475000000000051e-01 2.674324999999999974e+01 1.452205000000000155e+02 2.037150000000000091e+03
1.200000000000000094e-01 1.429285000000000139e-01 2.613544999999999874e+01 1.447224999999999966e+02 2.036930000000000064e+03
1.209999999999999964e-01 1.429104999999999959e-01 2.555884999999999962e+01 1.442379999999999995e+02 2.036720000000000027e+03
1.219999999999999973e-01 1.428935000000000066e-01 2.500065000000000026e+01 1.437359999999999900e+02 2.036525000000000091e+03
1.229999999999999982e-01 1.428750000000000020e-01 2.444765000000000299e+01 1.431859999999999786e+02 2.036309999999999945e+03
1.239999999999999991e-01 1.428559999999999830e-01 2.388680000000000092e+01 1.425589999999999975e+02 2.036089999999999918e+03
1.250000000000000000e-01 1.428345000000000031e-01 2.330620000000000047e+01 1.418305000000000007e+02 2.035844999999999800e+03
1.260000000000000009e-01 1.428099999999999925e-01 2.269559999999999889e+01 1.409784999999999968e+02 2.035565000000000055e+03
1.270000000000000018e-01 1.427819999999999923e-01 2.204680000000000106e+01 1.399890000000000043e+02 2.035255000000000109e+03
1.280000000000000027e-01 1.427499999999999880e-01 2.135439999999999827e+01 1.388534999999999968e+02 2.034890000000000100e+03
1.290000000000000036e-01 1.427134999999999931e-01 2.061609999999999943e+01 1.375715000000000146e+02 2.034485000000000127e+03
1.300000000000000044e-01 1.426729999999999943e-01 1.983254999999999768e+01 1.361505000000000223e+02 2.034029999999999973e+03
1.310000000000000053e-01 1.426284999999999914e-01 1.900755000000000194e+01 1.346045000000000016e+02 2.033529999999999973e+03
1.320000000000000062e-01 1.425799999999999845e-01 1.814804999999999779e+01 1.329544999999999959e+02 2.032989999999999782e+03
1.330000000000000071e-01 1.425285000000000024e-01 1.726340000000000074e+01 1.312270000000000039e+02 2.032414999999999964e+03
1.340000000000000080e-01 1.424755000000000049e-01 1.636499999999999844e+01 1.294535000000000196e+02 2.031815000000000055e+03
1.350000000000000089e-01 1.424205000000000054e-01 1.546610000000000085e+01 1.276680000000000064e+02 2.031200000000000045e+03
1.360000000000000098e-01 1.423645000000000049e-01 1.458050000000000068e+01 1.259050000000000011e+02 2.030574999999999818e+03
1.370000000000000107e-01 1.423094999999999777e-01 1.372240000000000038e+01 1.241989999999999981e+02 2.029960000000000036e+03
1.380000000000000115e-01 1.422565000000000079e-01 1.290545000000000009e+01 1.225819999999999936e+02 2.029360000000000127e+03
1.390000000000000124e-01 1.422049999999999981e-01 1.214208499999999979e+01 1.210829999999999984e+02 2.028779999999999973e+03
1.400000000000000133e-01 1.421570000000000056e-01 1.144323500000000138e+01 1.197259999999999991e+02 2.028239999999999782e+03
1.410000000000000142e-01 1.421135000000000037e-01 1.081759999999999877e+01 1.185285000000000082e+02 2.027744999999999891e+03
1.420000000000000151e-01 1.420744999999999925e-01 1.027159500000000136e+01 1.175035000000000025e+02 2.027304999999999836e+03
1.430000000000000160e-01 1.420405000000000140e-01 9.808994999999999465e+00 1.166564999999999941e+02 2.026914999999999964e+03
1.440000000000000169e-01 1.420115000000000127e-01 9.430865000000000720e+00 1.159869999999999948e+02 2.026585000000000036e+03
1.450000000000000178e-01 1.419874999999999887e-01 9.135860000000000980e+00 1.154879999999999995e+02 2.026309999999999945e+03
1.459999999999999909e-01 1.419694999999999985e-01 8.920339999999999492e+00 1.151490000000000009e+02 2.026099999999999909e+03
1.469999999999999918e-01 1.419555000000000122e-01 8.778420000000000556e+00 1.149540000000000077e+02 2.025934999999999945e+03
1.479999999999999927e-01 1.419465000000000032e-01 8.702719999999999345e+00 1.148840000000000003e+02 2.025825000000000045e+03
1.489999999999999936e-01 1.419405000000000250e-01 8.684480000000000643e+00 1.149190000000000111e+02 2.025755000000000109e+03
1.499999999999999944e-01 1.419389999999999818e-01 8.714074999999999349e+00 1.150354999999999990e+02 2.025724999999999909e+03
1.509999999999999953e-01 1.419394999999999962e-01 8.781425000000000480e+00 1.152125000000000057e+02 2.025724999999999909e+03
1.519999999999999962e-01 1.419420000000000126e-01 8.876369999999999649e+00 1.154259999999999877e+02 2.025750000000000000e+03
1.529999999999999971e-01 1.419464999999999755e-01 8.989024999999999821e+00 1.156580000000000013e+02 2.025795000000000073e+03
1.539999999999999980e-01 1.419515000000000082e-01 9.110130000000001615e+00 1.158884999999999934e+02 2.025845000000000027e+03
1.549999999999999989e-01 1.419569999999999999e-01 9.231265000000000498e+00 1.161020000000000039e+02 2.025904999999999973e+03
1.559999999999999998e-01 1.419615000000000182e-01 9.345105000000000217e+00 1.162849999999999966e+02 2.025954999999999927e+03
1.570000000000000007e-01 1.419664999999999955e-01 9.445560000000000400e+00 1.164275000000000091e+02 2.026005000000000109e+03
1.580000000000000016e-01 1.419694999999999985e-01 9.527905000000000513e+00 1.165229999999999961e+02 2.026045000000000073e+03
1.590000000000000024e-01 1.419719999999999871e-01 9.588779999999999859e+00 1.165664999999999907e+02 2.026070000000000164e+03
