# t [s], A [cm^2], U [cm/s], P [cPa], c [cm/s]
1.000000000000000021e-03 2.019029999999999991e-01 2.244079999999999964e-01 9.463695000000001301e+01 2.086045000000000073e+03
2.000000000000000042e-03 2.018594999999999973e-01 1.591129000000000016e+00 9.171074999999999022e+01 2.085699999999999818e+03
3.000000000000000062e-03 2.017289999999999917e-01 3.313981000000000066e+00 8.759284999999999854e+01 2.084734999999999673e+03
4.000000000000000083e-03 2.015460000000000029e-01 5.262102650000000104e+00 8.295629999999999882e+01 2.083390000000000327e+03
5.000000000000000104e-03 2.013439999999999952e-01 7.374785000000000146e+00 7.865180000000000859e+01 2.081920000000000073e+03
6.000000000000000125e-03 2.011474999999999791e-01 9.506875000000000853e+00 7.506274999999999409e+01 2.080505000000000109e+03
7.000000000000000146e-03 2.009624999999999884e-01 1.145148499999999991e+01 7.203995000000000459e+01 2.079204999999999927e+03
8.000000000000000167e-03 2.007919999999999983e-01 1.309619000000000000e+01 6.933520000000000039e+01 2.078025000000000091e+03
9.000000000000001055e-03 2.006410000000000138e-01 1.445929999999999893e+01 6.695454999999999757e+01 2.076989999999999782e+03
1.000000000000000194e-02 2.005119999999999958e-01 1.558014999999999972e+01 6.499009999999999820e+01 2.076119999999999891e+03
1.099999999999999936e-02 2.004070000000000018e-01 1.647794999999999987e+01 6.344904999999999973e+01 2.075414999999999964e+03
1.200000000000000025e-02 2.003230000000000011e-01 1.716679999999999851e+01 6.228239999999999554e+01 2.074869999999999891e+03
1.300000000000000114e-02 2.002579999999999916e-01 1.765124999999999744e+01 6.139954999999999785e+01 2.074449999999999818e+03
1.400000000000000203e-02 2.002059999999999951e-01 1.793329999999999913e+01 6.067470000000000141e+01 2.074125000000000000e+03
1.499999999999999944e-02 2.001640000000000086e-01 1.805270000000000152e+01 6.004829999999999757e+01 2.073864999999999782e+03
1.600000000000000033e-02 2.001340000000000063e-01 1.811565000000000225e+01 5.964900000000000091e+01 2.073684999999999945e+03
1.700000000000000122e-02 2.001229999999999953e-01 1.826595000000000013e+01 5.977904999999999802e+01 2.073630000000000109e+03
1.800000000000000211e-02 2.001419999999999866e-01 1.861614999999999753e+01 6.074284999999999712e+01 2.073769999999999982e+03
1.900000000000000300e-02 2.001955000000000262e-01 1.918775000000000119e+01 6.264149999999999352e+01 2.074125000000000000e+03
2.000000000000000042e-02 2.002794999999999992e-01 1.989889999999999759e+01 6.527185000000000059e+01 2.074694999999999709e+03
2.100000000000000130e-02 2.003824999999999912e-01 2.059980000000000189e+01 6.817810000000000059e+01 2.075399999999999636e+03
2.200000000000000219e-02 2.004869999999999985e-01 2.113170000000000215e+01 7.081359999999999388e+01 2.076114999999999782e+03
2.299999999999999961e-02 2.005764999999999909e-01 2.138269999999999982e+01 7.272669999999999391e+01 2.076750000000000000e+03
2.400000000000000050e-02 2.006410000000000138e-01 2.131824999999999903e+01 7.369400000000000261e+01 2.077215000000000146e+03
2.500000000000000139e-02 2.006745000000000057e-01 2.098069999999999879e+01 7.375890000000001123e+01 2.077465000000000146e+03
2.600000000000000228e-02 2.006819999999999993e-01 2.046195000000000164e+01 7.317410000000000991e+01 2.077539999999999964e+03
2.700000000000000316e-02 2.006715000000000027e-01 1.986370000000000147e+01 7.228229999999999222e+01 2.077485000000000127e+03
2.800000000000000058e-02 2.006525000000000114e-01 1.926225000000000165e+01 7.138750000000000284e+01 2.077364999999999782e+03
2.900000000000000147e-02 2.006320000000000048e-01 1.868795000000000073e+01 7.066270000000000095e+01 2.077225000000000364e+03
3.000000000000000236e-02 2.006129999999999858e-01 1.812534999999999741e+01 7.012010000000000787e+01 2.077095000000000255e+03
3.099999999999999978e-02 2.005949999999999955e-01 1.752949999999999875e+01 6.964209999999999923e+01 2.076970000000000255e+03
3.200000000000000067e-02 2.005730000000000013e-01 1.685060000000000002e+01 6.905365000000000464e+01 2.076824999999999818e+03
3.300000000000000155e-02 2.005440000000000000e-01 1.605924999999999869e+01 6.820679999999998699e+01 2.076630000000000109e+03
3.400000000000000244e-02 2.005045000000000022e-01 1.516329999999999956e+01 6.705084999999999695e+01 2.076369999999999891e+03
3.500000000000000333e-02 2.004549999999999943e-01 1.421269999999999989e+01 6.566580000000000439e+01 2.076039999999999964e+03
3.600000000000000422e-02 2.004019999999999968e-01 1.329005000000000081e+01 6.425159999999999627e+01 2.075684999999999945e+03
3.700000000000000511e-02 2.003524999999999889e-01 1.249060000000000059e+01 6.307659999999999911e+01 2.075345000000000255e+03
3.799999999999999906e-02 2.003150000000000208e-01 1.189780000000000015e+01 6.240299999999999869e+01 2.075079999999999927e+03
3.899999999999999994e-02 2.002984999999999904e-01 1.156264999999999965e+01 6.241429999999999723e+01 2.074954999999999927e+03
4.000000000000000083e-02 2.003070000000000128e-01 1.149155000000000015e+01 6.316519999999999868e+01 2.075000000000000000e+03
4.100000000000000172e-02 2.003409999999999913e-01 1.164564999999999984e+01 6.456704999999999472e+01 2.075210000000000036e+03
4.200000000000000261e-02 2.003949999999999898e-01 1.195015000000000072e+01 6.640780000000000882e+01 2.075565000000000055e+03
4.300000000000000350e-02 2.004624999999999879e-01 1.231010000000000026e+01 6.839825000000000443e+01 2.076010000000000218e+03
4.400000000000000439e-02 2.005319999999999880e-01 1.262754999999999939e+01 7.022919999999999163e+01 2.076474999999999909e+03
4.499999999999999833e-02 2.005934999999999802e-01 1.281700000000000017e+01 7.162494999999999834e+01 2.076900000000000091e+03
4.599999999999999922e-02 2.006384999999999974e-01 1.281574999999999953e+01 7.238370000000000459e+01 2.077215000000000146e+03
4.700000000000000011e-02 2.006605000000000194e-01 1.258815000000000062e+01 7.239750000000000796e+01 2.077375000000000000e+03
4.800000000000000100e-02 2.006554999999999866e-01 1.212539999999999907e+01 7.165200000000000102e+01 2.077349999999999909e+03
4.900000000000000189e-02 2.006235000000000102e-01 1.143974500000000027e+01 7.021039999999999281e+01 2.077150000000000091e+03
5.000000000000000278e-02 2.005664999999999809e-01 1.055822000000000038e+01 6.818750000000000000e+01 2.076769999999999982e+03
5.100000000000000366e-02 2.004879999999999995e-01 9.515229999999998967e+00 6.572225000000000250e+01 2.076239999999999782e+03
5.200000000000000455e-02 2.003915000000000002e-01 8.347245000000000914e+00 6.295390000000000441e+01 2.075595000000000255e+03
5.300000000000000544e-02 2.002829999999999888e-01 7.089515000000000455e+00 6.000744999999999862e+01 2.074859999999999673e+03
5.399999999999999939e-02 2.001664999999999972e-01 5.775199999999999889e+00 5.698689999999999856e+01 2.074065000000000055e+03
5.500000000000000028e-02 2.000454999999999872e-01 4.435870000000000424e+00 5.397729999999999961e+01 2.073239999999999782e+03
5.600000000000000117e-02 1.999239999999999906e-01 3.103123000000000076e+00 5.105069999999999908e+01 2.072409999999999854e+03
5.700000000000000205e-02 1.998039999999999816e-01 1.810024999999999995e+00 4.827425000000000210e+01 2.071590000000000146e+03
5.800000000000000294e-02 1.996900000000000064e-01 5.919650000000000745e-01 4.571654999999999802e+01 2.070809999999999945e+03
5.900000000000000383e-02 1.995844999999999980e-01 -5.135449999999999182e-01 4.345120000000000005e+01 2.070079999999999927e+03
6.000000000000000472e-02 1.994905000000000150e-01 -1.468136499999999955e+00 4.155624999999999858e+01 2.069435000000000400e+03
6.099999999999999867e-02 1.994124999999999925e-01 -2.234681999999999835e+00 4.011015000000000441e+01 2.068885000000000218e+03
6.199999999999999956e-02 1.993515000000000148e-01 -2.779910000000000103e+00 3.918545000000000300e+01 2.068460000000000036e+03
6.300000000000000044e-02 1.993129999999999902e-01 -3.077024999999999899e+00 3.884140000000000015e+01 2.068179999999999836e+03
6.400000000000000133e-02 1.992975000000000163e-01 -3.107920000000000016e+00 3.911740000000000350e+01 2.068055000000000291e+03
6.500000000000000222e-02 1.993064999999999976e-01 -2.864684999999999704e+00 4.002790000000000248e+01 2.068099999999999909e+03
6.600000000000000311e-02 1.993409999999999904e-01 -2.350200000000000067e+00 4.156020000000000181e+01 2.068314999999999600e+03
6.700000000000000400e-02 1.994004999999999805e-01 -1.577909500000000076e+00 4.367484999999999928e+01 2.068695000000000164e+03
6.800000000000000488e-02 1.994835000000000080e-01 -5.707550000000001234e-01 4.630854999999999677e+01 2.069239999999999782e+03
6.900000000000000577e-02 1.995870000000000144e-01 6.404300000000000548e-01 4.937895000000000323e+01 2.069930000000000291e+03
7.000000000000000666e-02 1.997079999999999966e-01 2.019004999999999939e+00 5.279070000000000107e+01 2.070739999999999782e+03
7.100000000000000755e-02 1.998439999999999939e-01 3.524737500000000079e+00 5.644200000000000017e+01 2.071654999999999745e+03
7.200000000000000844e-02 1.999900000000000011e-01 5.116170000000000329e+00 6.023120000000000118e+01 2.072645000000000437e+03
7.300000000000000933e-02 2.001425000000000010e-01 6.752864999999999895e+00 6.406305000000000405e+01 2.073679999999999836e+03
7.399999999999999634e-02 2.002970000000000028e-01 8.397394999999999499e+00 6.785394999999999754e+01 2.074739999999999782e+03
7.499999999999999722e-02 2.004519999999999913e-01 1.001710500000000081e+01 7.153605000000000302e+01 2.075795000000000073e+03
7.599999999999999811e-02 2.006034999999999902e-01 1.158538499999999871e+01 7.506010000000000559e+01 2.076840000000000146e+03
7.699999999999999900e-02 2.007500000000000118e-01 1.308225000000000016e+01 7.839650000000000318e+01 2.077855000000000018e+03
7.799999999999999989e-02 2.008904999999999996e-01 1.449469999999999992e+01 8.153470000000000084e+01 2.078824999999999818e+03
7.900000000000000078e-02 2.010244999999999949e-01 1.581625000000000014e+01 8.448120000000000118e+01 2.079760000000000218e+03
8.000000000000000167e-02 2.011514999999999831e-01 1.704609999999999914e+01 8.725610000000000355e+01 2.080644999999999982e+03
8.100000000000000255e-02 2.012730000000000075e-01 1.818795000000000073e+01 8.988884999999999081e+01 2.081489999999999782e+03
8.200000000000000344e-02 2.013889999999999847e-01 1.924859999999999971e+01 9.241394999999999982e+01 2.082300000000000182e+03
8.300000000000000433e-02 2.015015000000000001e-01 2.023675000000000068e+01 9.486625000000000796e+01 2.083085000000000036e+03
8.400000000000000522e-02 2.016109999999999847e-01 2.116130000000000067e+01 9.727754999999999086e+01 2.083855000000000018e+03
8.500000000000000611e-02 2.017185000000000228e-01 2.203079999999999927e+01 9.967240000000001032e+01 2.084610000000000127e+03
8.600000000000000699e-02 2.018260000000000054e-01 2.285219999999999985e+01 1.020692500000000109e+02 2.085359999999999673e+03
8.700000000000000788e-02 2.019330000000000014e-01 2.363054999999999950e+01 1.044755000000000109e+02 2.086109999999999673e+03
8.800000000000000877e-02 2.020395000000000107e-01 2.436854999999999905e+01 1.068915000000000077e+02 2.086859999999999673e+03
8.899999999999999578e-02 2.021459999999999924e-01 2.506670000000000087e+01 1.093075000000000045e+02 2.087609999999999673e+03
8.999999999999999667e-02 2.022530000000000161e-01 2.572310000000000230e+01 1.117090000000000032e+02 2.088355000000000018e+03
9.099999999999999756e-02 2.023584999999999967e-01 2.633395000000000152e+01 1.140739999999999981e+02 2.089095000000000255e+03
9.199999999999999845e-02 2.024620000000000031e-01 2.689374999999999716e+01 1.163785000000000025e+02 2.089824999999999818e+03
9.299999999999999933e-02 2.025629999999999931e-01 2.739580000000000126e+01 1.185939999999999941e+02 2.090529999999999745e+03
9.400000000000000022e-02 2.026600000000000068e-01 2.783234999999999815e+01 1.206924999999999955e+02 2.091210000000000036e+03
9.500000000000000111e-02 2.027515000000000012e-01 2.819525000000000148e+01 1.226460000000000008e+02 2.091860000000000127e+03
9.600000000000000200e-02 2.028375000000000039e-01 2.847644999999999982e+01 1.244265000000000043e+02 2.092460000000000036e+03
9.700000000000000289e-02 2.029159999999999853e-01 2.866810000000000258e+01 1.260109999999999957e+02 2.093019999999999982e+03
9.800000000000000377e-02 2.029865000000000141e-01 2.876355000000000217e+01 1.273780000000000001e+02 2.093519999999999982e+03
9.900000000000000466e-02 2.030480000000000063e-01 2.875734999999999886e+01 1.285104999999999791e+02 2.093954999999999927e+03
1.000000000000000056e-01 2.030994999999999884e-01 2.864584999999999937e+01 1.293969999999999914e+02 2.094329999999999927e+03
1.010000000000000064e-01 2.031410000000000160e-01 2.842764999999999986e+01 1.300335000000000036e+02 2.094625000000000000e+03
1.020000000000000073e-01 2.031719999999999915e-01 2.810369999999999990e+01 1.304190000000000111e+02 2.094849999999999909e+03
1.030000000000000082e-01 2.031930000000000125e-01 2.767745000000000033e+01 1.305625000000000000e+02 2.095005000000000109e+03
1.040000000000000091e-01 2.032039999999999957e-01 2.715505000000000280e+01 1.304769999999999754e+02 2.095095000000000255e+03
1.050000000000000100e-01 2.032050000000000245e-01 2.654489999999999839e+01 1.301829999999999927e+02 2.095109999999999673e+03
1.059999999999999970e-01 2.031979999999999897e-01 2.585754999999999981e+01 1.297055000000000007e+02 2.095065000000000055e+03
1.069999999999999979e-01 2.031824999999999881e-01 2.510524999999999807e+01 1.290720000000000027e+02 2.094965000000000146e+03
1.079999999999999988e-01 2.031609999999999805e-01 2.430140000000000100e+01 1.283154999999999859e+02 2.094824999999999818e+03
1.089999999999999997e-01 2.031339999999999812e-01 2.346009999999999707e+01 1.274659999999999940e+02 2.094640000000000327e+03
1.100000000000000006e-01 2.031020000000000048e-01 2.259544999999999959e+01 1.265555000000000092e+02 2.094425000000000182e+03
1.110000000000000014e-01 2.030679999999999985e-01 2.172109999999999985e+01 1.256145000000000067e+02 2.094190000000000055e+03
1.120000000000000023e-01 2.030315000000000036e-01 2.084989999999999810e+01 1.246689999999999969e+02 2.093940000000000055e+03
1.130000000000000032e-01 2.029950000000000088e-01 1.999309999999999832e+01 1.237420000000000044e+02 2.093684999999999945e+03
1.140000000000000041e-01 2.029584999999999861e-01 1.916035000000000110e+01 1.228515000000000015e+02 2.093430000000000291e+03
1.150000000000000050e-01 2.029229999999999923e-01 1.835924999999999940e+01 1.220109999999999957e+02 2.093180000000000291e+03
1.160000000000000059e-01 2.028885000000000272e-01 1.759530000000000172e+01 1.212280000000000086e+02 2.092934999999999945e+03
1.170000000000000068e-01 2.028560000000000085e-01 1.687150000000000105e+01 1.205049999999999955e+02 2.092710000000000036e+03
1.180000000000000077e-01 2.028260000000000063e-01 1.618874999999999886e+01 1.198389999999999986e+02 2.092500000000000000e+03
1.190000000000000085e-01 2.027974999999999917e-01 1.554570000000000007e+01 1.192224999999999966e+02 2.092295000000000073e+03
1.200000000000000094e-01 2.027709999999999790e-01 1.493905000000000172e+01 1.186449999999999960e+02 2.092105000000000018e+03
1.209999999999999964e-01 2.027450000000000085e-01 1.436384999999999934e+01 1.180889999999999986e+02 2.091920000000000073e+03
1.219999999999999973e-01 2.027200000000000113e-01 1.381364999999999910e+01 1.175395000000000039e+02 2.091744999999999891e+03
1.229999999999999982e-01 2.026950000000000141e-01 1.328125000000000000e+01 1.169759999999999991e+02 2.091565000000000055e+03
1.239999999999999991e-01 2.026695000000000024e-01 1.275885000000000069e+01 1.163795000000000073e+02 2.091385000000000218e+03
1.250000000000000000e-01 2.026425000000000032e-01 1.223869999999999969e+01 1.157314999999999969e+02 2.091194999999999709e+03
1.260000000000000009e-01 2.026135000000000019e-01 1.171324999999999861e+01 1.150159999999999911e+02 2.090989999999999782e+03
1.270000000000000018e-01 2.025810000000000111e-01 1.117610499999999973e+01 1.142189999999999941e+02 2.090764999999999873e+03
1.280000000000000027e-01 2.025460000000000038e-01 1.062202999999999875e+01 1.133294999999999959e+02 2.090519999999999982e+03
1.290000000000000036e-01 2.025069999999999926e-01 1.004737500000000061e+01 1.123439999999999941e+02 2.090244999999999891e+03
1.300000000000000044e-01 2.024644999999999917e-01 9.450344999999998663e+00 1.112600000000000051e+02 2.089944999999999709e+03
1.310000000000000053e-01 2.024175000000000002e-01 8.831039999999999779e+00 1.100819999999999936e+02 2.089625000000000000e+03
1.320000000000000062e-01 2.023675000000000057e-01 8.191805000000000447e+00 1.088205000000000098e+02 2.089275000000000091e+03
1.330000000000000071e-01 2.023135000000000072e-01 7.536780000000000257e+00 1.074894999999999925e+02 2.088899999999999636e+03
1.340000000000000080e-01 2.022574999999999790e-01 6.871959999999999624e+00 1.061069999999999993e+02 2.088510000000000218e+03
1.350000000000000089e-01 2.021989999999999899e-01 6.204844999999999722e+00 1.046949999999999932e+02 2.088105000000000018e+03
1.360000000000000098e-01 2.021394999999999997e-01 5.544069999999999609e+00 1.032779999999999916e+02 2.087694999999999709e+03
1.370000000000000107e-01 2.020794999999999952e-01 4.898984999999999701e+00 1.018798500000000047e+02 2.087279999999999745e+03
1.380000000000000115e-01 2.020210000000000061e-01 4.279205000000000148e+00 1.005262000000000029e+02 2.086864999999999782e+03
1.390000000000000124e-01 2.019634999999999903e-01 3.694135000000000169e+00 9.924145000000000039e+01 2.086465000000000146e+03
1.400000000000000133e-01 2.019090000000000051e-01 3.152530000000000054e+00 9.804595000000000482e+01 2.086090000000000146e+03
1.410000000000000142e-01 2.018579999999999819e-01 2.662125000000000075e+00 9.695875000000000909e+01 2.085730000000000018e+03
1.420000000000000151e-01 2.018110000000000182e-01 2.229279500000000080e+00 9.599405000000000143e+01 2.085400000000000091e+03
1.430000000000000160e-01 2.017694999999999905e-01 1.858789000000000025e+00 9.516185000000000116e+01 2.085105000000000018e+03
1.440000000000000169e-01 2.017329999999999957e-01 1.553706999999999949e+00 9.446764999999999191e+01 2.084850000000000364e+03
1.450000000000000178e-01 2.017015000000000058e-01 1.315305000000000168e+00 9.391245000000000687e+01 2.084625000000000000e+03
1.459999999999999909e-01 2.016765000000000085e-01 1.143128499999999992e+00 9.349325000000000330e+01 2.084440000000000055e+03
1.469999999999999918e-01 2.016560000000000019e-01 1.035069000000000017e+00 9.320310000000000628e+01 2.084295000000000073e+03
1.479999999999999927e-01 2.016415000000000013e-01 9.875580000000000469e-01 9.303204999999999814e+01 2.084184999999999945e+03
1.489999999999999936e-01 2.016315000000000190e-01 9.957685000000000564e-01 9.296760000000000446e+01 2.084109999999999673e+03
1.499999999999999944e-01 2.016255000000000130e-01 1.053860999999999937e+00 9.299539999999998940e+01 2.084070000000000164e+03
1.509999999999999953e-01 2.016240000000000254e-01 1.155240000000000045e+00 9.310014999999999930e+01 2.084050000000000182e+03
1.519999999999999962e-01 2.016259999999999997e-01 1.292799999999999949e+00 9.326569999999999538e+01 2.084059999999999945e+03
1.529999999999999971e-01 2.016300000000000037e-01 1.459200000000000053e+00 9.347634999999999650e+01 2.084085000000000036e+03
1.539999999999999980e-01 2.016364999999999963e-01 1.647089999999999943e+00 9.371680000000000632e+01 2.084125000000000000e+03
1.549999999999999989e-01 2.016445000000000043e-01 1.849324999999999886e+00 9.397274999999999068e+01 2.084175000000000182e+03
1.559999999999999998e-01 2.016529999999999989e-01 2.059180000000000010e+00 9.423140000000000782e+01 2.084234999999999673e+03
1.570000000000000007e-01 2.016620000000000079e-01 2.270489999999999675e+00 9.448144999999999527e+01 2.084289999999999964e+03
1.580000000000000016e-01 2.016709999999999892e-01 2.477815000000000101e+00 9.471359999999999957e+01 2.084355000000000018e+03
1.590000000000000024e-01 2.016795000000000115e-01 2.676535000000000331e+00 9.492040000000000077e+01 2.084409999999999854e+03
