# t [s], A [cm^2], U [cm/s], P [cPa], c [cm/s]
1.000000000000000021e-03 1.538934999999999886e-01 3.847309999999999897e-01 1.035275000000000034e+02 1.746259999999999991e+03
2.000000000000000042e-03 1.538599999999999968e-01 2.140849000000000224e+00 1.002690499999999929e+02 1.745940000000000055e+03
3.000000000000000062e-03 1.537390000000000145e-01 4.263385000000000424e+00 9.604054999999999609e+01 1.744849999999999909e+03
4.000000000000000083e-03 1.535590000000000011e-01 6.598829499999999904e+00 9.139549999999999841e+01 1.743255000000000109e+03
5.000000000000000104e-03 1.533530000000000171e-01 9.087889999999999802e+00 8.708955000000000268e+01 1.741440000000000055e+03
6.000000000000000125e-03 1.531430000000000013e-01 1.160675999999999952e+01 8.347665000000000646e+01 1.739615000000000009e+03
7.000000000000000146e-03 1.529409999999999936e-01 1.398195999999999906e+01 8.048320000000001073e+01 1.737880000000000109e+03
8.000000000000000167e-03 1.527514999999999845e-01 1.608824500000000057e+01 7.787624999999999886e+01 1.736275000000000091e+03
9.000000000000001055e-03 1.525770000000000182e-01 1.790630000000000166e+01 7.555259999999999820e+01 1.734815000000000055e+03
1.000000000000000194e-02 1.524210000000000009e-01 1.946950000000000003e+01 7.354744999999999777e+01 1.733529999999999973e+03
1.099999999999999936e-02 1.522860000000000047e-01 2.080114999999999981e+01 7.188280000000000314e+01 1.732424999999999955e+03
1.200000000000000025e-02 1.521704999999999863e-01 2.191394999999999982e+01 7.052705000000000268e+01 1.731494999999999891e+03
1.300000000000000114e-02 1.520750000000000157e-01 2.282290000000000063e+01 6.943665000000000020e+01 1.730724999999999909e+03
1.400000000000000203e-02 1.519955000000000056e-01 2.354175000000000040e+01 6.856489999999999441e+01 1.730099999999999909e+03
1.499999999999999944e-02 1.519309999999999827e-01 2.408104999999999762e+01 6.785290000000000532e+01 1.729599999999999909e+03
1.600000000000000033e-02 1.518780000000000130e-01 2.446614999999999895e+01 6.726059999999999661e+01 1.729190000000000055e+03
1.700000000000000122e-02 1.518355000000000121e-01 2.475614999999999810e+01 6.682620000000000005e+01 1.728869999999999891e+03
1.800000000000000211e-02 1.518065000000000109e-01 2.504175000000000040e+01 6.668729999999999336e+01 1.728664999999999964e+03
1.900000000000000300e-02 1.517959999999999865e-01 2.541505000000000081e+01 6.702864999999999895e+01 1.728605000000000018e+03
2.000000000000000042e-02 1.518094999999999861e-01 2.593135000000000190e+01 6.798345000000000482e+01 1.728724999999999909e+03
2.100000000000000130e-02 1.518480000000000107e-01 2.658449999999999847e+01 6.954760000000000275e+01 1.729050000000000182e+03
2.200000000000000219e-02 1.519095000000000029e-01 2.730700000000000216e+01 7.155209999999999582e+01 1.729555000000000064e+03
2.299999999999999961e-02 1.519864999999999966e-01 2.799220000000000041e+01 7.370125000000000171e+01 1.730190000000000055e+03
2.400000000000000050e-02 1.520674999999999943e-01 2.852785000000000082e+01 7.565604999999999336e+01 1.730865000000000009e+03
2.500000000000000139e-02 1.521419999999999995e-01 2.882805000000000106e+01 7.712649999999999295e+01 1.731494999999999891e+03
2.600000000000000228e-02 1.522010000000000030e-01 2.885389999999999944e+01 7.794374999999999432e+01 1.732000000000000000e+03
2.700000000000000316e-02 1.522390000000000132e-01 2.861854999999999905e+01 7.809065000000001078e+01 1.732340000000000146e+03
2.800000000000000058e-02 1.522565000000000168e-01 2.817755000000000010e+01 7.768755000000000166e+01 1.732505000000000109e+03
2.900000000000000147e-02 1.522554999999999881e-01 2.760845000000000127e+01 7.694265000000000043e+01 1.732519999999999982e+03
3.000000000000000236e-02 1.522430000000000172e-01 2.698819999999999908e+01 7.608494999999999209e+01 1.732424999999999955e+03
3.099999999999999978e-02 1.522239999999999982e-01 2.637464999999999904e+01 7.530324999999999136e+01 1.732289999999999964e+03
3.200000000000000067e-02 1.522060000000000080e-01 2.579659999999999798e+01 7.470624999999999716e+01 1.732139999999999873e+03
3.300000000000000155e-02 1.521899999999999920e-01 2.525390000000000157e+01 7.431225000000000591e+01 1.732015000000000100e+03
3.400000000000000244e-02 1.521780000000000077e-01 2.472520000000000095e+01 7.406425000000000125e+01 1.731914999999999964e+03
3.500000000000000333e-02 1.521679999999999977e-01 2.418074999999999974e+01 7.386310000000000286e+01 1.731835000000000036e+03
3.600000000000000422e-02 1.521575000000000011e-01 2.359474999999999767e+01 7.360710000000000264e+01 1.731755000000000109e+03
3.700000000000000511e-02 1.521440000000000015e-01 2.295615000000000094e+01 7.322639999999999816e+01 1.731650000000000091e+03
3.799999999999999906e-02 1.521270000000000122e-01 2.227465000000000117e+01 7.270600000000000307e+01 1.731509999999999991e+03
3.899999999999999994e-02 1.521049999999999902e-01 2.158030000000000115e+01 7.209250000000000114e+01 1.731335000000000036e+03
4.000000000000000083e-02 1.520810000000000217e-01 2.091854999999999976e+01 7.148430000000000462e+01 1.731144999999999982e+03
4.100000000000000172e-02 1.520584999999999853e-01 2.034084999999999965e+01 7.100860000000000127e+01 1.730960000000000036e+03
4.200000000000000261e-02 1.520420000000000105e-01 1.989390000000000214e+01 7.079130000000000678e+01 1.730824999999999818e+03
4.300000000000000350e-02 1.520360000000000045e-01 1.960950000000000060e+01 7.092744999999999322e+01 1.730764999999999873e+03
4.400000000000000439e-02 1.520420000000000105e-01 1.949749999999999872e+01 7.145859999999998990e+01 1.730809999999999945e+03
4.499999999999999833e-02 1.520624999999999893e-01 1.954354999999999976e+01 7.236150000000000659e+01 1.730969999999999800e+03
4.599999999999999922e-02 1.520969999999999822e-01 1.971059999999999945e+01 7.355010000000000048e+01 1.731235000000000127e+03
4.700000000000000011e-02 1.521409999999999985e-01 1.994460000000000122e+01 7.488929999999999154e+01 1.731590000000000146e+03
4.800000000000000100e-02 1.521914999999999796e-01 2.018204999999999671e+01 7.621540000000000248e+01 1.731994999999999891e+03
4.900000000000000189e-02 1.522415000000000018e-01 2.035849999999999937e+01 7.736039999999999850e+01 1.732394999999999982e+03
5.000000000000000278e-02 1.522855000000000181e-01 2.041624999999999801e+01 7.817404999999999404e+01 1.732759999999999991e+03
5.100000000000000366e-02 1.523174999999999946e-01 2.030969999999999942e+01 7.854125000000000512e+01 1.733025000000000091e+03
5.200000000000000455e-02 1.523339999999999972e-01 2.000919999999999987e+01 7.839240000000000919e+01 1.733164999999999964e+03
5.300000000000000544e-02 1.523315000000000086e-01 1.950164999999999793e+01 7.770579999999999643e+01 1.733150000000000091e+03
5.399999999999999939e-02 1.523079999999999989e-01 1.878969999999999985e+01 7.650430000000000064e+01 1.732969999999999800e+03
5.500000000000000028e-02 1.522649999999999837e-01 1.788899999999999935e+01 7.484635000000000105e+01 1.732625000000000000e+03
5.600000000000000117e-02 1.522030000000000050e-01 1.682519999999999882e+01 7.281485000000000696e+01 1.732125000000000000e+03
5.700000000000000205e-02 1.521244999999999958e-01 1.563040000000000163e+01 7.050634999999999764e+01 1.731494999999999891e+03
5.800000000000000294e-02 1.520334999999999881e-01 1.434035000000000082e+01 6.802094999999999914e+01 1.730750000000000000e+03
5.900000000000000383e-02 1.519330000000000125e-01 1.299242999999999881e+01 6.545530000000000825e+01 1.729934999999999945e+03
6.000000000000000472e-02 1.518269999999999897e-01 1.162389500000000098e+01 6.289865000000000350e+01 1.729065000000000055e+03
6.099999999999999867e-02 1.517189999999999928e-01 1.027156500000000072e+01 6.043144999999999811e+01 1.728184999999999945e+03
6.199999999999999956e-02 1.516115000000000101e-01 8.971189999999999998e+00 5.812539999999999907e+01 1.727309999999999945e+03
6.300000000000000044e-02 1.515099999999999780e-01 7.757534999999999847e+00 5.604529999999999745e+01 1.726470000000000027e+03
6.400000000000000133e-02 1.514145000000000074e-01 6.664094999999999658e+00 5.425039999999999907e+01 1.725695000000000164e+03
6.500000000000000222e-02 1.513304999999999789e-01 5.722954999999999792e+00 5.279545000000000243e+01 1.725000000000000000e+03
6.600000000000000311e-02 1.512594999999999912e-01 4.964019999999999655e+00 5.173069999999999879e+01 1.724409999999999854e+03
6.700000000000000400e-02 1.512034999999999907e-01 4.414194999999999425e+00 5.110115000000000407e+01 1.723940000000000055e+03
6.800000000000000488e-02 1.511659999999999948e-01 4.096255000000000202e+00 5.094454999999999956e+01 1.723619999999999891e+03
6.900000000000000577e-02 1.511474999999999902e-01 4.027759999999999785e+00 5.128924999999999557e+01 1.723460000000000036e+03
7.000000000000000666e-02 1.511504999999999932e-01 4.219969999999999999e+00 5.215165000000000362e+01 1.723465000000000146e+03
7.100000000000000755e-02 1.511760000000000048e-01 4.677049999999999486e+00 5.353435000000000343e+01 1.723650000000000091e+03
7.200000000000000844e-02 1.512229999999999963e-01 5.395669999999999966e+00 5.542490000000000094e+01 1.724014999999999873e+03
7.300000000000000933e-02 1.512924999999999964e-01 6.365009999999999835e+00 5.779574999999999818e+01 1.724565000000000055e+03
7.399999999999999634e-02 1.513835000000000042e-01 7.567225000000000534e+00 6.060500000000000398e+01 1.725289999999999964e+03
7.499999999999999722e-02 1.514940000000000175e-01 8.978315000000000268e+00 6.379870000000000374e+01 1.726179999999999836e+03
7.599999999999999811e-02 1.516230000000000078e-01 1.056932499999999919e+01 6.731340000000000146e+01 1.727219999999999800e+03
7.699999999999999900e-02 1.517674999999999996e-01 1.230769000000000091e+01 7.107970000000000255e+01 1.728389999999999873e+03
7.799999999999999989e-02 1.519245000000000179e-01 1.415875000000000128e+01 7.502559999999999718e+01 1.729670000000000073e+03
7.900000000000000078e-02 1.520914999999999906e-01 1.608715000000000117e+01 7.907980000000000587e+01 1.731030000000000200e+03
8.000000000000000167e-02 1.522660000000000124e-01 1.805815000000000126e+01 8.317499999999999716e+01 1.732460000000000036e+03
8.100000000000000255e-02 1.524444999999999828e-01 2.003885000000000005e+01 8.725000000000000000e+01 1.733929999999999836e+03
8.200000000000000344e-02 1.526250000000000107e-01 2.199909999999999854e+01 9.125194999999999368e+01 1.735414999999999964e+03
8.300000000000000433e-02 1.528045000000000098e-01 2.391270000000000095e+01 9.513785000000000025e+01 1.736900000000000091e+03
8.400000000000000522e-02 1.529805000000000192e-01 2.575750000000000028e+01 9.887430000000000518e+01 1.738365000000000009e+03
8.500000000000000611e-02 1.531524999999999970e-01 2.751630000000000109e+01 1.024405000000000001e+02 1.739800000000000182e+03
8.600000000000000699e-02 1.533194999999999975e-01 2.917695000000000149e+01 1.058257000000000119e+02 1.741194999999999936e+03
8.700000000000000788e-02 1.534794999999999909e-01 3.073225000000000051e+01 1.090289999999999964e+02 1.742534999999999854e+03
8.800000000000000877e-02 1.536330000000000195e-01 3.217995000000000516e+01 1.120594999999999999e+02 1.743825000000000045e+03
8.899999999999999578e-02 1.537800000000000000e-01 3.352235000000000298e+01 1.149344999999999999e+02 1.745065000000000055e+03
8.999999999999999667e-02 1.539205000000000156e-01 3.476539999999999964e+01 1.176779999999999973e+02 1.746255000000000109e+03
9.099999999999999756e-02 1.540559999999999985e-01 3.591825000000000045e+01 1.203170000000000073e+02 1.747400000000000091e+03
9.199999999999999845e-02 1.541865000000000041e-01 3.699210000000000065e+01 1.228815000000000026e+02 1.748505000000000109e+03
9.299999999999999933e-02 1.543140000000000067e-01 3.799940000000000140e+01 1.254029999999999916e+02 1.749585000000000036e+03
9.400000000000000022e-02 1.544389999999999930e-01 3.895284999999999798e+01 1.279089999999999918e+02 1.750654999999999973e+03
9.500000000000000111e-02 1.545630000000000059e-01 3.986424999999999841e+01 1.304234999999999900e+02 1.751704999999999927e+03
9.600000000000000200e-02 1.546865000000000046e-01 4.074399999999999977e+01 1.329650000000000034e+02 1.752755000000000109e+03
9.700000000000000289e-02 1.548105000000000175e-01 4.160025000000000261e+01 1.355444999999999993e+02 1.753809999999999945e+03
9.800000000000000377e-02 1.549355000000000038e-01 4.243845000000000312e+01 1.381684999999999945e+02 1.754875000000000000e+03
9.900000000000000466e-02 1.550615000000000188e-01 4.326104999999999734e+01 1.408319999999999936e+02 1.755944999999999936e+03
1.000000000000000056e-01 1.551889999999999936e-01 4.406745000000000090e+01 1.435260000000000105e+02 1.757034999999999854e+03
1.010000000000000064e-01 1.553174999999999972e-01 4.485410000000000252e+01 1.462325000000000159e+02 1.758125000000000000e+03
1.020000000000000073e-01 1.554460000000000008e-01 4.561489999999999867e+01 1.489290000000000020e+02 1.759220000000000027e+03
1.030000000000000082e-01 1.555739999999999901e-01 4.634125000000000227e+01 1.515889999999999986e+02 1.760309999999999945e+03
1.040000000000000091e-01 1.557004999999999917e-01 4.702315000000000111e+01 1.541835000000000093e+02 1.761389999999999873e+03
1.050000000000000100e-01 1.558240000000000181e-01 4.764929999999999666e+01 1.566804999999999950e+02 1.762450000000000045e+03
1.059999999999999970e-01 1.559435000000000127e-01 4.820785000000000053e+01 1.590494999999999948e+02 1.763474999999999909e+03
1.069999999999999979e-01 1.560579999999999745e-01 4.868720000000000425e+01 1.612615000000000123e+02 1.764454999999999927e+03
1.079999999999999988e-01 1.561659999999999993e-01 4.907625000000000171e+01 1.632900000000000205e+02 1.765384999999999991e+03
1.089999999999999997e-01 1.562660000000000160e-01 4.936520000000000152e+01 1.651129999999999995e+02 1.766250000000000000e+03
1.100000000000000006e-01 1.563574999999999826e-01 4.954564999999999486e+01 1.667099999999999795e+02 1.767039999999999964e+03
1.110000000000000014e-01 1.564399999999999957e-01 4.961119999999999663e+01 1.680690000000000168e+02 1.767750000000000000e+03
1.120000000000000023e-01 1.565119999999999845e-01 4.955764999999999532e+01 1.691814999999999998e+02 1.768380000000000109e+03
1.130000000000000032e-01 1.565730000000000177e-01 4.938320000000000221e+01 1.700439999999999827e+02 1.768910000000000082e+03
1.140000000000000041e-01 1.566239999999999855e-01 4.908830000000000382e+01 1.706589999999999918e+02 1.769355000000000018e+03
1.150000000000000050e-01 1.566635000000000111e-01 4.867605000000000359e+01 1.710339999999999918e+02 1.769704999999999927e+03
1.160000000000000059e-01 1.566925000000000123e-01 4.815169999999999817e+01 1.711809999999999832e+02 1.769960000000000036e+03
1.170000000000000068e-01 1.567105000000000026e-01 4.752289999999999992e+01 1.711154999999999973e+02 1.770134999999999991e+03
1.180000000000000077e-01 1.567195000000000116e-01 4.679899999999999949e+01 1.708575000000000159e+02 1.770220000000000027e+03
1.190000000000000085e-01 1.567189999999999972e-01 4.599115000000000464e+01 1.704300000000000068e+02 1.770230000000000018e+03
1.200000000000000094e-01 1.567105000000000026e-01 4.511180000000000234e+01 1.698575000000000159e+02 1.770164999999999964e+03
1.209999999999999964e-01 1.566950000000000010e-01 4.417409999999999570e+01 1.691659999999999968e+02 1.770039999999999964e+03
1.219999999999999973e-01 1.566724999999999923e-01 4.319190000000000396e+01 1.683815000000000168e+02 1.769860000000000127e+03
1.229999999999999982e-01 1.566460000000000075e-01 4.217909999999999826e+01 1.675300000000000011e+02 1.769634999999999991e+03
1.239999999999999991e-01 1.566150000000000042e-01 4.114905000000000257e+01 1.666359999999999957e+02 1.769375000000000000e+03
1.250000000000000000e-01 1.565815000000000123e-01 4.011459999999999582e+01 1.657230000000000132e+02 1.769090000000000146e+03
1.260000000000000009e-01 1.565449999999999897e-01 3.908735000000000070e+01 1.648110000000000070e+02 1.768789999999999964e+03
1.270000000000000018e-01 1.565084999999999948e-01 3.807765000000000555e+01 1.639170000000000016e+02 1.768474999999999909e+03
1.280000000000000027e-01 1.564714999999999856e-01 3.709409999999999741e+01 1.630550000000000068e+02 1.768155000000000200e+03
1.290000000000000036e-01 1.564345000000000041e-01 3.614359999999999928e+01 1.622355000000000018e+02 1.767839999999999918e+03
1.300000000000000044e-01 1.563984999999999959e-01 3.523109999999999786e+01 1.614635000000000105e+02 1.767534999999999854e+03
1.310000000000000053e-01 1.563640000000000030e-01 3.435960000000000036e+01 1.607419999999999902e+02 1.767235000000000127e+03
1.320000000000000062e-01 1.563309999999999977e-01 3.353029999999999688e+01 1.600704999999999814e+02 1.766949999999999818e+03
1.330000000000000071e-01 1.562999999999999945e-01 3.274235000000000184e+01 1.594445000000000050e+02 1.766679999999999836e+03
1.340000000000000080e-01 1.562704999999999789e-01 3.199354999999999905e+01 1.588559999999999945e+02 1.766420000000000073e+03
1.350000000000000089e-01 1.562419999999999920e-01 3.127984999999999616e+01 1.582955000000000041e+02 1.766175000000000182e+03
1.360000000000000098e-01 1.562140000000000195e-01 3.059644999999999726e+01 1.577509999999999764e+02 1.765934999999999945e+03
1.370000000000000107e-01 1.561875000000000069e-01 2.993710000000000093e+01 1.572094999999999914e+02 1.765704999999999927e+03
1.380000000000000115e-01 1.561609999999999943e-01 2.929529999999999745e+01 1.566574999999999989e+02 1.765470000000000027e+03
1.390000000000000124e-01 1.561334999999999806e-01 2.866400000000000148e+01 1.560804999999999723e+02 1.765235000000000127e+03
1.400000000000000133e-01 1.561059999999999948e-01 2.803605000000000302e+01 1.554650000000000034e+02 1.764990000000000009e+03
1.410000000000000142e-01 1.560765000000000069e-01 2.740474999999999994e+01 1.547980000000000018e+02 1.764735000000000127e+03
1.420000000000000151e-01 1.560449999999999893e-01 2.676379999999999981e+01 1.540695000000000050e+02 1.764464999999999918e+03
1.430000000000000160e-01 1.560110000000000108e-01 2.610759999999999792e+01 1.532690000000000055e+02 1.764174999999999955e+03
1.440000000000000169e-01 1.559740000000000015e-01 2.543164999999999765e+01 1.523905000000000030e+02 1.763860000000000127e+03
1.450000000000000178e-01 1.559340000000000170e-01 2.473264999999999958e+01 1.514304999999999950e+02 1.763515000000000100e+03
1.459999999999999909e-01 1.558904999999999874e-01 2.400854999999999961e+01 1.503865000000000123e+02 1.763150000000000091e+03
1.469999999999999918e-01 1.558439999999999825e-01 2.325880000000000081e+01 1.492609999999999957e+02 1.762744999999999891e+03
1.479999999999999927e-01 1.557930000000000148e-01 2.248414999999999964e+01 1.480579999999999927e+02 1.762315000000000055e+03
1.489999999999999936e-01 1.557390000000000163e-01 2.168710000000000093e+01 1.467860000000000014e+02 1.761860000000000127e+03
1.499999999999999944e-01 1.556825000000000014e-01 2.087124999999999986e+01 1.454540000000000077e+02 1.761380000000000109e+03
1.509999999999999953e-01 1.556230000000000113e-01 2.004169999999999874e+01 1.440759999999999934e+02 1.760875000000000000e+03
1.519999999999999962e-01 1.555610000000000048e-01 1.920450000000000301e+01 1.426659999999999968e+02 1.760345000000000027e+03
1.529999999999999971e-01 1.554979999999999973e-01 1.836670000000000158e+01 1.412400000000000091e+02 1.759809999999999945e+03
1.539999999999999980e-01 1.554335000000000022e-01 1.753604999999999947e+01 1.398160000000000025e+02 1.759264999999999873e+03
1.549999999999999989e-01 1.553685000000000205e-01 1.672064999999999912e+01 1.384105000000000132e+02 1.758715000000000146e+03
1.559999999999999998e-01 1.553045000000000120e-01 1.592879999999999896e+01 1.370419999999999732e+02 1.758164999999999964e+03
1.570000000000000007e-01 1.552410000000000179e-01 1.516864999999999952e+01 1.357269999999999754e+02 1.757630000000000109e+03
1.580000000000000016e-01 1.551794999999999980e-01 1.444780000000000086e+01 1.344805000000000064e+02 1.757105000000000018e+03
1.590000000000000024e-01 1.551204999999999945e-01 1.377340000000000053e+01 1.333174999999999955e+02 1.756610000000000127e+03
